SpectraSuite Data File
++++++++++++++++++++++++++++++++++++
Date: Fri May 15 17:26:52 PDT 2015
User: schluterlab
Dark Spectrum Present: Yes
Reference Spectrum Present: Yes
Number of Sampled Component Spectra: 1
Spectrometers: USB2E3373
Integration Time (usec): 3000 (USB2E3373)
Spectra Averaged: 3 (USB2E3373)
Boxcar Smoothing: 0 (USB2E3373)
Correct for Electrical Dark: No (USB2E3373)
Strobe/Lamp Enabled: No (USB2E3373)
Correct for Detector Non-linearity: No (USB2E3373)
Correct for Stray Light: No (USB2E3373)
Number of Pixels in Processed Spectrum: 2048
>>>>>Begin Processed Spectral Data<<<<<
178.53	0.000
178.91	0.000
179.29	112.500
179.67	-100.000
180.04	-57.143
180.42	100.000
180.80	-900.000
181.18	100.000
181.56	-150.000
181.94	50.000
182.31	-0.000
182.69	-120.000
183.07	-266.667
183.45	-100.000
183.83	83.333
184.20	18.182
184.58	-0.000
184.96	-175.000
185.34	66.667
185.72	-700.000
186.09	76.923
186.47	-100.000
186.85	16.667
187.23	44.444
187.61	-500.000
187.98	-133.333
188.36	133.333
188.74	-66.667
189.12	29.412
189.49	16.667
189.87	0.000
190.25	14.286
190.63	450.000
191.00	33.333
191.38	15.789
191.76	650.000
192.14	175.000
192.51	50.000
192.89	88.889
193.27	14.286
193.65	33.333
194.02	154.545
194.40	100.000
194.78	-125.000
195.15	41.667
195.53	62.500
195.91	125.000
196.29	-100.000
196.66	107.692
197.04	185.714
197.42	-44.444
197.79	-466.667
198.17	-100.000
198.55	1000.000
198.92	-300.000
199.30	300.000
199.68	-100.000
200.05	-33.333
200.43	0.000
200.81	-66.667
201.18	100.000
201.56	1000.000
201.94	150.000
202.31	-166.667
202.69	-60.000
203.07	225.000
203.44	1300.000
203.82	0.000
204.19	14.286
204.57	-333.333
204.95	137.500
205.32	40.000
205.70	28.571
206.08	225.000
206.45	133.333
206.83	71.429
207.20	-42.857
207.58	-0.000
207.96	-66.667
208.33	-150.000
208.71	-100.000
209.08	-216.667
209.46	-400.000
209.84	-20.000
210.21	-200.000
210.59	142.857
210.96	-116.667
211.34	-50.000
211.71	13.333
212.09	85.714
212.46	-1200.000
212.84	0.000
213.22	190.000
213.59	250.000
213.97	15.385
214.34	63.636
214.72	-66.667
215.09	275.000
215.47	-46.154
215.84	-81.818
216.22	-100.000
216.59	-50.000
216.97	200.000
217.34	175.000
217.72	-120.000
218.09	50.000
218.47	112.500
218.84	-900.000
219.22	0.000
219.59	-40.000
219.97	533.333
220.34	75.000
220.72	100.000
221.09	-375.000
221.47	650.000
221.84	-550.000
222.22	-750.000
222.59	72.727
222.97	16.667
223.34	0.000
223.72	-7.143
224.09	28.571
224.46	39.286
224.84	-33.333
225.21	-40.000
225.59	60.000
225.96	-100.000
226.34	-25.000
226.71	14.286
227.08	-66.667
227.46	100.000
227.83	-550.000
228.21	11.111
228.58	0.000
228.95	-137.500
229.33	120.000
229.70	37.500
230.08	-25.000
230.45	-57.143
230.82	14.286
231.20	13.333
231.57	100.000
231.95	171.429
232.32	-90.000
232.69	-14.286
233.07	33.333
233.44	-80.000
233.81	-90.000
234.19	-11.111
234.56	-23.529
234.93	-0.000
235.31	50.000
235.68	-300.000
236.05	0.000
236.43	-35.000
236.80	-41.176
237.17	18.750
237.55	-20.000
237.92	-22.222
238.29	11.111
238.67	10.000
239.04	38.235
239.41	9.756
239.79	-23.333
240.16	24.390
240.53	-7.895
240.91	-4.348
241.28	12.698
241.65	19.643
242.02	16.438
242.40	13.333
242.77	6.780
243.14	-3.030
243.51	11.250
243.89	18.391
244.26	5.747
244.63	4.762
245.00	-3.093
245.38	17.526
245.75	-8.989
246.12	0.000
246.49	5.785
246.87	9.615
247.24	-5.042
247.61	-0.877
247.98	4.878
248.36	7.500
248.73	3.289
249.10	1.299
249.47	5.063
249.84	0.654
250.22	7.647
250.59	8.497
250.96	11.737
251.33	4.070
251.70	7.059
252.08	3.553
252.45	5.941
252.82	7.538
253.19	8.295
253.56	0.467
253.94	5.856
254.31	6.522
254.68	10.965
255.05	7.874
255.42	4.367
255.79	7.336
256.16	11.284
256.54	11.567
256.91	0.000
257.28	8.178
257.65	1.124
258.02	4.610
258.39	7.071
258.76	5.861
259.14	8.970
259.51	8.738
259.88	4.124
260.25	3.268
260.62	10.417
260.99	2.034
261.36	0.685
261.73	5.696
262.10	6.383
262.47	7.055
262.85	3.448
263.22	4.923
263.59	5.296
263.96	8.385
264.33	5.152
264.70	2.679
265.07	3.869
265.44	6.799
265.81	5.932
266.18	7.650
266.55	6.427
266.92	5.959
267.29	3.916
267.66	4.604
268.03	8.901
268.40	5.744
268.77	7.754
269.14	6.715
269.51	10.797
269.88	2.993
270.25	5.102
270.62	6.829
270.99	4.604
271.36	4.401
271.73	7.042
272.10	6.813
272.47	6.147
272.84	8.168
273.21	7.657
273.58	7.229
273.95	7.780
274.32	3.926
274.69	3.846
275.06	6.250
275.43	4.535
275.80	4.636
276.17	4.368
276.54	4.711
276.91	7.237
277.28	5.895
277.65	9.091
278.02	5.957
278.39	4.814
278.76	6.499
279.13	4.357
279.50	6.092
279.87	5.616
280.23	5.591
280.60	7.407
280.97	4.646
281.34	6.538
281.71	8.008
282.08	2.863
282.45	3.914
282.82	5.792
283.19	6.770
283.56	7.322
283.92	3.985
284.29	5.192
284.66	5.233
285.03	5.305
285.40	4.915
285.77	6.854
286.14	6.498
286.51	7.565
286.87	5.119
287.24	3.683
287.61	4.233
287.98	6.316
288.35	6.066
288.72	6.830
289.08	4.167
289.45	5.272
289.82	6.294
290.19	3.584
290.56	4.974
290.93	3.704
291.29	4.622
291.66	7.087
292.03	4.944
292.40	6.129
292.77	4.785
293.13	2.922
293.50	4.249
293.87	5.954
294.24	5.410
294.60	5.514
294.97	4.911
295.34	4.601
295.71	4.769
296.08	5.082
296.44	3.556
296.81	4.444
297.18	4.348
297.55	4.878
297.91	5.753
298.28	5.805
298.65	4.613
299.02	3.235
299.38	0.274
299.75	4.966
300.12	4.712
300.48	3.953
300.85	3.676
301.22	4.675
301.59	5.000
301.95	6.076
302.32	5.577
302.69	4.353
303.05	3.960
303.42	3.113
303.79	5.841
304.15	5.496
304.52	2.378
304.89	3.626
305.25	4.722
305.62	3.151
305.99	3.860
306.35	2.775
306.72	2.925
307.09	3.079
307.45	3.904
307.82	3.241
308.19	5.226
308.55	5.016
308.92	4.248
309.29	2.905
309.65	3.660
310.02	2.970
310.38	4.171
310.75	4.809
311.12	4.413
311.48	3.818
311.85	3.560
312.22	3.376
312.58	3.822
312.95	3.735
313.31	2.484
313.68	3.037
314.05	3.163
314.41	4.330
314.78	3.299
315.14	4.008
315.51	2.484
315.87	3.381
316.24	5.763
316.61	4.134
316.97	5.159
317.34	3.223
317.70	3.155
318.07	3.654
318.43	3.529
318.80	3.883
319.16	5.273
319.53	4.843
319.89	3.937
320.26	4.352
320.62	5.115
320.99	3.445
321.35	4.830
321.72	5.088
322.08	5.639
322.45	5.178
322.81	3.635
323.18	4.220
323.54	4.537
323.91	4.479
324.27	4.687
324.64	5.056
325.00	6.022
325.37	5.969
325.73	5.712
326.10	5.631
326.46	5.919
326.83	4.549
327.19	5.667
327.56	5.821
327.92	6.426
328.29	5.000
328.65	5.660
329.01	6.342
329.38	5.806
329.74	5.288
330.11	6.580
330.47	6.122
330.84	6.635
331.20	8.080
331.56	7.407
331.93	7.123
332.29	7.791
332.66	6.787
333.02	6.227
333.38	6.966
333.75	7.601
334.11	6.714
334.48	7.978
334.84	8.333
335.20	6.496
335.57	7.978
335.93	7.769
336.29	7.090
336.66	6.721
337.02	7.063
337.38	6.574
337.75	7.636
338.11	8.115
338.47	7.664
338.84	7.763
339.20	7.495
339.56	6.789
339.93	9.042
340.29	7.615
340.65	9.588
341.02	7.535
341.38	7.611
341.74	7.509
342.11	6.846
342.47	8.185
342.83	8.651
343.20	8.362
343.56	8.696
343.92	7.529
344.28	8.454
344.65	8.031
345.01	8.470
345.37	9.167
345.73	9.289
346.10	9.664
346.46	9.251
346.82	8.674
347.19	8.229
347.55	7.769
347.91	9.061
348.27	8.246
348.63	9.370
349.00	8.368
349.36	7.897
349.72	9.453
350.08	8.115
350.45	9.338
350.81	8.389
351.17	9.039
351.53	8.980
351.89	8.258
352.26	8.240
352.62	8.710
352.98	8.916
353.34	8.615
353.70	9.304
354.07	7.984
354.43	9.367
354.79	8.258
355.15	9.444
355.51	9.731
355.87	8.172
356.24	7.830
356.60	8.892
356.96	9.683
357.32	10.144
357.68	8.366
358.04	9.047
358.40	8.923
358.77	9.410
359.13	9.528
359.49	9.014
359.85	8.502
360.21	8.293
360.57	9.487
360.93	9.607
361.29	8.837
361.66	9.796
362.02	10.076
362.38	9.977
362.74	9.311
363.10	9.556
363.46	9.044
363.82	9.992
364.18	9.889
364.54	9.706
364.90	10.896
365.26	9.389
365.62	9.708
365.98	10.264
366.35	10.852
366.71	9.017
367.07	10.740
367.43	8.483
367.79	10.601
368.15	9.907
368.51	10.124
368.87	9.620
369.23	10.181
369.59	9.621
369.95	10.630
370.31	10.477
370.67	9.776
371.03	9.933
371.39	10.139
371.75	10.842
372.11	10.342
372.47	10.355
372.83	11.568
373.19	10.556
373.55	11.047
373.91	10.943
374.27	11.410
374.63	10.409
374.99	10.922
375.35	11.072
375.71	11.608
376.07	10.604
376.42	10.340
376.78	11.678
377.14	11.171
377.50	11.487
377.86	11.714
378.22	10.785
378.58	11.346
378.94	11.090
379.30	12.102
379.66	11.536
380.02	10.914
380.38	11.503
380.74	11.730
381.09	12.454
381.45	11.682
381.81	12.153
382.17	12.183
382.53	11.680
382.89	11.488
383.25	11.886
383.61	13.354
383.97	11.302
384.32	12.758
384.68	12.384
385.04	12.561
385.40	11.512
385.76	13.208
386.12	12.807
386.48	13.665
386.83	12.746
387.19	13.431
387.55	13.300
387.91	12.653
388.27	12.943
388.62	13.090
388.98	12.953
389.34	13.679
389.70	13.922
390.06	11.894
390.42	12.111
390.77	12.950
391.13	12.736
391.49	13.583
391.85	13.255
392.20	13.685
392.56	12.905
392.92	13.212
393.28	14.741
393.64	13.273
393.99	14.734
394.35	13.219
394.71	14.112
395.07	12.759
395.42	13.115
395.78	14.267
396.14	13.493
396.50	13.760
396.85	13.909
397.21	13.784
397.57	13.918
397.92	14.080
398.28	13.966
398.64	13.554
399.00	14.391
399.35	13.488
399.71	13.326
400.07	14.087
400.42	14.565
400.78	15.064
401.14	14.277
401.49	15.664
401.85	14.321
402.21	14.518
402.57	14.500
402.92	14.555
403.28	14.662
403.63	15.006
403.99	13.903
404.35	15.365
404.70	14.167
405.06	14.336
405.42	15.289
405.77	14.410
406.13	14.144
406.49	14.269
406.84	14.976
407.20	14.810
407.55	14.359
407.91	13.971
408.27	14.659
408.62	14.646
408.98	14.972
409.34	15.056
409.69	14.276
410.05	15.209
410.40	14.815
410.76	15.561
411.11	14.750
411.47	15.253
411.83	14.689
412.18	15.380
412.54	14.981
412.89	15.148
413.25	15.824
413.60	15.652
413.96	14.479
414.31	14.939
414.67	14.945
415.03	14.980
415.38	14.426
415.74	16.091
416.09	15.284
416.45	14.990
416.80	14.805
417.16	15.953
417.51	15.590
417.87	15.580
418.22	15.868
418.58	14.582
418.93	15.862
419.29	14.533
419.64	14.971
420.00	16.625
420.35	15.761
420.71	15.978
421.06	15.347
421.42	14.844
421.77	14.971
422.12	15.834
422.48	15.593
422.83	16.009
423.19	14.842
423.54	14.815
423.90	15.783
424.25	15.212
424.61	15.973
424.96	15.447
425.31	16.869
425.67	15.904
426.02	16.137
426.38	16.907
426.73	15.981
427.09	17.025
427.44	17.000
427.79	16.735
428.15	16.869
428.50	16.838
428.85	15.909
429.21	16.695
429.56	16.334
429.92	17.411
430.27	16.291
430.62	16.100
430.98	16.454
431.33	17.350
431.68	16.013
432.04	16.210
432.39	16.144
432.74	16.476
433.10	17.241
433.45	16.547
433.80	17.411
434.16	15.512
434.51	16.882
434.86	16.318
435.22	16.769
435.57	16.469
435.92	17.246
436.28	16.518
436.63	16.315
436.98	15.817
437.34	16.576
437.69	16.041
438.04	16.239
438.39	16.371
438.75	17.365
439.10	16.469
439.45	16.859
439.81	16.820
440.16	17.162
440.51	17.791
440.86	18.369
441.22	17.308
441.57	16.722
441.92	17.314
442.27	17.129
442.63	17.827
442.98	16.715
443.33	17.529
443.68	17.241
444.03	17.784
444.39	17.167
444.74	17.614
445.09	17.372
445.44	17.322
445.79	18.205
446.15	17.126
446.50	17.748
446.85	17.163
447.20	17.727
447.55	17.913
447.91	17.936
448.26	17.871
448.61	17.617
448.96	17.785
449.31	17.341
449.66	16.957
450.02	18.369
450.37	17.546
450.72	17.068
451.07	17.975
451.42	16.854
451.77	18.385
452.12	17.524
452.47	18.480
452.83	17.962
453.18	17.963
453.53	18.078
453.88	17.608
454.23	18.316
454.58	17.884
454.93	18.557
455.28	17.333
455.63	18.351
455.98	18.160
456.34	17.816
456.69	18.424
457.04	19.093
457.39	17.375
457.74	17.533
458.09	17.834
458.44	17.496
458.79	18.039
459.14	18.249
459.49	18.388
459.84	17.597
460.19	17.597
460.54	18.399
460.89	18.182
461.24	18.012
461.59	17.518
461.94	18.050
462.29	18.275
462.64	17.940
462.99	17.942
463.34	18.359
463.69	18.468
464.04	18.281
464.39	18.435
464.74	17.362
465.09	18.403
465.44	18.927
465.79	18.311
466.14	18.529
466.49	17.999
466.84	18.501
467.19	18.148
467.54	17.816
467.89	18.636
468.24	18.674
468.59	19.111
468.94	17.460
469.29	18.885
469.64	18.865
469.99	19.131
470.34	18.089
470.68	19.239
471.03	18.967
471.38	19.044
471.73	18.697
472.08	17.843
472.43	18.926
472.78	18.574
473.13	18.571
473.48	18.371
473.83	18.804
474.17	19.301
474.52	18.443
474.87	19.030
475.22	18.487
475.57	18.521
475.92	19.144
476.27	19.325
476.61	18.924
476.96	17.568
477.31	19.200
477.66	18.820
478.01	18.417
478.36	18.791
478.70	19.521
479.05	19.670
479.40	19.396
479.75	18.300
480.10	19.252
480.45	19.150
480.79	19.184
481.14	19.416
481.49	18.079
481.84	18.292
482.19	18.990
482.53	19.281
482.88	18.998
483.23	18.954
483.58	18.585
483.92	18.248
484.27	19.325
484.62	18.826
484.97	18.325
485.31	18.678
485.66	17.464
486.01	17.207
486.36	17.109
486.70	17.604
487.05	17.646
487.40	17.994
487.75	18.338
488.09	18.665
488.44	18.913
488.79	19.014
489.13	19.551
489.48	19.111
489.83	19.238
490.17	19.730
490.52	18.938
490.87	18.880
491.22	19.819
491.56	18.975
491.91	19.598
492.26	19.786
492.60	19.626
492.95	20.315
493.30	19.248
493.64	20.138
493.99	19.372
494.34	18.398
494.68	19.571
495.03	18.589
495.37	19.333
495.72	20.242
496.07	20.098
496.41	19.575
496.76	19.438
497.11	19.190
497.45	19.523
497.80	19.576
498.14	19.573
498.49	19.248
498.84	19.611
499.18	19.829
499.53	20.188
499.87	19.796
500.22	19.733
500.56	19.314
500.91	18.926
501.26	19.970
501.60	19.429
501.95	19.796
502.29	19.855
502.64	19.643
502.98	19.240
503.33	19.260
503.67	19.518
504.02	19.746
504.36	20.386
504.71	19.596
505.06	19.678
505.40	19.848
505.75	19.381
506.09	20.122
506.44	20.072
506.78	20.051
507.13	20.631
507.47	19.896
507.82	19.017
508.16	19.599
508.51	20.829
508.85	19.571
509.19	20.117
509.54	20.322
509.88	20.550
510.23	20.387
510.57	19.936
510.92	19.670
511.26	20.786
511.61	20.132
511.95	19.836
512.30	21.231
512.64	20.924
512.98	20.943
513.33	20.761
513.67	20.523
514.02	21.110
514.36	21.600
514.70	21.270
515.05	21.622
515.39	21.192
515.74	21.317
516.08	21.399
516.42	21.437
516.77	21.123
517.11	21.602
517.46	21.544
517.80	21.037
518.14	22.107
518.49	21.334
518.83	21.750
519.17	20.800
519.52	21.906
519.86	21.549
520.20	22.175
520.55	21.826
520.89	22.585
521.23	21.786
521.58	22.965
521.92	22.179
522.26	22.576
522.61	22.468
522.95	22.914
523.29	21.982
523.64	22.300
523.98	22.294
524.32	22.036
524.66	23.239
525.01	23.896
525.35	22.294
525.69	21.414
526.04	21.958
526.38	22.957
526.72	21.714
527.06	23.087
527.41	22.889
527.75	23.123
528.09	23.389
528.43	22.890
528.78	22.640
529.12	22.710
529.46	22.547
529.80	22.926
530.15	23.564
530.49	22.828
530.83	22.640
531.17	22.498
531.51	23.871
531.86	22.978
532.20	22.965
532.54	23.009
532.88	22.861
533.22	23.522
533.57	22.936
533.91	22.650
534.25	23.177
534.59	22.258
534.93	22.404
535.27	21.891
535.62	22.618
535.96	23.027
536.30	23.153
536.64	22.881
536.98	23.693
537.32	24.751
537.66	23.492
538.01	23.217
538.35	22.607
538.69	23.036
539.03	22.351
539.37	23.082
539.71	22.359
540.05	22.403
540.39	23.753
540.73	22.315
541.07	23.204
541.42	23.185
541.76	23.469
542.10	23.331
542.44	23.002
542.78	21.060
543.12	22.390
543.46	23.018
543.80	23.040
544.14	22.163
544.48	24.250
544.82	23.718
545.16	23.361
545.50	23.431
545.84	23.725
546.18	25.248
546.52	24.513
546.86	24.443
547.20	24.320
547.54	23.322
547.88	24.117
548.22	22.354
548.56	22.164
548.90	23.585
549.24	22.658
549.58	23.554
549.92	22.873
550.26	23.297
550.60	24.312
550.94	23.226
551.28	24.498
551.62	23.692
551.96	23.158
552.30	22.661
552.64	23.836
552.98	24.121
553.32	23.538
553.66	23.367
554.00	23.942
554.34	24.594
554.68	24.410
555.02	25.149
555.36	23.710
555.69	23.004
556.03	23.840
556.37	23.701
556.71	24.404
557.05	24.161
557.39	22.825
557.73	23.988
558.07	24.661
558.41	23.047
558.75	23.772
559.08	23.404
559.42	23.968
559.76	25.620
560.10	24.388
560.44	23.976
560.78	22.727
561.12	23.625
561.45	25.018
561.79	24.020
562.13	24.911
562.47	23.381
562.81	23.559
563.15	24.542
563.48	24.187
563.82	25.189
564.16	24.513
564.50	23.446
564.84	24.096
565.17	23.608
565.51	24.112
565.85	23.320
566.19	25.531
566.52	23.525
566.86	23.843
567.20	23.537
567.54	23.114
567.88	24.253
568.21	24.604
568.55	23.261
568.89	23.460
569.23	23.014
569.56	22.023
569.90	22.412
570.24	20.990
570.57	21.527
570.91	21.471
571.25	20.552
571.59	21.333
571.92	20.533
572.26	20.864
572.60	20.682
572.93	21.243
573.27	21.003
573.61	21.390
573.95	20.890
574.28	20.392
574.62	20.315
574.96	20.294
575.29	20.520
575.63	19.902
575.97	20.439
576.30	20.832
576.64	20.556
576.98	20.978
577.31	20.447
577.65	20.390
577.98	20.118
578.32	20.083
578.66	20.052
578.99	20.262
579.33	20.410
579.67	20.187
580.00	20.734
580.34	20.572
580.67	20.079
581.01	20.605
581.35	20.069
581.68	19.839
582.02	19.839
582.35	20.000
582.69	20.121
583.02	20.444
583.36	20.937
583.70	21.521
584.03	21.546
584.37	21.683
584.70	21.374
585.04	21.399
585.37	21.057
585.71	20.118
586.04	21.029
586.38	21.072
586.72	21.463
587.05	21.028
587.39	21.079
587.72	21.350
588.06	20.869
588.39	21.447
588.73	21.429
589.06	21.885
589.40	21.604
589.73	22.198
590.07	22.319
590.40	22.833
590.73	22.611
591.07	22.689
591.40	22.440
591.74	22.805
592.07	23.284
592.41	22.880
592.74	22.023
593.08	21.167
593.41	21.614
593.75	21.492
594.08	21.765
594.41	21.252
594.75	21.298
595.08	21.907
595.42	22.010
595.75	22.794
596.09	22.439
596.42	22.943
596.75	23.091
597.09	23.462
597.42	23.261
597.75	23.087
598.09	22.589
598.42	22.247
598.76	22.651
599.09	22.115
599.42	21.296
599.76	22.122
600.09	21.833
600.42	21.607
600.76	21.397
601.09	21.832
601.42	21.543
601.76	21.397
602.09	22.401
602.42	23.505
602.76	22.920
603.09	22.259
603.42	23.579
603.76	22.298
604.09	22.114
604.42	23.350
604.76	23.409
605.09	22.898
605.42	22.348
605.75	22.723
606.09	22.251
606.42	21.810
606.75	22.381
607.09	22.725
607.42	22.419
607.75	22.647
608.08	21.923
608.42	22.156
608.75	24.000
609.08	22.671
609.41	22.995
609.75	23.437
610.08	23.864
610.41	22.754
610.74	23.354
611.07	23.979
611.41	23.041
611.74	24.254
612.07	23.662
612.40	23.961
612.73	23.785
613.07	23.791
613.40	23.414
613.73	23.447
614.06	24.096
614.39	24.027
614.72	23.193
615.06	22.626
615.39	23.526
615.72	22.874
616.05	23.575
616.38	23.134
616.71	23.731
617.05	24.521
617.38	24.764
617.71	24.277
618.04	24.698
618.37	25.095
618.70	25.017
619.03	25.000
619.36	24.385
619.69	26.308
620.03	26.443
620.36	25.250
620.69	25.410
621.02	25.612
621.35	25.975
621.68	27.806
622.01	26.500
622.34	26.417
622.67	26.420
623.00	26.034
623.33	25.686
623.66	25.131
623.99	26.097
624.32	26.616
624.65	24.662
624.99	25.809
625.32	25.701
625.65	27.416
625.98	26.189
626.31	26.101
626.64	27.296
626.97	27.749
627.30	26.182
627.63	26.343
627.96	26.774
628.29	27.660
628.62	28.614
628.95	27.756
629.28	27.319
629.61	27.418
629.94	28.837
630.26	25.889
630.59	29.032
630.92	28.718
631.25	25.641
631.58	28.084
631.91	27.851
632.24	27.867
632.57	28.523
632.90	28.351
633.23	29.882
633.56	27.960
633.89	27.620
634.22	30.247
634.55	30.623
634.88	28.480
635.20	28.205
635.53	30.000
635.86	30.039
636.19	31.048
636.52	29.719
636.85	27.419
637.18	27.799
637.51	28.931
637.83	29.172
638.16	32.606
638.49	28.610
638.82	32.500
639.15	30.665
639.48	30.812
639.81	29.986
640.13	30.447
640.46	30.612
640.79	31.517
641.12	30.724
641.45	30.931
641.77	32.444
642.10	31.280
642.43	31.511
642.76	34.158
643.09	31.987
643.41	30.097
643.74	32.455
644.07	33.169
644.40	33.108
644.73	34.851
645.05	33.725
645.38	34.215
645.71	33.156
646.04	34.470
646.36	34.043
646.69	33.094
647.02	33.648
647.35	32.649
647.67	32.907
648.00	33.209
648.33	31.741
648.66	33.220
648.98	31.323
649.31	29.917
649.64	31.711
649.96	30.632
650.29	32.198
650.62	31.282
650.94	33.889
651.27	32.775
651.60	33.333
651.92	31.643
652.25	29.663
652.58	31.833
652.90	32.075
653.23	30.420
653.56	32.149
653.88	30.756
654.21	27.671
654.54	30.560
654.86	34.465
655.19	29.971
655.52	26.935
655.84	20.739
656.17	22.209
656.49	30.278
656.82	32.368
657.15	24.972
657.47	19.385
657.80	14.417
658.13	14.755
658.45	23.314
658.78	24.431
659.10	25.084
659.43	25.895
659.75	28.120
660.08	28.759
660.41	30.337
660.73	31.077
661.06	32.409
661.38	31.898
661.71	32.238
662.03	35.408
662.36	34.945
662.68	31.858
663.01	33.843
663.33	35.499
663.66	35.116
663.98	33.953
664.31	34.115
664.63	32.949
664.96	31.304
665.28	30.905
665.61	34.632
665.93	32.174
666.26	34.924
666.58	33.333
666.91	33.176
667.23	34.434
667.56	33.886
667.88	33.333
668.21	34.129
668.53	36.170
668.86	34.198
669.18	35.377
669.50	35.593
669.83	32.558
670.15	35.431
670.48	33.732
670.80	34.101
671.13	35.347
671.45	31.507
671.77	34.120
672.10	32.673
672.42	29.775
672.75	33.393
673.07	31.485
673.39	33.394
673.72	25.838
674.04	33.542
674.37	30.297
674.69	29.979
675.01	30.667
675.34	32.658
675.66	34.259
675.98	33.925
676.31	33.257
676.63	33.017
676.95	31.818
677.28	36.941
677.60	34.940
677.92	35.780
678.25	33.479
678.57	29.221
678.89	31.303
679.22	34.004
679.54	29.920
679.86	29.622
680.18	30.291
680.51	31.250
680.83	31.213
681.15	32.200
681.48	34.426
681.80	33.058
682.12	33.669
682.44	34.937
682.77	35.982
683.09	35.927
683.41	33.864
683.73	32.488
684.06	34.956
684.38	29.677
684.70	34.205
685.02	30.290
685.34	31.818
685.67	30.394
685.99	32.188
686.31	29.912
686.63	31.540
686.96	28.897
687.28	30.101
687.60	30.038
687.92	31.717
688.24	33.065
688.56	30.568
688.89	33.036
689.21	32.222
689.53	33.875
689.85	29.535
690.17	32.589
690.49	33.570
690.82	32.524
691.14	28.571
691.46	32.710
691.78	31.306
692.10	33.333
692.42	30.952
692.74	33.547
693.06	27.252
693.39	30.317
693.71	29.186
694.03	29.792
694.35	31.308
694.67	32.071
694.99	31.332
695.31	34.726
695.63	37.000
695.95	30.808
696.27	31.865
696.59	33.333
696.91	34.174
697.23	31.620
697.56	31.931
697.88	31.613
698.20	31.435
698.52	32.471
698.84	27.512
699.16	30.500
699.48	33.333
699.80	32.258
700.12	33.423
700.44	31.653
700.76	34.012
701.08	30.303
701.40	32.229
701.72	37.346
702.04	31.683
702.36	33.445
702.68	33.333
703.00	30.303
703.32	34.018
703.64	32.203
703.96	34.493
704.28	35.276
704.60	35.556
704.91	30.284
705.23	36.545
705.55	39.576
705.87	33.935
706.19	30.370
706.51	39.863
706.83	38.264
707.15	30.841
707.47	33.613
707.79	29.427
708.11	31.000
708.43	31.500
708.74	31.008
709.06	32.958
709.38	30.887
709.70	34.024
710.02	31.847
710.34	34.365
710.66	28.526
710.98	31.788
711.29	34.098
711.61	31.186
711.93	37.459
712.25	37.801
712.57	34.799
712.89	32.463
713.20	35.294
713.52	35.192
713.84	37.201
714.16	34.021
714.48	33.548
714.80	38.141
715.11	31.915
715.43	30.721
715.75	33.000
716.07	26.578
716.39	35.235
716.70	32.841
717.02	36.641
717.34	37.247
717.66	36.726
717.97	34.783
718.29	35.146
718.61	36.220
718.93	33.721
719.24	33.840
719.56	39.357
719.88	35.052
720.20	35.985
720.51	31.418
720.83	31.660
721.15	35.714
721.46	37.500
721.78	26.087
722.10	35.316
722.42	31.535
722.73	33.878
723.05	35.918
723.37	35.169
723.68	39.640
724.00	35.897
724.32	33.778
724.63	35.909
724.95	34.061
725.27	35.023
725.58	30.932
725.90	29.762
726.22	35.907
726.53	26.780
726.85	33.708
727.16	32.453
727.48	33.603
727.80	37.247
728.11	31.356
728.43	28.235
728.74	29.435
729.06	32.000
729.38	36.090
729.69	28.287
730.01	31.538
730.32	30.224
730.64	30.035
730.96	32.453
731.27	33.333
731.59	29.153
731.90	31.847
732.22	34.385
732.53	33.223
732.85	27.305
733.16	35.017
733.48	25.540
733.80	33.333
734.11	28.814
734.43	31.615
734.74	30.303
735.06	28.013
735.37	29.003
735.69	33.333
736.00	25.784
736.32	29.530
736.63	31.338
736.95	33.788
737.26	28.470
737.58	29.195
737.89	27.473
738.21	34.211
738.52	32.099
738.83	27.948
739.15	27.948
739.46	35.827
739.78	22.344
740.09	30.719
740.41	27.899
740.72	29.134
741.04	31.984
741.35	31.489
741.66	32.701
741.98	37.245
742.29	33.168
742.61	29.319
742.92	28.910
743.23	26.852
743.55	34.842
743.86	35.407
744.18	32.536
744.49	34.574
744.80	37.500
745.12	32.086
745.43	33.659
745.74	32.292
746.06	33.171
746.37	30.366
746.68	37.441
747.00	34.043
747.31	40.299
747.62	34.951
747.94	34.928
748.25	35.149
748.56	31.148
748.88	34.555
749.19	32.447
749.50	36.946
749.82	28.774
750.13	29.358
750.44	35.714
750.75	30.970
751.07	35.766
751.38	29.885
751.69	25.882
752.01	34.109
752.32	31.873
752.63	34.387
752.94	29.310
753.26	38.912
753.57	28.507
753.88	36.726
754.19	28.333
754.51	32.231
754.82	30.769
755.13	41.667
755.44	34.274
755.75	31.250
756.07	35.409
756.38	30.189
756.69	31.418
757.00	28.667
757.31	30.392
757.63	26.829
757.94	26.111
758.25	26.575
758.56	25.798
758.87	24.079
759.18	29.907
759.50	26.909
759.81	35.452
760.12	31.290
760.43	27.576
760.74	29.938
761.05	29.846
761.36	27.557
761.67	31.515
761.99	34.694
762.30	28.364
762.61	31.621
762.92	32.127
763.23	30.631
763.54	30.841
763.85	35.169
764.16	31.120
764.47	28.226
764.78	29.304
765.10	34.680
765.41	28.076
765.72	31.746
766.03	27.444
766.34	28.102
766.65	34.263
766.96	34.848
767.27	35.638
767.58	33.333
767.89	33.333
768.20	31.818
768.51	31.319
768.82	31.034
769.13	26.728
769.44	30.043
769.75	31.963
770.06	28.448
770.37	25.481
770.68	29.949
770.99	30.769
771.30	35.294
771.61	30.769
771.92	34.052
772.23	34.975
772.54	38.172
772.85	33.333
773.16	29.213
773.47	33.333
773.78	30.065
774.09	28.743
774.39	34.667
774.70	35.669
775.01	35.172
775.32	30.000
775.63	28.926
775.94	29.008
776.25	40.157
776.56	30.000
776.87	44.231
777.18	24.786
777.48	41.379
777.79	28.696
778.10	22.857
778.41	33.333
778.72	34.127
779.03	30.075
779.34	34.752
779.65	30.822
779.95	29.452
780.26	38.621
780.57	30.894
780.88	32.283
781.19	29.310
781.50	31.783
781.80	38.462
782.11	30.818
782.42	37.692
782.73	28.058
783.04	34.074
783.34	27.083
783.65	10.256
783.96	31.967
784.27	33.103
784.57	34.959
784.88	28.906
785.19	35.000
785.50	38.000
785.81	39.655
786.11	31.034
786.42	30.097
786.73	40.000
787.04	24.490
787.34	33.929
787.65	30.476
787.96	24.779
788.26	36.364
788.57	26.496
788.88	32.031
789.19	35.714
789.49	33.043
789.80	41.837
790.11	28.283
790.41	38.182
790.72	39.130
791.03	47.727
791.33	41.250
791.64	27.500
791.95	31.395
792.25	32.979
792.56	44.944
792.87	21.918
793.17	34.783
793.48	22.667
793.79	28.750
794.09	27.500
794.40	34.906
794.70	19.417
795.01	26.829
795.32	23.077
795.62	27.619
795.93	34.314
796.23	42.453
796.54	29.167
796.85	39.706
797.15	28.169
797.46	34.722
797.76	45.455
798.07	20.930
798.37	17.105
798.68	34.848
798.99	32.099
799.29	34.286
799.60	13.043
799.90	25.333
800.21	21.311
800.51	33.846
800.82	61.017
801.12	28.986
801.43	32.787
801.73	52.381
802.04	44.000
802.34	19.403
802.65	26.923
802.95	21.429
803.26	32.692
803.56	49.020
803.87	21.739
804.17	37.333
804.48	42.857
804.78	18.519
805.09	28.261
805.39	35.556
805.70	35.185
806.00	14.035
806.30	36.620
806.61	31.429
806.91	25.000
807.22	31.579
807.52	42.667
807.83	23.636
808.13	34.722
808.43	32.353
808.74	14.925
809.04	42.373
809.35	40.385
809.65	31.250
809.95	32.432
810.26	43.182
810.56	36.986
810.86	16.667
811.17	30.000
811.47	34.694
811.77	26.316
812.08	27.273
812.38	24.528
812.69	42.500
812.99	21.212
813.29	31.579
813.59	17.143
813.90	40.909
814.20	12.821
814.50	38.462
814.81	41.509
815.11	25.532
815.41	27.119
815.72	38.095
816.02	33.333
816.32	50.000
816.62	56.098
816.93	24.324
817.23	31.429
817.53	47.917
817.84	21.739
818.14	36.538
818.44	0.000
818.74	32.609
819.04	5.000
819.35	48.649
819.65	52.941
819.95	38.889
820.25	23.810
820.56	57.500
820.86	-20.690
821.16	62.500
821.46	42.553
821.76	40.000
822.07	32.558
822.37	0.000
822.67	31.250
822.97	64.286
823.27	14.286
823.57	40.000
823.88	-7.407
824.18	32.143
824.48	35.294
824.78	12.903
825.08	0.000
825.38	60.606
825.69	0.000
825.99	5.263
826.29	25.000
826.59	-13.333
826.89	-4.762
827.19	34.783
827.49	20.000
827.79	22.857
828.09	35.714
828.39	39.394
828.70	48.649
829.00	32.143
829.30	19.048
829.60	13.333
829.90	21.875
830.20	13.158
830.50	18.519
830.80	26.087
831.10	45.455
831.40	42.424
831.70	35.484
832.00	28.571
832.30	-4.762
832.60	33.333
832.90	37.931
833.20	10.000
833.50	45.455
833.80	-3.704
834.10	73.077
834.40	65.625
834.70	88.889
835.00	15.789
835.30	34.615
835.60	33.333
835.90	51.613
836.20	31.818
836.50	53.571
836.80	-3.846
837.10	57.143
837.40	133.333
837.70	-9.091
838.00	27.273
838.30	-4.348
838.60	53.846
838.90	50.000
839.19	35.714
839.49	40.000
839.79	53.846
840.09	-16.667
840.39	35.714
840.69	21.429
840.99	23.077
841.29	31.579
841.59	100.000
841.88	100.000
842.18	80.000
842.48	68.750
842.78	60.000
843.08	33.333
843.38	-50.000
843.68	65.217
843.97	53.333
844.27	6.667
844.57	15.000
844.87	22.222
845.17	-9.524
845.47	33.333
845.76	33.333
846.06	41.176
846.36	10.000
846.66	-14.286
846.96	66.667
847.25	-62.500
847.55	85.714
847.85	-25.000
848.15	0.000
848.44	-533.333
848.74	40.000
849.04	37.037
849.34	81.818
849.63	-100.000
849.93	-140.000
850.23	0.000
850.53	20.000
850.82	30.769
851.12	0.000
851.42	113.333
851.71	19.231
852.01	42.857
852.31	-100.000
852.61	-45.455
852.90	50.000
853.20	68.421
853.50	58.333
853.79	65.217
854.09	70.833
854.39	-36.842
854.68	8.333
854.98	35.484
855.28	26.923
855.57	45.000
855.87	16.667
856.17	11.111
856.46	14.286
856.76	20.000
857.05	11.111
857.35	36.000
857.65	55.556
857.94	38.462
858.24	31.034
858.53	55.556
858.83	66.667
859.13	45.455
859.42	8.696
859.72	-50.000
860.01	-66.667
860.31	52.000
860.60	4.762
860.90	-66.667
861.20	-53.333
861.49	-500.000
861.79	26.667
862.08	10.000
862.38	73.333
862.67	-100.000
862.97	33.333
863.26	100.000
863.56	61.111
863.85	-433.333
864.15	22.222
864.44	-50.000
864.74	50.000
865.03	100.000
865.33	-160.000
865.62	-50.000
865.92	-41.667
866.21	33.333
866.51	18.750
866.80	-45.455
867.10	-100.000
867.39	83.333
867.69	0.000
867.98	-7.692
868.27	0.000
868.57	20.000
868.86	33.333
869.16	7.692
869.45	93.333
869.75	-300.000
870.04	0.000
870.33	100.000
870.63	38.095
870.92	-33.333
871.22	20.000
871.51	-900.000
871.80	166.667
872.10	200.000
>>>>>End Processed Spectral Data<<<<<
