SpectraSuite Data File
++++++++++++++++++++++++++++++++++++
Date: Fri May 15 17:17:18 PDT 2015
User: schluterlab
Dark Spectrum Present: Yes
Reference Spectrum Present: Yes
Number of Sampled Component Spectra: 1
Spectrometers: USB2E3373
Integration Time (usec): 3000 (USB2E3373)
Spectra Averaged: 3 (USB2E3373)
Boxcar Smoothing: 0 (USB2E3373)
Correct for Electrical Dark: No (USB2E3373)
Strobe/Lamp Enabled: No (USB2E3373)
Correct for Detector Non-linearity: No (USB2E3373)
Correct for Stray Light: No (USB2E3373)
Number of Pixels in Processed Spectrum: 2048
>>>>>Begin Processed Spectral Data<<<<<
178.53	0.000
178.91	0.000
179.29	225.000
179.67	300.000
180.04	-128.571
180.42	250.000
180.80	1400.000
181.18	-266.667
181.56	300.000
181.94	250.000
182.31	-200.000
182.69	240.000
183.07	0.000
183.45	300.000
183.83	-133.333
184.20	45.455
184.58	11.111
184.96	-200.000
185.34	-166.667
185.72	50.000
186.09	69.231
186.47	900.000
186.85	16.667
187.23	100.000
187.61	-800.000
187.98	66.667
188.36	66.667
188.74	-33.333
189.12	117.647
189.49	27.778
189.87	0.000
190.25	100.000
190.63	50.000
191.00	66.667
191.38	26.316
191.76	400.000
192.14	25.000
192.51	-50.000
192.89	66.667
193.27	85.714
193.65	100.000
194.02	127.273
194.40	30.000
194.78	-12.500
195.15	33.333
195.53	25.000
195.91	-225.000
196.29	175.000
196.66	15.385
197.04	14.286
197.42	55.556
197.79	-66.667
198.17	0.000
198.55	600.000
198.92	-33.333
199.30	300.000
199.68	260.000
200.05	-266.667
200.43	0.000
200.81	33.333
201.18	100.000
201.56	800.000
201.94	-50.000
202.31	-233.333
202.69	-40.000
203.07	50.000
203.44	800.000
203.82	0.000
204.19	57.143
204.57	-266.667
204.95	87.500
205.32	90.000
205.70	114.286
206.08	300.000
206.45	222.222
206.83	85.714
207.20	-142.857
207.58	100.000
207.96	-100.000
208.33	-80.000
208.71	275.000
209.08	-83.333
209.46	600.000
209.84	180.000
210.21	500.000
210.59	14.286
210.96	166.667
211.34	225.000
211.71	6.667
212.09	-14.286
212.46	-800.000
212.84	0.000
213.22	240.000
213.59	400.000
213.97	53.846
214.34	190.909
214.72	0.000
215.09	-25.000
215.47	7.692
215.84	45.455
216.22	-300.000
216.59	62.500
216.97	550.000
217.34	175.000
217.72	-180.000
218.09	125.000
218.47	-12.500
218.84	-500.000
219.22	-55.556
219.59	120.000
219.97	33.333
220.34	250.000
220.72	71.429
221.09	100.000
221.47	200.000
221.84	-50.000
222.22	250.000
222.59	127.273
222.97	0.000
223.34	100.000
223.72	21.429
224.09	71.429
224.46	21.429
224.84	66.667
225.21	160.000
225.59	73.333
225.96	350.000
226.34	425.000
226.71	14.286
227.08	50.000
227.46	-25.000
227.83	-150.000
228.21	66.667
228.58	63.636
228.95	-100.000
229.33	80.000
229.70	75.000
230.08	-37.500
230.45	-114.286
230.82	57.143
231.20	13.333
231.57	21.429
231.95	57.143
232.32	30.000
232.69	64.286
233.07	66.667
233.44	40.000
233.81	40.000
234.19	33.333
234.56	23.529
234.93	200.000
235.31	-25.000
235.68	0.000
236.05	-23.077
236.43	10.000
236.80	47.059
237.17	59.375
237.55	45.000
237.92	22.222
238.29	27.778
238.67	16.667
239.04	14.706
239.41	-9.756
239.79	-6.667
240.16	17.073
240.53	28.947
240.91	2.174
241.28	20.635
241.65	25.000
242.02	27.397
242.40	20.000
242.77	16.949
243.14	-7.576
243.51	17.500
243.89	21.839
244.26	4.598
244.63	19.048
245.00	13.402
245.38	25.773
245.75	5.618
246.12	6.034
246.49	9.091
246.87	21.154
247.24	11.765
247.61	5.263
247.98	16.260
248.36	11.250
248.73	8.553
249.10	5.195
249.47	7.595
249.84	11.765
250.22	12.353
250.59	7.190
250.96	13.146
251.33	6.395
251.70	11.176
252.08	8.629
252.45	9.901
252.82	10.050
253.19	14.286
253.56	12.617
253.94	14.414
254.31	10.870
254.68	11.842
255.05	11.811
255.42	15.284
255.79	12.741
256.16	18.677
256.54	11.940
256.91	11.027
257.28	12.268
257.65	11.985
258.02	12.057
258.39	11.785
258.76	12.821
259.14	11.296
259.51	11.974
259.88	12.715
260.25	10.131
260.62	13.889
260.99	10.169
261.36	9.589
261.73	10.127
262.10	15.198
262.47	11.963
262.85	9.404
263.22	13.846
263.59	13.084
263.96	17.391
264.33	13.333
264.70	11.012
265.07	10.119
265.44	9.632
265.81	11.582
266.18	10.929
266.55	14.396
266.92	16.321
267.29	11.488
267.66	10.997
268.03	12.565
268.40	10.183
268.77	12.834
269.14	10.552
269.51	12.339
269.88	12.718
270.25	10.204
270.62	11.707
270.99	12.020
271.36	12.958
271.73	12.441
272.10	12.409
272.47	11.348
272.84	12.871
273.21	13.225
273.58	13.253
273.95	10.984
274.32	10.162
274.69	8.145
275.06	12.946
275.43	9.524
275.80	10.155
276.17	14.253
276.54	11.135
276.91	10.307
277.28	12.227
277.65	11.570
278.02	10.851
278.39	11.597
278.76	11.740
279.13	8.714
279.50	12.815
279.87	12.527
280.23	10.968
280.60	14.035
280.97	10.101
281.34	10.192
281.71	15.195
282.08	9.816
282.45	9.002
282.82	10.232
283.19	9.865
283.56	12.139
283.92	9.298
284.29	9.615
284.66	12.016
285.03	9.234
285.40	9.830
285.77	9.666
286.14	9.928
286.51	10.701
286.87	10.420
287.24	9.945
287.61	9.877
287.98	13.509
288.35	9.185
288.72	10.683
289.08	10.590
289.45	9.842
289.82	11.014
290.19	9.386
290.56	8.919
290.93	10.101
291.29	9.399
291.66	9.291
292.03	7.337
292.40	9.677
292.77	7.177
293.13	6.331
293.50	8.649
293.87	10.534
294.24	9.274
294.60	8.346
294.97	7.738
295.34	7.669
295.71	6.408
296.08	9.417
296.44	6.259
296.81	8.194
297.18	8.261
297.55	8.808
297.91	8.904
298.28	9.499
298.65	8.005
299.02	8.086
299.38	6.430
299.75	8.966
300.12	6.283
300.48	7.773
300.85	7.478
301.22	8.831
301.59	7.368
301.95	9.241
302.32	9.079
302.69	7.338
303.05	6.683
303.42	7.721
303.79	9.463
304.15	8.602
304.52	7.253
304.89	7.485
305.25	6.901
305.62	6.884
305.99	8.187
306.35	8.671
306.72	5.512
307.09	6.956
307.45	8.037
307.82	6.481
308.19	7.433
308.55	6.543
308.92	7.843
309.29	5.810
309.65	6.889
310.02	8.031
310.38	7.794
310.75	8.525
311.12	7.535
311.48	6.575
311.85	5.969
312.22	5.591
312.58	8.068
312.95	5.443
313.31	7.039
313.68	7.016
314.05	6.939
314.41	7.526
314.78	7.526
315.14	7.811
315.51	8.282
315.87	6.250
316.24	8.898
316.61	6.890
316.97	7.738
317.34	8.008
317.70	7.075
318.07	6.827
318.43	8.137
318.80	7.765
319.16	7.422
319.53	8.547
319.89	7.776
320.26	8.300
320.62	8.024
320.99	8.246
321.35	8.119
321.72	8.307
322.08	9.063
322.45	9.137
322.81	9.136
323.18	7.753
323.54	8.494
323.91	8.471
324.27	10.449
324.64	9.363
325.00	10.401
325.37	10.652
325.73	9.248
326.10	10.263
326.46	11.211
326.83	11.199
327.19	10.898
327.56	11.642
327.92	12.764
328.29	11.429
328.65	11.981
329.01	11.765
329.38	12.442
329.74	12.276
330.11	12.234
330.47	12.801
330.84	12.500
331.20	14.829
331.56	13.519
331.93	13.516
332.29	14.665
332.66	13.937
333.02	12.546
333.38	13.016
333.75	14.652
334.11	13.160
334.48	14.053
334.84	14.835
335.20	13.632
335.57	13.237
335.93	14.905
336.29	15.654
336.66	13.442
337.02	13.848
337.38	13.796
337.75	13.545
338.11	14.968
338.47	14.599
338.84	15.804
339.20	14.808
339.56	14.404
339.93	15.488
340.29	14.312
340.65	16.308
341.02	15.071
341.38	14.602
341.74	14.399
342.11	13.951
342.47	14.413
342.83	14.706
343.20	16.028
343.56	15.826
343.92	15.323
344.28	16.311
344.65	16.408
345.01	14.693
345.37	14.298
345.73	15.146
346.10	14.495
346.46	16.653
346.82	14.975
347.19	14.048
347.55	15.288
347.91	14.563
348.27	13.905
348.63	16.014
349.00	14.192
349.36	14.713
349.72	14.842
350.08	15.082
350.45	15.722
350.81	14.452
351.17	14.007
351.53	15.020
351.89	14.781
352.26	14.880
352.62	15.887
352.98	14.056
353.34	14.412
353.70	15.210
354.07	15.161
354.43	14.412
354.79	14.781
355.15	15.873
355.51	15.190
355.87	15.858
356.24	14.192
356.60	15.360
356.96	15.952
357.32	15.415
357.68	15.012
358.04	14.701
358.40	15.113
358.77	14.833
359.13	15.372
359.49	14.561
359.85	15.289
360.21	15.550
360.57	15.532
360.93	15.280
361.29	14.879
361.66	15.125
362.02	16.288
362.38	16.756
362.74	15.443
363.10	17.005
363.46	16.383
363.82	15.327
364.18	16.236
364.54	14.853
364.90	15.842
365.26	14.993
365.62	16.715
365.98	16.642
366.35	16.533
366.71	17.073
367.07	17.271
367.43	15.816
367.79	17.173
368.15	16.798
368.51	16.242
368.87	15.865
369.23	16.029
369.59	16.983
369.95	16.862
370.31	16.763
370.67	16.642
371.03	16.580
371.39	17.433
371.75	16.484
372.11	17.689
372.47	17.456
372.83	17.033
373.19	16.619
373.55	16.390
373.91	17.855
374.27	17.931
374.63	17.732
374.99	16.809
375.35	16.504
375.71	17.622
376.07	17.837
376.42	17.959
376.78	18.255
377.14	18.280
377.50	18.327
377.86	18.608
378.22	17.294
378.58	17.885
378.94	17.832
379.30	18.653
379.66	18.809
380.02	18.210
380.38	18.077
380.74	18.253
381.09	19.571
381.45	18.165
381.81	19.247
382.17	19.797
382.53	18.488
382.89	19.774
383.25	19.540
383.61	20.549
383.97	19.302
384.32	19.700
384.68	19.628
385.04	19.853
385.40	19.788
385.76	20.692
386.12	20.310
386.48	20.370
386.83	19.911
387.19	20.391
387.55	21.581
387.91	19.804
388.27	19.963
388.62	20.957
388.98	20.994
389.34	20.800
389.70	21.939
390.06	20.201
390.42	20.337
390.77	21.714
391.13	21.185
391.49	20.828
391.85	21.118
392.20	20.967
392.56	20.915
392.92	21.433
393.28	21.108
393.64	20.601
393.99	22.382
394.35	21.569
394.71	21.967
395.07	20.365
395.42	21.129
395.78	20.912
396.14	22.383
396.50	21.687
396.85	22.537
397.21	21.742
397.57	22.257
397.92	21.630
398.28	21.437
398.64	21.747
399.00	21.501
399.35	21.445
399.71	21.252
400.07	21.463
400.42	21.848
400.78	21.494
401.14	21.960
401.49	22.037
401.85	21.389
402.21	22.229
402.57	20.937
402.92	21.142
403.28	22.431
403.63	21.753
403.99	21.747
404.35	21.299
404.70	21.488
405.06	21.328
405.42	21.318
405.77	20.511
406.13	21.537
406.49	21.433
406.84	22.677
407.20	21.373
407.55	21.700
407.91	21.324
408.27	21.989
408.62	21.723
408.98	20.764
409.34	22.739
409.69	21.770
410.05	22.044
410.40	21.667
410.76	22.376
411.11	21.812
411.47	22.551
411.83	21.343
412.18	21.686
412.54	21.910
412.89	21.305
413.25	21.841
413.60	21.615
413.96	20.736
414.31	21.524
414.67	21.552
415.03	21.039
415.38	21.867
415.74	22.736
416.09	22.534
416.45	22.755
416.80	22.009
417.16	22.238
417.51	22.185
417.87	21.578
418.22	21.826
418.58	21.873
418.93	23.197
419.29	21.831
419.64	21.970
420.00	22.040
420.35	21.493
420.71	21.871
421.06	22.284
421.42	21.695
421.77	22.197
422.12	22.474
422.48	22.306
422.83	21.520
423.19	22.235
423.54	21.634
423.90	22.379
424.25	23.020
424.61	22.644
424.96	21.777
425.31	23.397
425.67	21.714
426.02	22.615
426.38	22.605
426.73	23.366
427.09	23.987
427.44	22.235
427.79	22.746
428.15	22.998
428.50	22.653
428.85	21.990
429.21	22.750
429.56	22.642
429.92	22.548
430.27	22.907
430.62	22.269
430.98	22.930
431.33	22.818
431.68	22.083
432.04	22.974
432.39	21.506
432.74	22.670
433.10	23.793
433.45	23.297
433.80	23.157
434.16	21.994
434.51	23.065
434.86	23.287
435.22	22.939
435.57	22.208
435.92	23.054
436.28	23.435
436.63	23.503
436.98	22.596
437.34	23.170
437.69	23.375
438.04	23.305
438.39	21.991
438.75	23.558
439.10	22.864
439.45	24.102
439.81	23.119
440.16	24.109
440.51	24.478
440.86	24.471
441.22	23.643
441.57	23.731
441.92	23.767
442.27	23.725
442.63	24.518
442.98	24.182
443.33	23.428
443.68	23.448
444.03	23.448
444.39	23.856
444.74	23.802
445.09	24.165
445.44	24.103
445.79	24.910
446.15	23.623
446.50	22.407
446.85	24.389
447.20	24.088
447.55	23.437
447.91	23.576
448.26	24.075
448.61	25.619
448.96	24.785
449.31	23.699
449.66	24.216
450.02	24.529
450.37	24.481
450.72	24.399
451.07	24.684
451.42	23.845
451.77	24.171
452.12	22.907
452.47	24.340
452.83	24.441
453.18	23.593
453.53	24.399
453.88	23.922
454.23	24.093
454.58	25.693
454.93	25.193
455.28	24.381
455.63	24.427
455.98	24.233
456.34	23.883
456.69	24.396
457.04	25.772
457.39	24.362
457.74	24.426
458.09	23.720
458.44	25.044
458.79	23.810
459.14	24.256
459.49	25.134
459.84	24.647
460.19	25.061
460.54	24.633
460.89	25.170
461.24	24.845
461.59	24.822
461.94	24.654
462.29	25.151
462.64	25.914
462.99	24.848
463.34	24.687
463.69	24.710
464.04	24.576
464.39	24.500
464.74	25.276
465.09	25.016
465.44	25.620
465.79	23.696
466.14	25.257
466.49	24.037
466.84	25.283
467.19	24.030
467.54	25.096
467.89	25.016
468.24	24.939
468.59	25.524
468.94	25.270
469.29	26.033
469.64	25.085
469.99	26.349
470.34	25.051
470.68	26.025
471.03	25.336
471.38	25.820
471.73	25.490
472.08	25.373
472.43	25.436
472.78	25.428
473.13	25.918
473.48	26.189
473.83	25.405
474.17	26.295
474.52	26.292
474.87	27.030
475.22	25.991
475.57	26.200
475.92	26.769
476.27	26.484
476.61	26.447
476.96	24.875
477.31	26.393
477.66	25.843
478.01	26.221
478.36	26.416
478.70	27.732
479.05	26.758
479.40	25.861
479.75	26.069
480.10	26.267
480.45	26.300
480.79	26.737
481.14	27.254
481.49	25.616
481.84	26.496
482.19	26.099
482.53	26.571
482.88	26.158
483.23	26.152
483.58	26.840
483.92	25.363
484.27	25.843
484.62	26.894
484.97	25.788
485.31	25.795
485.66	24.987
486.01	24.867
486.36	23.869
486.70	24.468
487.05	24.860
487.40	24.897
487.75	25.803
488.09	25.371
488.44	25.344
488.79	25.364
489.13	27.123
489.48	26.422
489.83	26.771
490.17	26.652
490.52	26.651
490.87	26.701
491.22	26.982
491.56	26.613
491.91	26.052
492.26	26.689
492.60	27.015
492.95	27.054
493.30	26.771
493.64	27.554
493.99	27.150
494.34	25.971
494.68	26.524
495.03	26.326
495.37	27.478
495.72	27.461
496.07	27.366
496.41	26.698
496.76	27.729
497.11	26.688
497.45	27.637
497.80	28.406
498.14	27.720
498.49	27.222
498.84	27.046
499.18	28.112
499.53	27.827
499.87	27.286
500.22	27.151
500.56	27.937
500.91	27.761
501.26	27.731
501.60	28.480
501.95	28.433
502.29	28.184
502.64	28.330
502.98	28.515
503.33	28.626
503.67	28.000
504.02	29.032
504.36	28.501
504.71	28.232
505.06	28.988
505.40	28.020
505.75	28.660
506.09	28.231
506.44	29.363
506.78	28.980
507.13	29.679
507.47	28.721
507.82	29.006
508.16	29.583
508.51	29.171
508.85	29.880
509.19	29.058
509.54	30.563
509.88	29.558
510.23	30.715
510.57	30.358
510.92	29.531
511.26	30.115
511.61	30.143
511.95	30.466
512.30	30.488
512.64	31.274
512.98	31.106
513.33	31.617
513.67	30.927
514.02	32.494
514.36	32.571
514.70	31.760
515.05	32.197
515.39	31.110
515.74	33.054
516.08	32.457
516.42	33.216
516.77	33.353
517.11	32.700
517.46	33.214
517.80	32.896
518.14	32.823
518.49	33.053
518.83	33.354
519.17	32.747
519.52	33.452
519.86	33.733
520.20	33.840
520.55	33.271
520.89	34.881
521.23	33.566
521.58	34.069
521.92	34.487
522.26	35.003
522.61	35.195
522.95	35.364
523.29	35.133
523.64	35.070
523.98	35.191
524.32	35.180
524.66	35.339
525.01	35.714
525.35	35.580
525.69	35.421
526.04	35.185
526.38	35.473
526.72	34.598
527.06	35.214
527.41	35.752
527.75	34.786
528.09	35.216
528.43	36.799
528.78	35.578
529.12	35.419
529.46	36.712
529.80	35.402
530.15	36.634
530.49	36.431
530.83	36.252
531.17	35.930
531.51	36.457
531.86	35.758
532.20	35.978
532.54	37.168
532.88	36.756
533.22	37.164
533.57	36.107
533.91	36.227
534.25	36.133
534.59	36.947
534.93	34.487
535.27	34.772
535.62	35.515
535.96	37.182
536.30	36.544
536.64	36.113
536.98	36.307
537.32	37.055
537.66	37.938
538.01	37.413
538.35	36.755
538.69	37.417
539.03	36.910
539.37	36.474
539.71	36.333
540.05	36.660
540.39	38.504
540.73	36.960
541.07	37.983
541.42	38.105
541.76	37.715
542.10	37.990
542.44	37.665
542.78	37.027
543.12	37.088
543.46	36.926
543.80	37.821
544.14	35.981
544.48	37.642
544.82	37.184
545.16	37.978
545.50	36.649
545.84	37.465
546.18	36.454
546.52	38.572
546.86	38.462
547.20	37.124
547.54	37.032
547.88	37.228
548.22	35.897
548.56	35.752
548.90	38.477
549.24	37.879
549.58	35.966
549.92	37.455
550.26	38.681
550.60	38.587
550.94	38.611
551.28	38.640
551.62	39.923
551.96	38.045
552.30	37.427
552.64	36.601
552.98	37.975
553.32	37.019
553.66	37.373
554.00	37.737
554.34	38.257
554.68	38.053
555.02	38.467
555.36	38.295
555.69	37.582
556.03	37.759
556.37	37.011
556.71	37.690
557.05	39.075
557.39	37.546
557.73	38.006
558.07	38.537
558.41	38.285
558.75	38.348
559.08	38.534
559.42	38.651
559.76	38.991
560.10	39.067
560.44	37.751
560.78	38.462
561.12	38.223
561.45	38.791
561.79	38.165
562.13	38.396
562.47	37.122
562.81	37.176
563.15	38.152
563.48	37.553
563.82	38.984
564.16	38.231
564.50	37.230
564.84	38.487
565.17	36.888
565.51	39.891
565.85	37.860
566.19	37.599
566.52	39.410
566.86	38.689
567.20	37.547
567.54	37.774
567.88	37.551
568.21	36.595
568.55	36.630
568.89	36.294
569.23	35.725
569.56	35.333
569.90	35.039
570.24	34.425
570.57	34.364
570.91	35.099
571.25	33.936
571.59	33.915
571.92	33.659
572.26	33.696
572.60	33.457
572.93	34.201
573.27	33.386
573.61	33.353
573.95	33.370
574.28	33.501
574.62	32.876
574.96	32.286
575.29	32.862
575.63	32.133
575.97	32.854
576.30	32.921
576.64	32.583
576.98	33.385
577.31	33.374
577.65	32.821
577.98	33.073
578.32	32.993
578.66	32.431
578.99	32.358
579.33	32.276
579.67	32.980
580.00	32.987
580.34	33.209
580.67	32.938
581.01	33.165
581.35	32.838
581.68	32.612
582.02	32.318
582.35	32.498
582.69	32.957
583.02	32.472
583.36	33.523
583.70	34.138
584.03	34.473
584.37	34.726
584.70	33.846
585.04	32.953
585.37	33.022
585.71	33.004
586.04	33.056
586.38	33.102
586.72	33.515
587.05	33.391
587.39	33.939
587.72	33.762
588.06	33.739
588.39	33.267
588.73	34.676
589.06	34.899
589.40	35.430
589.73	35.597
590.07	35.838
590.40	35.642
590.73	35.997
591.07	36.217
591.40	34.996
591.74	36.471
592.07	37.245
592.41	36.219
592.74	34.966
593.08	33.950
593.41	33.839
593.75	33.857
594.08	34.089
594.41	35.080
594.75	34.924
595.08	34.620
595.42	35.259
595.75	35.111
596.09	35.887
596.42	34.932
596.75	36.101
597.09	36.856
597.42	35.727
597.75	35.960
598.09	35.808
598.42	35.875
598.76	35.822
599.09	35.136
599.42	34.748
599.76	34.349
600.09	34.389
600.42	34.875
600.76	34.435
601.09	34.084
601.42	34.626
601.76	34.061
602.09	35.272
602.42	35.510
602.76	35.781
603.09	35.548
603.42	36.455
603.76	34.919
604.09	35.561
604.42	35.491
604.76	36.360
605.09	36.472
605.42	35.485
605.75	35.639
606.09	34.904
606.42	35.238
606.75	35.714
607.09	35.780
607.42	35.578
607.75	34.636
608.08	34.591
608.42	34.947
608.75	37.012
609.08	37.020
609.41	36.497
609.75	36.038
610.08	36.695
610.41	35.942
610.74	35.836
611.07	36.693
611.41	36.793
611.74	37.580
612.07	35.921
612.40	37.309
612.73	37.514
613.07	36.220
613.40	37.965
613.73	36.430
614.06	36.672
614.39	36.999
614.72	37.255
615.06	36.536
615.39	36.517
615.72	36.868
616.05	36.760
616.38	36.125
616.71	37.248
617.05	38.295
617.38	37.649
617.71	38.679
618.04	38.159
618.37	38.146
618.70	39.010
619.03	39.583
619.36	38.350
619.69	39.121
620.03	39.007
620.36	39.270
620.69	40.186
621.02	38.761
621.35	41.660
621.68	40.986
622.01	40.417
622.34	39.106
622.67	39.196
623.00	39.663
623.33	39.329
623.66	38.594
623.99	39.032
624.32	39.316
624.65	38.195
624.99	39.579
625.32	38.135
625.65	40.691
625.98	40.774
626.31	40.067
626.64	41.421
626.97	41.623
627.30	41.068
627.63	40.208
627.96	40.162
628.29	39.963
628.62	43.265
628.95	43.086
629.28	42.843
629.61	41.974
629.94	42.424
630.26	40.909
630.59	44.329
630.92	42.564
631.25	40.000
631.58	43.172
631.91	40.570
632.24	43.693
632.57	44.318
632.90	41.756
633.23	43.647
633.56	43.199
633.89	44.513
634.22	44.938
634.55	45.362
634.88	44.444
635.20	45.513
635.53	46.533
635.86	44.083
636.19	46.442
636.52	45.791
636.85	43.797
637.18	42.516
637.51	43.648
637.83	43.233
638.16	44.611
638.49	41.689
638.82	44.868
639.15	44.098
639.48	46.080
639.81	45.886
640.13	44.156
640.46	44.752
640.79	45.214
641.12	45.790
641.45	45.946
641.77	46.815
642.10	49.447
642.43	44.695
642.76	48.020
643.09	48.465
643.41	44.498
643.74	47.282
644.07	45.649
644.40	46.622
644.73	50.263
645.05	45.302
645.38	46.384
645.71	46.986
646.04	46.320
646.36	49.291
646.69	47.842
647.02	48.015
647.35	49.813
647.67	48.995
648.00	48.694
648.33	45.392
648.66	45.424
648.98	43.216
649.31	44.463
649.64	44.113
649.96	42.301
650.29	47.019
650.62	46.154
650.94	46.852
651.27	47.858
651.60	48.468
651.92	46.503
652.25	46.714
652.58	43.333
652.90	47.513
653.23	44.370
653.56	44.839
653.88	46.220
654.21	44.133
654.54	44.143
654.86	44.652
655.19	44.737
655.52	38.080
655.84	31.455
656.17	34.761
656.49	47.493
656.82	50.468
657.15	38.903
657.47	29.214
657.80	22.018
658.13	21.821
658.45	34.474
658.78	34.974
659.10	35.157
659.43	35.588
659.75	38.678
660.08	39.793
660.41	42.594
660.73	45.028
661.06	46.447
661.38	45.988
661.71	48.665
662.03	51.502
662.36	48.571
662.68	50.664
663.01	50.437
663.33	48.028
663.66	49.535
663.98	49.070
664.31	49.254
664.63	44.931
664.96	47.174
665.28	49.227
665.61	46.970
665.93	46.739
666.26	46.855
666.58	46.532
666.91	49.412
667.23	51.887
667.56	48.104
667.88	48.681
668.21	51.074
668.53	50.591
668.86	49.292
669.18	46.226
669.50	47.215
669.83	47.209
670.15	49.417
670.48	50.478
670.80	47.005
671.13	46.756
671.45	44.977
671.77	47.425
672.10	50.693
672.42	45.131
672.75	43.694
673.07	45.796
673.39	45.505
673.72	44.379
674.04	46.458
674.37	46.186
674.69	45.824
675.01	48.667
675.34	47.523
675.66	48.380
675.98	48.559
676.31	49.771
676.63	46.318
676.95	45.455
677.28	52.471
677.60	50.120
677.92	47.936
678.25	50.109
678.57	48.052
678.89	46.429
679.22	47.875
679.54	45.382
679.86	41.948
680.18	42.524
680.51	45.644
680.83	41.153
681.15	49.400
681.48	45.902
681.80	44.628
682.12	44.960
682.44	43.724
682.77	46.578
683.09	46.682
683.41	46.591
683.73	45.622
684.06	45.796
684.38	43.226
684.70	48.366
685.02	45.643
685.34	43.083
685.67	44.465
685.99	43.219
686.31	43.540
686.63	42.486
686.96	43.726
687.28	43.232
687.60	44.487
687.92	46.061
688.24	41.129
688.56	47.598
688.89	43.527
689.21	48.000
689.53	45.940
689.85	43.488
690.17	45.759
690.49	46.099
690.82	45.631
691.14	41.905
691.46	45.561
691.78	44.820
692.10	47.527
692.42	44.156
692.74	42.521
693.06	45.045
693.39	41.629
693.71	42.534
694.03	43.418
694.35	45.327
694.67	44.697
694.99	44.125
695.31	45.953
695.63	47.250
695.95	45.960
696.27	45.337
696.59	49.722
696.91	45.098
697.23	45.501
697.56	44.307
697.88	43.441
698.20	44.419
698.52	44.706
698.84	42.823
699.16	46.500
699.48	42.105
699.80	45.409
700.12	48.248
700.44	49.860
700.76	43.023
701.08	44.545
701.40	45.482
701.72	48.148
702.04	51.815
702.36	52.843
702.68	46.847
703.00	50.000
703.32	43.695
703.64	43.220
703.96	44.928
704.28	48.160
704.60	48.571
704.91	46.057
705.23	49.169
705.55	47.350
705.87	55.596
706.19	48.889
706.51	51.203
706.83	48.553
707.15	42.368
707.47	47.899
707.79	46.615
708.11	40.250
708.43	43.250
708.74	43.928
709.06	47.324
709.38	48.624
709.70	49.704
710.02	43.949
710.34	45.511
710.66	43.269
710.98	46.026
711.29	46.885
711.61	48.136
711.93	48.860
712.25	51.203
712.57	46.886
712.89	43.657
713.20	49.827
713.52	45.645
713.84	47.782
714.16	42.955
714.48	50.000
714.80	46.154
715.11	44.377
715.43	45.455
715.75	43.667
716.07	43.854
716.39	45.638
716.70	46.494
717.02	43.893
717.34	48.178
717.66	53.097
717.97	44.348
718.29	45.607
718.61	45.276
718.93	46.512
719.24	45.247
719.56	53.414
719.88	44.330
720.20	51.515
720.51	42.912
720.83	47.104
721.15	47.479
721.46	44.758
721.78	42.688
722.10	40.892
722.42	46.058
722.73	44.490
723.05	51.020
723.37	48.729
723.68	56.306
724.00	44.444
724.32	46.667
724.63	47.727
724.95	47.598
725.27	47.926
725.58	45.339
725.90	45.238
726.22	44.402
726.53	42.034
726.85	44.944
727.16	46.792
727.48	43.320
727.80	49.798
728.11	49.576
728.43	45.098
728.74	40.726
729.06	41.600
729.38	49.248
729.69	43.426
730.01	45.000
730.32	49.254
730.64	42.756
730.96	47.170
731.27	40.333
731.59	43.390
731.90	38.854
732.22	43.533
732.53	44.518
732.85	45.390
733.16	41.077
733.48	39.568
733.80	44.928
734.11	42.373
734.43	39.863
734.74	40.000
735.06	39.414
735.37	41.088
735.69	41.077
736.00	42.857
736.32	40.268
736.63	41.197
736.95	42.321
737.26	37.722
737.58	36.913
737.89	38.095
738.21	39.474
738.52	48.560
738.83	46.725
739.15	45.852
739.46	39.764
739.78	38.095
740.09	36.275
740.41	40.217
740.72	38.583
741.04	41.700
741.35	42.553
741.66	46.445
741.98	46.939
742.29	46.040
742.61	43.455
742.92	39.810
743.23	34.722
743.55	43.891
743.86	45.933
744.18	44.976
744.49	45.745
744.80	50.543
745.12	52.941
745.43	49.268
745.74	51.562
746.06	41.951
746.37	48.691
746.68	45.972
747.00	44.149
747.31	48.756
747.62	39.806
747.94	40.670
748.25	49.010
748.56	55.191
748.88	51.309
749.19	55.319
749.50	48.768
749.82	41.038
750.13	46.330
750.44	46.992
750.75	44.030
751.07	43.431
751.38	40.230
751.69	43.922
752.01	41.085
752.32	45.418
752.63	39.921
752.94	43.966
753.26	50.628
753.57	42.534
753.88	44.690
754.19	44.583
754.51	43.388
754.82	37.247
755.13	49.167
755.44	43.145
755.75	41.797
756.07	44.358
756.38	37.358
756.69	38.697
757.00	38.333
757.31	38.889
757.63	40.244
757.94	35.556
758.25	36.164
758.56	37.500
758.87	35.127
759.18	39.564
759.50	36.727
759.81	41.806
760.12	38.387
760.43	38.485
760.74	36.420
761.05	37.538
761.36	38.920
761.67	39.091
761.99	40.816
762.30	36.000
762.61	42.688
762.92	39.367
763.23	38.739
763.54	40.654
763.85	46.610
764.16	38.589
764.47	41.935
764.78	41.392
765.10	41.414
765.41	35.331
765.72	40.635
766.03	37.970
766.34	38.321
766.65	43.825
766.96	47.980
767.27	41.489
767.58	39.080
767.89	38.298
768.20	44.886
768.51	33.516
768.82	38.916
769.13	35.945
769.44	37.339
769.75	35.616
770.06	42.672
770.37	43.750
770.68	40.609
770.99	42.081
771.30	48.039
771.61	42.534
771.92	41.379
772.23	42.857
772.54	44.624
772.85	39.506
773.16	44.944
773.47	52.941
773.78	41.176
774.09	38.922
774.39	41.333
774.70	47.771
775.01	47.586
775.32	42.143
775.63	40.496
775.94	51.145
776.25	51.969
776.56	42.500
776.87	50.000
777.18	47.863
777.48	45.690
777.79	46.087
778.10	41.905
778.41	46.847
778.72	47.619
779.03	44.361
779.34	47.518
779.65	46.575
779.95	37.671
780.26	47.586
780.57	38.211
780.88	46.457
781.19	42.241
781.50	45.736
781.80	33.728
782.11	31.447
782.42	50.769
782.73	43.165
783.04	42.222
783.34	36.111
783.65	29.915
783.96	42.623
784.27	46.897
784.57	43.089
784.88	48.438
785.19	43.000
785.50	56.000
785.81	43.966
786.11	31.897
786.42	46.602
786.73	54.545
787.04	51.020
787.34	40.179
787.65	41.905
787.96	47.788
788.26	40.000
788.57	42.735
788.88	46.875
789.19	44.444
789.49	30.435
789.80	51.020
790.11	43.434
790.41	35.455
790.72	61.957
791.03	47.727
791.33	52.500
791.64	48.750
791.95	41.860
792.25	42.553
792.56	46.067
792.87	52.055
793.17	60.870
793.48	44.000
793.79	41.250
794.09	58.750
794.40	44.340
794.70	43.689
795.01	34.959
795.32	29.915
795.62	30.476
795.93	45.098
796.23	35.849
796.54	46.875
796.85	55.882
797.15	38.028
797.46	37.500
797.76	53.030
798.07	41.860
798.37	47.368
798.68	51.515
798.99	30.864
799.29	47.143
799.60	30.435
799.90	56.000
800.21	63.934
800.51	49.231
800.82	45.763
801.12	46.377
801.43	63.934
801.73	58.730
802.04	38.000
802.34	26.866
802.65	55.769
802.95	62.500
803.26	53.846
803.56	49.020
803.87	26.087
804.17	40.000
804.48	50.794
804.78	53.704
805.09	52.174
805.39	37.778
805.70	50.000
806.00	40.351
806.30	21.127
806.61	37.143
806.91	31.944
807.22	44.737
807.52	49.333
807.83	29.091
808.13	38.889
808.43	45.588
808.74	38.806
809.04	35.593
809.35	48.077
809.65	39.063
809.95	-2.703
810.26	54.545
810.56	32.877
810.86	45.238
811.17	46.000
811.47	63.265
811.77	36.842
812.08	59.091
812.38	54.717
812.69	65.000
812.99	24.242
813.29	31.579
813.59	22.857
813.90	45.455
814.20	61.538
814.50	30.769
814.81	45.283
815.11	25.532
815.41	50.847
815.72	52.381
816.02	43.137
816.32	43.750
816.62	46.341
816.93	48.649
817.23	34.286
817.53	27.083
817.84	50.000
818.14	51.923
818.44	47.368
818.74	50.000
819.04	30.000
819.35	48.649
819.65	38.235
819.95	52.778
820.25	40.476
820.56	75.000
820.86	13.793
821.16	72.500
821.46	51.064
821.76	32.500
822.07	51.163
822.37	10.811
822.67	34.375
822.97	61.905
823.27	46.429
823.57	40.000
823.88	62.963
824.18	39.286
824.48	23.529
824.78	29.032
825.08	39.130
825.38	42.424
825.69	8.333
825.99	26.316
826.29	47.222
826.59	66.667
826.89	28.571
827.19	45.652
827.49	35.000
827.79	54.286
828.09	50.000
828.39	72.727
828.70	75.676
829.00	46.429
829.30	-19.048
829.60	50.000
829.90	84.375
830.20	50.000
830.50	55.556
830.80	69.565
831.10	50.000
831.40	60.606
831.70	83.871
832.00	100.000
832.30	57.143
832.60	75.000
832.90	48.276
833.20	70.000
833.50	54.545
833.80	48.148
834.10	38.462
834.40	59.375
834.70	77.778
835.00	94.737
835.30	46.154
835.60	80.000
835.90	54.839
836.20	131.818
836.50	50.000
836.80	15.385
837.10	53.571
837.40	-166.667
837.70	31.818
838.00	90.909
838.30	65.217
838.60	84.615
838.90	77.273
839.19	71.429
839.49	56.667
839.79	107.692
840.09	-33.333
840.39	100.000
840.69	50.000
840.99	34.615
841.29	21.053
841.59	80.000
841.88	136.364
842.18	110.000
842.48	56.250
842.78	20.000
843.08	77.778
843.38	-50.000
843.68	73.913
843.97	13.333
844.27	-6.667
844.57	15.000
844.87	27.778
845.17	38.095
845.47	73.333
845.76	42.857
846.06	88.235
846.36	80.000
846.66	28.571
846.96	100.000
847.25	0.000
847.55	150.000
847.85	0.000
848.15	22.727
848.44	-33.333
848.74	80.000
849.04	85.185
849.34	-27.273
849.63	33.333
849.93	160.000
850.23	61.111
850.53	60.000
850.82	30.769
851.12	155.556
851.42	133.333
851.71	53.846
852.01	-7.143
852.31	125.000
852.61	172.727
852.90	20.000
853.20	68.421
853.50	108.333
853.79	47.826
854.09	83.333
854.39	115.789
854.68	16.667
854.98	38.710
855.28	50.000
855.57	65.000
855.87	61.111
856.17	44.444
856.46	35.714
856.76	73.333
857.05	133.333
857.35	36.000
857.65	83.333
857.94	30.769
858.24	44.828
858.53	44.444
858.83	44.444
859.13	50.000
859.42	17.391
859.72	-75.000
860.01	133.333
860.31	32.000
860.60	66.667
860.90	200.000
861.20	-60.000
861.49	0.000
861.79	86.667
862.08	40.000
862.38	73.333
862.67	80.000
862.97	-16.667
863.26	83.333
863.56	38.889
863.85	-33.333
864.15	83.333
864.44	150.000
864.74	85.714
865.03	150.000
865.33	-100.000
865.62	116.667
865.92	-8.333
866.21	0.000
866.51	137.500
866.80	109.091
867.10	-50.000
867.39	125.000
867.69	0.000
867.98	53.846
868.27	133.333
868.57	73.333
868.86	33.333
869.16	-15.385
869.45	73.333
869.75	100.000
870.04	0.000
870.33	42.857
870.63	66.667
870.92	-33.333
871.22	40.000
871.51	200.000
871.80	122.222
872.10	-33.333
>>>>>End Processed Spectral Data<<<<<
