SpectraSuite Data File
++++++++++++++++++++++++++++++++++++
Date: Fri May 15 17:03:29 PDT 2015
User: schluterlab
Dark Spectrum Present: Yes
Reference Spectrum Present: Yes
Number of Sampled Component Spectra: 1
Spectrometers: USB2E3373
Integration Time (usec): 3000 (USB2E3373)
Spectra Averaged: 3 (USB2E3373)
Boxcar Smoothing: 0 (USB2E3373)
Correct for Electrical Dark: No (USB2E3373)
Strobe/Lamp Enabled: No (USB2E3373)
Correct for Detector Non-linearity: No (USB2E3373)
Correct for Stray Light: No (USB2E3373)
Number of Pixels in Processed Spectrum: 2048
>>>>>Begin Processed Spectral Data<<<<<
178.53	0.000
178.91	0.000
179.29	50.000
179.67	0.000
180.04	-57.143
180.42	275.000
180.80	800.000
181.18	-133.333
181.56	300.000
181.94	100.000
182.31	-700.000
182.69	40.000
183.07	-66.667
183.45	80.000
183.83	33.333
184.20	-27.273
184.58	-11.111
184.96	-100.000
185.34	-500.000
185.72	450.000
186.09	30.769
186.47	-500.000
186.85	-83.333
187.23	100.000
187.61	-600.000
187.98	300.000
188.36	111.111
188.74	-33.333
189.12	88.235
189.49	88.889
189.87	0.000
190.25	21.429
190.63	100.000
191.00	300.000
191.38	15.789
191.76	450.000
192.14	-0.000
192.51	100.000
192.89	0.000
193.27	-28.571
193.65	-0.000
194.02	127.273
194.40	10.000
194.78	12.500
195.15	25.000
195.53	0.000
195.91	250.000
196.29	-25.000
196.66	69.231
197.04	-100.000
197.42	44.444
197.79	-200.000
198.17	-46.154
198.55	500.000
198.92	133.333
199.30	1000.000
199.68	40.000
200.05	166.667
200.43	0.000
200.81	66.667
201.18	233.333
201.56	800.000
201.94	50.000
202.31	-200.000
202.69	-120.000
203.07	-150.000
203.44	800.000
203.82	0.000
204.19	78.571
204.57	-100.000
204.95	100.000
205.32	70.000
205.70	100.000
206.08	300.000
206.45	211.111
206.83	135.714
207.20	-85.714
207.58	-500.000
207.96	166.667
208.33	20.000
208.71	225.000
209.08	0.000
209.46	-500.000
209.84	40.000
210.21	200.000
210.59	200.000
210.96	33.333
211.34	275.000
211.71	73.333
212.09	114.286
212.46	-1200.000
212.84	0.000
213.22	140.000
213.59	-150.000
213.97	23.077
214.34	100.000
214.72	-16.667
215.09	200.000
215.47	53.846
215.84	18.182
216.22	133.333
216.59	75.000
216.97	800.000
217.34	225.000
217.72	-60.000
218.09	112.500
218.47	87.500
218.84	-200.000
219.22	11.111
219.59	60.000
219.97	66.667
220.34	25.000
220.72	-14.286
221.09	200.000
221.47	650.000
221.84	-250.000
222.22	-250.000
222.59	100.000
222.97	16.667
223.34	33.333
223.72	28.571
224.09	28.571
224.46	39.286
224.84	-133.333
225.21	160.000
225.59	46.667
225.96	900.000
226.34	100.000
226.71	28.571
227.08	83.333
227.46	12.500
227.83	-100.000
228.21	-11.111
228.58	90.909
228.95	162.500
229.33	60.000
229.70	50.000
230.08	-62.500
230.45	142.857
230.82	85.714
231.20	26.667
231.57	50.000
231.95	0.000
232.32	-60.000
232.69	114.286
233.07	-133.333
233.44	60.000
233.81	-50.000
234.19	22.222
234.56	64.706
234.93	-50.000
235.31	175.000
235.68	-320.000
236.05	7.692
236.43	-20.000
236.80	29.412
237.17	25.000
237.55	-5.000
237.92	22.222
238.29	5.556
238.67	3.333
239.04	-11.765
239.41	-9.756
239.79	-6.667
240.16	19.512
240.53	28.947
240.91	2.174
241.28	12.698
241.65	39.286
242.02	28.767
242.40	8.333
242.77	16.949
243.14	12.121
243.51	22.500
243.89	21.839
244.26	5.747
244.63	2.381
245.00	3.093
245.38	17.526
245.75	-3.371
246.12	1.724
246.49	14.876
246.87	15.385
247.24	0.000
247.61	7.895
247.98	4.878
248.36	9.375
248.73	9.868
249.10	4.545
249.47	10.759
249.84	3.922
250.22	12.353
250.59	2.614
250.96	12.207
251.33	5.233
251.70	11.176
252.08	7.614
252.45	4.950
252.82	13.065
253.19	8.756
253.56	1.869
253.94	4.955
254.31	7.391
254.68	7.895
255.05	3.937
255.42	7.424
255.79	6.950
256.16	8.560
256.54	10.075
256.91	6.084
257.28	9.665
257.65	4.869
258.02	8.511
258.39	11.448
258.76	11.722
259.14	9.967
259.51	6.796
259.88	5.498
260.25	4.902
260.62	7.639
260.99	-0.678
261.36	3.425
261.73	8.544
262.10	8.207
262.47	7.362
262.85	6.270
263.22	8.000
263.59	10.280
263.96	8.385
264.33	5.455
264.70	4.762
265.07	4.464
265.44	7.082
265.81	9.040
266.18	7.104
266.55	5.913
266.92	11.140
267.29	6.527
267.66	6.905
268.03	7.592
268.40	4.439
268.77	6.684
269.14	8.873
269.51	4.627
269.88	5.486
270.25	5.357
270.62	6.098
270.99	4.859
271.36	6.112
271.73	7.512
272.10	7.056
272.47	7.565
272.84	6.436
273.21	7.889
273.58	5.783
273.95	6.178
274.32	5.312
274.69	5.204
275.06	9.598
275.43	6.803
275.80	6.843
276.17	7.126
276.54	6.210
276.91	5.702
277.28	7.424
277.65	5.165
278.02	5.106
278.39	5.033
278.76	5.241
279.13	4.772
279.50	7.563
279.87	6.479
280.23	4.731
280.60	8.772
280.97	6.869
281.34	5.385
281.71	7.392
282.08	6.135
282.45	5.284
282.82	6.178
283.19	5.222
283.56	5.780
283.92	5.313
284.29	5.962
284.66	6.977
285.03	4.519
285.40	4.915
285.77	5.272
286.14	6.498
286.51	7.011
286.87	7.678
287.24	4.236
287.61	4.586
287.98	6.140
288.35	4.506
288.72	6.130
289.08	5.729
289.45	7.557
289.82	4.895
290.19	5.290
290.56	7.376
290.93	7.071
291.29	5.701
291.66	6.929
292.03	3.828
292.40	5.645
292.77	3.828
293.13	3.084
293.50	5.311
293.87	5.344
294.24	6.491
294.60	5.961
294.97	5.655
295.34	4.601
295.71	4.471
296.08	4.036
296.44	4.552
296.81	4.028
297.18	4.638
297.55	5.420
297.91	4.521
298.28	5.409
298.65	6.377
299.02	6.739
299.38	2.462
299.75	5.379
300.12	4.581
300.48	3.426
300.85	4.436
301.22	4.416
301.59	3.421
301.95	5.570
302.32	5.966
302.69	4.602
303.05	4.703
303.42	5.479
303.79	5.607
304.15	5.854
304.52	3.567
304.89	4.094
305.25	4.237
305.62	3.151
305.99	4.094
306.35	4.277
306.72	4.162
307.09	2.737
307.45	5.052
307.82	4.745
308.19	4.413
308.55	4.471
308.92	4.575
309.29	5.251
309.65	4.306
310.02	5.501
310.38	3.952
310.75	5.464
311.12	5.597
311.48	3.924
311.85	4.503
312.22	3.481
312.58	4.352
312.95	2.348
313.31	4.244
313.68	4.712
314.05	4.592
314.41	5.361
314.78	4.433
315.14	4.522
315.51	5.383
315.87	4.816
316.24	5.865
316.61	4.429
316.97	5.357
317.34	4.004
317.70	5.163
318.07	5.288
318.43	5.588
318.80	5.398
319.16	5.273
319.53	5.128
319.89	5.610
320.26	6.073
320.62	6.018
320.99	4.802
321.35	5.653
321.72	6.438
322.08	7.049
322.45	6.396
322.81	7.466
323.18	5.103
323.54	7.915
323.91	6.037
324.27	8.008
324.64	7.397
325.00	8.485
325.37	9.458
325.73	8.160
326.10	8.719
326.46	10.045
326.83	10.586
327.19	10.898
327.56	11.381
327.92	11.708
328.29	12.946
328.65	13.019
329.01	14.522
329.38	14.101
329.74	13.881
330.11	16.033
330.47	15.863
330.84	14.712
331.20	18.916
331.56	17.037
331.93	19.361
332.29	19.432
332.66	19.367
333.02	19.052
333.38	20.623
333.75	21.429
334.11	20.412
334.48	22.303
334.84	24.451
335.20	23.147
335.57	22.756
335.93	24.119
336.29	26.243
336.66	24.796
337.02	24.071
337.38	25.463
337.75	26.273
338.11	27.863
338.47	27.464
338.84	28.096
339.20	27.788
339.56	27.064
339.93	28.559
340.29	28.899
340.65	28.405
341.02	28.989
341.38	28.850
341.74	28.534
342.11	27.816
342.47	29.626
342.83	30.450
343.20	29.268
343.56	30.522
343.92	29.141
344.28	31.426
344.65	30.570
345.01	31.547
345.37	30.698
345.73	32.720
346.10	32.097
346.46	31.203
346.82	32.160
347.19	30.341
347.55	32.080
347.91	32.686
348.27	32.498
348.63	33.135
349.00	31.337
349.36	33.001
349.72	33.665
350.08	32.459
350.45	33.360
350.81	32.973
351.17	32.248
351.53	33.714
351.89	33.361
352.26	33.600
352.62	33.548
352.98	33.574
353.34	34.300
353.70	34.466
354.07	33.548
354.43	33.947
354.79	35.673
355.15	34.444
355.51	34.494
355.87	34.628
356.24	33.931
356.60	34.923
356.96	36.349
357.32	35.224
357.68	35.575
358.04	35.784
358.40	34.968
358.77	36.443
359.13	34.508
359.49	35.978
359.85	36.739
360.21	37.321
360.57	36.343
360.93	36.536
361.29	36.405
361.66	37.069
362.02	37.424
362.38	37.395
362.74	37.623
363.10	37.923
363.46	37.806
363.82	38.918
364.18	37.638
364.54	37.574
364.90	38.710
365.26	38.210
365.62	40.876
365.98	39.516
366.35	40.058
366.71	39.024
367.07	38.824
367.43	39.180
367.79	39.717
368.15	39.770
368.51	40.350
368.87	39.986
369.23	40.000
369.59	40.306
369.95	41.349
370.31	40.029
370.67	40.896
371.03	41.225
371.39	40.992
371.75	41.465
372.11	40.942
372.47	42.973
372.83	42.370
373.19	41.512
373.55	42.310
373.91	42.045
374.27	42.877
374.63	43.288
374.99	42.128
375.35	42.688
375.71	43.706
376.07	43.820
376.42	43.741
376.78	43.826
377.14	42.519
377.50	44.157
377.86	43.307
378.22	44.608
378.58	43.462
378.94	43.793
379.30	44.479
379.66	45.517
380.02	44.329
380.38	44.431
380.74	44.764
381.09	44.785
381.45	45.382
381.81	46.021
382.17	43.718
382.53	45.909
382.89	45.888
383.25	46.111
383.61	45.610
383.97	46.540
384.32	46.592
384.68	46.563
385.04	45.282
385.40	45.862
385.76	47.233
386.12	47.801
386.48	46.679
386.83	47.051
387.19	47.741
387.55	48.808
387.91	48.472
388.27	47.070
388.62	48.962
388.98	47.391
389.34	47.783
389.70	47.856
390.06	46.444
390.42	47.280
390.77	48.201
391.13	48.045
391.49	48.577
391.85	47.693
392.20	48.336
392.56	49.396
392.92	49.207
393.28	48.644
393.64	46.967
393.99	48.527
394.35	47.502
394.71	48.595
395.07	48.209
395.42	47.177
395.78	47.687
396.14	48.045
396.50	49.588
396.85	49.066
397.21	47.494
397.57	47.085
397.92	48.173
398.28	48.391
398.64	46.325
399.00	48.758
399.35	47.348
399.71	47.674
400.07	47.703
400.42	46.940
400.78	48.683
401.14	48.155
401.49	47.886
401.85	47.898
402.21	48.012
402.57	48.312
402.92	47.365
403.28	47.807
403.63	48.108
403.99	47.321
404.35	47.470
404.70	46.190
405.06	47.297
405.42	46.240
405.77	47.647
406.13	47.206
406.49	46.181
406.84	46.760
407.20	47.261
407.55	46.362
407.91	45.655
408.27	46.781
408.62	47.077
408.98	45.841
409.34	46.654
409.69	46.512
410.05	45.382
410.40	46.420
410.76	46.200
411.11	45.625
411.47	45.957
411.83	45.888
412.18	46.268
412.54	46.692
412.89	45.567
413.25	46.510
413.60	45.963
413.96	45.399
414.31	46.280
414.67	44.580
415.03	45.606
415.38	44.909
415.74	45.472
416.09	47.420
416.45	46.117
416.80	44.746
417.16	46.961
417.51	45.769
417.87	46.480
418.22	46.438
418.58	46.555
418.93	47.273
419.29	45.455
419.64	46.338
420.00	47.670
420.35	46.866
420.71	46.598
421.06	46.961
421.42	46.815
421.77	47.052
422.12	46.027
422.48	46.833
422.83	46.868
423.19	46.727
423.54	47.031
423.90	46.938
424.25	46.785
424.61	47.552
424.96	47.329
425.31	48.527
425.67	47.300
426.02	48.233
426.38	46.963
426.73	47.760
427.09	49.810
427.44	46.765
427.79	47.024
428.15	46.602
428.50	48.516
428.85	46.622
429.21	48.331
429.56	48.679
429.92	48.331
430.27	48.471
430.62	47.883
430.98	48.355
431.33	48.896
431.68	48.456
432.04	48.519
432.39	47.062
432.74	49.429
433.10	48.621
433.45	48.327
433.80	49.216
434.16	48.366
434.51	49.032
434.86	49.071
435.22	48.906
435.57	49.407
435.92	49.341
436.28	48.181
436.63	48.716
436.98	47.567
437.34	49.728
437.69	50.030
438.04	49.801
438.39	50.458
438.75	51.366
439.10	50.538
439.45	50.883
439.81	49.786
440.16	52.019
440.51	52.478
440.86	52.085
441.22	51.357
441.57	51.104
441.92	51.731
442.27	51.663
442.63	51.713
442.98	51.867
443.33	50.250
443.68	50.769
444.03	51.316
444.39	50.566
444.74	53.122
445.09	50.780
445.44	51.396
445.79	52.553
446.15	51.487
446.50	50.638
446.85	51.594
447.20	50.104
447.55	51.172
447.91	52.002
448.26	50.882
448.61	51.007
448.96	52.610
449.31	51.387
449.66	50.697
450.02	51.055
450.37	52.993
450.72	52.291
451.07	51.519
451.42	50.811
451.77	51.899
452.12	50.778
452.47	50.354
452.83	51.767
453.18	51.107
453.53	52.528
453.88	52.580
454.23	52.182
454.58	52.708
454.93	51.740
455.28	50.159
455.63	51.023
455.98	51.112
456.34	50.319
456.69	52.541
457.04	50.725
457.39	51.337
457.74	52.418
458.09	50.971
458.44	50.848
458.79	50.532
459.14	51.945
459.49	51.284
459.84	50.705
460.19	51.820
460.54	52.200
460.89	51.648
461.24	51.801
461.59	52.197
461.94	51.258
462.29	51.086
462.64	53.023
462.99	51.388
463.34	51.669
463.69	51.223
464.04	51.574
464.39	50.515
464.74	51.288
465.09	52.464
465.44	50.721
465.79	51.077
466.14	51.197
466.49	50.949
466.84	52.112
467.19	51.314
467.54	49.553
467.89	51.232
468.24	50.791
468.59	50.794
468.94	50.032
469.29	52.459
469.64	52.290
469.99	52.207
470.34	50.034
470.68	51.752
471.03	52.017
471.38	51.284
471.73	51.120
472.08	51.696
472.43	51.477
472.78	50.514
473.13	51.905
473.48	51.857
473.83	50.809
474.17	52.720
474.52	51.691
474.87	51.394
475.22	50.885
475.57	50.028
475.92	51.509
476.27	51.455
476.61	51.505
476.96	49.637
477.31	50.622
477.66	51.011
478.01	51.263
478.36	51.634
478.70	51.495
479.05	51.538
479.40	51.828
479.75	51.043
480.10	50.845
480.45	51.200
480.79	51.561
481.14	52.203
481.49	50.296
481.84	51.641
482.19	50.608
482.53	51.127
482.88	49.833
483.23	50.192
483.58	50.236
483.92	50.726
484.27	50.729
484.62	50.202
484.97	50.124
485.31	49.603
485.66	50.000
486.01	50.147
486.36	49.174
486.70	49.009
487.05	49.296
487.40	49.535
487.75	49.775
488.09	49.475
488.44	49.725
488.79	51.251
489.13	51.803
489.48	51.432
489.83	49.865
490.17	50.112
490.52	50.346
490.87	49.607
491.22	50.812
491.56	50.474
491.91	50.096
492.26	51.386
492.60	49.664
492.95	51.303
493.30	51.343
493.64	52.358
493.99	51.063
494.34	50.388
494.68	51.810
495.03	49.392
495.37	51.079
495.72	52.044
496.07	52.195
496.41	50.425
496.76	51.082
497.11	50.116
497.45	51.169
497.80	50.605
498.14	50.969
498.49	50.990
498.84	50.798
499.18	51.104
499.53	51.885
499.87	50.584
500.22	51.187
500.56	51.689
500.91	51.205
501.26	49.580
501.60	52.091
501.95	50.946
502.29	51.041
502.64	51.110
502.98	51.801
503.33	49.856
503.67	50.554
504.02	50.880
504.36	53.043
504.71	50.404
505.06	51.283
505.40	51.675
505.75	52.474
506.09	50.836
506.44	52.156
506.78	52.041
507.13	52.585
507.47	51.279
507.82	52.083
508.16	52.139
508.51	52.256
508.85	52.433
509.19	52.155
509.54	51.957
509.88	51.456
510.23	51.856
510.57	51.523
510.92	51.279
511.26	51.555
511.61	52.970
511.95	52.384
512.30	52.384
512.64	52.254
512.98	52.499
513.33	52.434
513.67	53.667
514.02	53.146
514.36	53.486
514.70	53.030
515.05	53.760
515.39	53.837
515.74	54.910
516.08	54.214
516.42	53.239
516.77	54.769
517.11	53.531
517.46	54.997
517.80	53.933
518.14	54.011
518.49	53.666
518.83	53.341
519.17	53.608
519.52	53.523
519.86	52.881
520.20	55.286
520.55	54.597
520.89	55.144
521.23	55.225
521.58	53.754
521.92	55.128
522.26	55.042
522.61	54.416
522.95	55.430
523.29	54.956
523.64	54.574
523.98	54.180
524.32	53.479
524.66	55.378
525.01	55.130
525.35	54.634
525.69	55.084
526.04	54.696
526.38	56.096
526.72	53.761
527.06	55.188
527.41	56.069
527.75	54.826
528.09	55.216
528.43	56.516
528.78	55.578
529.12	55.032
529.46	55.750
529.80	55.225
530.15	56.106
530.49	55.892
530.83	56.977
531.17	55.473
531.51	56.430
531.86	55.337
532.20	54.767
532.54	56.501
532.88	56.194
533.22	55.780
533.57	55.374
533.91	56.070
534.25	55.469
534.59	55.677
534.93	54.185
535.27	55.457
535.62	55.282
535.96	55.969
536.30	56.530
536.64	56.444
536.98	54.216
537.32	56.543
537.66	57.223
538.01	57.622
538.35	56.241
538.69	55.659
539.03	57.826
539.37	56.797
539.71	56.101
540.05	55.465
540.39	56.510
540.73	56.974
541.07	55.594
541.42	56.116
541.76	57.467
542.10	56.297
542.44	56.915
542.78	54.921
543.12	55.495
543.46	57.163
543.80	58.154
544.14	55.874
544.48	55.763
544.82	56.801
545.16	57.582
545.50	55.607
545.84	57.224
546.18	57.447
546.52	56.453
546.86	57.800
547.20	56.867
547.54	56.466
547.88	56.386
548.22	56.279
548.56	55.673
548.90	56.941
549.24	56.543
549.58	56.488
549.92	57.041
550.26	56.557
550.60	57.621
550.94	57.954
551.28	57.496
551.62	58.692
551.96	57.669
552.30	58.845
552.64	57.052
552.98	58.158
553.32	57.703
553.66	56.821
554.00	58.394
554.34	58.124
554.68	57.006
555.02	59.003
555.36	58.489
555.69	57.363
556.03	57.959
556.37	59.146
556.71	57.690
557.05	59.284
557.39	57.175
557.73	57.946
558.07	59.653
558.41	58.423
558.75	58.145
559.08	59.023
559.42	58.254
559.76	58.767
560.10	58.333
560.44	58.153
560.78	57.133
561.12	58.322
561.45	59.944
561.79	58.123
562.13	60.256
562.47	58.058
562.81	58.501
563.15	58.181
563.48	59.406
563.82	60.055
564.16	59.192
564.50	57.770
564.84	58.835
565.17	58.216
565.51	60.383
565.85	58.711
566.19	59.682
566.52	58.579
566.86	58.098
567.20	59.340
567.54	60.645
567.88	60.047
568.21	58.428
568.55	59.728
568.89	59.548
569.23	59.461
569.56	57.093
569.90	57.775
570.24	56.457
570.57	58.000
570.91	57.930
571.25	56.495
571.59	56.587
571.92	56.622
572.26	57.156
572.60	56.682
572.93	56.574
573.27	57.179
573.61	58.115
573.95	57.946
574.28	56.886
574.62	56.395
574.96	56.220
575.29	56.790
575.63	55.584
575.97	56.574
576.30	57.408
576.64	56.503
576.98	57.555
577.31	57.606
577.65	57.867
577.98	57.544
578.32	56.976
578.66	56.415
578.99	57.113
579.33	56.583
579.67	56.826
580.00	57.924
580.34	57.736
580.67	57.591
581.01	57.901
581.35	57.450
581.68	57.390
582.02	57.937
582.35	57.474
582.69	57.343
583.02	56.569
583.36	57.866
583.70	58.593
584.03	58.465
584.37	60.446
584.70	58.379
585.04	57.435
585.37	57.518
585.71	57.764
586.04	58.371
586.38	57.615
586.72	58.508
587.05	59.619
587.39	58.513
587.72	59.732
588.06	59.258
588.39	58.616
588.73	59.096
589.06	59.589
589.40	59.316
589.73	59.657
590.07	60.272
590.40	60.255
590.73	60.708
591.07	61.026
591.40	60.018
591.74	60.543
592.07	60.343
592.41	60.071
592.74	60.215
593.08	59.169
593.41	59.572
593.75	60.124
594.08	58.874
594.41	59.898
594.75	59.924
595.08	60.499
595.42	60.582
595.75	61.097
596.09	60.047
596.42	62.009
596.75	61.812
597.09	61.822
597.42	60.388
597.75	61.475
598.09	59.620
598.42	60.875
598.76	61.433
599.09	61.498
599.42	58.772
599.76	60.647
600.09	60.520
600.42	60.500
600.76	59.658
601.09	59.542
601.42	60.948
601.76	60.699
602.09	61.304
602.42	62.890
602.76	61.757
603.09	62.915
603.42	63.587
603.76	60.968
604.09	61.442
604.42	62.606
604.76	62.661
605.09	62.980
605.42	61.670
605.75	62.215
606.09	62.803
606.42	61.551
606.75	62.857
607.09	62.418
607.42	62.251
607.75	61.901
608.08	61.096
608.42	61.581
608.75	62.699
609.08	64.275
609.41	63.452
609.75	63.508
610.08	63.754
610.41	62.850
610.74	62.750
611.07	63.618
611.41	63.882
611.74	64.925
612.07	63.704
612.40	64.004
612.73	63.955
613.07	63.611
613.40	65.481
613.73	64.354
614.06	63.606
614.39	64.523
614.72	63.529
615.06	65.028
615.39	63.373
615.72	63.832
616.05	65.419
616.38	63.362
616.71	65.933
617.05	66.028
617.38	65.556
617.71	66.038
618.04	66.286
618.37	66.898
618.70	65.743
619.03	67.083
619.36	68.958
619.69	69.295
620.03	68.444
620.36	67.597
620.69	67.666
621.02	67.125
621.35	71.037
621.68	70.068
622.01	69.500
622.34	69.912
622.67	67.114
623.00	66.845
623.33	68.445
623.66	68.586
623.99	68.079
624.32	69.506
624.65	69.023
624.99	69.676
625.32	66.869
625.65	70.463
625.98	69.460
626.31	69.327
626.64	70.624
626.97	71.640
627.30	70.315
627.63	69.497
627.96	70.081
628.29	72.988
628.62	71.190
628.95	70.441
629.28	72.278
629.61	71.984
629.94	70.186
630.26	72.530
630.59	73.049
630.92	72.103
631.25	70.154
631.58	75.000
631.91	73.026
632.24	72.936
632.57	73.182
632.90	73.191
633.23	72.000
633.56	74.181
633.89	75.956
634.22	76.543
634.55	75.604
634.88	74.074
635.20	72.949
635.53	73.333
635.86	72.042
636.19	76.197
636.52	74.362
636.85	72.953
637.18	74.214
637.51	71.824
637.83	75.690
638.16	78.172
638.49	73.706
638.82	75.395
639.15	74.898
639.48	75.241
639.81	77.266
640.13	75.325
640.46	78.280
640.79	76.289
641.12	75.923
641.45	77.327
641.77	78.963
642.10	77.567
642.43	77.492
642.76	80.858
643.09	76.252
643.41	75.728
643.74	77.430
644.07	78.325
644.40	79.223
644.73	79.510
645.05	76.007
645.38	81.658
645.71	77.837
646.04	79.892
646.36	79.255
646.69	81.655
647.02	82.987
647.35	79.478
647.67	79.890
648.00	83.209
648.33	78.157
648.66	79.322
648.98	78.224
649.31	77.521
649.64	78.022
649.96	76.823
650.29	81.601
650.62	75.556
650.94	82.407
651.27	82.495
651.60	82.703
651.92	78.846
652.25	80.995
652.58	78.500
652.90	82.333
653.23	80.000
653.56	76.819
653.88	78.179
654.21	78.284
654.54	77.759
654.86	82.173
655.19	76.462
655.52	72.833
655.84	67.221
656.17	75.287
656.49	99.523
656.82	100.000
657.15	85.107
657.47	60.966
657.80	45.953
658.13	45.152
658.45	70.877
658.78	71.040
659.10	71.044
659.43	72.260
659.75	74.840
660.08	75.517
660.41	79.265
660.73	79.420
661.06	81.629
661.38	81.605
661.71	80.287
662.03	86.695
662.36	82.198
662.68	83.850
663.01	84.498
663.33	84.687
663.66	83.023
663.98	84.651
664.31	78.678
664.63	81.797
664.96	79.565
665.28	82.340
665.61	86.147
665.93	84.130
666.26	85.466
666.58	82.550
666.91	87.059
667.23	89.387
667.56	82.938
667.88	86.091
668.21	84.248
668.53	85.579
668.86	84.670
669.18	83.019
669.50	82.809
669.83	83.721
670.15	82.284
670.48	84.450
670.80	82.719
671.13	80.537
671.45	81.050
671.77	82.833
672.10	82.772
672.42	82.772
672.75	81.350
673.07	82.648
673.39	83.303
673.72	80.473
674.04	83.125
674.37	84.958
674.69	80.514
675.01	84.000
675.34	85.360
675.66	84.954
675.98	82.705
676.31	84.862
676.63	85.511
676.95	84.773
677.28	84.471
677.60	85.542
677.92	86.009
678.25	84.683
678.57	87.879
678.89	83.403
679.22	89.038
679.54	82.129
679.86	80.517
680.18	83.495
680.51	84.848
680.83	83.897
681.15	83.000
681.48	84.426
681.80	86.777
682.12	82.863
682.44	85.565
682.77	84.106
683.09	86.499
683.41	80.682
683.73	84.101
684.06	83.628
684.38	80.430
684.70	87.364
685.02	85.685
685.34	82.609
685.67	84.428
685.99	84.629
686.31	83.186
686.63	84.416
686.96	80.418
687.28	80.808
687.60	83.270
687.92	88.687
688.24	83.266
688.56	86.245
688.89	85.491
689.21	86.889
689.53	83.991
689.85	87.209
690.17	86.384
690.49	86.525
690.82	84.951
691.14	85.714
691.46	86.916
691.78	86.486
692.10	85.376
692.42	83.766
692.74	84.829
693.06	83.333
693.39	86.878
693.71	82.579
694.03	85.219
694.35	84.346
694.67	88.131
694.99	91.906
695.31	89.556
695.63	86.250
695.95	85.606
696.27	86.269
696.59	90.833
696.91	91.036
697.23	86.118
697.56	88.614
697.88	84.946
698.20	87.699
698.52	86.353
698.84	84.928
699.16	85.750
699.48	90.476
699.80	84.864
700.12	88.140
700.44	91.597
700.76	86.628
701.08	90.303
701.40	88.253
701.72	94.444
702.04	96.040
702.36	99.331
702.68	90.991
703.00	91.515
703.32	94.428
703.64	85.593
703.96	90.725
704.28	87.117
704.60	94.603
704.91	86.751
705.23	91.694
705.55	97.880
705.87	93.863
706.19	99.259
706.51	90.034
706.83	92.605
707.15	86.916
707.47	90.196
707.79	84.896
708.11	86.250
708.43	84.500
708.74	83.204
709.06	92.394
709.38	89.908
709.70	92.012
710.02	89.809
710.34	90.402
710.66	85.256
710.98	93.709
711.29	89.836
711.61	93.220
711.93	87.622
712.25	95.533
712.57	94.505
712.89	88.433
713.20	91.696
713.52	83.972
713.84	89.078
714.16	90.722
714.48	85.806
714.80	92.949
715.11	88.450
715.43	87.774
715.75	92.333
716.07	90.033
716.39	92.953
716.70	92.251
717.02	92.366
717.34	93.117
717.66	98.673
717.97	91.739
718.29	94.561
718.61	93.307
718.93	89.535
719.24	90.494
719.56	98.795
719.88	93.471
720.20	96.970
720.51	89.272
720.83	88.031
721.15	96.218
721.46	91.935
721.78	91.700
722.10	86.989
722.42	89.627
722.73	89.388
723.05	95.510
723.37	97.458
723.68	101.802
724.00	88.034
724.32	94.667
724.63	95.455
724.95	93.886
725.27	103.226
725.58	90.678
725.90	91.667
726.22	90.734
726.53	86.441
726.85	92.135
727.16	96.604
727.48	89.069
727.80	93.117
728.11	91.949
728.43	88.235
728.74	89.113
729.06	90.800
729.38	95.113
729.69	92.430
730.01	92.692
730.32	94.776
730.64	85.866
730.96	93.962
731.27	87.000
731.59	93.559
731.90	89.809
732.22	91.167
732.53	87.708
732.85	90.426
733.16	89.562
733.48	89.568
733.80	94.565
734.11	86.102
734.43	94.502
734.74	89.394
735.06	93.160
735.37	86.405
735.69	93.603
736.00	87.108
736.32	88.255
736.63	87.676
736.95	87.713
737.26	87.900
737.58	84.899
737.89	90.110
738.21	91.353
738.52	94.650
738.83	93.886
739.15	93.013
739.46	88.583
739.78	91.941
740.09	84.314
740.41	88.768
740.72	89.370
741.04	88.259
741.35	89.787
741.66	91.943
741.98	94.388
742.29	97.030
742.61	93.194
742.92	90.995
743.23	90.278
743.55	86.878
743.86	98.565
744.18	91.866
744.49	95.213
744.80	95.109
745.12	102.674
745.43	85.854
745.74	98.438
746.06	94.146
746.37	100.524
746.68	94.313
747.00	101.596
747.31	105.473
747.62	94.660
747.94	94.258
748.25	91.089
748.56	98.907
748.88	95.812
749.19	97.872
749.50	96.059
749.82	90.566
750.13	91.284
750.44	89.850
750.75	93.657
751.07	92.701
751.38	89.272
751.69	92.549
752.01	91.473
752.32	91.633
752.63	86.957
752.94	93.103
753.26	97.071
753.57	93.665
753.88	92.920
754.19	93.333
754.51	96.694
754.82	93.522
755.13	95.417
755.44	95.161
755.75	90.625
756.07	91.440
756.38	87.925
756.69	90.038
757.00	84.000
757.31	85.948
757.63	86.585
757.94	80.000
758.25	83.836
758.56	84.309
758.87	85.552
759.18	85.670
759.50	85.818
759.81	85.619
760.12	87.097
760.43	79.394
760.74	90.123
761.05	90.769
761.36	86.364
761.67	89.394
761.99	95.238
762.30	87.273
762.61	85.771
762.92	96.833
763.23	91.441
763.54	91.121
763.85	88.559
764.16	89.212
764.47	89.113
764.78	89.011
765.10	89.226
765.41	87.697
765.72	86.984
766.03	91.353
766.34	88.686
766.65	88.446
766.96	100.000
767.27	83.511
767.58	97.701
767.89	104.255
768.20	85.795
768.51	87.363
768.82	94.089
769.13	88.940
769.44	82.833
769.75	87.671
770.06	82.759
770.37	92.788
770.68	95.939
770.99	78.281
771.30	94.608
771.61	95.023
771.92	88.362
772.23	91.626
772.54	91.935
772.85	90.123
773.16	89.888
773.47	103.922
773.78	98.039
774.09	86.228
774.39	91.333
774.70	92.357
775.01	92.414
775.32	102.143
775.63	105.785
775.94	97.710
776.25	98.425
776.56	89.167
776.87	100.000
777.18	91.453
777.48	93.103
777.79	95.652
778.10	102.857
778.41	78.378
778.72	91.270
779.03	102.256
779.34	87.943
779.65	91.781
779.95	85.616
780.26	89.655
780.57	85.366
780.88	87.402
781.19	92.241
781.50	100.000
781.80	82.840
782.11	81.761
782.42	103.846
782.73	98.561
783.04	92.593
783.34	87.500
783.65	85.470
783.96	95.082
784.27	80.690
784.57	96.748
784.88	85.938
785.19	111.000
785.50	119.000
785.81	84.483
786.11	106.034
786.42	92.233
786.73	89.091
787.04	98.980
787.34	80.357
787.65	97.143
787.96	93.805
788.26	100.000
788.57	78.632
788.88	85.938
789.19	92.063
789.49	93.913
789.80	116.327
790.11	85.859
790.41	90.000
790.72	108.696
791.03	92.045
791.33	107.500
791.64	101.250
791.95	87.209
792.25	77.660
792.56	78.652
792.87	94.521
793.17	100.000
793.48	94.667
793.79	82.500
794.09	107.500
794.40	89.623
794.70	99.029
795.01	82.114
795.32	87.179
795.62	94.286
795.93	83.333
796.23	94.340
796.54	92.708
796.85	117.647
797.15	97.183
797.46	101.389
797.76	115.152
798.07	84.884
798.37	90.789
798.68	77.273
798.99	67.901
799.29	85.714
799.60	108.696
799.90	92.000
800.21	111.475
800.51	93.846
800.82	83.051
801.12	100.000
801.43	96.721
801.73	95.238
802.04	88.000
802.34	92.537
802.65	111.538
802.95	83.929
803.26	107.692
803.56	92.157
803.87	93.478
804.17	73.333
804.48	101.587
804.78	74.074
805.09	104.348
805.39	106.667
805.70	92.593
806.00	66.667
806.30	73.239
806.61	97.143
806.91	97.222
807.22	90.789
807.52	93.333
807.83	83.636
808.13	91.667
808.43	86.765
808.74	71.642
809.04	91.525
809.35	78.846
809.65	89.062
809.95	110.811
810.26	104.545
810.56	84.932
810.86	126.190
811.17	80.000
811.47	110.204
811.77	94.737
812.08	90.909
812.38	79.245
812.69	62.500
812.99	81.818
813.29	89.474
813.59	74.286
813.90	102.273
814.20	120.513
814.50	109.615
814.81	103.774
815.11	74.468
815.41	93.220
815.72	107.143
816.02	84.314
816.32	72.917
816.62	95.122
816.93	91.892
817.23	97.143
817.53	72.917
817.84	95.652
818.14	86.538
818.44	92.105
818.74	91.304
819.04	85.000
819.35	124.324
819.65	105.882
819.95	75.000
820.25	83.333
820.56	82.500
820.86	106.897
821.16	105.000
821.46	100.000
821.76	125.000
822.07	95.349
822.37	56.757
822.67	112.500
822.97	76.190
823.27	78.571
823.57	120.000
823.88	107.407
824.18	107.143
824.48	79.412
824.78	116.129
825.08	134.783
825.38	100.000
825.69	112.500
825.99	81.579
826.29	75.000
826.59	146.667
826.89	85.714
827.19	69.565
827.49	62.500
827.79	97.143
828.09	110.714
828.39	139.394
828.70	110.811
829.00	53.571
829.30	123.810
829.60	123.333
829.90	109.375
830.20	68.421
830.50	107.407
830.80	78.261
831.10	90.909
831.40	90.909
831.70	116.129
832.00	90.476
832.30	42.857
832.60	141.667
832.90	113.793
833.20	100.000
833.50	72.727
833.80	148.148
834.10	73.077
834.40	75.000
834.70	133.333
835.00	89.474
835.30	146.154
835.60	220.000
835.90	100.000
836.20	113.636
836.50	146.429
836.80	53.846
837.10	32.143
837.40	466.667
837.70	122.727
838.00	118.182
838.30	78.261
838.60	130.769
838.90	90.909
839.19	75.000
839.49	73.333
839.79	115.385
840.09	116.667
840.39	110.714
840.69	71.429
840.99	38.462
841.29	73.684
841.59	60.000
841.88	145.455
842.18	130.000
842.48	187.500
842.78	33.333
843.08	66.667
843.38	80.000
843.68	126.087
843.97	93.333
844.27	13.333
844.57	115.000
844.87	72.222
845.17	71.429
845.47	153.333
845.76	66.667
846.06	82.353
846.36	80.000
846.66	128.571
846.96	80.000
847.25	62.500
847.55	114.286
847.85	200.000
848.15	54.545
848.44	133.333
848.74	125.000
849.04	66.667
849.34	118.182
849.63	83.333
849.93	80.000
850.23	61.111
850.53	100.000
850.82	46.154
851.12	177.778
851.42	33.333
851.71	65.385
852.01	114.286
852.31	375.000
852.61	127.273
852.90	75.000
853.20	78.947
853.50	33.333
853.79	82.609
854.09	87.500
854.39	68.421
854.68	70.833
854.98	80.645
855.28	84.615
855.57	85.000
855.87	105.556
856.17	62.963
856.46	85.714
856.76	113.333
857.05	411.111
857.35	92.000
857.65	72.222
857.94	100.000
858.24	141.379
858.53	144.444
858.83	55.556
859.13	100.000
859.42	56.522
859.72	300.000
860.01	533.333
860.31	72.000
860.60	52.381
860.90	200.000
861.20	140.000
861.49	0.000
861.79	80.000
862.08	70.000
862.38	140.000
862.67	-60.000
862.97	183.333
863.26	108.333
863.56	94.444
863.85	33.333
864.15	150.000
864.44	150.000
864.74	57.143
865.03	75.000
865.33	0.000
865.62	333.333
865.92	33.333
866.21	100.000
866.51	25.000
866.80	63.636
867.10	250.000
867.39	75.000
867.69	0.000
867.98	7.692
868.27	166.667
868.57	20.000
868.86	44.444
869.16	69.231
869.45	120.000
869.75	-200.000
870.04	0.000
870.33	100.000
870.63	52.381
870.92	-166.667
871.22	60.000
871.51	1200.000
871.80	111.111
872.10	-333.333
>>>>>End Processed Spectral Data<<<<<
