SpectraSuite Data File
++++++++++++++++++++++++++++++++++++
Date: Fri May 15 17:16:04 PDT 2015
User: schluterlab
Dark Spectrum Present: Yes
Reference Spectrum Present: Yes
Number of Sampled Component Spectra: 1
Spectrometers: USB2E3373
Integration Time (usec): 3000 (USB2E3373)
Spectra Averaged: 3 (USB2E3373)
Boxcar Smoothing: 0 (USB2E3373)
Correct for Electrical Dark: No (USB2E3373)
Strobe/Lamp Enabled: No (USB2E3373)
Correct for Detector Non-linearity: No (USB2E3373)
Correct for Stray Light: No (USB2E3373)
Number of Pixels in Processed Spectrum: 2048
>>>>>Begin Processed Spectral Data<<<<<
178.53	0.000
178.91	0.000
179.29	75.000
179.67	250.000
180.04	-0.000
180.42	75.000
180.80	1000.000
181.18	-66.667
181.56	-200.000
181.94	450.000
182.31	-800.000
182.69	400.000
183.07	-66.667
183.45	-40.000
183.83	183.333
184.20	9.091
184.58	55.556
184.96	-225.000
185.34	-166.667
185.72	300.000
186.09	30.769
186.47	-200.000
186.85	100.000
187.23	-11.111
187.61	-600.000
187.98	-300.000
188.36	0.000
188.74	266.667
189.12	88.235
189.49	105.556
189.87	0.000
190.25	128.571
190.63	250.000
191.00	400.000
191.38	57.895
191.76	250.000
192.14	-25.000
192.51	550.000
192.89	100.000
193.27	71.429
193.65	250.000
194.02	36.364
194.40	90.000
194.78	12.500
195.15	108.333
195.53	62.500
195.91	-0.000
196.29	-250.000
196.66	138.462
197.04	-14.286
197.42	66.667
197.79	-266.667
198.17	-76.923
198.55	800.000
198.92	-33.333
199.30	300.000
199.68	-60.000
200.05	-133.333
200.43	0.000
200.81	300.000
201.18	100.000
201.56	-300.000
201.94	-400.000
202.31	-133.333
202.69	-180.000
203.07	-175.000
203.44	-200.000
203.82	0.000
204.19	64.286
204.57	-433.333
204.95	100.000
205.32	40.000
205.70	100.000
206.08	250.000
206.45	177.778
206.83	135.714
207.20	-42.857
207.58	-200.000
207.96	266.667
208.33	10.000
208.71	-200.000
209.08	-33.333
209.46	-800.000
209.84	40.000
210.21	-300.000
210.59	114.286
210.96	300.000
211.34	100.000
211.71	40.000
212.09	57.143
212.46	-1200.000
212.84	0.000
213.22	60.000
213.59	100.000
213.97	38.462
214.34	45.455
214.72	100.000
215.09	200.000
215.47	30.769
215.84	0.000
216.22	-133.333
216.59	-25.000
216.97	600.000
217.34	75.000
217.72	140.000
218.09	125.000
218.47	112.500
218.84	200.000
219.22	-66.667
219.59	-40.000
219.97	200.000
220.34	325.000
220.72	128.571
221.09	150.000
221.47	300.000
221.84	200.000
222.22	-150.000
222.59	81.818
222.97	16.667
223.34	-300.000
223.72	35.714
224.09	47.619
224.46	17.857
224.84	333.333
225.21	50.000
225.59	113.333
225.96	600.000
226.34	225.000
226.71	28.571
227.08	16.667
227.46	200.000
227.83	-150.000
228.21	88.889
228.58	145.455
228.95	37.500
229.33	-0.000
229.70	-6.250
230.08	62.500
230.45	0.000
230.82	214.286
231.20	20.000
231.57	57.143
231.95	185.714
232.32	-50.000
232.69	71.429
233.07	100.000
233.44	200.000
233.81	-10.000
234.19	88.889
234.56	58.824
234.93	200.000
235.31	-50.000
235.68	-40.000
236.05	-30.769
236.43	10.000
236.80	35.294
237.17	21.875
237.55	-20.000
237.92	11.111
238.29	25.000
238.67	53.333
239.04	26.471
239.41	12.195
239.79	3.333
240.16	4.878
240.53	-7.895
240.91	-2.174
241.28	9.524
241.65	8.929
242.02	13.699
242.40	3.333
242.77	6.780
243.14	-4.545
243.51	13.750
243.89	18.391
244.26	14.943
244.63	9.524
245.00	11.340
245.38	18.557
245.75	-7.865
246.12	6.897
246.49	12.397
246.87	5.769
247.24	-4.202
247.61	-4.386
247.98	-3.252
248.36	7.500
248.73	6.579
249.10	-1.948
249.47	8.228
249.84	2.614
250.22	10.000
250.59	5.229
250.96	13.146
251.33	3.488
251.70	7.647
252.08	4.061
252.45	1.485
252.82	6.533
253.19	5.530
253.56	3.271
253.94	5.856
254.31	5.652
254.68	3.509
255.05	3.543
255.42	4.367
255.79	6.950
256.16	3.891
256.54	6.716
256.91	6.844
257.28	5.948
257.65	2.996
258.02	3.191
258.39	6.734
258.76	8.059
259.14	7.309
259.51	3.236
259.88	6.529
260.25	4.248
260.62	8.681
260.99	0.678
261.36	2.397
261.73	3.165
262.10	2.128
262.47	3.988
262.85	6.270
263.22	5.538
263.59	6.854
263.96	7.453
264.33	5.152
264.70	5.060
265.07	0.893
265.44	5.382
265.81	3.955
266.18	4.645
266.55	7.712
266.92	5.181
267.29	6.266
267.66	3.581
268.03	4.974
268.40	4.178
268.77	4.813
269.14	5.516
269.51	6.170
269.88	4.738
270.25	-0.255
270.62	2.683
270.99	1.535
271.36	2.445
271.73	4.930
272.10	5.839
272.47	4.728
272.84	2.228
273.21	9.049
273.58	5.060
273.95	5.034
274.32	3.233
274.69	2.489
275.06	6.027
275.43	4.762
275.80	1.987
276.17	3.678
276.54	5.139
276.91	5.044
277.28	4.148
277.65	5.372
278.02	4.255
278.39	1.969
278.76	1.887
279.13	0.830
279.50	5.042
279.87	5.184
280.23	4.516
280.60	3.899
280.97	4.444
281.34	1.731
281.71	5.339
282.08	1.431
282.45	2.348
282.82	3.282
283.19	3.482
283.56	3.661
283.92	1.708
284.29	2.885
284.66	3.682
285.03	4.912
285.40	2.457
285.77	3.866
286.14	3.971
286.51	4.797
286.87	2.194
287.24	4.604
287.61	2.998
287.98	5.263
288.35	3.120
288.72	2.977
289.08	4.340
289.45	4.218
289.82	3.671
290.19	1.877
290.56	3.087
290.93	4.209
291.29	2.157
291.66	4.409
292.03	2.871
292.40	1.452
292.77	2.552
293.13	0.487
293.50	2.580
293.87	3.817
294.24	3.555
294.60	2.832
294.97	2.530
295.34	1.380
295.71	3.875
296.08	4.036
296.44	1.707
296.81	3.750
297.18	2.609
297.55	5.420
297.91	3.699
298.28	4.617
298.65	5.427
299.02	2.561
299.38	0.958
299.75	2.345
300.12	1.832
300.48	1.713
300.85	3.802
301.22	3.377
301.59	2.368
301.95	3.924
302.32	5.966
302.69	3.980
303.05	3.342
303.42	1.619
303.79	3.388
304.15	3.943
304.52	2.616
304.89	4.678
305.25	2.421
305.62	2.800
305.99	1.637
306.35	1.734
306.72	2.362
307.09	2.965
307.45	4.707
307.82	3.125
308.19	3.717
308.55	3.599
308.92	3.813
309.29	0.894
309.65	2.368
310.02	2.530
310.38	4.171
310.75	2.623
311.12	2.906
311.48	3.287
311.85	3.979
312.22	2.848
312.58	2.017
312.95	2.134
313.31	3.313
313.68	3.560
314.05	3.571
314.41	3.814
314.78	3.402
315.14	4.522
315.51	4.348
315.87	3.381
316.24	6.168
316.61	5.315
316.97	5.655
317.34	5.078
317.70	5.163
318.07	5.288
318.43	6.078
318.80	5.966
319.16	6.641
319.53	7.692
319.89	6.890
320.26	6.781
320.62	7.222
320.99	6.785
321.35	8.633
321.72	9.761
322.08	9.466
322.45	9.645
322.81	9.823
323.18	10.206
323.54	11.776
323.91	12.269
324.27	12.500
324.64	14.045
325.00	15.328
325.37	16.345
325.73	15.231
326.10	17.257
326.46	18.296
326.83	18.985
327.19	19.529
327.56	18.940
327.92	21.215
328.29	22.589
328.65	22.453
329.01	22.978
329.38	25.161
329.74	24.646
330.11	26.228
330.47	25.974
330.84	26.250
331.20	28.802
331.56	27.500
331.93	29.772
332.29	29.973
332.66	29.774
333.02	30.576
333.38	31.347
333.75	33.333
334.11	32.498
334.48	33.726
334.84	35.531
335.20	34.950
335.57	35.177
335.93	35.501
336.29	35.727
336.66	36.512
337.02	36.059
337.38	37.037
337.75	35.818
338.11	37.872
338.47	38.869
338.84	37.800
339.20	38.026
339.56	39.817
339.93	38.138
340.29	39.083
340.65	37.993
341.02	39.096
341.38	37.522
341.74	39.576
342.11	38.995
342.47	39.235
342.83	39.792
343.20	39.895
343.56	40.870
343.92	41.010
344.28	40.222
344.65	40.674
345.01	40.104
345.37	40.202
345.73	40.586
346.10	42.019
346.46	40.286
346.82	40.671
347.19	40.565
347.55	40.434
347.91	40.696
348.27	41.229
348.63	42.675
349.00	40.525
349.36	42.145
349.72	42.537
350.08	41.066
350.45	40.623
350.81	41.362
351.17	40.228
351.53	42.041
351.89	40.297
352.26	41.600
352.62	40.968
352.98	41.124
353.34	41.224
353.70	41.909
354.07	41.855
354.43	42.034
354.79	42.940
355.15	42.143
355.51	42.959
355.87	42.152
356.24	42.414
356.60	42.926
356.96	42.937
357.32	41.613
357.68	40.891
358.04	42.407
358.40	42.524
358.77	42.982
359.13	43.074
359.49	41.834
359.85	42.824
360.21	44.338
360.57	42.770
360.93	43.495
361.29	42.900
361.66	44.592
362.02	44.318
362.38	43.869
362.74	45.117
363.10	45.297
363.46	43.810
363.82	44.929
364.18	44.133
364.54	42.279
364.90	44.444
365.26	43.450
365.62	44.745
365.98	44.795
366.35	46.613
366.71	45.233
367.07	44.485
367.43	43.781
367.79	45.724
368.15	44.652
368.51	45.594
368.87	45.441
369.23	45.704
369.59	45.773
369.95	46.188
370.31	46.676
370.67	47.239
371.03	45.631
371.39	44.493
371.75	46.667
372.11	46.648
372.47	46.080
372.83	46.700
373.19	47.218
373.55	45.632
373.91	47.012
374.27	48.760
374.63	48.385
374.99	47.518
375.35	45.961
375.71	48.252
376.07	47.963
376.42	47.075
376.78	47.248
377.14	47.190
377.50	48.008
377.86	47.189
378.22	48.373
378.58	48.974
378.94	48.645
379.30	49.407
379.66	50.721
380.02	48.804
380.38	48.022
380.74	48.654
381.09	50.736
381.45	48.869
381.81	49.167
382.17	50.000
382.53	49.594
382.89	51.664
383.25	51.089
383.61	50.915
383.97	50.159
384.32	49.406
384.68	51.455
385.04	50.674
385.40	51.151
385.76	51.509
386.12	51.746
386.48	51.341
386.83	51.046
387.19	51.465
387.55	52.196
387.91	51.956
388.27	51.221
388.62	53.241
388.98	51.197
389.34	50.781
389.70	52.144
390.06	51.857
390.42	52.267
390.77	53.172
391.13	51.765
391.49	52.458
391.85	53.086
392.20	51.224
392.56	52.384
392.92	52.437
393.28	51.887
393.64	51.952
393.99	53.542
394.35	52.751
394.71	53.959
395.07	51.603
395.42	51.609
395.78	52.638
396.14	51.955
396.50	53.393
396.85	53.960
397.21	52.632
397.57	53.166
397.92	52.726
398.28	54.310
398.64	51.325
399.00	54.515
399.35	51.467
399.71	52.728
400.07	52.842
400.42	51.714
400.78	51.990
401.14	52.269
401.49	53.961
401.85	52.285
402.21	52.711
402.57	53.125
402.92	52.635
403.28	52.444
403.63	53.405
403.99	52.423
404.35	53.841
404.70	50.298
405.06	51.058
405.42	50.839
405.77	51.656
406.13	52.503
406.49	52.575
406.84	52.323
407.20	52.619
407.55	51.706
407.91	53.275
408.27	51.307
408.62	52.677
408.98	51.818
409.34	52.974
409.69	50.840
410.05	51.355
410.40	51.667
410.76	52.292
411.11	51.688
411.47	52.926
411.83	51.538
412.18	53.153
412.54	51.498
412.89	51.663
413.25	53.069
413.60	51.615
413.96	50.798
414.31	51.951
414.67	51.828
415.03	52.130
415.38	52.285
415.74	52.443
416.09	54.213
416.45	52.262
416.80	50.958
417.16	53.591
417.51	52.032
417.87	52.412
418.22	54.210
418.58	53.913
418.93	53.480
419.29	51.857
419.64	52.236
420.00	55.038
420.35	52.597
420.71	53.645
421.06	53.775
421.42	53.425
421.77	53.757
422.12	54.313
422.48	52.897
422.83	54.292
423.19	53.555
423.54	54.556
423.90	53.769
424.25	54.191
424.61	54.712
424.96	54.239
425.31	55.979
425.67	55.282
426.02	55.477
426.38	57.295
426.73	56.235
427.09	56.392
427.44	56.647
427.79	55.922
428.15	56.553
428.50	55.239
428.85	55.958
429.21	57.499
429.56	57.305
429.92	56.600
430.27	56.040
430.62	57.763
430.98	57.909
431.33	56.993
431.68	54.736
432.04	57.183
432.39	57.273
432.74	55.622
433.10	58.218
433.45	57.527
433.80	57.922
434.16	57.784
434.51	57.473
434.86	57.782
435.22	58.160
435.57	59.201
435.92	58.563
436.28	57.484
436.63	57.616
436.98	57.764
437.34	59.044
437.69	58.736
438.04	58.234
438.39	57.239
438.75	60.170
439.10	58.970
439.45	59.951
439.81	59.694
440.16	59.798
440.51	59.403
440.86	60.483
441.22	58.824
441.57	60.486
441.92	61.805
442.27	62.195
442.63	61.028
442.98	60.942
443.33	60.545
443.68	59.841
444.03	60.457
444.39	61.682
444.74	62.263
445.09	61.915
445.44	62.051
445.79	62.403
446.15	60.848
446.50	60.455
446.85	63.018
447.20	62.774
447.55	61.775
447.91	61.816
448.26	62.322
448.61	62.579
448.96	62.937
449.31	62.139
449.66	60.627
450.02	62.293
450.37	61.055
450.72	62.371
451.07	63.165
451.42	60.612
451.77	61.724
452.12	61.244
452.47	63.941
452.83	62.780
453.18	62.239
453.53	63.085
453.88	63.024
454.23	61.278
454.58	62.783
454.93	61.920
455.28	61.143
455.63	62.182
455.98	63.860
456.34	63.538
456.69	62.834
457.04	64.020
457.39	63.123
457.74	63.059
458.09	62.213
458.44	63.195
458.79	63.305
459.14	64.073
459.49	63.284
459.84	63.508
460.19	62.439
460.54	64.120
460.89	64.432
461.24	62.795
461.59	64.905
461.94	63.019
462.29	64.596
462.64	63.721
462.99	62.627
463.34	63.491
463.69	63.449
464.04	64.165
464.39	63.493
464.74	63.742
465.09	64.317
465.44	65.205
465.79	62.868
466.14	64.538
466.49	64.347
466.84	64.485
467.19	62.954
467.54	62.708
467.89	63.740
468.24	63.443
468.59	65.143
468.94	63.556
469.29	63.934
469.64	63.910
469.99	63.910
470.34	64.232
470.68	64.579
471.03	64.897
471.38	63.409
471.73	62.815
472.08	63.501
472.43	65.235
472.78	63.537
473.13	64.014
473.48	64.560
473.83	63.636
474.17	65.868
474.52	63.944
474.87	64.000
475.22	64.735
475.57	65.387
475.92	64.344
476.27	65.250
476.61	64.757
476.96	63.358
477.31	63.818
477.66	63.596
478.01	64.570
478.36	64.597
478.70	66.069
479.05	65.055
479.40	65.766
479.75	63.660
480.10	63.850
480.45	64.100
480.79	66.616
481.14	65.779
481.49	64.236
481.84	65.106
482.19	64.827
482.53	64.844
482.88	63.866
483.23	64.203
483.58	64.481
483.92	63.988
484.27	64.540
484.62	64.993
484.97	64.842
485.31	65.571
485.66	66.658
486.01	68.120
486.36	67.952
486.70	66.721
487.05	66.406
487.40	65.383
487.75	66.113
488.09	64.030
488.44	63.721
488.79	64.176
489.13	65.264
489.48	63.873
489.83	64.260
490.17	63.146
490.52	63.880
490.87	63.443
491.22	65.473
491.56	64.421
491.91	63.623
492.26	65.095
492.60	62.764
492.95	64.289
493.30	62.531
493.64	65.128
493.99	63.961
494.34	64.466
494.68	63.857
495.03	63.163
495.37	64.426
495.72	66.229
496.07	65.707
496.41	65.189
496.76	64.993
497.11	64.043
497.45	65.155
497.80	65.288
498.14	64.481
498.49	64.297
498.84	64.721
499.18	65.010
499.53	64.881
499.87	63.813
500.22	64.590
500.56	66.162
500.91	64.859
501.26	63.866
501.60	63.847
501.95	64.774
502.29	65.182
502.64	65.058
502.98	65.170
503.33	64.265
503.67	64.578
504.02	64.712
504.36	64.523
504.71	64.343
505.06	64.469
505.40	64.670
505.75	65.412
506.09	65.180
506.44	66.170
506.78	64.796
507.13	64.271
507.47	63.133
507.82	64.103
508.16	64.395
508.51	64.376
508.85	64.469
509.19	64.822
509.54	65.094
509.88	63.700
510.23	64.927
510.57	64.671
510.92	62.154
511.26	64.375
511.61	65.402
511.95	64.493
512.30	64.246
512.64	64.274
512.98	64.290
513.33	64.466
513.67	64.355
514.02	64.760
514.36	65.600
514.70	64.918
515.05	66.157
515.39	63.577
515.74	64.072
516.08	63.837
516.42	65.312
516.77	64.599
517.11	65.401
517.46	65.470
517.80	64.779
518.14	64.789
518.49	63.341
518.83	64.216
519.17	62.765
519.52	63.647
519.86	62.305
520.20	63.791
520.55	63.540
520.89	63.112
521.23	63.838
521.58	64.164
521.92	64.551
522.26	64.476
522.61	64.416
522.95	65.762
523.29	63.596
523.64	64.104
523.98	64.290
524.32	63.466
524.66	64.149
525.01	64.221
525.35	64.226
525.69	64.175
526.04	64.286
526.38	65.305
526.72	63.636
527.06	62.840
527.41	64.644
527.75	62.802
528.09	63.123
528.43	64.078
528.78	63.894
529.12	64.903
529.46	64.977
529.80	62.381
530.15	65.017
530.49	65.320
530.83	65.390
531.17	64.003
531.51	63.406
531.86	63.834
532.20	63.535
532.54	63.172
532.88	65.435
533.22	64.382
533.57	65.531
533.91	64.883
534.25	66.276
534.59	64.913
534.93	63.814
535.27	64.277
535.62	65.327
535.96	63.992
536.30	64.908
536.64	63.680
536.98	63.554
537.32	64.438
537.66	64.727
538.01	64.965
538.35	64.771
538.69	64.115
539.03	65.003
539.37	64.334
539.71	66.462
540.05	64.902
540.39	65.512
540.73	64.993
541.07	63.881
541.42	63.911
541.76	64.143
542.10	64.556
542.44	64.072
542.78	62.973
543.12	65.041
543.46	63.908
543.80	64.400
544.14	62.817
544.48	63.091
544.82	66.781
545.16	66.052
545.50	63.818
545.84	65.652
546.18	66.950
546.52	64.384
546.86	65.421
547.20	65.451
547.54	64.382
547.88	64.334
548.22	65.023
548.56	64.776
548.90	65.162
549.24	63.430
549.58	63.611
549.92	64.332
550.26	64.322
550.60	65.651
550.94	64.152
551.28	65.070
551.62	65.308
551.96	64.962
552.30	64.547
552.64	62.976
552.98	64.065
553.32	62.981
553.66	64.731
554.00	64.891
554.34	65.510
554.68	63.643
555.02	63.988
555.36	65.071
555.69	64.689
556.03	64.811
556.37	64.982
556.71	64.693
557.05	65.548
557.39	62.528
557.73	65.517
558.07	65.611
558.41	65.161
558.75	65.238
559.08	63.751
559.42	66.111
559.76	65.813
560.10	64.373
560.44	65.674
560.78	64.476
561.12	67.560
561.45	67.182
561.79	65.476
562.13	65.224
562.47	64.964
562.81	65.346
563.15	64.598
563.48	65.842
563.82	67.056
564.16	66.365
564.50	65.000
564.84	66.265
565.17	65.526
565.51	67.623
565.85	67.764
566.19	66.645
566.52	68.164
566.86	67.031
567.20	68.120
567.54	67.822
567.88	69.127
568.21	68.382
568.55	67.826
568.89	69.610
569.23	69.283
569.56	69.177
569.90	71.376
570.24	69.185
570.57	71.418
570.91	71.314
571.25	70.602
571.59	69.231
571.92	67.941
572.26	70.562
572.60	69.116
572.93	68.466
573.27	69.091
573.61	69.600
573.95	69.798
574.28	69.836
574.62	69.616
574.96	69.658
575.29	69.738
575.63	67.634
575.97	67.390
576.30	68.878
576.64	69.510
576.98	70.039
577.31	70.804
577.65	71.078
577.98	70.964
578.32	71.303
578.66	68.816
578.99	68.928
579.33	68.823
579.67	67.928
580.00	69.772
580.34	70.373
580.67	69.238
581.01	70.293
581.35	70.435
581.68	70.321
582.02	71.224
582.35	70.975
582.69	70.413
583.02	69.643
583.36	69.458
583.70	69.730
584.03	70.781
584.37	71.485
584.70	70.110
585.04	69.456
585.37	69.803
585.71	70.995
586.04	70.020
586.38	69.965
586.72	70.674
587.05	71.346
587.39	71.121
587.72	72.936
588.06	70.551
588.39	70.806
588.73	70.238
589.06	71.102
589.40	69.202
589.73	70.208
590.07	71.110
590.40	69.466
590.73	70.511
591.07	69.720
591.40	69.234
591.74	70.543
592.07	70.315
592.41	70.186
592.74	70.331
593.08	69.892
593.41	71.071
593.75	69.905
594.08	69.825
594.41	70.815
594.75	70.840
595.08	70.261
595.42	70.556
595.75	72.512
596.09	70.602
596.42	69.492
596.75	69.716
597.09	68.975
597.42	69.738
597.75	70.637
598.09	68.719
598.42	69.179
598.76	69.713
599.09	69.631
599.42	70.140
599.76	70.128
600.09	70.023
600.42	70.318
600.76	69.762
601.09	70.267
601.42	69.174
601.76	69.353
602.09	69.142
602.42	71.567
602.76	71.095
603.09	71.346
603.42	72.617
603.76	71.492
604.09	69.218
604.42	70.601
604.76	70.583
605.09	69.333
605.42	69.571
605.75	70.797
606.09	69.766
606.42	69.683
606.75	70.000
607.09	70.286
607.42	69.207
607.75	69.716
608.08	68.958
608.42	67.063
608.75	70.265
609.08	69.108
609.41	69.848
609.75	68.750
610.08	70.245
610.41	69.420
610.74	71.136
611.07	70.388
611.41	70.524
611.74	70.789
612.07	68.683
612.40	69.147
612.73	71.073
613.07	69.741
613.40	68.381
613.73	70.006
614.06	68.893
614.39	70.107
614.72	69.076
615.06	70.279
615.39	67.904
615.72	68.299
616.05	69.385
616.38	68.604
616.71	69.297
617.05	68.623
617.38	68.259
617.71	70.063
618.04	71.238
618.37	70.429
618.70	69.901
619.03	68.750
619.36	67.294
619.69	68.992
620.03	71.293
620.36	69.242
620.69	68.665
621.02	68.196
621.35	67.718
621.68	67.687
622.01	68.250
622.34	68.555
622.67	67.429
623.00	68.453
623.33	68.216
623.66	67.539
623.99	68.533
624.32	67.909
624.65	67.895
624.99	68.924
625.32	68.688
625.65	66.929
625.98	69.299
626.31	67.249
626.64	68.891
626.97	68.935
627.30	67.951
627.63	68.458
627.96	67.206
628.29	66.512
628.62	67.650
628.95	65.832
629.28	68.246
629.61	68.295
629.94	68.231
630.26	66.700
630.59	68.158
630.92	66.256
631.25	64.308
631.58	68.392
631.91	66.228
632.24	67.431
632.57	67.159
632.90	67.616
633.23	64.941
633.56	66.247
633.89	65.351
634.22	68.148
634.55	66.455
634.88	63.729
635.20	64.615
635.53	65.733
635.86	65.800
636.19	66.624
636.52	67.347
636.85	68.114
637.18	67.296
637.51	65.031
637.83	63.863
638.16	66.576
638.49	64.033
638.82	67.237
639.15	66.079
639.48	66.988
639.81	66.248
640.13	65.079
640.46	65.743
640.79	64.212
641.12	64.106
641.45	65.465
641.77	66.222
642.10	64.455
642.43	64.630
642.76	64.191
643.09	64.459
643.41	64.887
643.74	64.250
644.07	66.995
644.40	65.372
644.73	64.448
645.05	62.752
645.38	64.903
645.71	62.766
646.04	66.248
646.36	65.248
646.69	64.209
647.02	64.272
647.35	61.940
647.67	64.534
648.00	65.112
648.33	64.505
648.66	63.729
648.98	66.332
649.31	67.438
649.64	65.620
649.96	66.126
650.29	66.269
650.62	66.325
650.94	68.148
651.27	63.687
651.60	64.324
651.92	66.434
652.25	65.719
652.58	65.833
652.90	68.268
653.23	65.378
653.56	65.144
653.88	66.151
654.21	66.025
654.54	64.516
654.86	68.251
655.19	65.497
655.52	71.981
655.84	75.150
656.17	85.421
656.49	100.000
656.82	100.000
657.15	100.000
657.47	78.818
657.80	48.125
658.13	46.662
658.45	71.295
658.78	69.926
659.10	67.817
659.43	66.438
659.75	67.094
660.08	65.517
660.41	67.824
660.73	64.365
661.06	65.165
661.38	60.861
661.71	63.450
662.03	63.948
662.36	63.077
662.68	63.274
663.01	65.502
663.33	62.413
663.66	64.651
663.98	61.163
664.31	62.900
664.63	63.364
664.96	63.696
665.28	62.914
665.61	66.667
665.93	64.348
666.26	66.594
666.58	63.535
666.91	63.529
667.23	65.094
667.56	66.351
667.88	65.468
668.21	61.575
668.53	65.721
668.86	65.802
669.18	62.500
669.50	62.228
669.83	62.558
670.15	63.869
670.48	63.876
670.80	65.438
671.13	62.192
671.45	60.502
671.77	64.592
672.10	64.158
672.42	65.169
672.75	67.496
673.07	67.263
673.39	63.853
673.72	62.722
674.04	62.917
674.37	63.771
674.69	63.597
675.01	64.000
675.34	62.162
675.66	66.435
675.98	64.080
676.31	63.303
676.63	64.133
676.95	62.045
677.28	67.765
677.60	66.265
677.92	65.138
678.25	62.363
678.57	65.152
678.89	64.496
679.22	69.575
679.54	62.851
679.86	64.016
680.18	67.184
680.51	64.773
680.83	64.811
681.15	64.400
681.48	67.418
681.80	66.736
682.12	64.919
682.44	63.180
682.77	65.342
683.09	64.989
683.41	61.818
683.73	63.364
684.06	67.035
684.38	62.796
684.70	68.845
685.02	64.938
685.34	65.020
685.67	62.101
685.99	67.993
686.31	64.779
686.63	65.677
686.96	61.977
687.28	66.465
687.60	62.928
687.92	70.909
688.24	64.315
688.56	66.594
688.89	64.732
689.21	65.556
689.53	63.341
689.85	65.581
690.17	63.393
690.49	64.066
690.82	63.350
691.14	66.190
691.46	66.589
691.78	67.342
692.10	65.806
692.42	64.502
692.74	65.385
693.06	64.189
693.39	64.027
693.71	63.575
694.03	64.896
694.35	64.019
694.67	66.414
694.99	63.446
695.31	63.185
695.63	63.250
695.95	65.152
696.27	65.285
696.59	65.556
696.91	60.504
697.23	59.383
697.56	68.069
697.88	67.957
698.20	64.237
698.52	65.412
698.84	62.919
699.16	63.750
699.48	69.424
699.80	64.268
700.12	65.229
700.44	63.305
700.76	63.372
701.08	64.545
701.40	62.651
701.72	65.432
702.04	64.686
702.36	62.207
702.68	61.261
703.00	63.333
703.32	63.636
703.64	58.475
703.96	59.710
704.28	63.497
704.60	66.349
704.91	60.252
705.23	61.794
705.55	66.784
705.87	69.675
706.19	60.000
706.51	61.856
706.83	61.415
707.15	60.436
707.47	63.305
707.79	65.104
708.11	64.500
708.43	65.500
708.74	64.858
709.06	66.197
709.38	66.361
709.70	63.018
710.02	65.287
710.34	65.635
710.66	61.859
710.98	61.258
711.29	64.590
711.61	65.085
711.93	63.844
712.25	68.041
712.57	64.835
712.89	60.821
713.20	57.439
713.52	64.460
713.84	66.553
714.16	67.010
714.48	65.161
714.80	70.192
715.11	66.869
715.43	62.069
715.75	65.000
716.07	66.113
716.39	62.752
716.70	58.303
717.02	57.634
717.34	61.538
717.66	68.142
717.97	63.043
718.29	63.180
718.61	59.449
718.93	62.791
719.24	62.738
719.56	63.052
719.88	61.168
720.20	62.500
720.51	60.920
720.83	65.637
721.15	68.067
721.46	68.548
721.78	62.846
722.10	62.825
722.42	61.826
722.73	66.122
723.05	64.898
723.37	61.864
723.68	69.820
724.00	61.966
724.32	59.556
724.63	58.636
724.95	59.825
725.27	65.438
725.58	69.492
725.90	68.651
726.22	64.865
726.53	63.729
726.85	65.169
727.16	71.698
727.48	63.968
727.80	70.040
728.11	64.407
728.43	61.569
728.74	58.468
729.06	66.800
729.38	66.917
729.69	65.339
730.01	66.538
730.32	69.030
730.64	62.191
730.96	71.698
731.27	64.667
731.59	67.458
731.90	71.019
732.22	64.984
732.53	73.090
732.85	69.504
733.16	63.973
733.48	61.871
733.80	67.754
734.11	62.373
734.43	67.354
734.74	65.758
735.06	68.404
735.37	66.465
735.69	71.044
736.00	66.899
736.32	67.450
736.63	67.254
736.95	65.529
737.26	64.769
737.58	61.409
737.89	68.132
738.21	65.789
738.52	70.370
738.83	71.616
739.15	64.192
739.46	65.748
739.78	63.370
740.09	65.686
740.41	70.290
740.72	62.992
741.04	68.016
741.35	57.872
741.66	63.033
741.98	57.653
742.29	67.327
742.61	65.445
742.92	60.664
743.23	58.796
743.55	65.611
743.86	64.593
744.18	65.072
744.49	60.106
744.80	66.848
745.12	73.262
745.43	60.976
745.74	68.229
746.06	62.439
746.37	59.686
746.68	62.085
747.00	66.489
747.31	68.657
747.62	65.049
747.94	60.287
748.25	68.812
748.56	72.131
748.88	64.398
749.19	64.894
749.50	64.039
749.82	60.849
750.13	68.807
750.44	65.038
750.75	74.254
751.07	70.803
751.38	65.134
751.69	65.490
752.01	67.054
752.32	69.323
752.63	66.008
752.94	68.103
753.26	71.548
753.57	67.873
753.88	59.735
754.19	62.917
754.51	68.595
754.82	68.016
755.13	72.500
755.44	64.919
755.75	68.750
756.07	68.872
756.38	63.019
756.69	66.284
757.00	66.333
757.31	66.667
757.63	64.939
757.94	65.278
758.25	64.932
758.56	65.691
758.87	64.306
759.18	62.928
759.50	64.000
759.81	65.886
760.12	68.710
760.43	66.061
760.74	68.210
761.05	67.692
761.36	66.193
761.67	70.303
761.99	69.388
762.30	60.000
762.61	60.870
762.92	62.443
763.23	64.414
763.54	66.355
763.85	63.136
764.16	65.560
764.47	65.726
764.78	64.835
765.10	71.380
765.41	69.716
765.72	68.254
766.03	66.917
766.34	67.518
766.65	65.339
766.96	75.253
767.27	62.766
767.58	56.897
767.89	62.411
768.20	54.545
768.51	62.088
768.82	67.980
769.13	68.664
769.44	66.094
769.75	67.580
770.06	66.810
770.37	60.577
770.68	68.528
770.99	60.633
771.30	76.961
771.61	66.516
771.92	63.793
772.23	72.906
772.54	64.516
772.85	69.753
773.16	64.607
773.47	83.660
773.78	75.163
774.09	58.084
774.39	63.333
774.70	63.057
775.01	61.379
775.32	57.857
775.63	61.157
775.94	58.015
776.25	61.417
776.56	63.333
776.87	66.346
777.18	59.829
777.48	69.828
777.79	53.913
778.10	54.286
778.41	60.360
778.72	63.492
779.03	70.677
779.34	66.667
779.65	72.603
779.95	63.014
780.26	65.517
780.57	62.602
780.88	67.717
781.19	63.793
781.50	68.217
781.80	63.905
782.11	62.264
782.42	79.231
782.73	65.468
783.04	62.222
783.34	61.806
783.65	51.282
783.96	55.738
784.27	68.276
784.57	71.545
784.88	61.719
785.19	67.000
785.50	74.000
785.81	67.241
786.11	54.310
786.42	65.049
786.73	73.636
787.04	57.143
787.34	58.036
787.65	67.619
787.96	55.752
788.26	65.455
788.57	64.103
788.88	64.063
789.19	55.556
789.49	66.087
789.80	65.306
790.11	72.727
790.41	52.727
790.72	64.130
791.03	76.136
791.33	71.250
791.64	65.000
791.95	61.628
792.25	55.319
792.56	69.663
792.87	56.164
793.17	66.667
793.48	53.333
793.79	73.750
794.09	77.500
794.40	63.208
794.70	69.903
795.01	56.098
795.32	69.231
795.62	60.952
795.93	67.647
796.23	61.321
796.54	66.667
796.85	52.941
797.15	54.930
797.46	45.833
797.76	68.182
798.07	53.488
798.37	48.684
798.68	43.939
798.99	54.321
799.29	67.143
799.60	57.971
799.90	56.000
800.21	75.410
800.51	53.846
800.82	67.797
801.12	68.116
801.43	63.934
801.73	53.968
802.04	52.000
802.34	55.224
802.65	82.692
802.95	39.286
803.26	65.385
803.56	70.588
803.87	65.217
804.17	73.333
804.48	60.317
804.78	53.704
805.09	69.565
805.39	55.556
805.70	51.852
806.00	50.877
806.30	71.831
806.61	62.857
806.91	54.167
807.22	71.053
807.52	74.667
807.83	52.727
808.13	56.944
808.43	66.176
808.74	47.761
809.04	42.373
809.35	73.077
809.65	60.937
809.95	75.676
810.26	54.545
810.56	36.986
810.86	54.762
811.17	70.000
811.47	55.102
811.77	55.263
812.08	65.909
812.38	52.830
812.69	55.000
812.99	57.576
813.29	47.368
813.59	28.571
813.90	54.545
814.20	74.359
814.50	50.000
814.81	64.151
815.11	61.702
815.41	59.322
815.72	59.524
816.02	70.588
816.32	43.750
816.62	53.659
816.93	48.649
817.23	48.571
817.53	66.667
817.84	54.348
818.14	48.077
818.44	44.737
818.74	67.391
819.04	20.000
819.35	45.946
819.65	73.529
819.95	58.333
820.25	23.810
820.56	65.000
820.86	27.586
821.16	62.500
821.46	70.213
821.76	60.000
822.07	60.465
822.37	8.108
822.67	37.500
822.97	73.810
823.27	39.286
823.57	112.000
823.88	29.630
824.18	100.000
824.48	52.941
824.78	87.097
825.08	86.957
825.38	72.727
825.69	62.500
825.99	63.158
826.29	61.111
826.59	133.333
826.89	0.000
827.19	52.174
827.49	62.500
827.79	62.857
828.09	71.429
828.39	54.545
828.70	94.595
829.00	60.714
829.30	76.190
829.60	70.000
829.90	81.250
830.20	60.526
830.50	59.259
830.80	43.478
831.10	54.545
831.40	42.424
831.70	70.968
832.00	85.714
832.30	14.286
832.60	50.000
832.90	51.724
833.20	15.000
833.50	57.576
833.80	77.778
834.10	69.231
834.40	43.750
834.70	-33.333
835.00	26.316
835.30	92.308
835.60	166.667
835.90	54.839
836.20	40.909
836.50	75.000
836.80	23.077
837.10	42.857
837.40	166.667
837.70	63.636
838.00	0.000
838.30	34.783
838.60	46.154
838.90	50.000
839.19	53.571
839.49	33.333
839.79	61.538
840.09	33.333
840.39	57.143
840.69	32.143
840.99	53.846
841.29	36.842
841.59	-70.000
841.88	136.364
842.18	-10.000
842.48	87.500
842.78	53.333
843.08	62.963
843.38	20.000
843.68	56.522
843.97	100.000
844.27	-13.333
844.57	35.000
844.87	72.222
845.17	23.810
845.47	120.000
845.76	0.000
846.06	82.353
846.36	120.000
846.66	92.857
846.96	26.667
847.25	-25.000
847.55	28.571
847.85	50.000
848.15	27.273
848.44	-266.667
848.74	75.000
849.04	66.667
849.34	109.091
849.63	-16.667
849.93	0.000
850.23	33.333
850.53	70.000
850.82	0.000
851.12	88.889
851.42	26.667
851.71	34.615
852.01	-28.571
852.31	-125.000
852.61	90.909
852.90	55.000
853.20	68.421
853.50	-16.667
853.79	65.217
854.09	120.833
854.39	-21.053
854.68	58.333
854.98	58.065
855.28	73.077
855.57	30.000
855.87	122.222
856.17	77.778
856.46	121.429
856.76	66.667
857.05	100.000
857.35	72.000
857.65	72.222
857.94	38.462
858.24	27.586
858.53	55.556
858.83	48.148
859.13	40.909
859.42	30.435
859.72	275.000
860.01	-400.000
860.31	68.000
860.60	80.952
860.90	-33.333
861.20	-6.667
861.49	-50.000
861.79	-40.000
862.08	50.000
862.38	133.333
862.67	160.000
862.97	0.000
863.26	83.333
863.56	88.889
863.85	-66.667
864.15	11.111
864.44	0.000
864.74	100.000
865.03	125.000
865.33	120.000
865.62	133.333
865.92	66.667
866.21	-150.000
866.51	125.000
866.80	63.636
867.10	-550.000
867.39	150.000
867.69	0.000
867.98	107.692
868.27	133.333
868.57	-6.667
868.86	88.889
869.16	30.769
869.45	133.333
869.75	-600.000
870.04	0.000
870.33	42.857
870.63	66.667
870.92	33.333
871.22	40.000
871.51	600.000
871.80	177.778
872.10	33.333
>>>>>End Processed Spectral Data<<<<<
