SpectraSuite Data File
++++++++++++++++++++++++++++++++++++
Date: Fri May 15 17:11:33 PDT 2015
User: schluterlab
Dark Spectrum Present: Yes
Reference Spectrum Present: Yes
Number of Sampled Component Spectra: 1
Spectrometers: USB2E3373
Integration Time (usec): 3000 (USB2E3373)
Spectra Averaged: 3 (USB2E3373)
Boxcar Smoothing: 0 (USB2E3373)
Correct for Electrical Dark: No (USB2E3373)
Strobe/Lamp Enabled: No (USB2E3373)
Correct for Detector Non-linearity: No (USB2E3373)
Correct for Stray Light: No (USB2E3373)
Number of Pixels in Processed Spectrum: 2048
>>>>>Begin Processed Spectral Data<<<<<
178.53	0.000
178.91	0.000
179.29	87.500
179.67	-300.000
180.04	-100.000
180.42	325.000
180.80	900.000
181.18	-0.000
181.56	-100.000
181.94	-50.000
182.31	-0.000
182.69	60.000
183.07	66.667
183.45	-100.000
183.83	-0.000
184.20	-90.909
184.58	22.222
184.96	25.000
185.34	-266.667
185.72	50.000
186.09	100.000
186.47	-300.000
186.85	50.000
187.23	155.556
187.61	-900.000
187.98	-200.000
188.36	22.222
188.74	66.667
189.12	105.882
189.49	116.667
189.87	0.000
190.25	128.571
190.63	1100.000
191.00	-33.333
191.38	42.105
191.76	350.000
192.14	-300.000
192.51	550.000
192.89	0.000
193.27	14.286
193.65	133.333
194.02	118.182
194.40	70.000
194.78	-12.500
195.15	-58.333
195.53	-87.500
195.91	-0.000
196.29	-25.000
196.66	69.231
197.04	28.571
197.42	-88.889
197.79	-400.000
198.17	-92.308
198.55	900.000
198.92	33.333
199.30	0.000
199.68	40.000
200.05	-33.333
200.43	0.000
200.81	-133.333
201.18	-100.000
201.56	-0.000
201.94	50.000
202.31	33.333
202.69	-200.000
203.07	-125.000
203.44	600.000
203.82	0.000
204.19	42.857
204.57	-466.667
204.95	75.000
205.32	90.000
205.70	157.143
206.08	75.000
206.45	255.556
206.83	42.857
207.20	42.857
207.58	-0.000
207.96	133.333
208.33	-30.000
208.71	-150.000
209.08	-116.667
209.46	300.000
209.84	-60.000
210.21	-600.000
210.59	28.571
210.96	-16.667
211.34	-25.000
211.71	66.667
212.09	0.000
212.46	-1100.000
212.84	0.000
213.22	90.000
213.59	400.000
213.97	23.077
214.34	45.455
214.72	-116.667
215.09	75.000
215.47	76.923
215.84	9.091
216.22	-166.667
216.59	-50.000
216.97	400.000
217.34	0.000
217.72	-20.000
218.09	137.500
218.47	-12.500
218.84	-300.000
219.22	-33.333
219.59	60.000
219.97	333.333
220.34	175.000
220.72	-28.571
221.09	-75.000
221.47	300.000
221.84	-400.000
222.22	-100.000
222.59	118.182
222.97	33.333
223.34	66.667
223.72	85.714
224.09	23.810
224.46	10.714
224.84	466.667
225.21	-10.000
225.59	40.000
225.96	700.000
226.34	200.000
226.71	28.571
227.08	-66.667
227.46	12.500
227.83	-50.000
228.21	55.556
228.58	0.000
228.95	50.000
229.33	-30.000
229.70	106.250
230.08	-25.000
230.45	-114.286
230.82	200.000
231.20	-26.667
231.57	64.286
231.95	85.714
232.32	-30.000
232.69	50.000
233.07	-33.333
233.44	-20.000
233.81	0.000
234.19	44.444
234.56	17.647
234.93	-100.000
235.31	-100.000
235.68	-140.000
236.05	-61.538
236.43	-15.000
236.80	41.176
237.17	12.500
237.55	25.000
237.92	11.111
238.29	8.333
238.67	16.667
239.04	50.000
239.41	-19.512
239.79	-13.333
240.16	7.317
240.53	2.632
240.91	-4.348
241.28	14.286
241.65	-3.571
242.02	17.808
242.40	-5.000
242.77	1.695
243.14	15.152
243.51	3.750
243.89	9.195
244.26	6.897
244.63	14.286
245.00	13.402
245.38	9.278
245.75	-7.865
246.12	-0.862
246.49	6.612
246.87	6.731
247.24	-5.042
247.61	-6.140
247.98	-4.065
248.36	5.000
248.73	3.289
249.10	3.896
249.47	0.633
249.84	2.614
250.22	8.824
250.59	1.307
250.96	8.920
251.33	1.163
251.70	2.941
252.08	-7.107
252.45	-2.970
252.82	4.523
253.19	4.147
253.56	-3.271
253.94	6.757
254.31	4.783
254.68	4.386
255.05	4.331
255.42	3.057
255.79	1.544
256.16	2.724
256.54	6.716
256.91	2.281
257.28	2.230
257.65	-0.375
258.02	2.837
258.39	4.714
258.76	4.762
259.14	6.312
259.51	1.618
259.88	1.718
260.25	-0.327
260.62	0.347
260.99	-2.373
261.36	-2.055
261.73	-1.266
262.10	4.255
262.47	1.227
262.85	0.940
263.22	-1.231
263.59	2.181
263.96	3.106
264.33	-1.212
264.70	3.571
265.07	0.000
265.44	3.116
265.81	1.977
266.18	1.913
266.55	4.370
266.92	1.295
267.29	0.000
267.66	0.000
268.03	1.309
268.40	1.044
268.77	3.209
269.14	2.878
269.51	4.370
269.88	2.244
270.25	0.000
270.62	2.683
270.99	0.000
271.36	0.978
271.73	2.582
272.10	1.460
272.47	2.600
272.84	0.000
273.21	4.176
273.58	2.169
273.95	2.059
274.32	1.386
274.69	0.000
275.06	2.679
275.43	1.361
275.80	1.545
276.17	0.230
276.54	0.642
276.91	0.877
277.28	0.218
277.65	3.099
278.02	0.213
278.39	-1.094
278.76	3.774
279.13	-0.830
279.50	1.681
279.87	3.024
280.23	-0.645
280.60	3.899
280.97	2.424
281.34	1.923
281.71	5.133
282.08	-0.409
282.45	2.153
282.82	0.193
283.19	4.255
283.56	1.541
283.92	-0.380
284.29	0.385
284.66	-0.194
285.03	3.536
285.40	2.647
285.77	0.000
286.14	1.264
286.51	1.661
286.87	1.280
287.24	2.762
287.61	0.705
287.98	3.333
288.35	0.693
288.72	1.051
289.08	1.215
289.45	2.109
289.82	1.399
290.19	0.341
290.56	-0.858
290.93	0.000
291.29	0.616
291.66	1.417
292.03	0.478
292.40	2.097
292.77	0.797
293.13	0.812
293.50	-0.455
293.87	0.305
294.24	1.082
294.60	1.788
294.97	1.042
295.34	-0.460
295.71	1.192
296.08	0.598
296.44	-0.569
296.81	1.667
297.18	0.435
297.55	2.575
297.91	1.233
298.28	2.507
298.65	0.814
299.02	0.674
299.38	-0.821
299.75	1.655
300.12	0.524
300.48	0.527
300.85	1.394
301.22	0.649
301.59	0.921
301.95	2.025
302.32	2.075
302.69	1.493
303.05	0.495
303.42	1.370
303.79	1.168
304.15	2.389
304.52	-0.832
304.89	0.234
305.25	1.574
305.62	0.933
305.99	0.936
306.35	1.503
306.72	0.112
307.09	0.798
307.45	1.263
307.82	0.000
308.19	0.697
308.55	1.854
308.92	1.634
309.29	0.559
309.65	-0.323
310.02	0.880
310.38	1.756
310.75	0.437
311.12	1.399
311.48	0.954
311.85	0.838
312.22	-0.316
312.58	1.380
312.95	0.640
313.31	0.932
313.68	1.047
314.05	1.939
314.41	1.649
314.78	1.340
315.14	1.850
315.51	1.449
315.87	1.332
316.24	1.618
316.61	1.378
316.97	2.480
317.34	2.051
317.70	1.338
318.07	2.788
318.43	3.039
318.80	2.557
319.16	2.441
319.53	2.754
319.89	2.657
320.26	1.619
320.62	3.210
320.99	1.775
321.35	4.214
321.72	3.115
322.08	3.525
322.45	2.843
322.81	4.126
323.18	3.042
323.54	3.668
323.91	3.311
324.27	5.176
324.64	4.775
325.00	5.383
325.37	6.887
325.73	6.528
326.10	5.995
326.46	7.803
326.83	7.524
327.19	7.759
327.56	8.949
327.92	9.947
328.29	8.750
328.65	10.094
329.01	10.110
329.38	10.691
329.74	9.537
330.11	11.770
330.47	12.430
330.84	12.692
331.20	14.544
331.56	13.981
331.93	15.160
332.29	16.224
332.66	15.566
333.02	17.379
333.38	16.315
333.75	18.407
334.11	18.263
334.48	19.855
334.84	20.330
335.20	19.488
335.57	19.764
335.93	20.506
336.29	21.915
336.66	20.345
337.02	20.911
337.38	22.037
337.75	22.182
338.11	22.092
338.47	22.810
338.84	23.013
339.20	23.218
339.56	22.752
339.93	23.545
340.29	24.312
340.65	24.373
341.02	23.050
341.38	23.540
341.74	22.968
342.11	23.830
342.47	24.377
342.83	23.962
343.20	22.909
343.56	24.870
343.92	24.358
344.28	25.021
344.65	24.870
345.01	24.460
345.37	23.717
345.73	23.682
346.10	24.590
346.46	24.390
346.82	22.913
347.19	23.441
347.55	24.144
347.91	24.595
348.27	24.010
348.63	25.213
349.00	23.462
349.36	23.940
349.72	24.295
350.08	23.934
350.45	24.022
350.81	23.588
351.17	22.638
351.53	24.327
351.89	23.782
352.26	24.080
352.62	24.355
352.98	24.498
353.34	22.866
353.70	24.191
354.07	23.387
354.43	24.820
354.79	23.534
355.15	24.762
355.51	25.158
355.87	23.463
356.24	22.757
356.60	24.091
356.96	25.238
357.32	24.840
357.68	23.456
358.04	24.394
358.40	24.437
358.77	25.439
359.13	24.660
359.49	24.345
359.85	25.507
360.21	23.923
360.57	24.101
360.93	24.660
361.29	24.320
361.66	25.157
362.02	24.470
362.38	24.143
362.74	24.224
363.10	24.755
363.46	24.537
363.82	25.695
364.18	24.428
364.54	24.412
364.90	24.588
365.26	25.400
365.62	25.985
365.98	25.293
366.35	27.240
366.71	25.277
367.07	26.052
367.43	24.802
367.79	25.866
368.15	25.341
368.51	26.293
368.87	24.551
369.23	25.560
369.59	25.073
369.95	25.953
370.31	26.445
370.67	26.045
371.03	26.288
371.39	25.602
371.75	27.473
372.11	26.890
372.47	27.441
372.83	26.473
373.19	26.320
373.55	26.209
373.91	26.782
374.27	27.215
374.63	28.141
374.99	27.376
375.35	28.343
375.71	28.112
376.07	28.230
376.42	28.707
376.78	28.456
377.14	28.030
377.50	28.287
377.86	29.250
378.22	27.250
378.58	28.910
378.94	28.922
379.30	28.759
379.66	28.966
380.02	28.939
380.38	28.850
380.74	29.025
381.09	29.755
381.45	30.703
381.81	30.352
382.17	30.013
382.53	29.169
382.89	30.760
383.25	30.056
383.61	31.037
383.97	30.857
384.32	29.894
384.68	30.836
385.04	30.392
385.40	30.305
385.76	32.264
386.12	31.565
386.48	31.673
386.83	31.262
387.19	31.502
387.55	31.995
387.91	31.540
388.27	31.380
388.62	31.152
388.98	32.597
389.34	32.417
389.70	32.940
390.06	31.403
390.42	31.736
390.77	32.178
391.13	31.589
391.49	32.147
391.85	32.619
392.20	32.329
392.56	31.659
392.92	32.648
393.28	32.724
393.64	33.273
393.99	33.542
394.35	31.942
394.71	33.844
395.07	32.810
395.42	31.937
395.78	32.834
396.14	33.039
396.50	32.911
396.85	33.548
397.21	33.020
397.57	32.602
397.92	32.654
398.28	32.356
398.64	32.108
399.00	33.070
399.35	31.377
399.71	31.706
400.07	34.039
400.42	32.987
400.78	33.068
401.14	31.821
401.49	33.055
401.85	31.322
402.21	32.831
402.57	33.000
402.92	31.744
403.28	32.769
403.63	32.282
403.99	32.462
404.35	33.229
404.70	32.083
405.06	31.434
405.42	31.759
405.77	31.900
406.13	31.374
406.49	31.498
406.84	32.518
407.20	31.848
407.55	30.779
407.91	32.420
408.27	31.995
408.62	31.938
408.98	31.731
409.34	31.660
409.69	30.168
410.05	31.897
410.40	31.667
410.76	31.544
411.11	31.312
411.47	32.281
411.83	31.450
412.18	30.888
412.54	31.586
412.89	31.589
413.25	31.348
413.60	31.615
413.96	32.086
414.31	31.220
414.67	31.110
415.03	31.292
415.38	31.593
415.74	32.248
416.09	32.071
416.45	32.411
416.80	32.254
417.16	32.113
417.51	32.712
417.87	31.095
418.22	32.578
418.58	31.839
418.93	32.476
419.29	31.114
419.64	32.080
420.00	32.620
420.35	31.582
420.71	32.503
421.06	32.413
421.42	32.151
421.77	33.064
422.12	32.463
422.48	32.593
422.83	31.961
423.19	32.393
423.54	32.334
423.90	32.921
424.25	32.664
424.61	32.925
424.96	33.043
425.31	34.373
425.67	32.688
426.02	33.510
426.38	34.314
426.73	34.504
427.09	34.557
427.44	34.412
427.79	34.119
428.15	34.041
428.50	34.101
428.85	34.029
429.21	34.352
429.56	34.987
429.92	34.874
430.27	33.333
430.62	34.710
430.98	34.554
431.33	34.122
431.68	35.636
432.04	34.544
432.39	35.596
432.74	35.298
433.10	35.747
433.45	36.201
433.80	35.752
434.16	35.125
434.51	36.613
434.86	37.050
435.22	36.175
435.57	36.681
435.92	36.048
436.28	34.884
436.63	36.908
436.98	36.385
437.34	35.451
437.69	35.719
438.04	36.353
438.39	36.897
438.75	37.037
439.10	36.672
439.45	38.771
439.81	36.942
440.16	38.183
440.51	38.149
440.86	39.577
441.22	36.991
441.57	38.135
441.92	39.402
442.27	38.692
442.63	38.758
442.98	37.967
443.33	37.730
443.68	37.931
444.03	38.997
444.39	38.219
444.74	39.465
445.09	39.310
445.44	40.000
445.79	39.556
446.15	38.051
446.50	37.937
446.85	38.523
447.20	39.103
447.55	40.123
447.91	38.409
448.26	39.442
448.61	40.069
448.96	40.562
449.31	38.902
449.66	39.837
450.02	41.072
450.37	39.775
450.72	38.889
451.07	41.076
451.42	40.075
451.77	39.301
452.12	39.892
452.47	40.309
452.83	40.165
453.18	40.038
453.53	40.645
453.88	40.559
454.23	40.688
454.58	40.680
454.93	39.755
455.28	40.063
455.63	41.476
455.98	40.649
456.34	40.294
456.69	41.423
457.04	41.903
457.39	40.826
457.74	42.140
458.09	40.436
458.44	40.492
458.79	40.448
459.14	41.419
459.49	41.254
459.84	41.117
460.19	40.716
460.54	42.665
460.89	40.795
461.24	41.118
461.59	41.152
461.94	41.447
462.29	41.013
462.64	41.993
462.99	41.706
463.34	41.516
463.69	42.214
464.04	42.191
464.39	41.480
464.74	41.350
465.09	42.982
465.44	41.604
465.79	41.440
466.14	42.075
466.49	41.691
466.84	42.832
467.19	42.178
467.54	42.401
467.89	42.451
468.24	41.788
468.59	41.714
468.94	41.587
469.29	42.951
469.64	42.994
469.99	41.836
470.34	41.638
470.68	42.506
471.03	42.746
471.38	43.224
471.73	43.768
472.08	41.384
472.43	43.289
472.78	41.535
473.13	43.469
473.48	42.541
473.83	42.403
474.17	42.617
474.52	42.629
474.87	43.212
475.22	42.953
475.57	43.365
475.92	42.183
476.27	42.200
476.61	42.940
476.96	42.331
477.31	44.348
477.66	42.191
478.01	43.346
478.36	42.810
478.70	42.958
479.05	44.341
479.40	43.402
479.75	42.231
480.10	43.011
480.45	44.450
480.79	44.260
481.14	44.006
481.49	43.202
481.84	43.147
482.19	42.703
482.53	42.974
482.88	43.389
483.23	42.898
483.58	43.019
483.92	42.352
484.27	42.434
484.62	42.806
484.97	42.828
485.31	42.666
485.66	41.913
486.01	41.780
486.36	41.062
486.70	41.604
487.05	41.747
487.40	41.805
487.75	42.000
488.09	42.213
488.44	41.644
488.79	42.323
489.13	43.109
489.48	43.224
489.83	43.139
490.17	42.787
490.52	42.679
490.87	42.388
491.22	43.696
491.56	42.837
491.91	43.164
492.26	43.802
492.60	43.186
492.95	44.958
493.30	42.452
493.64	43.959
493.99	44.106
494.34	44.709
494.68	43.524
495.03	42.774
495.37	43.523
495.72	43.564
496.07	43.854
496.41	43.066
496.76	44.265
497.11	43.503
497.45	44.344
497.80	44.551
498.14	43.368
498.49	43.880
498.84	43.413
499.18	44.378
499.53	44.246
499.87	43.288
500.22	44.560
500.56	43.974
500.91	43.725
501.26	43.549
501.60	43.827
501.95	43.426
502.29	43.293
502.64	44.305
502.98	44.647
503.33	42.939
503.67	44.048
504.02	43.695
504.36	44.780
504.71	42.980
505.06	43.785
505.40	44.518
505.75	44.175
506.09	43.234
506.44	44.969
506.78	45.408
507.13	44.778
507.47	44.334
507.82	44.712
508.16	43.634
508.51	44.911
508.85	44.113
509.19	44.279
509.54	44.397
509.88	43.797
510.23	44.863
510.57	44.415
510.92	44.083
511.26	45.117
511.61	44.939
511.95	45.041
512.30	45.067
512.64	44.185
512.98	45.424
513.33	45.383
513.67	44.343
514.02	46.396
514.36	45.486
514.70	45.221
515.05	45.828
515.39	44.923
515.74	45.808
516.08	45.487
516.42	46.584
516.77	46.343
517.11	45.994
517.46	46.439
517.80	45.828
518.14	45.315
518.49	45.493
518.83	45.990
519.17	45.361
519.52	44.760
519.86	45.138
520.20	45.990
520.55	46.341
520.89	45.922
521.23	44.965
521.58	46.435
521.92	46.154
522.26	45.413
522.61	45.714
522.95	47.152
523.29	45.934
523.64	46.061
523.98	47.440
524.32	45.425
524.66	47.311
525.01	46.494
525.35	46.598
525.69	45.926
526.04	46.230
526.38	46.174
526.72	45.520
527.06	45.850
527.41	46.240
527.75	45.979
528.09	45.515
528.43	47.198
528.78	47.129
529.12	47.677
529.46	45.614
529.80	44.775
530.15	47.459
530.49	46.465
530.83	46.306
531.17	45.400
531.51	46.033
531.86	46.091
532.20	47.460
532.54	45.541
532.88	45.517
533.22	45.766
533.57	46.461
533.91	46.540
534.25	47.656
534.59	45.606
534.93	44.556
535.27	45.558
535.62	43.746
535.96	45.858
536.30	45.383
536.64	45.830
536.98	45.436
537.32	45.804
537.66	46.073
538.01	46.853
538.35	46.533
538.69	45.140
539.03	45.249
539.37	46.568
539.71	45.603
540.05	46.096
540.39	45.360
540.73	47.908
541.07	45.580
541.42	44.825
541.76	46.318
542.10	45.905
542.44	46.074
542.78	43.565
543.12	45.673
543.46	45.549
543.80	45.663
544.14	45.127
544.48	45.903
544.82	46.822
545.16	46.380
545.50	44.993
545.84	45.609
546.18	46.950
546.52	45.710
546.86	45.507
547.20	46.137
547.54	45.230
547.88	45.312
548.22	44.510
548.56	45.053
548.90	46.496
549.24	45.041
549.58	45.910
549.92	45.604
550.26	46.154
550.60	45.576
550.94	46.154
551.28	47.295
551.62	46.538
551.96	46.842
552.30	46.857
552.64	45.628
552.98	46.343
553.32	46.434
553.66	46.734
554.00	46.934
554.34	47.784
554.68	46.386
555.02	47.321
555.36	46.073
555.69	46.154
556.03	44.825
556.37	45.836
556.71	47.148
557.05	47.502
557.39	45.799
557.73	46.627
558.07	46.757
558.41	46.708
558.75	46.454
559.08	46.020
559.42	47.857
559.76	47.718
560.10	44.954
560.44	45.793
560.78	45.245
561.12	47.320
561.45	45.959
561.79	46.709
562.13	46.487
562.47	47.842
562.81	46.398
563.15	46.615
563.48	46.535
563.82	47.220
564.16	45.682
564.50	46.014
564.84	45.917
565.17	44.936
565.51	48.361
565.85	45.816
566.19	46.286
566.52	47.051
566.86	46.851
567.20	44.521
567.54	45.073
567.88	46.280
568.21	45.532
568.55	45.054
568.89	44.815
569.23	45.354
569.56	44.046
569.90	44.783
570.24	43.915
570.57	44.545
570.91	43.639
571.25	42.881
571.59	42.510
571.92	41.541
572.26	43.207
572.60	43.039
572.93	41.575
573.27	42.915
573.61	42.452
573.95	42.272
574.28	42.267
574.62	41.546
574.96	41.486
575.29	41.620
575.63	40.529
575.97	42.017
576.30	41.833
576.64	41.219
576.98	42.471
577.31	41.976
577.65	41.812
577.98	41.970
578.32	41.710
578.66	40.619
578.99	40.945
579.33	41.194
579.67	41.156
580.00	42.076
580.34	41.294
580.67	41.073
581.01	41.475
581.35	41.128
581.68	41.704
582.02	41.274
582.35	41.523
582.69	41.332
583.02	41.166
583.36	41.684
583.70	42.368
584.03	42.230
584.37	43.394
584.70	42.555
585.04	41.503
585.37	41.450
585.71	41.891
586.04	41.805
586.38	41.318
586.72	42.554
587.05	43.183
587.39	41.795
587.72	43.904
588.06	42.596
588.39	42.353
588.73	43.529
589.06	43.477
589.40	42.758
589.73	43.154
590.07	44.071
590.40	43.266
590.73	45.222
591.07	43.808
591.40	44.078
591.74	44.208
592.07	44.295
592.41	44.125
592.74	44.166
593.08	42.683
593.41	43.493
593.75	43.180
594.08	42.739
594.41	43.377
594.75	42.214
595.08	44.117
595.42	43.614
595.75	44.236
596.09	43.628
596.42	43.654
596.75	44.583
597.09	43.417
597.42	43.451
597.75	45.121
598.09	42.825
598.42	43.773
598.76	42.986
599.09	43.950
599.42	42.706
599.76	42.739
600.09	43.401
600.42	43.101
600.76	42.236
601.09	42.786
601.42	42.421
601.76	43.351
602.09	44.142
602.42	44.566
602.76	44.610
603.09	44.684
603.42	45.234
603.76	43.871
604.09	44.228
604.42	44.205
604.76	44.281
605.09	44.470
605.42	43.386
605.75	43.214
606.09	43.524
606.42	43.161
606.75	43.030
607.09	43.956
607.42	43.465
607.75	43.250
608.08	43.217
608.42	43.262
608.75	44.289
609.08	44.694
609.41	45.178
609.75	44.002
610.08	43.635
610.41	43.382
610.74	44.174
611.07	44.806
611.41	45.148
611.74	44.510
612.07	42.827
612.40	44.420
612.73	44.972
613.07	44.094
613.40	44.584
613.73	44.880
614.06	44.018
614.39	43.993
614.72	43.193
615.06	43.799
615.39	44.269
615.72	43.649
616.05	43.743
616.38	42.792
616.71	44.343
617.05	45.275
617.38	45.506
617.71	45.094
618.04	45.079
618.37	45.397
618.70	46.205
619.03	46.736
619.36	44.428
619.69	47.005
620.03	46.749
620.36	45.422
620.69	44.825
621.02	46.407
621.35	46.639
621.68	47.534
622.01	46.750
622.34	47.167
622.67	46.451
623.00	47.167
623.33	46.341
623.66	43.904
623.99	46.369
624.32	45.932
624.65	45.113
624.99	47.329
625.32	46.247
625.65	47.683
625.98	46.334
626.31	45.636
626.64	48.180
626.97	48.080
627.30	46.322
627.63	46.880
627.96	47.889
628.29	47.271
628.62	47.001
628.95	48.497
629.28	46.875
629.61	47.358
629.94	48.094
630.26	47.530
630.59	49.740
630.92	49.026
631.25	46.154
631.58	50.220
631.91	48.575
632.24	48.280
632.57	48.523
632.90	47.450
633.23	48.118
633.56	48.489
633.89	48.459
634.22	50.494
634.55	48.920
634.88	50.192
635.20	51.154
635.53	51.067
635.86	50.065
636.19	50.323
636.52	48.342
636.85	46.898
637.18	48.553
637.51	48.679
637.83	47.306
638.16	49.795
638.49	47.956
638.82	49.605
639.15	49.932
639.48	48.831
639.81	49.651
640.13	50.361
640.46	51.312
640.79	48.601
641.12	49.040
641.45	49.700
641.77	49.333
642.10	51.659
642.43	49.678
642.76	52.970
643.09	51.858
643.41	50.971
643.74	50.082
644.07	52.709
644.40	52.027
644.73	54.116
645.05	50.503
645.38	51.323
645.71	51.950
646.04	52.603
646.36	51.773
646.69	52.698
647.02	54.442
647.35	53.358
647.67	53.382
648.00	52.239
648.33	49.317
648.66	50.000
648.98	51.089
649.31	49.587
649.64	51.491
649.96	48.622
650.29	51.278
650.62	50.427
650.94	50.000
651.27	48.231
651.60	50.991
651.92	50.524
652.25	50.266
652.58	50.833
652.90	50.429
653.23	50.084
653.56	48.900
653.88	48.282
654.21	48.161
654.54	48.217
654.86	50.085
655.19	46.784
655.52	44.505
655.84	38.753
656.17	43.021
656.49	58.876
656.82	60.920
657.15	46.809
657.47	34.776
657.80	25.963
658.13	25.665
658.45	39.725
658.78	40.293
659.10	40.067
659.43	40.181
659.75	41.342
660.08	43.034
660.41	45.761
660.73	45.994
661.06	50.260
661.38	50.294
661.71	48.049
662.03	50.858
662.36	50.110
662.68	48.230
663.01	53.930
663.33	50.116
663.66	52.558
663.98	49.767
664.31	49.680
664.63	49.770
664.96	49.348
665.28	50.331
665.61	48.918
665.93	53.261
666.26	50.976
666.58	50.559
666.91	50.118
667.23	53.538
667.56	51.896
667.88	54.197
668.21	49.642
668.53	49.645
668.86	49.764
669.18	47.642
669.50	53.753
669.83	50.698
670.15	52.681
670.48	51.196
670.80	50.691
671.13	49.441
671.45	46.347
671.77	51.502
672.10	48.713
672.42	46.816
672.75	46.892
673.07	49.016
673.39	47.339
673.72	46.154
674.04	49.583
674.37	49.364
674.69	47.323
675.01	49.111
675.34	45.946
675.66	49.074
675.98	50.998
676.31	51.147
676.63	48.694
676.95	50.227
677.28	51.294
677.60	52.048
677.92	49.771
678.25	52.079
678.57	48.485
678.89	48.319
679.22	52.573
679.54	44.578
679.86	43.936
680.18	48.155
680.51	44.886
680.83	46.720
681.15	48.000
681.48	48.566
681.80	48.140
682.12	46.169
682.44	47.071
682.77	47.903
683.09	50.114
683.41	46.591
683.73	47.926
684.06	46.018
684.38	46.452
684.70	48.584
685.02	46.888
685.34	45.850
685.67	45.028
685.99	45.931
686.31	43.894
686.63	45.826
686.96	45.057
687.28	43.030
687.60	42.205
687.92	48.687
688.24	44.556
688.56	48.472
688.89	47.321
689.21	48.444
689.53	48.492
689.85	47.442
690.17	47.321
690.49	47.754
690.82	46.359
691.14	43.571
691.46	46.963
691.78	48.649
692.10	46.237
692.42	43.939
692.74	45.299
693.06	42.568
693.39	43.439
693.71	45.701
694.03	43.649
694.35	46.028
694.67	48.737
694.99	46.736
695.31	48.564
695.63	49.000
695.95	42.677
696.27	45.337
696.59	48.889
696.91	46.779
697.23	44.216
697.56	48.762
697.88	43.656
698.20	48.064
698.52	44.706
698.84	42.344
699.16	42.000
699.48	46.366
699.80	43.176
700.12	49.326
700.44	47.899
700.76	46.221
701.08	46.667
701.40	46.386
701.72	51.543
702.04	48.515
702.36	50.502
702.68	43.844
703.00	43.636
703.32	44.868
703.64	42.090
703.96	43.478
704.28	51.840
704.60	49.524
704.91	44.479
705.23	46.179
705.55	50.883
705.87	48.014
706.19	52.963
706.51	47.079
706.83	48.232
707.15	43.925
707.47	43.417
707.79	41.927
708.11	48.750
708.43	43.500
708.74	45.736
709.06	45.634
709.38	46.789
709.70	48.225
710.02	47.134
710.34	47.368
710.66	43.269
710.98	43.377
711.29	46.557
711.61	45.763
711.93	43.648
712.25	50.515
712.57	47.619
712.89	44.776
713.20	47.059
713.52	45.296
713.84	46.416
714.16	40.206
714.48	43.548
714.80	44.551
715.11	45.289
715.43	39.498
715.75	43.333
716.07	40.199
716.39	43.289
716.70	47.232
717.02	38.550
717.34	42.105
717.66	49.115
717.97	46.087
718.29	44.351
718.61	48.819
718.93	45.736
719.24	42.966
719.56	44.980
719.88	41.924
720.20	43.561
720.51	40.996
720.83	43.243
721.15	41.176
721.46	46.371
721.78	46.245
722.10	42.007
722.42	41.079
722.73	42.857
723.05	49.796
723.37	47.034
723.68	45.946
724.00	44.872
724.32	45.778
724.63	44.545
724.95	45.852
725.27	45.622
725.58	44.068
725.90	38.492
726.22	44.402
726.53	43.051
726.85	47.191
727.16	44.906
727.48	40.081
727.80	41.296
728.11	41.102
728.43	43.529
728.74	41.532
729.06	40.400
729.38	49.624
729.69	41.036
730.01	41.154
730.32	45.149
730.64	41.343
730.96	44.528
731.27	38.333
731.59	42.373
731.90	41.401
732.22	44.164
732.53	42.525
732.85	45.035
733.16	44.108
733.48	38.129
733.80	44.928
734.11	38.305
734.43	45.361
734.74	38.485
735.06	37.459
735.37	40.483
735.69	45.118
736.00	37.979
736.32	38.255
736.63	40.493
736.95	42.662
737.26	33.808
737.58	35.235
737.89	40.659
738.21	42.481
738.52	41.975
738.83	44.105
739.15	41.048
739.46	46.063
739.78	36.996
740.09	40.196
740.41	43.478
740.72	36.220
741.04	42.915
741.35	40.000
741.66	38.389
741.98	44.898
742.29	43.069
742.61	40.314
742.92	38.863
743.23	39.815
743.55	44.344
743.86	44.019
744.18	42.105
744.49	44.681
744.80	36.413
745.12	44.385
745.43	39.512
745.74	47.396
746.06	42.927
746.37	40.838
746.68	43.602
747.00	33.511
747.31	46.766
747.62	38.835
747.94	38.756
748.25	40.099
748.56	38.798
748.88	42.408
749.19	44.681
749.50	47.783
749.82	29.245
750.13	43.119
750.44	39.474
750.75	44.030
751.07	39.416
751.38	40.613
751.69	38.824
752.01	41.085
752.32	43.426
752.63	34.387
752.94	40.948
753.26	43.096
753.57	34.389
753.88	41.150
754.19	35.417
754.51	38.843
754.82	39.271
755.13	45.417
755.44	39.113
755.75	39.062
756.07	37.354
756.38	36.981
756.69	37.548
757.00	34.333
757.31	36.275
757.63	33.537
757.94	38.056
758.25	34.521
758.56	35.372
758.87	30.878
759.18	36.760
759.50	36.727
759.81	38.796
760.12	38.710
760.43	36.667
760.74	38.889
761.05	36.308
761.36	34.943
761.67	39.091
761.99	34.354
762.30	34.909
762.61	36.759
762.92	38.462
763.23	36.486
763.54	35.514
763.85	34.322
764.16	38.589
764.47	35.887
764.78	34.066
765.10	39.057
765.41	32.177
765.72	36.825
766.03	31.579
766.34	38.686
766.65	39.841
766.96	37.374
767.27	38.830
767.58	35.632
767.89	40.426
768.20	36.364
768.51	33.516
768.82	38.916
769.13	32.258
769.44	33.047
769.75	31.963
770.06	36.207
770.37	36.538
770.68	37.563
770.99	38.914
771.30	42.157
771.61	39.819
771.92	41.810
772.23	37.931
772.54	34.946
772.85	41.975
773.16	37.079
773.47	40.523
773.78	43.137
774.09	35.928
774.39	39.333
774.70	42.038
775.01	49.655
775.32	36.429
775.63	38.017
775.94	41.985
776.25	47.244
776.56	35.833
776.87	42.308
777.18	33.333
777.48	42.241
777.79	40.000
778.10	33.333
778.41	38.739
778.72	42.063
779.03	33.083
779.34	45.390
779.65	37.671
779.95	33.562
780.26	44.138
780.57	33.333
780.88	43.307
781.19	36.207
781.50	31.783
781.80	37.278
782.11	30.189
782.42	36.154
782.73	35.252
783.04	30.370
783.34	26.389
783.65	20.513
783.96	41.803
784.27	42.759
784.57	34.146
784.88	33.594
785.19	36.000
785.50	41.000
785.81	43.103
786.11	31.897
786.42	33.981
786.73	42.727
787.04	44.898
787.34	35.714
787.65	40.000
787.96	39.823
788.26	40.000
788.57	38.462
788.88	35.938
789.19	32.540
789.49	33.043
789.80	42.857
790.11	33.333
790.41	24.545
790.72	40.217
791.03	36.364
791.33	47.500
791.64	42.500
791.95	33.721
792.25	43.617
792.56	47.191
792.87	47.945
793.17	43.478
793.48	32.000
793.79	38.750
794.09	35.000
794.40	35.849
794.70	44.660
795.01	30.081
795.32	41.026
795.62	31.429
795.93	39.216
796.23	47.170
796.54	36.458
796.85	47.059
797.15	39.437
797.46	29.167
797.76	51.515
798.07	43.023
798.37	42.105
798.68	27.273
798.99	30.864
799.29	38.571
799.60	27.536
799.90	54.667
800.21	57.377
800.51	41.538
800.82	18.644
801.12	57.971
801.43	36.066
801.73	42.857
802.04	52.000
802.34	13.433
802.65	51.923
802.95	30.357
803.26	38.462
803.56	52.941
803.87	32.609
804.17	37.333
804.48	41.270
804.78	42.593
805.09	41.304
805.39	35.556
805.70	31.481
806.00	26.316
806.30	25.352
806.61	31.429
806.91	27.778
807.22	43.421
807.52	44.000
807.83	29.091
808.13	34.722
808.43	42.647
808.74	26.866
809.04	33.898
809.35	42.308
809.65	26.563
809.95	-5.405
810.26	47.727
810.56	30.137
810.86	38.095
811.17	56.000
811.47	36.735
811.77	18.421
812.08	31.818
812.38	49.057
812.69	20.000
812.99	48.485
813.29	68.421
813.59	28.571
813.90	18.182
814.20	15.385
814.50	44.231
814.81	54.717
815.11	10.638
815.41	35.593
815.72	45.238
816.02	49.020
816.32	20.833
816.62	58.537
816.93	35.135
817.23	20.000
817.53	52.083
817.84	10.870
818.14	46.154
818.44	26.316
818.74	43.478
819.04	12.500
819.35	40.541
819.65	44.118
819.95	41.667
820.25	19.048
820.56	47.500
820.86	3.448
821.16	47.500
821.46	21.277
821.76	32.500
822.07	32.558
822.37	35.135
822.67	37.500
822.97	50.000
823.27	35.714
823.57	40.000
823.88	18.519
824.18	64.286
824.48	14.706
824.78	58.065
825.08	69.565
825.38	54.545
825.69	12.500
825.99	31.579
826.29	52.778
826.59	66.667
826.89	23.810
827.19	28.261
827.49	7.500
827.79	57.143
828.09	71.429
828.39	39.394
828.70	21.622
829.00	17.857
829.30	28.571
829.60	43.333
829.90	40.625
830.20	-2.632
830.50	40.741
830.80	34.783
831.10	13.636
831.40	84.848
831.70	83.871
832.00	28.571
832.30	-38.095
832.60	-8.333
832.90	37.931
833.20	-10.000
833.50	60.606
833.80	33.333
834.10	38.462
834.40	68.750
834.70	55.556
835.00	31.579
835.30	53.846
835.60	60.000
835.90	54.839
836.20	36.364
836.50	46.429
836.80	42.308
837.10	42.857
837.40	133.333
837.70	50.000
838.00	-9.091
838.30	39.130
838.60	76.923
838.90	45.455
839.19	21.429
839.49	53.333
839.79	30.769
840.09	0.000
840.39	64.286
840.69	7.143
840.99	23.077
841.29	-10.526
841.59	100.000
841.88	81.818
842.18	70.000
842.48	31.250
842.78	33.333
843.08	48.148
843.38	80.000
843.68	21.739
843.97	0.000
844.27	13.333
844.57	55.000
844.87	77.778
845.17	14.286
845.47	66.667
845.76	4.762
846.06	76.471
846.36	0.000
846.66	28.571
846.96	-6.667
847.25	-25.000
847.55	35.714
847.85	-25.000
848.15	45.455
848.44	-266.667
848.74	50.000
849.04	51.852
849.34	81.818
849.63	0.000
849.93	-140.000
850.23	50.000
850.53	150.000
850.82	15.385
851.12	0.000
851.42	46.667
851.71	23.077
852.01	50.000
852.31	-50.000
852.61	27.273
852.90	5.000
853.20	42.105
853.50	0.000
853.79	39.130
854.09	58.333
854.39	57.895
854.68	45.833
854.98	38.710
855.28	34.615
855.57	40.000
855.87	88.889
856.17	22.222
856.46	28.571
856.76	53.333
857.05	133.333
857.35	48.000
857.65	-11.111
857.94	46.154
858.24	75.862
858.53	77.778
858.83	51.852
859.13	31.818
859.42	43.478
859.72	125.000
860.01	166.667
860.31	44.000
860.60	4.762
860.90	200.000
861.20	13.333
861.49	-200.000
861.79	6.667
862.08	25.000
862.38	126.667
862.67	0.000
862.97	33.333
863.26	-16.667
863.56	55.556
863.85	-133.333
864.15	100.000
864.44	40.000
864.74	71.429
865.03	350.000
865.33	-260.000
865.62	33.333
865.92	75.000
866.21	-83.333
866.51	75.000
866.80	-45.455
867.10	-50.000
867.39	50.000
867.69	0.000
867.98	92.308
868.27	266.667
868.57	-6.667
868.86	11.111
869.16	23.077
869.45	100.000
869.75	-800.000
870.04	0.000
870.33	-14.286
870.63	9.524
870.92	133.333
871.22	-240.000
871.51	-500.000
871.80	111.111
872.10	300.000
>>>>>End Processed Spectral Data<<<<<
