SpectraSuite Data File
++++++++++++++++++++++++++++++++++++
Date: Fri May 15 20:14:46 PDT 2015
User: schluterlab
Dark Spectrum Present: Yes
Reference Spectrum Present: Yes
Number of Sampled Component Spectra: 1
Spectrometers: USB2E3373
Integration Time (usec): 3000 (USB2E3373)
Spectra Averaged: 3 (USB2E3373)
Boxcar Smoothing: 0 (USB2E3373)
Correct for Electrical Dark: No (USB2E3373)
Strobe/Lamp Enabled: No (USB2E3373)
Correct for Detector Non-linearity: No (USB2E3373)
Correct for Stray Light: No (USB2E3373)
Number of Pixels in Processed Spectrum: 2048
>>>>>Begin Processed Spectral Data<<<<<
178.53	0.000
178.91	0.000
179.29	150.000
179.67	-350.000
180.04	-71.429
180.42	175.000
180.80	-200.000
181.18	-266.667
181.56	-50.000
181.94	250.000
182.31	-300.000
182.69	-40.000
183.07	33.333
183.45	-100.000
183.83	166.667
184.20	81.818
184.58	33.333
184.96	-100.000
185.34	-133.333
185.72	-250.000
186.09	69.231
186.47	300.000
186.85	133.333
187.23	66.667
187.61	-700.000
187.98	33.333
188.36	33.333
188.74	200.000
189.12	-11.765
189.49	66.667
189.87	0.000
190.25	50.000
190.63	450.000
191.00	-33.333
191.38	36.842
191.76	550.000
192.14	25.000
192.51	550.000
192.89	55.556
193.27	-85.714
193.65	50.000
194.02	163.636
194.40	160.000
194.78	-100.000
195.15	25.000
195.53	37.500
195.91	250.000
196.29	-25.000
196.66	30.769
197.04	100.000
197.42	-11.111
197.79	-300.000
198.17	-84.615
198.55	800.000
198.92	-266.667
199.30	400.000
199.68	-40.000
200.05	100.000
200.43	0.000
200.81	66.667
201.18	100.000
201.56	-100.000
201.94	500.000
202.31	-0.000
202.69	20.000
203.07	100.000
203.44	700.000
203.82	0.000
204.19	71.429
204.57	-33.333
204.95	162.500
205.32	10.000
205.70	0.000
206.08	175.000
206.45	211.111
206.83	42.857
207.20	14.286
207.58	-400.000
207.96	-300.000
208.33	-50.000
208.71	175.000
209.08	16.667
209.46	-100.000
209.84	0.000
210.21	-1000.000
210.59	57.143
210.96	16.667
211.34	75.000
211.71	86.667
212.09	57.143
212.46	-1500.000
212.84	0.000
213.22	100.000
213.59	700.000
213.97	46.154
214.34	45.455
214.72	150.000
215.09	325.000
215.47	-38.462
215.84	-9.091
216.22	-133.333
216.59	-25.000
216.97	650.000
217.34	200.000
217.72	-280.000
218.09	12.500
218.47	200.000
218.84	-300.000
219.22	-33.333
219.59	20.000
219.97	333.333
220.34	175.000
220.72	42.857
221.09	-75.000
221.47	300.000
221.84	-400.000
222.22	-800.000
222.59	-18.182
222.97	25.000
223.34	66.667
223.72	64.286
224.09	42.857
224.46	10.714
224.84	333.333
225.21	30.000
225.59	53.333
225.96	-50.000
226.34	150.000
226.71	28.571
227.08	-116.667
227.46	-12.500
227.83	50.000
228.21	-22.222
228.58	63.636
228.95	-75.000
229.33	70.000
229.70	62.500
230.08	-100.000
230.45	-171.429
230.82	28.571
231.20	-6.667
231.57	57.143
231.95	85.714
232.32	-10.000
232.69	85.714
233.07	100.000
233.44	160.000
233.81	10.000
234.19	11.111
234.56	35.294
234.93	100.000
235.31	50.000
235.68	20.000
236.05	-69.231
236.43	0.000
236.80	-5.882
237.17	37.500
237.55	10.000
237.92	-29.630
238.29	44.444
238.67	3.333
239.04	41.176
239.41	-19.512
239.79	-16.667
240.16	2.439
240.53	-7.895
240.91	6.522
241.28	22.222
241.65	17.857
242.02	17.808
242.40	0.000
242.77	-1.695
243.14	-10.606
243.51	12.500
243.89	19.540
244.26	3.448
244.63	2.381
245.00	12.371
245.38	17.526
245.75	-2.247
246.12	1.724
246.49	2.479
246.87	8.654
247.24	2.521
247.61	5.263
247.98	3.252
248.36	0.000
248.73	9.211
249.10	3.247
249.47	6.962
249.84	6.536
250.22	1.176
250.59	5.882
250.96	6.573
251.33	2.907
251.70	9.412
252.08	4.061
252.45	8.911
252.82	7.538
253.19	7.373
253.56	7.944
253.94	4.955
254.31	9.130
254.68	12.281
255.05	11.417
255.42	3.493
255.79	6.950
256.16	5.837
256.54	8.209
256.91	6.464
257.28	9.294
257.65	3.745
258.02	6.028
258.39	9.428
258.76	9.524
259.14	9.302
259.51	6.796
259.88	4.811
260.25	9.150
260.62	5.903
260.99	3.390
261.36	3.767
261.73	4.114
262.10	6.383
262.47	6.748
262.85	5.016
263.22	4.000
263.59	7.788
263.96	9.627
264.33	6.667
264.70	7.143
265.07	7.143
265.44	8.499
265.81	5.932
266.18	6.284
266.55	8.483
266.92	6.995
267.29	7.833
267.66	6.905
268.03	4.450
268.40	7.833
268.77	8.824
269.14	6.715
269.51	7.455
269.88	6.234
270.25	6.633
270.62	4.146
270.99	7.673
271.36	5.134
271.73	7.746
272.10	4.380
272.47	8.747
272.84	5.198
273.21	6.265
273.58	6.747
273.95	7.094
274.32	3.233
274.69	4.299
275.06	6.920
275.43	4.308
275.80	9.051
276.17	4.598
276.54	6.424
276.91	7.018
277.28	6.987
277.65	8.264
278.02	5.745
278.39	6.127
278.76	6.918
279.13	4.772
279.50	8.193
279.87	7.559
280.23	4.301
280.60	7.407
280.97	6.263
281.34	8.462
281.71	6.982
282.08	5.317
282.45	5.284
282.82	5.792
283.19	7.157
283.56	5.780
283.92	4.744
284.29	5.385
284.66	5.814
285.03	4.126
285.40	4.726
285.77	6.327
286.14	6.498
286.51	5.904
286.87	4.753
287.24	5.893
287.61	5.820
287.98	9.825
288.35	6.412
288.72	6.130
289.08	5.903
289.45	7.206
289.82	6.643
290.19	6.143
290.56	6.518
290.93	6.061
291.29	6.780
291.66	7.717
292.03	5.582
292.40	6.613
292.77	5.263
293.13	4.221
293.50	4.097
293.87	6.870
294.24	6.182
294.60	7.601
294.97	7.440
295.34	5.368
295.71	5.812
296.08	5.680
296.44	4.125
296.81	6.528
297.18	8.116
297.55	6.911
297.91	7.260
298.28	8.443
298.65	7.598
299.02	6.065
299.38	4.651
299.75	5.379
300.12	6.283
300.48	5.797
300.85	8.238
301.22	5.974
301.59	6.184
301.95	6.835
302.32	8.560
302.69	4.975
303.05	8.663
303.42	7.098
303.79	7.360
304.15	9.200
304.52	7.372
304.89	7.602
305.25	6.538
305.62	7.118
305.99	7.018
306.35	8.786
306.72	7.762
307.09	7.298
307.45	7.807
307.82	8.681
308.19	8.130
308.55	7.961
308.92	10.022
309.29	8.156
309.65	8.934
310.02	9.681
310.38	8.342
310.75	9.617
311.12	9.580
311.48	10.604
311.85	9.634
312.22	10.443
312.58	9.979
312.95	10.245
313.31	12.008
313.68	10.576
314.05	10.408
314.41	11.546
314.78	11.959
315.14	13.875
315.51	13.561
315.87	13.217
316.24	14.762
316.61	13.878
316.97	13.889
317.34	13.574
317.70	14.149
318.07	14.904
318.43	15.000
318.80	15.057
319.16	16.406
319.53	15.764
319.89	15.846
320.26	17.308
320.62	18.054
320.99	16.806
321.35	17.061
321.72	19.107
322.08	18.933
322.45	20.711
322.81	20.334
323.18	20.805
323.54	21.042
323.91	22.103
324.27	22.754
324.64	24.345
325.00	25.365
325.37	27.916
325.73	26.745
326.10	27.793
326.46	28.430
326.83	29.396
327.19	29.119
327.56	29.713
327.92	32.746
328.29	33.125
328.65	33.962
329.01	35.018
329.38	37.143
329.74	35.127
330.11	37.627
330.47	37.291
330.84	36.250
331.20	40.589
331.56	38.611
331.93	39.635
332.29	42.071
332.66	41.086
333.02	41.171
333.38	42.071
333.75	43.132
334.11	41.540
334.48	43.155
334.84	43.681
335.20	42.543
335.57	42.792
335.93	43.812
336.29	45.304
336.66	45.141
337.02	44.610
337.38	46.111
337.75	45.636
338.11	45.537
338.47	45.803
338.84	45.841
339.20	44.973
339.56	45.596
339.93	47.090
340.29	47.339
340.65	45.341
341.02	44.947
341.38	45.575
341.74	44.965
342.11	44.887
342.47	45.552
342.83	47.059
343.20	45.906
343.56	45.217
343.92	47.210
344.28	46.627
344.65	46.200
345.01	45.981
345.37	46.426
345.73	44.686
346.10	48.231
346.46	46.173
346.82	46.236
347.19	44.555
347.55	45.948
347.91	47.087
348.27	44.058
348.63	48.467
349.00	45.939
349.36	46.301
349.72	46.683
350.08	46.885
350.45	46.449
350.81	47.010
351.17	45.928
351.53	48.245
351.89	46.573
352.26	46.720
352.62	45.484
352.98	44.980
353.34	46.055
353.70	46.278
354.07	46.774
354.43	45.877
354.79	46.408
355.15	46.905
355.51	46.994
355.87	47.006
356.24	46.411
356.60	46.241
356.96	47.381
357.32	47.524
357.68	46.599
358.04	46.284
358.40	46.222
358.77	48.485
359.13	47.398
359.49	45.609
359.85	46.724
360.21	48.166
360.57	46.825
360.93	47.126
361.29	46.299
361.66	48.746
362.02	48.333
362.38	48.286
362.74	48.524
363.10	49.511
363.46	47.517
363.82	49.211
364.18	47.749
364.54	48.676
364.90	48.244
365.26	48.253
365.62	50.511
365.98	49.780
366.35	49.818
366.71	49.593
367.07	49.347
367.43	48.886
367.79	49.187
368.15	49.677
368.51	49.964
368.87	49.605
369.23	49.025
369.59	50.364
369.95	49.340
370.31	50.939
370.67	51.866
371.03	49.141
371.39	50.547
371.75	50.989
372.11	50.143
372.47	50.814
372.83	51.171
373.19	51.213
373.55	50.542
373.91	50.180
374.27	51.807
374.63	51.543
374.99	51.206
375.35	51.184
375.71	51.049
376.07	52.107
376.42	51.701
376.78	52.617
377.14	52.065
377.50	53.519
377.86	53.146
378.22	52.904
378.58	52.756
378.94	50.977
379.30	52.963
379.66	52.476
380.02	53.342
380.38	52.343
380.74	53.022
381.09	54.479
381.45	53.700
381.81	53.979
382.17	53.617
382.53	53.217
382.89	54.112
383.25	55.632
383.61	54.451
383.97	53.968
384.32	54.472
384.68	54.737
385.04	53.799
385.40	54.200
385.76	54.843
386.12	55.369
386.48	55.428
386.83	54.851
387.19	54.151
387.55	55.395
387.91	54.523
388.27	54.823
388.62	56.136
388.98	55.003
389.34	54.716
389.70	54.692
390.06	54.500
390.42	55.440
390.77	57.423
391.13	55.801
391.49	55.175
391.85	55.621
392.20	55.304
392.56	56.008
392.92	56.606
393.28	55.601
393.64	54.955
393.99	58.056
394.35	57.622
394.71	56.513
395.07	54.117
395.42	55.313
395.78	55.961
396.14	55.927
396.50	55.231
396.85	56.021
397.21	55.326
397.57	55.235
397.92	55.602
398.28	55.747
398.64	53.373
399.00	55.700
399.35	53.612
399.71	54.107
400.07	56.530
400.42	54.957
400.78	55.481
401.14	54.567
401.49	56.700
401.85	55.271
402.21	54.578
402.57	55.500
402.92	54.956
403.28	55.263
403.63	55.422
403.99	53.827
404.35	55.528
404.70	53.036
405.06	54.289
405.42	52.828
405.77	53.748
406.13	54.016
406.49	53.523
406.84	54.951
407.20	55.148
407.55	53.316
407.91	53.676
408.27	54.366
408.62	54.462
408.98	53.358
409.34	53.594
409.69	53.165
410.05	53.387
410.40	53.148
410.76	53.920
411.11	53.625
411.47	53.846
411.83	53.798
412.18	54.762
412.54	53.184
412.89	53.017
413.25	53.430
413.60	54.596
413.96	54.172
414.31	54.146
414.67	55.035
415.03	53.395
415.38	52.154
415.74	54.202
416.09	54.735
416.45	54.558
416.80	54.660
417.16	55.249
417.51	54.763
417.87	54.042
418.22	54.858
418.58	52.776
418.93	56.050
419.29	55.442
419.64	54.051
420.00	56.360
420.35	53.970
420.71	55.468
421.06	54.512
421.42	54.808
421.77	54.277
422.12	54.938
422.48	54.142
422.83	54.524
423.19	55.079
423.54	54.909
423.90	55.183
424.25	55.913
424.61	56.977
424.96	55.168
425.31	56.961
425.67	56.690
426.02	56.537
426.38	57.796
426.73	56.356
427.09	57.722
427.44	56.882
427.79	57.160
428.15	57.039
428.50	57.480
428.85	56.327
429.21	57.385
429.56	57.844
429.92	57.165
430.27	55.840
430.62	56.979
430.98	56.316
431.33	57.624
431.68	56.672
432.04	58.077
432.39	56.988
432.74	55.382
433.10	58.621
433.45	58.124
433.80	58.096
434.16	57.008
434.51	57.903
434.86	58.130
435.22	58.721
435.57	58.640
435.92	58.204
436.28	57.364
436.63	58.414
436.98	58.053
437.34	58.197
437.69	59.332
438.04	59.772
438.39	58.338
438.75	59.199
439.10	57.272
439.45	59.038
439.81	59.144
440.16	59.857
440.51	59.164
440.86	60.906
441.22	58.880
441.57	60.651
441.92	60.860
442.27	60.643
442.63	60.814
442.98	60.827
443.33	59.878
443.68	59.523
444.03	59.463
444.39	59.666
444.74	60.981
445.09	60.523
445.44	60.399
445.79	61.062
446.15	58.976
446.50	59.124
446.85	61.105
447.20	59.802
447.55	61.161
447.91	61.139
448.26	61.013
448.61	62.119
448.96	61.388
449.31	61.387
449.66	61.208
450.02	60.582
450.37	61.707
450.72	60.367
451.07	61.835
451.42	60.237
451.77	60.699
452.12	60.586
452.47	60.850
452.83	62.132
453.18	61.227
453.53	61.062
453.88	61.081
454.23	60.049
454.58	61.713
454.93	61.598
455.28	59.556
455.63	62.120
455.98	61.275
456.34	61.494
456.69	61.817
457.04	61.815
457.39	61.786
457.74	61.911
458.09	60.565
458.44	61.147
458.79	60.896
459.14	61.728
459.49	61.075
459.84	61.929
460.19	61.468
460.54	62.469
460.89	62.330
461.24	62.050
461.59	61.817
461.94	61.132
462.29	63.269
462.64	62.791
462.99	62.221
463.34	61.683
463.69	61.905
464.04	61.199
464.39	61.795
464.74	61.902
465.09	62.196
465.44	61.800
465.79	61.621
466.14	61.517
466.49	61.817
466.84	60.321
467.19	63.329
467.54	62.644
467.89	61.845
468.24	62.409
468.59	62.667
468.94	62.984
469.29	63.541
469.64	63.158
469.99	64.261
470.34	62.935
470.68	65.175
471.03	63.270
471.38	64.194
471.73	63.025
472.08	62.687
472.43	64.765
472.78	63.194
473.13	63.129
473.48	64.495
473.83	61.893
474.17	64.249
474.52	62.348
474.87	63.455
475.22	63.026
475.57	63.523
475.92	63.083
476.27	62.922
476.61	64.120
476.96	62.409
477.31	64.900
477.66	62.191
478.01	64.234
478.36	63.017
478.70	64.981
479.05	63.077
479.40	63.858
479.75	62.930
480.10	62.878
480.45	64.350
480.79	65.408
481.14	64.293
481.49	62.463
481.84	64.865
482.19	63.658
482.53	64.269
482.88	63.819
483.23	63.196
483.58	63.255
483.92	62.827
484.27	62.853
484.62	62.304
484.97	63.350
485.31	63.331
485.66	60.801
486.01	60.872
486.36	60.825
486.70	61.928
487.05	62.162
487.40	61.711
487.75	62.366
488.09	62.454
488.44	61.554
488.79	63.579
489.13	63.742
489.48	63.104
489.83	64.529
490.17	63.416
490.52	63.557
490.87	63.813
491.22	64.661
491.56	63.805
491.91	63.384
492.26	64.803
492.60	64.251
492.95	65.322
493.30	64.485
493.64	65.324
493.99	64.444
494.34	64.417
494.68	64.429
495.03	64.623
495.37	64.818
495.72	64.866
496.07	64.976
496.41	64.104
496.76	64.809
497.11	63.763
497.45	65.012
497.80	65.691
498.14	65.474
498.49	65.922
498.84	65.319
499.18	64.458
499.53	65.129
499.87	64.154
500.22	64.639
500.56	66.616
500.91	65.512
501.26	65.299
501.60	65.617
501.95	65.163
502.29	65.278
502.64	66.168
502.98	66.650
503.33	65.610
503.67	63.807
504.02	65.885
504.36	66.700
504.71	66.313
505.06	65.778
505.40	64.924
505.75	66.340
506.09	66.447
506.44	67.248
506.78	67.602
507.13	66.701
507.47	66.841
507.82	67.415
508.16	66.719
508.51	67.681
508.85	68.446
509.19	68.281
509.54	67.721
509.88	67.044
510.23	67.778
510.57	68.092
510.92	66.738
511.26	68.849
511.61	67.932
511.95	67.836
512.30	68.625
512.64	68.837
512.98	68.894
513.33	68.159
513.67	69.585
514.02	69.622
514.36	69.143
514.70	70.804
515.05	70.858
515.39	69.244
515.74	71.317
516.08	70.532
516.42	72.674
516.77	70.568
517.11	71.513
517.46	70.796
517.80	70.381
518.14	72.321
518.49	70.252
518.83	71.871
519.17	70.710
519.52	71.462
519.86	72.329
520.20	71.264
520.55	71.982
520.89	71.581
521.23	72.641
521.58	72.808
521.92	73.013
522.26	72.349
522.61	72.597
522.95	74.106
523.29	73.888
523.64	72.681
523.98	74.725
524.32	71.907
524.66	75.480
525.01	74.740
525.35	74.271
525.69	74.680
526.04	73.413
526.38	73.022
526.72	72.727
527.06	73.995
527.41	73.747
527.75	73.928
528.09	74.618
528.43	74.882
528.78	74.059
529.12	74.645
529.46	74.659
529.80	73.464
530.15	76.106
530.49	75.892
530.83	75.650
531.17	74.614
531.51	77.155
531.86	74.439
532.20	75.922
532.54	75.153
532.88	75.291
533.22	75.067
533.57	75.426
533.91	75.392
534.25	76.107
534.59	74.984
534.93	73.254
535.27	74.429
535.62	74.401
535.96	75.212
536.30	73.879
536.64	76.637
536.98	74.286
537.32	77.952
537.66	77.139
538.01	75.455
538.35	75.728
538.69	75.366
539.03	73.889
539.37	74.697
539.71	75.256
540.05	75.221
540.39	75.900
540.73	76.220
541.07	76.036
541.42	75.470
541.76	77.220
542.10	76.187
542.44	76.650
542.78	75.224
543.12	74.931
543.46	76.078
543.80	78.001
544.14	74.833
544.48	75.949
544.82	76.692
545.16	76.503
545.50	76.035
545.84	76.062
546.18	77.872
546.52	76.784
546.86	77.714
547.20	77.539
547.54	75.618
547.88	76.155
548.22	74.622
548.56	75.660
548.90	77.763
549.24	75.413
549.58	76.587
549.92	75.911
550.26	77.216
550.60	77.472
550.94	77.595
551.28	79.134
551.62	79.692
551.96	77.068
552.30	78.143
552.64	75.458
552.98	76.582
553.32	76.106
553.66	76.052
554.00	79.343
554.34	77.548
554.68	77.065
555.02	78.423
555.36	77.113
555.69	77.802
556.03	76.303
556.37	77.936
556.71	79.061
557.05	77.554
557.39	77.323
557.73	78.786
558.07	78.205
558.41	78.101
558.75	79.891
559.08	78.645
559.42	78.016
559.76	80.304
560.10	78.211
560.44	78.704
560.78	76.084
561.12	78.843
561.45	78.988
561.79	77.731
562.13	77.786
562.47	78.201
562.81	79.611
563.15	77.927
563.48	79.279
563.82	77.488
564.16	79.109
564.50	76.824
564.84	77.309
565.17	76.727
565.51	79.577
565.85	80.658
566.19	77.719
566.52	79.021
566.86	77.314
567.20	75.903
567.54	77.311
567.88	77.094
568.21	78.224
568.55	77.500
568.89	76.283
569.23	76.553
569.56	76.095
569.90	75.436
570.24	72.795
570.57	74.509
570.91	74.765
571.25	72.772
571.59	73.030
571.92	70.844
572.26	72.796
572.60	73.178
572.93	72.043
573.27	71.536
573.61	72.017
573.95	71.737
574.28	71.398
574.62	71.930
574.96	70.506
575.29	70.974
575.63	69.914
575.97	71.022
576.30	71.465
576.64	71.152
576.98	72.252
577.31	71.787
577.65	71.399
577.98	70.943
578.32	70.657
578.66	69.697
578.99	70.426
579.33	71.097
579.67	70.452
580.00	70.835
580.34	70.945
580.67	71.044
581.01	71.638
581.35	70.650
581.68	70.557
582.02	70.710
582.35	70.622
582.69	71.173
583.02	71.459
583.36	71.753
583.70	73.209
584.03	73.561
584.37	73.179
584.70	72.280
585.04	70.855
585.37	71.941
585.71	71.464
586.04	71.886
586.38	72.339
586.72	72.769
587.05	72.848
587.39	72.631
587.72	73.537
588.06	71.769
588.39	72.515
588.73	72.833
589.06	72.929
589.40	73.972
589.73	74.808
590.07	74.924
590.40	74.536
590.73	75.288
591.07	74.555
591.40	74.844
591.74	75.430
592.07	75.464
592.41	74.691
592.74	73.636
593.08	72.302
593.41	73.245
593.75	72.915
594.08	72.297
594.41	73.144
594.75	74.046
595.08	73.666
595.42	73.831
595.75	74.765
596.09	74.629
596.42	75.196
596.75	75.488
597.09	74.123
597.42	75.474
597.75	75.767
598.09	74.151
598.42	73.827
598.76	74.217
599.09	73.157
599.42	72.603
599.76	73.627
600.09	73.002
600.42	72.365
600.76	72.140
601.09	73.511
601.42	73.717
601.76	73.005
602.09	74.257
602.42	75.821
602.76	74.236
603.09	74.958
603.42	74.707
603.76	74.032
604.09	73.633
604.42	74.873
604.76	75.656
605.09	75.548
605.42	74.763
605.75	73.905
606.09	73.843
606.42	73.853
606.75	73.550
607.09	74.198
607.42	73.948
607.75	73.535
608.08	74.663
608.42	72.682
608.75	75.518
609.08	76.532
609.41	76.142
609.75	74.748
610.08	75.836
610.41	73.720
610.74	74.256
611.07	75.039
611.41	75.506
611.74	76.599
612.07	75.000
612.40	77.024
612.73	76.102
613.07	74.297
613.40	75.109
613.73	77.392
614.06	75.626
614.39	77.383
614.72	75.406
615.06	76.536
615.39	74.072
615.72	74.004
616.05	76.369
616.38	73.447
616.71	76.330
617.05	77.826
617.38	78.630
617.71	78.113
618.04	77.778
618.37	76.734
618.70	78.020
619.03	79.097
619.36	78.944
619.69	81.122
620.03	79.693
620.36	79.041
620.69	78.515
621.02	78.593
621.35	80.830
621.68	81.037
622.01	79.583
622.34	80.367
622.67	78.785
623.00	79.862
623.33	79.878
623.66	78.160
623.99	77.383
624.32	78.023
624.65	76.391
624.99	78.254
625.32	79.227
625.65	82.247
625.98	80.580
626.31	80.382
626.64	82.149
626.97	81.326
627.30	83.625
627.63	80.329
627.96	81.761
628.29	81.776
628.62	82.399
628.95	82.665
629.28	84.980
629.61	83.450
629.94	82.796
630.26	81.225
630.59	85.640
630.92	83.077
631.25	79.692
631.58	85.793
631.91	82.895
632.24	85.321
632.57	86.023
632.90	86.358
633.23	84.353
633.56	87.909
633.89	88.533
634.22	89.012
634.55	88.183
634.88	88.889
635.20	86.026
635.53	88.133
635.86	86.216
636.19	87.969
636.52	86.990
636.85	88.710
637.18	84.654
637.51	87.170
637.83	86.465
638.16	87.995
638.49	86.649
638.82	86.184
639.15	87.924
639.48	88.308
639.81	88.145
640.13	88.167
640.46	87.026
640.79	87.334
641.12	87.445
641.45	89.790
641.77	86.222
642.10	92.417
642.43	89.228
642.76	91.914
643.09	87.722
643.41	89.320
643.74	89.456
644.07	90.312
644.40	89.189
644.73	94.921
645.05	90.268
645.38	92.063
645.71	87.943
646.04	93.178
646.36	93.440
646.69	96.403
647.02	96.408
647.35	91.231
647.67	88.483
648.00	92.910
648.33	89.932
648.66	89.661
648.98	85.762
649.31	88.926
649.64	85.400
649.96	85.737
650.29	89.949
650.62	85.983
650.94	92.593
651.27	90.503
651.60	90.991
651.92	88.462
652.25	89.698
652.58	86.000
652.90	91.595
653.23	87.059
653.56	87.986
653.88	88.832
654.21	85.289
654.54	83.871
654.86	91.851
655.19	83.480
655.52	82.585
655.84	71.640
656.17	76.812
656.49	99.727
656.82	100.000
657.15	87.620
657.47	62.201
657.80	47.018
658.13	46.747
658.45	73.344
658.78	72.968
659.10	72.334
659.43	73.165
659.75	74.988
660.08	75.862
660.41	78.754
660.73	81.354
661.06	87.348
661.38	86.693
661.71	85.010
662.03	93.562
662.36	93.407
662.68	88.274
663.01	93.886
663.33	93.968
663.66	92.558
663.98	93.721
664.31	89.126
664.63	88.249
664.96	89.130
665.28	91.391
665.61	88.745
665.93	92.174
666.26	92.625
666.58	89.485
666.91	94.588
667.23	95.047
667.56	91.943
667.88	89.688
668.21	93.556
668.53	95.035
668.86	88.679
669.18	90.330
669.50	92.978
669.83	92.326
670.15	90.676
670.48	93.062
670.80	88.479
671.13	84.564
671.45	85.616
671.77	91.416
672.10	86.139
672.42	85.581
672.75	85.613
673.07	86.941
673.39	85.138
673.72	83.037
674.04	88.333
674.37	91.525
674.69	87.794
675.01	91.778
675.34	91.892
675.66	91.667
675.98	88.027
676.31	88.991
676.63	92.637
676.95	87.273
677.28	91.059
677.60	93.253
677.92	89.220
678.25	88.840
678.57	85.931
678.89	85.924
679.22	90.604
679.54	87.349
679.86	83.897
680.18	86.796
680.51	86.553
680.83	83.499
681.15	88.800
681.48	89.344
681.80	85.124
682.12	86.694
682.44	82.845
682.77	90.728
683.09	87.643
683.41	85.000
683.73	86.406
684.06	85.177
684.38	83.441
684.70	89.107
685.02	85.270
685.34	85.968
685.67	84.053
685.99	83.363
686.31	82.832
686.63	80.705
686.96	84.411
687.28	82.222
687.60	84.601
687.92	86.061
688.24	85.887
688.56	86.681
688.89	86.161
689.21	83.778
689.53	85.847
689.85	85.814
690.17	86.161
690.49	88.652
690.82	86.650
691.14	83.333
691.46	88.551
691.78	85.360
692.10	83.656
692.42	85.498
692.74	82.479
693.06	85.135
693.39	84.615
693.71	82.579
694.03	86.374
694.35	85.748
694.67	88.131
694.99	87.206
695.31	90.078
695.63	87.000
695.95	83.081
696.27	87.565
696.59	89.444
696.91	89.916
697.23	86.632
697.56	86.881
697.88	81.935
698.20	86.105
698.52	87.294
698.84	79.426
699.16	85.000
699.48	87.218
699.80	82.134
700.12	85.984
700.44	89.636
700.76	84.012
701.08	84.545
701.40	86.747
701.72	92.593
702.04	92.739
702.36	97.993
702.68	88.889
703.00	90.000
703.32	84.164
703.64	85.028
703.96	83.188
704.28	87.117
704.60	86.984
704.91	85.804
705.23	87.375
705.55	99.293
705.87	90.253
706.19	94.444
706.51	85.223
706.83	86.817
707.15	88.474
707.47	86.835
707.79	81.510
708.11	82.250
708.43	78.500
708.74	83.463
709.06	87.042
709.38	87.768
709.70	84.320
710.02	85.032
710.34	89.474
710.66	76.603
710.98	90.066
711.29	92.131
711.61	88.475
711.93	83.062
712.25	85.567
712.57	91.575
712.89	87.687
713.20	78.893
713.52	89.199
713.84	81.570
714.16	90.378
714.48	82.258
714.80	87.179
715.11	82.979
715.43	80.251
715.75	80.667
716.07	84.718
716.39	87.584
716.70	88.561
717.02	86.641
717.34	89.474
717.66	90.708
717.97	83.913
718.29	90.377
718.61	86.220
718.93	77.519
719.24	92.015
719.56	86.747
719.88	81.100
720.20	82.955
720.51	81.226
720.83	83.012
721.15	90.756
721.46	88.306
721.78	85.375
722.10	76.952
722.42	83.402
722.73	80.408
723.05	85.714
723.37	90.678
723.68	89.189
724.00	90.171
724.32	88.444
724.63	90.000
724.95	88.646
725.27	92.166
725.58	91.525
725.90	78.968
726.22	87.259
726.53	82.373
726.85	80.899
727.16	81.887
727.48	78.947
727.80	81.377
728.11	84.746
728.43	77.647
728.74	81.452
729.06	81.600
729.38	83.835
729.69	85.259
730.01	80.000
730.32	78.731
730.64	82.686
730.96	82.642
731.27	76.667
731.59	82.034
731.90	78.981
732.22	79.180
732.53	80.731
732.85	81.560
733.16	79.798
733.48	76.259
733.80	80.435
734.11	77.288
734.43	81.443
734.74	82.424
735.06	80.130
735.37	76.133
735.69	82.492
736.00	79.094
736.32	77.852
736.63	77.817
736.95	80.887
737.26	77.224
737.58	74.832
737.89	81.685
738.21	82.331
738.52	85.185
738.83	86.463
739.15	86.900
739.46	83.465
739.78	81.319
740.09	76.471
740.41	78.261
740.72	82.283
741.04	74.494
741.35	78.723
741.66	86.256
741.98	88.776
742.29	79.208
742.61	88.482
742.92	76.777
743.23	79.630
743.55	85.520
743.86	84.689
744.18	82.297
744.49	85.638
744.80	92.935
745.12	91.444
745.43	83.415
745.74	89.062
746.06	83.902
746.37	91.099
746.68	78.673
747.00	84.043
747.31	79.602
747.62	77.670
747.94	77.033
748.25	89.109
748.56	84.153
748.88	92.147
749.19	93.085
749.50	80.296
749.82	80.189
750.13	83.945
750.44	83.835
750.75	80.597
751.07	82.117
751.38	81.226
751.69	80.000
752.01	84.109
752.32	80.876
752.63	72.332
752.94	79.310
753.26	84.937
753.57	81.448
753.88	80.531
754.19	78.333
754.51	79.339
754.82	78.138
755.13	84.583
755.44	81.855
755.75	86.328
756.07	77.432
756.38	73.208
756.69	76.245
757.00	73.333
757.31	74.183
757.63	71.951
757.94	74.167
758.25	69.863
758.56	67.553
758.87	71.955
759.18	71.028
759.50	78.182
759.81	73.579
760.12	76.452
760.43	72.424
760.74	75.617
761.05	75.692
761.36	68.182
761.67	73.939
761.99	78.912
762.30	74.182
762.61	73.518
762.92	77.376
763.23	77.477
763.54	83.178
763.85	79.661
764.16	73.444
764.47	74.194
764.78	75.458
765.10	75.758
765.41	71.924
765.72	74.921
766.03	72.932
766.34	70.073
766.65	79.681
766.96	79.293
767.27	72.872
767.58	77.586
767.89	78.723
768.20	77.273
768.51	74.725
768.82	76.355
769.13	76.037
769.44	70.815
769.75	76.256
770.06	71.983
770.37	76.442
770.68	80.203
770.99	68.326
771.30	75.000
771.61	76.018
771.92	70.690
772.23	79.803
772.54	74.194
772.85	75.309
773.16	77.528
773.47	86.275
773.78	79.085
774.09	72.455
774.39	76.000
774.70	74.522
775.01	84.828
775.32	77.143
775.63	85.950
775.94	86.260
776.25	75.591
776.56	75.833
776.87	93.269
777.18	80.342
777.48	79.310
777.79	77.391
778.10	89.524
778.41	90.991
778.72	73.810
779.03	80.451
779.34	77.305
779.65	75.342
779.95	70.548
780.26	73.793
780.57	81.301
780.88	70.866
781.19	83.621
781.50	82.946
781.80	63.905
782.11	66.667
782.42	86.923
782.73	75.540
783.04	73.333
783.34	77.083
783.65	73.504
783.96	85.246
784.27	67.586
784.57	78.862
784.88	70.312
785.19	73.000
785.50	90.000
785.81	77.586
786.11	57.759
786.42	86.408
786.73	89.091
787.04	79.592
787.34	65.179
787.65	72.381
787.96	74.336
788.26	85.455
788.57	62.393
788.88	72.656
789.19	72.222
789.49	72.174
789.80	74.490
790.11	77.778
790.41	64.545
790.72	70.652
791.03	75.000
791.33	86.250
791.64	63.750
791.95	77.907
792.25	76.596
792.56	67.416
792.87	83.562
793.17	78.261
793.48	64.000
793.79	70.000
794.09	91.250
794.40	64.151
794.70	74.757
795.01	57.724
795.32	66.667
795.62	73.333
795.93	72.549
796.23	68.868
796.54	64.583
796.85	85.294
797.15	57.746
797.46	72.222
797.76	77.273
798.07	66.279
798.37	69.737
798.68	77.273
798.99	71.605
799.29	78.571
799.60	68.116
799.90	78.667
800.21	91.803
800.51	72.308
800.82	74.576
801.12	78.261
801.43	68.852
801.73	80.952
802.04	74.000
802.34	62.687
802.65	84.615
802.95	57.143
803.26	78.846
803.56	68.627
803.87	65.217
804.17	58.667
804.48	74.603
804.78	61.111
805.09	80.435
805.39	93.333
805.70	79.630
806.00	38.596
806.30	69.014
806.61	64.286
806.91	59.722
807.22	72.368
807.52	85.333
807.83	72.727
808.13	56.944
808.43	64.706
808.74	83.582
809.04	64.407
809.35	73.077
809.65	57.813
809.95	54.054
810.26	61.364
810.56	60.274
810.86	59.524
811.17	58.000
811.47	75.510
811.77	60.526
812.08	88.636
812.38	73.585
812.69	57.500
812.99	90.909
813.29	81.579
813.59	62.857
813.90	72.727
814.20	64.103
814.50	63.462
814.81	71.698
815.11	38.298
815.41	72.881
815.72	54.762
816.02	56.863
816.32	62.500
816.62	68.293
816.93	64.865
817.23	82.857
817.53	77.083
817.84	50.000
818.14	61.538
818.44	52.632
818.74	73.913
819.04	47.500
819.35	78.378
819.65	73.529
819.95	77.778
820.25	52.381
820.56	77.500
820.86	44.828
821.16	97.500
821.46	63.830
821.76	75.000
822.07	76.744
822.37	40.541
822.67	87.500
822.97	59.524
823.27	53.571
823.57	88.000
823.88	55.556
824.18	92.857
824.48	50.000
824.78	48.387
825.08	86.957
825.38	63.636
825.69	58.333
825.99	81.579
826.29	63.889
826.59	60.000
826.89	28.571
827.19	52.174
827.49	50.000
827.79	45.714
828.09	85.714
828.39	57.576
828.70	70.270
829.00	35.714
829.30	123.810
829.60	86.667
829.90	59.375
830.20	36.842
830.50	66.667
830.80	39.130
831.10	54.545
831.40	90.909
831.70	90.323
832.00	33.333
832.30	66.667
832.60	108.333
832.90	24.138
833.20	55.000
833.50	60.606
833.80	48.148
834.10	96.154
834.40	81.250
834.70	111.111
835.00	63.158
835.30	69.231
835.60	80.000
835.90	80.645
836.20	68.182
836.50	78.571
836.80	50.000
837.10	42.857
837.40	166.667
837.70	54.545
838.00	18.182
838.30	56.522
838.60	61.538
838.90	45.455
839.19	53.571
839.49	63.333
839.79	146.154
840.09	66.667
840.39	92.857
840.69	32.143
840.99	23.077
841.29	47.368
841.59	140.000
841.88	118.182
842.18	160.000
842.48	100.000
842.78	40.000
843.08	51.852
843.38	10.000
843.68	69.565
843.97	40.000
844.27	13.333
844.57	80.000
844.87	100.000
845.17	85.714
845.47	73.333
845.76	9.524
846.06	111.765
846.36	90.000
846.66	57.143
846.96	33.333
847.25	12.500
847.55	71.429
847.85	62.500
848.15	4.545
848.44	-166.667
848.74	30.000
849.04	70.370
849.34	45.455
849.63	33.333
849.93	-20.000
850.23	5.556
850.53	150.000
850.82	115.385
851.12	55.556
851.42	80.000
851.71	15.385
852.01	50.000
852.31	150.000
852.61	9.091
852.90	10.000
853.20	84.211
853.50	125.000
853.79	47.826
854.09	75.000
854.39	36.842
854.68	33.333
854.98	48.387
855.28	65.385
855.57	40.000
855.87	72.222
856.17	103.704
856.46	35.714
856.76	93.333
857.05	155.556
857.35	12.000
857.65	61.111
857.94	38.462
858.24	110.345
858.53	16.667
858.83	29.630
859.13	36.364
859.42	21.739
859.72	300.000
860.01	-100.000
860.31	48.000
860.60	57.143
860.90	-133.333
861.20	46.667
861.49	200.000
861.79	53.333
862.08	60.000
862.38	173.333
862.67	-200.000
862.97	150.000
863.26	-25.000
863.56	77.778
863.85	-100.000
864.15	66.667
864.44	80.000
864.74	42.857
865.03	-75.000
865.33	-100.000
865.62	116.667
865.92	25.000
866.21	16.667
866.51	62.500
866.80	-18.182
867.10	50.000
867.39	150.000
867.69	0.000
867.98	92.308
868.27	-166.667
868.57	-26.667
868.86	77.778
869.16	-7.692
869.45	120.000
869.75	-300.000
870.04	0.000
870.33	-42.857
870.63	42.857
870.92	466.667
871.22	20.000
871.51	-700.000
871.80	177.778
872.10	166.667
>>>>>End Processed Spectral Data<<<<<
