SpectraSuite Data File
++++++++++++++++++++++++++++++++++++
Date: Fri May 15 17:31:57 PDT 2015
User: schluterlab
Dark Spectrum Present: Yes
Reference Spectrum Present: Yes
Number of Sampled Component Spectra: 1
Spectrometers: USB2E3373
Integration Time (usec): 3000 (USB2E3373)
Spectra Averaged: 3 (USB2E3373)
Boxcar Smoothing: 0 (USB2E3373)
Correct for Electrical Dark: No (USB2E3373)
Strobe/Lamp Enabled: No (USB2E3373)
Correct for Detector Non-linearity: No (USB2E3373)
Correct for Stray Light: No (USB2E3373)
Number of Pixels in Processed Spectrum: 2048
>>>>>Begin Processed Spectral Data<<<<<
178.53	0.000
178.91	0.000
179.29	62.500
179.67	-200.000
180.04	-85.714
180.42	350.000
180.80	400.000
181.18	-166.667
181.56	350.000
181.94	250.000
182.31	-100.000
182.69	80.000
183.07	-100.000
183.45	60.000
183.83	33.333
184.20	36.364
184.58	111.111
184.96	-100.000
185.34	-133.333
185.72	100.000
186.09	100.000
186.47	-500.000
186.85	50.000
187.23	122.222
187.61	-200.000
187.98	300.000
188.36	33.333
188.74	-166.667
189.12	29.412
189.49	22.222
189.87	0.000
190.25	107.143
190.63	250.000
191.00	-166.667
191.38	73.684
191.76	600.000
192.14	-225.000
192.51	50.000
192.89	22.222
193.27	142.857
193.65	-16.667
194.02	81.818
194.40	40.000
194.78	-150.000
195.15	-25.000
195.53	-37.500
195.91	-100.000
196.29	-200.000
196.66	61.538
197.04	200.000
197.42	11.111
197.79	-300.000
198.17	-53.846
198.55	200.000
198.92	-200.000
199.30	0.000
199.68	20.000
200.05	-100.000
200.43	0.000
200.81	-133.333
201.18	-166.667
201.56	600.000
201.94	500.000
202.31	-166.667
202.69	-340.000
203.07	225.000
203.44	900.000
203.82	0.000
204.19	7.143
204.57	-33.333
204.95	62.500
205.32	20.000
205.70	114.286
206.08	-25.000
206.45	155.556
206.83	92.857
207.20	-85.714
207.58	200.000
207.96	-66.667
208.33	-60.000
208.71	-25.000
209.08	83.333
209.46	200.000
209.84	20.000
210.21	100.000
210.59	114.286
210.96	66.667
211.34	75.000
211.71	73.333
212.09	-85.714
212.46	-1500.000
212.84	0.000
213.22	100.000
213.59	50.000
213.97	38.462
214.34	90.909
214.72	133.333
215.09	275.000
215.47	7.692
215.84	72.727
216.22	66.667
216.59	-12.500
216.97	450.000
217.34	-275.000
217.72	-160.000
218.09	0.000
218.47	75.000
218.84	300.000
219.22	66.667
219.59	-40.000
219.97	-100.000
220.34	-25.000
220.72	142.857
221.09	250.000
221.47	100.000
221.84	-400.000
222.22	-500.000
222.59	-18.182
222.97	41.667
223.34	333.333
223.72	35.714
224.09	23.810
224.46	17.857
224.84	33.333
225.21	80.000
225.59	93.333
225.96	-250.000
226.34	300.000
226.71	14.286
227.08	-66.667
227.46	100.000
227.83	-450.000
228.21	11.111
228.58	18.182
228.95	0.000
229.33	70.000
229.70	68.750
230.08	-87.500
230.45	0.000
230.82	171.429
231.20	60.000
231.57	78.571
231.95	71.429
232.32	10.000
232.69	42.857
233.07	266.667
233.44	0.000
233.81	-70.000
234.19	11.111
234.56	-17.647
234.93	150.000
235.31	275.000
235.68	-280.000
236.05	-46.154
236.43	15.000
236.80	47.059
237.17	46.875
237.55	30.000
237.92	3.704
238.29	36.111
238.67	46.667
239.04	32.353
239.41	-12.195
239.79	3.333
240.16	31.707
240.53	39.474
240.91	6.522
241.28	26.984
241.65	51.786
242.02	36.986
242.40	31.667
242.77	30.508
243.14	28.788
243.51	26.250
243.89	27.586
244.26	34.483
244.63	26.190
245.00	25.773
245.38	26.804
245.75	26.966
246.12	26.724
246.49	24.793
246.87	26.923
247.24	25.210
247.61	25.439
247.98	32.520
248.36	24.375
248.73	24.342
249.10	30.519
249.47	31.013
249.84	28.758
250.22	22.353
250.59	25.490
250.96	34.272
251.33	25.000
251.70	30.588
252.08	26.904
252.45	28.713
252.82	28.643
253.19	27.189
253.56	28.037
253.94	24.775
254.31	33.478
254.68	32.895
255.05	26.378
255.42	27.511
255.79	26.641
256.16	29.572
256.54	28.731
256.91	28.137
257.28	28.996
257.65	26.217
258.02	26.241
258.39	30.303
258.76	32.234
259.14	28.904
259.51	29.450
259.88	30.584
260.25	27.778
260.62	33.681
260.99	25.763
261.36	23.288
261.73	31.329
262.10	29.483
262.47	27.301
262.85	26.019
263.22	27.077
263.59	30.530
263.96	28.882
264.33	26.970
264.70	27.083
265.07	25.298
265.44	22.946
265.81	30.226
266.18	27.869
266.55	25.707
266.92	26.425
267.29	30.548
267.66	26.087
268.03	29.843
268.40	26.632
268.77	30.214
269.14	28.058
269.51	28.278
269.88	27.431
270.25	29.082
270.62	27.073
270.99	25.064
271.36	25.183
271.73	26.761
272.10	29.197
272.47	27.896
272.84	25.248
273.21	27.146
273.58	25.301
273.95	28.833
274.32	28.406
274.69	25.339
275.06	27.902
275.43	26.531
275.80	28.477
276.17	23.448
276.54	27.409
276.91	25.877
277.28	22.707
277.65	26.860
278.02	27.021
278.39	24.070
278.76	26.834
279.13	22.822
279.50	25.630
279.87	26.566
280.23	24.731
280.60	27.290
280.97	26.061
281.34	23.846
281.71	27.926
282.08	25.971
282.45	25.636
282.82	24.324
283.19	26.499
283.56	27.168
283.92	22.011
284.29	25.192
284.66	25.775
285.03	23.969
285.40	24.575
285.77	24.780
286.14	23.646
286.51	24.170
286.87	26.143
287.24	25.783
287.61	22.751
287.98	24.561
288.35	22.704
288.72	24.343
289.08	24.479
289.45	24.429
289.82	23.077
290.19	20.990
290.56	22.985
290.93	22.391
291.29	20.493
291.66	21.417
292.03	20.893
292.40	22.742
292.77	22.807
293.13	19.156
293.50	21.396
293.87	21.069
294.24	19.165
294.60	19.672
294.97	19.643
295.34	20.706
295.71	19.225
296.08	18.685
296.44	18.350
296.81	20.139
297.18	20.290
297.55	19.783
297.91	20.411
298.28	21.240
298.65	18.589
299.02	18.598
299.38	18.057
299.75	18.897
300.12	18.455
300.48	18.314
300.85	18.758
301.22	18.312
301.59	18.553
301.95	18.354
302.32	19.326
302.69	16.418
303.05	18.069
303.42	17.933
303.79	18.107
304.15	19.474
304.52	18.074
304.89	17.193
305.25	17.676
305.62	16.803
305.99	15.906
306.35	18.035
306.72	16.873
307.09	16.420
307.45	16.648
307.82	17.708
308.19	18.235
308.55	17.230
308.92	18.410
309.29	15.978
309.65	16.039
310.02	16.502
310.38	16.026
310.75	17.049
311.12	17.546
311.48	16.755
311.85	16.230
312.22	16.245
312.58	17.304
312.95	15.368
313.31	16.253
313.68	16.335
314.05	16.837
314.41	17.216
314.78	16.186
315.14	16.958
315.51	17.288
315.87	16.598
316.24	19.110
316.61	18.209
316.97	16.766
317.34	17.578
317.70	17.591
318.07	17.404
318.43	19.510
318.80	18.182
319.16	19.336
319.53	19.278
319.89	19.685
320.26	19.838
320.62	21.364
320.99	19.729
321.35	20.966
321.72	19.211
322.08	21.148
322.45	20.609
322.81	20.432
323.18	22.080
323.54	22.490
323.91	22.980
324.27	24.121
324.64	23.876
325.00	26.369
325.37	25.987
325.73	26.292
326.10	28.338
326.46	27.265
326.83	29.571
327.19	28.771
327.56	30.930
327.92	31.250
328.29	31.518
328.65	33.774
329.01	33.364
329.38	34.101
329.74	34.939
330.11	35.589
330.47	35.529
330.84	37.692
331.20	37.738
331.56	38.519
331.93	39.087
332.29	39.505
332.66	39.910
333.02	40.428
333.38	39.963
333.75	43.315
334.11	43.062
334.48	43.971
334.84	44.780
335.20	45.288
335.57	45.059
335.93	43.541
336.29	46.777
336.66	45.232
337.02	44.981
337.38	45.833
337.75	47.182
338.11	49.053
338.47	48.540
338.84	49.261
339.20	47.349
339.56	48.624
339.93	47.628
340.29	48.532
340.65	50.000
341.02	48.050
341.38	48.053
341.74	49.293
342.11	47.920
342.47	48.932
342.83	49.567
343.20	47.822
343.56	50.087
343.92	48.981
344.28	51.324
344.65	50.000
345.01	49.438
345.37	48.276
345.73	48.870
346.10	49.871
346.46	49.537
346.82	50.082
347.19	47.631
347.55	50.376
347.91	49.272
348.27	48.909
348.63	49.063
349.00	48.564
349.36	50.042
349.72	48.590
350.08	49.344
350.45	49.721
350.81	49.003
351.17	50.000
351.53	49.388
351.89	47.977
352.26	49.360
352.62	49.919
352.98	48.514
353.34	49.758
353.70	50.485
354.07	49.758
354.43	49.319
354.79	49.216
355.15	50.238
355.51	51.582
355.87	49.191
356.24	49.837
356.60	48.424
356.96	49.524
357.32	49.601
357.68	48.788
358.04	48.708
358.40	50.322
358.77	50.558
359.13	50.120
359.49	48.305
359.85	49.688
360.21	49.601
360.57	50.497
360.93	50.227
361.29	49.471
361.66	50.784
362.02	50.379
362.38	50.724
362.74	49.659
363.10	51.693
363.46	50.334
363.82	50.639
364.18	50.111
364.54	49.265
364.90	50.251
365.26	49.127
365.62	51.022
365.98	52.639
366.35	52.367
366.71	52.550
367.07	51.887
367.43	50.395
367.79	51.307
368.15	50.610
368.51	52.076
368.87	51.328
369.23	51.119
369.59	51.385
369.95	51.906
370.31	51.951
370.67	52.985
371.03	50.485
371.39	51.495
371.75	51.722
372.11	51.141
372.47	52.293
372.83	52.874
373.19	50.999
373.55	51.697
373.91	51.260
374.27	51.595
374.63	50.969
374.99	52.411
375.35	51.880
375.71	54.685
376.07	53.933
376.42	52.925
376.78	53.557
377.14	54.435
377.50	51.992
377.86	54.418
378.22	52.585
378.58	54.359
378.94	53.812
379.30	53.026
379.66	54.671
380.02	53.893
380.38	54.047
380.74	54.279
381.09	55.890
381.45	54.557
381.81	53.732
382.17	54.949
382.53	55.340
382.89	56.748
383.25	55.569
383.61	55.122
383.97	54.730
384.32	54.972
384.68	55.294
385.04	54.534
385.40	54.325
385.76	56.604
386.12	56.856
386.48	55.747
386.83	55.992
387.19	56.532
387.55	57.842
387.91	56.907
388.27	54.884
388.62	57.520
388.98	57.029
389.34	56.277
389.70	56.805
390.06	55.255
390.42	56.218
390.77	56.835
391.13	56.242
391.49	56.210
391.85	56.725
392.20	56.685
392.56	56.834
392.92	58.133
393.28	56.958
393.64	56.877
393.99	58.182
394.35	57.495
394.71	56.897
395.07	55.751
395.42	56.952
395.78	57.785
396.14	58.071
396.50	57.958
396.85	57.502
397.21	56.266
397.57	57.555
397.92	56.441
398.28	57.471
398.64	55.060
399.00	57.506
399.35	56.772
399.71	56.921
400.07	58.585
400.42	57.160
400.78	57.991
401.14	57.471
401.49	56.939
401.85	57.465
402.21	56.687
402.57	57.063
402.92	56.524
403.28	57.707
403.63	58.323
403.99	57.908
404.35	57.464
404.70	56.071
405.06	55.993
405.42	55.811
405.77	56.653
406.13	56.519
406.49	56.838
406.84	57.579
407.20	56.532
407.55	56.021
407.91	55.548
408.27	57.043
408.62	56.615
408.98	56.624
409.34	56.382
409.69	56.718
410.05	55.727
410.40	56.790
410.76	56.393
411.11	57.500
411.47	56.410
411.83	57.502
412.18	57.272
412.54	56.242
412.89	55.911
413.25	56.197
413.60	56.832
413.96	56.748
414.31	55.488
414.67	57.409
415.03	56.391
415.38	55.744
415.74	57.264
416.09	57.871
416.45	57.461
416.80	56.642
417.16	58.080
417.51	57.961
417.87	56.714
418.22	58.614
418.58	57.057
418.93	58.934
419.29	56.594
419.64	58.069
420.00	59.761
420.35	57.254
420.71	58.202
421.06	57.950
421.42	58.774
421.77	58.324
422.12	58.286
422.48	59.015
422.83	58.179
423.19	58.634
423.54	59.965
423.90	59.187
424.25	58.898
424.61	60.098
424.96	59.292
425.31	60.716
425.67	61.854
426.02	62.191
426.38	60.802
426.73	60.835
427.09	62.215
427.44	61.765
427.79	61.344
428.15	61.468
428.50	61.599
428.85	61.486
429.21	61.913
429.56	63.073
429.92	62.044
430.27	61.153
430.62	62.154
430.98	63.163
431.33	61.304
431.68	61.852
432.04	64.002
432.39	62.864
432.74	61.575
433.10	63.621
433.45	63.023
433.80	64.713
434.16	62.382
434.51	64.032
434.86	64.808
435.22	63.320
435.57	64.878
435.92	63.593
436.28	64.162
436.63	64.632
436.98	64.426
437.34	64.428
437.69	65.951
438.04	65.242
438.39	65.669
438.75	66.485
439.10	64.686
439.45	66.342
439.81	65.749
440.16	66.746
440.51	65.612
440.86	68.036
441.22	65.781
441.57	67.439
441.92	68.363
442.27	68.016
442.63	67.987
442.98	67.892
443.33	67.557
443.68	67.374
444.03	67.511
444.39	67.486
444.74	68.896
445.09	68.987
445.44	68.205
445.79	70.603
446.15	68.172
446.50	68.663
446.85	70.404
447.20	68.978
447.55	69.587
447.91	69.036
448.26	69.721
448.61	69.603
448.96	70.224
449.31	70.925
449.66	69.454
450.02	70.508
450.37	71.784
450.72	71.649
451.07	71.519
451.42	69.413
451.77	71.429
452.12	70.275
452.47	70.766
452.83	70.966
453.18	70.525
453.53	72.250
453.88	71.767
454.23	71.051
454.58	73.489
454.93	72.101
455.28	70.921
455.63	72.102
455.98	71.257
456.34	72.350
456.69	73.316
457.04	73.346
457.39	73.147
457.74	72.672
458.09	72.513
458.44	73.727
458.79	74.174
459.14	73.341
459.49	74.209
459.84	73.209
460.19	74.272
460.54	74.144
460.89	74.545
461.24	74.534
461.59	73.575
461.94	74.528
462.29	73.703
462.64	75.548
462.99	75.017
463.34	74.409
463.69	74.324
464.04	75.303
464.39	74.348
464.74	75.153
465.09	76.419
465.44	77.149
465.79	74.546
466.14	74.857
466.49	76.193
466.84	77.751
467.19	75.407
467.54	75.287
467.89	77.701
468.24	75.852
468.59	77.016
468.94	74.476
469.29	76.066
469.64	76.213
469.99	78.346
470.34	76.860
470.68	77.703
471.03	77.778
471.38	79.101
471.73	77.241
472.08	76.187
472.43	77.315
472.78	76.354
473.13	78.163
473.48	78.176
473.83	76.463
474.17	77.526
474.52	77.473
474.87	78.848
475.22	77.242
475.57	79.108
475.92	77.839
476.27	78.056
476.61	80.324
476.96	77.691
477.31	78.908
477.66	77.865
478.01	79.955
478.36	77.723
478.70	79.717
479.05	78.297
479.40	79.650
479.75	78.206
480.10	78.239
480.45	80.150
480.79	80.715
481.14	81.404
481.49	79.212
481.84	81.419
482.19	80.496
482.53	81.343
482.88	79.475
483.23	79.271
483.58	79.481
483.92	78.509
484.27	79.398
484.62	80.233
484.97	79.146
485.31	80.238
485.66	80.924
486.01	81.791
486.36	80.704
486.70	79.171
487.05	80.121
487.40	79.860
487.75	79.887
488.09	78.956
488.44	78.989
488.79	78.932
489.13	80.329
489.48	81.146
489.83	80.045
490.17	80.360
490.52	81.478
490.87	79.269
491.22	81.662
491.56	80.835
491.91	81.358
492.26	81.526
492.60	80.902
492.95	83.178
493.30	80.655
493.64	83.694
493.99	81.739
494.34	82.767
494.68	81.810
495.03	81.995
495.37	80.618
495.72	82.484
496.07	83.317
496.41	82.642
496.76	82.174
497.11	82.208
497.45	82.578
497.80	84.612
498.14	81.619
498.49	83.850
498.84	81.238
499.18	83.534
499.53	81.895
499.87	81.663
500.22	83.136
500.56	84.569
500.91	82.781
501.26	83.045
501.60	82.243
501.95	83.164
502.29	83.341
502.64	83.205
502.98	84.410
503.33	83.045
503.67	82.892
504.02	83.333
504.36	85.601
504.71	81.768
505.06	83.090
505.40	84.061
505.75	83.711
506.09	82.058
506.44	85.575
506.78	84.031
507.13	84.385
507.47	82.663
507.82	83.600
508.16	84.258
508.51	83.736
508.85	84.982
509.19	84.726
509.54	84.718
509.88	83.981
510.23	82.195
510.57	84.286
510.92	82.783
511.26	84.779
511.61	85.534
511.95	83.397
512.30	84.534
512.64	82.526
512.98	84.896
513.33	85.450
513.67	84.423
514.02	84.840
514.36	85.886
514.70	85.897
515.05	85.488
515.39	84.652
515.74	86.766
516.08	85.655
516.42	86.219
516.77	86.659
517.11	86.053
517.46	85.817
517.80	85.221
518.14	86.038
518.49	84.255
518.83	85.298
519.17	85.810
519.52	84.665
519.86	84.814
520.20	84.872
520.55	85.366
520.89	84.818
521.23	85.814
521.58	86.625
521.92	85.449
522.26	84.450
522.61	87.078
522.95	86.623
523.29	84.879
523.64	85.197
523.98	86.973
524.32	85.696
524.66	85.851
525.01	85.714
525.35	85.029
525.69	87.138
526.04	86.706
526.38	86.122
526.72	84.761
527.06	86.057
527.41	86.939
527.75	85.858
528.09	84.186
528.43	88.589
528.78	86.733
529.12	86.065
529.46	87.589
529.80	84.104
530.15	86.073
530.49	86.869
530.83	87.551
531.17	85.158
531.51	86.662
531.86	85.384
532.20	86.221
532.54	84.683
532.88	86.379
533.22	84.073
533.57	86.501
533.91	86.488
534.25	87.109
534.59	85.953
534.93	84.456
535.27	84.454
535.62	85.872
535.96	86.758
536.30	86.609
536.64	86.354
536.98	85.993
537.32	87.838
537.66	88.008
538.01	87.063
538.35	87.240
538.69	86.951
539.03	85.578
539.37	86.541
539.71	86.026
540.05	86.558
540.39	87.396
540.73	85.774
541.07	85.497
541.42	85.954
541.76	87.474
542.10	86.717
542.44	88.256
542.78	84.308
543.12	86.195
543.46	86.579
543.80	86.815
544.14	84.179
544.48	86.143
544.82	86.876
545.16	87.910
545.50	86.515
545.84	86.756
546.18	87.589
546.52	86.157
546.86	86.125
547.20	89.127
547.54	85.018
547.88	86.549
548.22	85.996
548.56	86.741
548.90	87.062
549.24	86.639
549.58	85.049
549.92	86.133
550.26	86.520
550.60	88.401
550.94	88.574
551.28	88.640
551.62	88.308
551.96	87.744
552.30	88.743
552.64	85.896
552.98	86.006
553.32	86.947
553.66	87.881
554.00	88.102
554.34	87.740
554.68	86.136
555.02	87.054
555.36	86.537
555.69	87.619
556.03	86.867
556.37	88.043
556.71	87.942
557.05	87.994
557.39	85.279
557.73	87.481
558.07	86.878
558.41	89.204
558.75	86.984
559.08	88.337
559.42	88.016
559.76	89.832
560.10	86.774
560.44	88.012
560.78	88.671
561.12	88.787
561.45	90.302
561.79	88.725
562.13	88.006
562.47	89.496
562.81	89.193
563.15	87.447
563.48	88.967
563.82	88.607
564.16	88.092
564.50	87.027
564.84	88.019
565.17	87.928
565.51	90.096
565.85	89.506
566.19	88.329
566.52	89.008
566.86	89.203
567.20	88.418
567.54	90.328
567.88	91.095
568.21	89.480
568.55	89.511
568.89	88.963
569.23	90.323
569.56	89.186
569.90	90.702
570.24	86.937
570.57	89.600
570.91	89.892
571.25	87.340
571.59	87.200
571.92	85.481
572.26	86.111
572.60	87.132
572.93	85.817
573.27	85.987
573.61	87.619
573.95	87.193
574.28	87.182
574.62	86.321
574.96	85.266
575.29	85.941
575.63	84.400
575.97	84.955
576.30	85.746
576.64	86.252
576.98	86.950
577.31	87.368
577.65	87.362
577.98	86.919
578.32	85.839
578.66	85.386
578.99	84.605
579.33	84.886
579.67	84.027
580.00	85.873
580.34	85.323
580.67	85.559
581.01	86.455
581.35	86.520
581.68	86.636
582.02	87.392
582.35	86.778
582.69	86.385
583.02	85.730
583.36	86.681
583.70	86.501
584.03	86.850
584.37	88.255
584.70	85.632
585.04	86.062
585.37	86.167
585.71	86.374
586.04	86.082
586.38	84.983
586.72	88.436
587.05	87.897
587.39	87.755
587.72	89.147
588.06	87.683
588.39	86.528
588.73	87.363
589.06	87.410
589.40	86.830
589.73	87.185
590.07	88.029
590.40	87.539
590.73	89.580
591.07	87.701
591.40	88.468
591.74	88.507
592.07	88.080
592.41	89.267
592.74	88.610
593.08	86.972
593.41	89.028
593.75	88.191
594.08	85.788
594.41	87.591
594.75	88.359
595.08	88.044
595.42	88.075
595.75	87.983
596.09	88.702
596.42	87.516
596.75	87.478
597.09	88.246
597.42	87.940
597.75	89.235
598.09	87.506
598.42	86.282
598.76	88.889
599.09	88.822
599.42	87.116
599.76	86.230
600.09	85.973
600.42	86.998
600.76	86.664
601.09	86.947
601.42	86.722
601.76	86.542
602.09	88.160
602.42	87.447
602.76	87.394
603.09	88.414
603.42	90.844
603.76	88.266
604.09	87.930
604.42	88.409
604.76	89.898
605.09	88.163
605.42	87.540
605.75	87.347
606.09	87.941
606.42	87.031
606.75	86.753
607.09	87.121
607.42	87.373
607.75	88.988
608.08	86.343
608.42	84.376
608.75	88.337
609.08	88.341
609.41	87.005
609.75	87.399
610.08	88.567
610.41	88.599
610.74	87.470
611.07	88.682
611.41	88.739
611.74	90.139
612.07	87.473
612.40	88.950
612.73	89.831
613.07	88.526
613.40	87.746
613.73	89.871
614.06	88.203
614.39	88.607
614.72	86.723
615.06	87.765
615.39	85.753
615.72	86.114
616.05	88.380
616.38	85.527
616.71	88.196
617.05	89.006
617.38	90.132
617.71	88.050
618.04	90.286
618.37	91.236
618.70	88.185
619.03	89.722
619.36	88.567
619.69	90.978
620.03	92.038
620.36	89.056
620.69	88.722
621.02	89.297
621.35	89.461
621.68	90.986
622.01	91.000
622.34	89.785
622.67	90.457
623.00	90.199
623.33	88.872
623.66	88.257
623.99	90.393
624.32	89.962
624.65	89.699
624.99	89.466
625.32	87.491
625.65	90.024
625.98	90.572
626.31	89.942
626.64	90.901
626.97	89.180
627.30	91.243
627.63	89.861
627.96	92.363
628.29	88.899
628.62	91.740
628.95	89.679
629.28	93.448
629.61	91.825
629.94	92.375
630.26	90.415
630.59	94.485
630.92	88.410
631.25	88.205
631.58	93.062
631.91	91.338
632.24	95.069
632.57	90.114
632.90	92.289
633.23	90.588
633.56	95.718
633.89	90.999
634.22	93.457
634.55	95.172
634.88	92.209
635.20	93.718
635.53	94.000
635.86	93.108
636.19	94.696
636.52	94.898
636.85	91.811
637.18	89.434
637.51	91.069
637.83	92.247
638.16	93.179
638.49	91.553
638.82	91.711
639.15	92.130
639.48	94.360
639.81	92.887
640.13	95.527
640.46	94.315
640.79	90.869
641.12	91.285
641.45	94.444
641.77	91.704
642.10	92.733
642.43	94.855
642.76	95.380
643.09	93.053
643.41	92.718
643.74	92.916
644.07	92.611
644.40	96.622
644.73	94.921
645.05	91.443
645.38	95.238
645.71	94.681
646.04	97.846
646.36	95.213
646.69	95.504
647.02	95.274
647.35	95.896
647.67	92.505
648.00	97.575
648.33	92.833
648.66	94.915
648.98	92.797
649.31	91.736
649.64	89.639
649.96	91.086
650.29	94.208
650.62	91.453
650.94	93.704
651.27	93.482
651.60	91.532
651.92	90.035
652.25	93.961
652.58	90.500
652.90	96.398
653.23	92.605
653.56	91.032
653.88	93.127
654.21	90.193
654.54	89.474
654.86	93.209
655.19	91.520
655.52	94.505
655.84	91.316
656.17	99.813
656.49	100.000
656.82	100.000
657.15	100.000
657.47	100.000
657.80	95.433
658.13	53.454
658.45	83.290
658.78	81.328
659.10	80.135
659.43	80.651
659.75	80.266
660.08	80.828
660.41	84.576
660.73	85.635
661.06	92.028
661.38	91.977
661.71	89.528
662.03	92.489
662.36	90.989
662.68	94.248
663.01	94.105
663.33	96.752
663.66	94.419
663.98	94.884
664.31	93.603
664.63	94.931
664.96	88.696
665.28	91.832
665.61	91.558
665.93	94.348
666.26	93.709
666.58	93.289
666.91	97.176
667.23	95.283
667.56	94.550
667.88	92.326
668.21	93.795
668.53	94.799
668.86	93.160
669.18	93.160
669.50	92.252
669.83	92.093
670.15	90.909
670.48	90.191
670.80	93.779
671.13	89.262
671.45	90.183
671.77	92.060
672.10	91.089
672.42	91.573
672.75	88.810
673.07	91.234
673.39	89.908
673.72	88.560
674.04	88.125
674.37	91.949
674.69	92.505
675.01	93.556
675.34	88.288
675.66	94.213
675.98	91.574
676.31	95.413
676.63	91.924
676.95	92.727
677.28	94.353
677.60	95.904
677.92	92.661
678.25	88.840
678.57	91.126
678.89	90.546
679.22	95.526
679.54	89.157
679.86	88.072
680.18	88.738
680.51	89.205
680.83	90.060
681.15	92.600
681.48	89.754
681.80	89.463
682.12	89.919
682.44	87.029
682.77	91.170
683.09	91.762
683.41	90.455
683.73	89.401
684.06	89.159
684.38	87.957
684.70	95.861
685.02	91.909
685.34	89.921
685.67	90.619
685.99	86.257
686.31	86.903
686.63	87.941
686.96	84.981
687.28	88.687
687.60	84.601
687.92	94.343
688.24	89.315
688.56	91.485
688.89	88.170
689.21	89.556
689.53	88.631
689.85	90.000
690.17	87.500
690.49	92.435
690.82	94.175
691.14	89.048
691.46	90.421
691.78	95.270
692.10	87.097
692.42	87.446
692.74	86.966
693.06	87.162
693.39	87.330
693.71	87.783
694.03	87.298
694.35	91.121
694.67	88.889
694.99	90.339
695.31	90.601
695.63	90.000
695.95	88.384
696.27	89.637
696.59	89.444
696.91	89.076
697.23	85.861
697.56	93.069
697.88	88.387
698.20	91.116
698.52	89.176
698.84	88.756
699.16	86.250
699.48	91.980
699.80	86.600
700.12	89.757
700.44	92.437
700.76	90.116
701.08	85.758
701.40	93.072
701.72	93.210
702.04	94.719
702.36	93.311
702.68	94.895
703.00	94.848
703.32	87.390
703.64	86.158
703.96	90.725
704.28	90.798
704.60	91.746
704.91	91.483
705.23	93.688
705.55	97.527
705.87	93.863
706.19	90.741
706.51	87.973
706.83	92.605
707.15	84.735
707.47	90.756
707.79	84.635
708.11	86.500
708.43	87.250
708.74	86.047
709.06	92.958
709.38	93.272
709.70	88.462
710.02	85.669
710.34	87.307
710.66	83.333
710.98	88.411
711.29	90.164
711.61	89.153
711.93	87.296
712.25	92.440
712.57	93.040
712.89	87.687
713.20	87.197
713.52	87.456
713.84	88.396
714.16	87.285
714.48	92.903
714.80	89.423
715.11	85.410
715.43	84.326
715.75	90.333
716.07	86.379
716.39	87.584
716.70	86.347
717.02	88.550
717.34	91.498
717.66	91.593
717.97	91.739
718.29	91.213
718.61	88.189
718.93	84.109
719.24	91.255
719.56	93.976
719.88	83.849
720.20	88.258
720.51	81.226
720.83	91.506
721.15	93.277
721.46	85.081
721.78	83.399
722.10	82.156
722.42	87.137
722.73	90.612
723.05	90.204
723.37	91.949
723.68	93.694
724.00	85.470
724.32	88.444
724.63	87.727
724.95	86.026
725.27	97.696
725.58	83.051
725.90	86.905
726.22	83.012
726.53	86.780
726.85	87.266
727.16	93.962
727.48	91.093
727.80	86.640
728.11	91.102
728.43	79.216
728.74	82.258
729.06	90.000
729.38	86.090
729.69	84.462
730.01	83.462
730.32	89.925
730.64	78.799
730.96	90.566
731.27	77.667
731.59	85.424
731.90	83.439
732.22	83.912
732.53	89.701
732.85	87.943
733.16	87.879
733.48	83.453
733.80	89.493
734.11	82.712
734.43	90.722
734.74	83.333
735.06	82.736
735.37	82.779
735.69	86.869
736.00	82.230
736.32	83.557
736.63	84.155
736.95	87.372
737.26	82.918
737.58	82.550
737.89	83.150
738.21	85.714
738.52	83.128
738.83	87.773
739.15	84.279
739.46	89.764
739.78	83.883
740.09	83.660
740.41	85.507
740.72	80.709
741.04	90.688
741.35	81.277
741.66	90.047
741.98	87.755
742.29	87.129
742.61	91.623
742.92	78.199
743.23	84.722
743.55	88.235
743.86	81.340
744.18	84.211
744.49	82.447
744.80	90.761
745.12	87.166
745.43	82.927
745.74	94.271
746.06	83.902
746.37	95.288
746.68	90.521
747.00	84.043
747.31	86.070
747.62	86.408
747.94	88.517
748.25	86.139
748.56	93.989
748.88	85.864
749.19	89.362
749.50	87.685
749.82	79.245
750.13	89.908
750.44	83.835
750.75	82.463
751.07	92.701
751.38	81.992
751.69	85.490
752.01	83.333
752.32	86.853
752.63	81.818
752.94	84.052
753.26	87.029
753.57	85.973
753.88	88.496
754.19	85.000
754.51	88.430
754.82	81.781
755.13	88.333
755.44	84.677
755.75	85.156
756.07	87.549
756.38	79.245
756.69	82.759
757.00	79.667
757.31	82.353
757.63	78.049
757.94	77.778
758.25	76.712
758.56	77.394
758.87	73.654
759.18	75.701
759.50	84.364
759.81	83.946
760.12	83.871
760.43	81.818
760.74	81.790
761.05	78.769
761.36	77.557
761.67	84.848
761.99	82.653
762.30	74.545
762.61	80.237
762.92	83.258
763.23	81.982
763.54	85.047
763.85	84.746
764.16	82.158
764.47	77.823
764.78	78.388
765.10	81.481
765.41	82.650
765.72	79.365
766.03	84.211
766.34	74.453
766.65	82.470
766.96	84.343
767.27	80.851
767.58	77.011
767.89	87.943
768.20	77.841
768.51	85.165
768.82	79.803
769.13	77.880
769.44	81.545
769.75	85.845
770.06	74.569
770.37	80.288
770.68	90.355
770.99	78.733
771.30	87.745
771.61	77.828
771.92	83.621
772.23	81.773
772.54	76.344
772.85	91.358
773.16	77.528
773.47	96.078
773.78	84.967
774.09	71.257
774.39	74.667
774.70	75.159
775.01	82.759
775.32	82.143
775.63	82.645
775.94	77.099
776.25	81.102
776.56	75.000
776.87	89.423
777.18	79.487
777.48	81.034
777.79	78.261
778.10	81.905
778.41	81.982
778.72	72.222
779.03	75.940
779.34	82.979
779.65	74.658
779.95	73.288
780.26	77.241
780.57	76.423
780.88	71.654
781.19	85.345
781.50	86.047
781.80	69.231
782.11	77.358
782.42	85.385
782.73	79.856
783.04	85.185
783.34	73.611
783.65	80.342
783.96	81.148
784.27	85.517
784.57	82.114
784.88	68.750
785.19	80.000
785.50	89.000
785.81	70.690
786.11	70.690
786.42	85.437
786.73	80.909
787.04	78.571
787.34	68.750
787.65	80.952
787.96	75.221
788.26	86.364
788.57	75.214
788.88	81.250
789.19	65.873
789.49	81.739
789.80	91.837
790.11	71.717
790.41	73.636
790.72	78.261
791.03	86.364
791.33	90.000
791.64	76.250
791.95	84.884
792.25	86.170
792.56	76.404
792.87	64.384
793.17	69.565
793.48	62.667
793.79	53.750
794.09	82.500
794.40	78.302
794.70	80.583
795.01	72.358
795.32	83.761
795.62	64.762
795.93	80.392
796.23	77.358
796.54	70.833
796.85	85.294
797.15	74.648
797.46	70.833
797.76	83.333
798.07	63.953
798.37	72.368
798.68	80.303
798.99	64.198
799.29	81.429
799.60	79.710
799.90	70.667
800.21	65.574
800.51	75.385
800.82	88.136
801.12	68.116
801.43	88.525
801.73	93.651
802.04	56.000
802.34	62.687
802.65	75.000
802.95	62.500
803.26	90.385
803.56	80.392
803.87	91.304
804.17	77.333
804.48	87.302
804.78	66.667
805.09	69.565
805.39	97.778
805.70	74.074
806.00	57.895
806.30	73.239
806.61	75.714
806.91	52.778
807.22	71.053
807.52	82.667
807.83	61.818
808.13	62.500
808.43	66.176
808.74	59.701
809.04	71.186
809.35	86.538
809.65	75.000
809.95	83.784
810.26	65.909
810.56	47.945
810.86	69.048
811.17	64.000
811.47	83.673
811.77	97.368
812.08	72.727
812.38	69.811
812.69	72.500
812.99	90.909
813.29	71.053
813.59	60.000
813.90	63.636
814.20	64.103
814.50	78.846
814.81	90.566
815.11	74.468
815.41	69.492
815.72	85.714
816.02	62.745
816.32	68.750
816.62	68.293
816.93	59.459
817.23	65.714
817.53	81.250
817.84	56.522
818.14	69.231
818.44	42.105
818.74	97.826
819.04	40.000
819.35	75.676
819.65	70.588
819.95	100.000
820.25	64.286
820.56	77.500
820.86	75.862
821.16	67.500
821.46	68.085
821.76	67.500
822.07	81.395
822.37	29.730
822.67	53.125
822.97	69.048
823.27	71.429
823.57	52.000
823.88	33.333
824.18	96.429
824.48	44.118
824.78	74.194
825.08	69.565
825.38	63.636
825.69	54.167
825.99	73.684
826.29	47.222
826.59	73.333
826.89	38.095
827.19	65.217
827.49	77.500
827.79	85.714
828.09	92.857
828.39	87.879
828.70	105.405
829.00	60.714
829.30	33.333
829.60	100.000
829.90	56.250
830.20	39.474
830.50	48.148
830.80	82.609
831.10	109.091
831.40	93.939
831.70	80.645
832.00	114.286
832.30	61.905
832.60	50.000
832.90	17.241
833.20	80.000
833.50	78.788
833.80	40.741
834.10	69.231
834.40	43.750
834.70	88.889
835.00	68.421
835.30	107.692
835.60	113.333
835.90	74.194
836.20	90.909
836.50	85.714
836.80	30.769
837.10	28.571
837.40	266.667
837.70	13.636
838.00	9.091
838.30	56.522
838.60	123.077
838.90	86.364
839.19	64.286
839.49	63.333
839.79	130.769
840.09	-16.667
840.39	53.571
840.69	35.714
840.99	57.692
841.29	52.632
841.59	10.000
841.88	63.636
842.18	70.000
842.48	106.250
842.78	40.000
843.08	44.444
843.38	70.000
843.68	82.609
843.97	80.000
844.27	73.333
844.57	65.000
844.87	88.889
845.17	23.810
845.47	13.333
845.76	38.095
846.06	70.588
846.36	120.000
846.66	50.000
846.96	60.000
847.25	-75.000
847.55	114.286
847.85	137.500
848.15	0.000
848.44	-100.000
848.74	50.000
849.04	74.074
849.34	90.909
849.63	-16.667
849.93	-160.000
850.23	55.556
850.53	180.000
850.82	53.846
851.12	22.222
851.42	113.333
851.71	26.923
852.01	114.286
852.31	75.000
852.61	90.909
852.90	-5.000
853.20	52.632
853.50	33.333
853.79	60.870
854.09	129.167
854.39	73.684
854.68	16.667
854.98	74.194
855.28	34.615
855.57	60.000
855.87	77.778
856.17	81.481
856.46	64.286
856.76	26.667
857.05	77.778
857.35	52.000
857.65	72.222
857.94	84.615
858.24	48.276
858.53	111.111
858.83	70.370
859.13	72.727
859.42	8.696
859.72	-200.000
860.01	-66.667
860.31	4.000
860.60	38.095
860.90	100.000
861.20	6.667
861.49	-200.000
861.79	26.667
862.08	45.000
862.38	146.667
862.67	140.000
862.97	116.667
863.26	41.667
863.56	27.778
863.85	-133.333
864.15	22.222
864.44	-10.000
864.74	78.571
865.03	-150.000
865.33	120.000
865.62	116.667
865.92	8.333
866.21	-33.333
866.51	131.250
866.80	45.455
867.10	50.000
867.39	75.000
867.69	0.000
867.98	38.462
868.27	-166.667
868.57	40.000
868.86	50.000
869.16	23.077
869.45	126.667
869.75	400.000
870.04	0.000
870.33	42.857
870.63	38.095
870.92	100.000
871.22	-180.000
871.51	100.000
871.80	144.444
872.10	33.333
>>>>>End Processed Spectral Data<<<<<
