SpectraSuite Data File
++++++++++++++++++++++++++++++++++++
Date: Fri May 15 20:07:21 PDT 2015
User: schluterlab
Dark Spectrum Present: Yes
Reference Spectrum Present: Yes
Number of Sampled Component Spectra: 1
Spectrometers: USB2E3373
Integration Time (usec): 3000 (USB2E3373)
Spectra Averaged: 3 (USB2E3373)
Boxcar Smoothing: 0 (USB2E3373)
Correct for Electrical Dark: No (USB2E3373)
Strobe/Lamp Enabled: No (USB2E3373)
Correct for Detector Non-linearity: No (USB2E3373)
Correct for Stray Light: No (USB2E3373)
Number of Pixels in Processed Spectrum: 2048
>>>>>Begin Processed Spectral Data<<<<<
178.53	0.000
178.91	0.000
179.29	87.500
179.67	-750.000
180.04	85.714
180.42	100.000
180.80	-1100.000
181.18	300.000
181.56	350.000
181.94	50.000
182.31	300.000
182.69	80.000
183.07	-300.000
183.45	-120.000
183.83	166.667
184.20	-63.636
184.58	100.000
184.96	-150.000
185.34	166.667
185.72	-200.000
186.09	92.308
186.47	-600.000
186.85	166.667
187.23	177.778
187.61	-400.000
187.98	100.000
188.36	11.111
188.74	0.000
189.12	41.176
189.49	16.667
189.87	0.000
190.25	28.571
190.63	100.000
191.00	-366.667
191.38	-42.105
191.76	500.000
192.14	-0.000
192.51	300.000
192.89	0.000
193.27	-57.143
193.65	200.000
194.02	90.909
194.40	-20.000
194.78	-37.500
195.15	8.333
195.53	50.000
195.91	300.000
196.29	25.000
196.66	115.385
197.04	-42.857
197.42	-66.667
197.79	-200.000
198.17	-76.923
198.55	-400.000
198.92	-100.000
199.30	-200.000
199.68	-100.000
200.05	-266.667
200.43	0.000
200.81	-300.000
201.18	100.000
201.56	700.000
201.94	200.000
202.31	-100.000
202.69	0.000
203.07	100.000
203.44	500.000
203.82	0.000
204.19	57.143
204.57	0.000
204.95	150.000
205.32	110.000
205.70	14.286
206.08	150.000
206.45	122.222
206.83	14.286
207.20	-142.857
207.58	900.000
207.96	-233.333
208.33	-40.000
208.71	-125.000
209.08	-83.333
209.46	200.000
209.84	-160.000
210.21	-1300.000
210.59	0.000
210.96	-33.333
211.34	-350.000
211.71	60.000
212.09	-185.714
212.46	-900.000
212.84	0.000
213.22	120.000
213.59	450.000
213.97	61.538
214.34	-18.182
214.72	100.000
215.09	225.000
215.47	0.000
215.84	-18.182
216.22	-466.667
216.59	62.500
216.97	50.000
217.34	-150.000
217.72	-160.000
218.09	75.000
218.47	137.500
218.84	-1600.000
219.22	22.222
219.59	220.000
219.97	266.667
220.34	-75.000
220.72	57.143
221.09	-125.000
221.47	250.000
221.84	-300.000
222.22	-350.000
222.59	-36.364
222.97	0.000
223.34	-300.000
223.72	42.857
224.09	57.143
224.46	42.857
224.84	433.333
225.21	-80.000
225.59	33.333
225.96	-400.000
226.34	350.000
226.71	100.000
227.08	-283.333
227.46	-25.000
227.83	-200.000
228.21	-188.889
228.58	63.636
228.95	12.500
229.33	70.000
229.70	12.500
230.08	-12.500
230.45	-85.714
230.82	0.000
231.20	-73.333
231.57	14.286
231.95	57.143
232.32	-70.000
232.69	57.143
233.07	-133.333
233.44	-180.000
233.81	-50.000
234.19	-44.444
234.56	29.412
234.93	600.000
235.31	-125.000
235.68	-160.000
236.05	-61.538
236.43	-55.000
236.80	47.059
237.17	12.500
237.55	-60.000
237.92	-22.222
238.29	-11.111
238.67	30.000
239.04	41.176
239.41	-34.146
239.79	-13.333
240.16	7.317
240.53	-15.789
240.91	-15.217
241.28	12.698
241.65	10.714
242.02	16.438
242.40	-5.000
242.77	1.695
243.14	-16.667
243.51	2.500
243.89	13.793
244.26	-9.195
244.63	-9.524
245.00	0.000
245.38	6.186
245.75	-14.607
246.12	-10.345
246.49	4.132
246.87	11.538
247.24	-0.840
247.61	-13.158
247.98	-5.691
248.36	3.125
248.73	0.000
249.10	-6.494
249.47	1.899
249.84	-5.229
250.22	1.176
250.59	-2.614
250.96	3.286
251.33	-5.233
251.70	-2.353
252.08	1.523
252.45	-2.475
252.82	-1.005
253.19	-0.461
253.56	-6.075
253.94	-3.153
254.31	4.348
254.68	3.070
255.05	-2.362
255.42	-0.437
255.79	1.544
256.16	1.946
256.54	1.119
256.91	-2.281
257.28	-2.974
257.65	-1.124
258.02	-1.773
258.39	0.673
258.76	0.000
259.14	3.322
259.51	1.294
259.88	-1.375
260.25	-0.327
260.62	-1.389
260.99	-1.695
261.36	0.342
261.73	-2.848
262.10	0.304
262.47	0.307
262.85	-2.194
263.22	0.308
263.59	0.312
263.96	-0.621
264.33	-0.606
264.70	-2.381
265.07	-1.786
265.44	3.116
265.81	0.282
266.18	1.093
266.55	2.314
266.92	1.554
267.29	0.261
267.66	0.512
268.03	0.524
268.40	-2.872
268.77	-0.535
269.14	0.959
269.51	2.057
269.88	-1.746
270.25	-2.296
270.62	-0.732
270.99	-3.581
271.36	-1.711
271.73	1.878
272.10	0.000
272.47	0.473
272.84	-0.743
273.21	-0.232
273.58	-0.964
273.95	-1.144
274.32	-0.462
274.69	-0.905
275.06	0.223
275.43	0.000
275.80	0.662
276.17	-1.379
276.54	1.285
276.91	-0.658
277.28	-1.310
277.65	3.512
278.02	1.064
278.39	-1.532
278.76	-0.210
279.13	-3.942
279.50	-2.101
279.87	0.000
280.23	0.000
280.60	2.144
280.97	-1.212
281.34	-0.192
281.71	1.643
282.08	1.431
282.45	-2.740
282.82	-0.965
283.19	-0.193
283.56	0.385
283.92	-1.708
284.29	-2.308
284.66	-2.326
285.03	-2.554
285.40	0.567
285.77	0.000
286.14	0.722
286.51	2.583
286.87	-0.366
287.24	0.184
287.61	-0.353
287.98	-0.351
288.35	-1.213
288.72	1.401
289.08	-0.694
289.45	-0.351
289.82	2.972
290.19	-0.512
290.56	-1.372
290.93	-1.852
291.29	0.616
291.66	1.102
292.03	-0.319
292.40	-0.645
292.77	-1.435
293.13	-0.162
293.50	-0.759
293.87	0.305
294.24	-0.155
294.60	1.192
294.97	1.042
295.34	-0.460
295.71	-0.745
296.08	0.598
296.44	-1.280
296.81	-0.972
297.18	-0.290
297.55	1.626
297.91	1.096
298.28	1.319
298.65	-0.814
299.02	-0.539
299.38	-2.736
299.75	-1.241
300.12	-1.440
300.48	0.132
300.85	1.521
301.22	-0.649
301.59	-0.526
301.95	1.519
302.32	1.686
302.69	-0.746
303.05	0.124
303.42	0.000
303.79	0.350
304.15	2.151
304.52	-0.119
304.89	0.351
305.25	0.242
305.62	-0.817
305.99	0.351
306.35	-0.347
306.72	0.112
307.09	0.114
307.45	0.000
307.82	0.116
308.19	2.207
308.55	0.109
308.92	1.307
309.29	0.782
309.65	1.399
310.02	1.760
310.38	1.537
310.75	0.874
311.12	1.615
311.48	1.803
311.85	0.838
312.22	1.371
312.58	0.955
312.95	0.854
313.31	1.553
313.68	0.942
314.05	1.633
314.41	2.062
314.78	1.340
315.14	3.083
315.51	1.346
315.87	2.254
316.24	4.348
316.61	4.035
316.97	3.075
317.34	2.441
317.70	4.302
318.07	3.462
318.43	4.608
318.80	3.977
319.16	4.785
319.53	5.318
319.89	4.232
320.26	5.466
320.62	6.118
320.99	4.175
321.35	5.344
321.72	6.854
322.08	7.553
322.45	7.310
322.81	8.350
323.18	7.949
323.54	8.977
323.91	9.153
324.27	10.156
324.64	10.206
325.00	12.226
325.37	12.213
325.73	12.239
326.10	13.806
326.46	14.529
326.83	15.486
327.19	14.996
327.56	15.030
327.92	16.725
328.29	16.875
328.65	17.264
329.01	18.107
329.38	18.986
329.74	18.697
330.11	19.648
330.47	20.130
330.84	20.769
331.20	21.863
331.56	21.111
331.93	21.461
332.29	21.723
332.66	21.991
333.02	22.305
333.38	22.456
333.75	23.443
334.11	22.113
334.48	24.025
334.84	24.176
335.20	23.696
335.57	23.572
335.93	23.939
336.29	25.414
336.66	23.797
337.02	24.628
337.38	24.074
337.75	25.273
338.11	25.609
338.47	25.912
338.84	25.416
339.20	25.960
339.56	25.321
339.93	26.410
340.29	25.138
340.65	27.061
341.02	25.532
341.38	24.248
341.74	24.117
342.11	25.477
342.47	24.644
342.83	25.952
343.20	24.913
343.56	26.783
343.92	25.686
344.28	26.900
344.65	25.648
345.01	26.275
345.37	25.484
345.73	27.029
346.10	27.092
346.46	26.072
346.82	25.532
347.19	26.185
347.55	26.650
347.91	27.508
348.27	25.788
348.63	26.320
349.00	25.677
349.36	26.018
349.72	26.119
350.08	25.902
350.45	27.294
350.81	25.831
351.17	26.384
351.53	27.755
351.89	25.681
352.26	26.240
352.62	27.661
352.98	25.301
353.34	25.523
353.70	27.184
354.07	26.129
354.43	26.982
354.79	26.920
355.15	27.143
355.51	26.978
355.87	27.023
356.24	27.080
356.60	27.324
356.96	27.143
357.32	26.278
357.68	27.131
358.04	26.494
358.40	27.251
358.77	28.150
359.13	27.862
359.49	26.965
359.85	26.443
360.21	27.193
360.57	27.467
360.93	26.778
361.29	27.266
361.66	28.370
362.02	27.879
362.38	28.104
362.74	28.085
363.10	28.518
363.46	28.169
363.82	27.273
364.18	27.601
364.54	27.574
364.90	27.384
365.26	28.748
365.62	29.051
365.98	27.786
366.35	28.623
366.71	28.751
367.07	29.028
367.43	28.756
367.79	27.774
368.15	28.069
368.51	28.988
368.87	28.715
369.23	27.870
369.59	28.936
369.95	28.886
370.31	28.251
370.67	29.030
371.03	28.977
371.39	28.811
371.75	28.864
372.11	29.244
372.47	29.512
372.83	29.099
373.19	28.531
373.55	28.736
373.91	28.798
374.27	30.333
374.63	29.002
374.99	29.504
375.35	30.362
375.71	31.119
376.07	30.548
376.42	30.544
376.78	30.940
377.14	29.384
377.50	30.876
377.86	31.325
378.22	31.015
378.58	31.282
378.94	30.624
379.30	31.129
379.66	31.536
380.02	30.901
380.38	31.467
380.74	31.059
381.09	31.963
381.45	31.070
381.81	31.956
382.17	32.170
382.53	31.230
382.89	32.141
383.25	32.670
383.61	32.439
383.97	32.571
384.32	32.958
384.68	32.879
385.04	31.863
385.40	31.985
385.76	32.830
386.12	33.182
386.48	33.078
386.83	32.403
387.19	32.845
387.55	33.061
387.91	32.702
388.27	32.784
388.62	33.921
388.98	33.026
389.34	32.792
389.70	34.183
390.06	32.662
390.42	33.031
390.77	33.748
391.13	32.787
391.49	33.829
391.85	33.463
392.20	34.024
392.56	33.249
392.92	33.412
393.28	33.432
393.64	33.453
393.99	34.545
394.35	34.282
394.71	34.227
395.07	33.564
395.42	33.151
395.78	33.681
396.14	33.417
396.50	33.925
396.85	33.741
397.21	33.396
397.57	33.480
397.92	33.433
398.28	34.310
398.64	32.590
399.00	33.860
399.35	33.860
399.71	33.889
400.07	34.885
400.42	32.130
400.78	34.231
401.14	34.120
401.49	34.127
401.85	33.516
402.21	33.976
402.57	34.250
402.92	32.497
403.28	34.712
403.63	33.922
403.99	33.227
404.35	34.041
404.70	32.619
405.06	33.020
405.42	33.748
405.77	32.714
406.13	32.945
406.49	32.445
406.84	34.169
407.20	34.919
407.55	32.582
407.91	33.690
408.27	33.779
408.62	34.338
408.98	32.840
409.34	33.519
409.69	32.817
410.05	32.451
410.40	32.840
410.76	32.811
411.11	33.250
411.47	33.005
411.83	32.957
412.18	33.977
412.54	32.959
412.89	33.005
413.25	33.394
413.60	33.913
413.96	33.067
414.31	33.902
414.67	31.815
415.03	31.824
415.38	32.963
415.74	32.704
416.09	34.095
416.45	33.626
416.80	32.783
417.16	33.564
417.51	33.711
417.87	32.138
418.22	32.578
418.58	33.378
418.93	33.417
419.29	32.010
419.64	32.340
420.00	34.698
420.35	33.493
420.71	34.386
421.06	33.395
421.42	33.834
421.77	33.526
422.12	33.258
422.48	33.406
422.83	33.469
423.19	33.691
423.54	34.450
423.90	32.450
424.25	34.214
424.61	35.496
424.96	33.275
425.31	34.604
425.67	33.216
426.02	35.218
426.38	34.502
426.73	35.412
427.09	34.873
427.44	33.882
427.79	35.003
428.15	33.799
428.50	34.464
428.85	32.740
429.21	35.484
429.56	34.717
429.92	34.515
430.27	33.734
430.62	34.501
430.98	34.395
431.33	34.753
431.68	35.374
432.04	34.656
432.39	34.512
432.74	34.756
433.10	35.172
433.45	34.707
433.80	35.287
434.16	34.737
434.51	34.570
434.86	35.598
435.22	35.502
435.57	36.120
435.92	35.150
436.28	35.063
436.63	34.683
436.98	34.531
437.34	36.116
437.69	35.361
438.04	35.726
438.39	35.125
438.75	35.823
439.10	35.031
439.45	35.788
439.81	34.740
440.16	36.342
440.51	36.537
440.86	36.314
441.22	35.520
441.57	35.817
441.92	35.887
442.27	35.809
442.63	37.206
442.98	34.808
443.33	35.726
443.68	35.809
444.03	36.016
444.39	36.744
444.74	36.176
445.09	36.080
445.44	35.214
445.79	36.462
446.15	35.518
446.50	35.552
446.85	37.566
447.20	36.079
447.55	36.217
447.91	36.548
448.26	36.426
448.61	35.866
448.96	36.431
449.31	36.358
449.66	36.411
450.02	36.338
450.37	37.404
450.72	35.567
451.07	37.089
451.42	35.331
451.77	36.106
452.12	35.347
452.47	36.059
452.83	36.396
453.18	36.369
453.53	35.904
453.88	37.644
454.23	36.202
454.58	37.028
454.93	36.018
455.28	35.175
455.63	36.826
455.98	36.260
456.34	36.015
456.69	37.611
457.04	36.736
457.39	36.695
457.74	36.759
458.09	35.197
458.44	34.757
458.79	35.462
459.14	35.870
459.49	36.060
459.84	36.153
460.19	35.922
460.54	36.553
460.89	36.591
461.24	36.273
461.59	35.808
461.94	36.478
462.29	37.214
462.64	36.346
462.99	35.884
463.34	35.605
463.69	36.358
464.04	36.864
464.39	36.628
464.74	34.294
465.09	37.056
465.44	36.122
465.79	36.111
466.14	36.203
466.49	35.423
466.84	35.515
467.19	36.045
467.54	37.548
467.89	35.376
468.24	36.192
468.59	36.762
468.94	37.143
469.29	37.639
469.64	36.637
469.99	37.001
470.34	37.065
470.68	36.913
471.03	36.943
471.38	35.949
471.73	36.625
472.08	36.839
472.43	36.577
472.78	35.161
473.13	36.327
473.48	36.091
473.83	35.679
474.17	36.205
474.52	36.886
474.87	36.424
475.22	35.448
475.57	36.251
475.92	36.533
476.27	36.321
476.61	36.169
476.96	35.416
477.31	35.479
477.66	36.461
478.01	36.328
478.36	36.220
478.70	36.487
479.05	36.264
479.40	36.089
479.75	35.141
480.10	35.586
480.45	35.650
480.79	36.858
481.14	36.475
481.49	35.320
481.84	35.328
482.19	35.968
482.53	36.355
482.88	36.516
483.23	36.420
483.58	36.038
483.92	36.108
484.27	35.688
484.62	35.589
484.97	35.158
485.31	34.285
485.66	33.154
486.01	33.432
486.36	33.150
486.70	33.982
487.05	34.644
487.40	34.514
487.75	35.070
488.09	35.167
488.44	34.869
488.79	35.151
489.13	36.098
489.48	36.511
489.83	36.054
490.17	36.270
490.52	36.166
490.87	35.215
491.22	36.772
491.56	36.195
491.91	35.803
492.26	36.509
492.60	35.893
492.95	36.449
493.30	35.515
493.64	36.248
493.99	36.135
494.34	35.631
494.68	35.571
495.03	34.891
495.37	36.801
495.72	36.497
496.07	36.829
496.41	35.708
496.76	35.560
497.11	35.212
497.45	35.800
497.80	36.327
498.14	35.469
498.49	35.805
498.84	35.978
499.18	36.596
499.53	35.962
499.87	35.019
500.22	35.806
500.56	35.956
500.91	35.141
501.26	35.690
501.60	35.662
501.95	34.934
502.29	35.351
502.64	35.039
502.98	35.816
503.33	34.966
503.67	34.843
504.02	35.875
504.36	35.477
504.71	35.152
505.06	35.481
505.40	35.431
505.75	35.928
506.09	35.631
506.44	35.370
506.78	36.020
507.13	35.832
507.47	35.614
507.82	34.348
508.16	35.658
508.51	35.624
508.85	35.322
509.19	36.083
509.54	34.960
509.88	35.707
510.23	36.202
510.57	36.451
510.92	35.128
511.26	36.116
511.61	35.644
511.95	34.192
512.30	35.144
512.64	35.003
512.98	35.542
513.33	35.311
513.67	35.077
514.02	36.899
514.36	35.886
514.70	37.179
515.05	37.544
515.39	36.068
515.74	36.886
516.08	35.505
516.42	37.044
516.77	35.635
517.11	36.795
517.46	35.847
517.80	36.174
518.14	34.721
518.49	35.817
518.83	36.209
519.17	35.658
519.52	34.991
519.86	35.714
520.20	36.574
520.55	35.522
520.89	35.696
521.23	36.542
521.58	36.719
521.92	36.282
522.26	36.109
522.61	35.714
522.95	37.020
523.29	36.277
523.64	35.324
523.98	36.552
524.32	35.696
524.66	36.300
525.01	35.649
525.35	36.811
525.69	35.488
526.04	35.648
526.38	36.965
526.72	35.252
527.06	36.252
527.41	35.686
527.75	35.724
528.09	35.615
528.43	36.935
528.78	35.314
529.12	35.613
529.46	35.283
529.80	35.972
530.15	36.502
530.49	35.556
530.83	35.705
531.17	35.729
531.51	36.252
531.86	35.146
532.20	34.864
532.54	35.534
532.88	36.482
533.22	35.215
533.57	35.125
533.91	35.379
534.25	35.286
534.59	34.638
534.93	34.676
535.27	34.772
535.62	35.386
535.96	35.356
536.30	35.290
536.64	35.424
536.98	34.774
537.32	35.775
537.66	36.325
538.01	35.385
538.35	34.813
538.69	34.354
539.03	34.381
539.37	34.993
539.71	34.492
540.05	34.963
540.39	34.903
540.73	34.589
541.07	34.392
541.42	34.677
541.76	35.169
542.10	35.031
542.44	36.414
542.78	33.723
543.12	34.135
543.46	35.883
543.80	35.045
544.14	33.912
544.48	34.044
544.82	35.202
545.16	34.153
545.50	34.913
545.84	35.836
546.18	34.539
546.52	35.256
546.86	34.076
547.20	35.336
547.54	33.781
547.88	34.715
548.22	33.005
548.56	34.235
548.90	33.423
549.24	34.435
549.58	34.415
549.92	35.525
550.26	34.359
550.60	35.242
550.94	34.951
551.28	34.080
551.62	35.769
551.96	34.737
552.30	33.845
552.64	33.921
552.98	33.615
553.32	34.094
553.66	33.091
554.00	34.672
554.34	34.490
554.68	34.513
555.02	34.747
555.36	34.106
555.69	33.553
556.03	33.619
556.37	34.520
556.71	35.018
557.05	34.750
557.39	33.383
557.73	34.558
558.07	34.917
558.41	34.839
558.75	35.152
559.08	34.121
559.42	34.762
559.76	34.107
560.10	33.869
560.44	33.879
560.78	34.056
561.12	33.568
561.45	34.926
561.79	32.983
562.13	33.996
562.47	35.324
562.81	33.934
563.15	34.626
563.48	34.724
563.82	34.386
564.16	35.097
564.50	33.514
564.84	33.066
565.17	33.400
565.51	34.426
565.85	33.196
566.19	34.019
566.52	34.383
566.86	33.997
567.20	33.686
567.54	32.725
567.88	32.748
568.21	32.975
568.55	33.370
568.89	32.495
569.23	31.921
569.56	32.005
569.90	31.872
570.24	31.299
570.57	31.564
570.91	30.568
571.25	30.483
571.59	29.804
571.92	29.393
572.26	30.193
572.60	29.488
572.93	30.562
573.27	29.749
573.61	29.803
573.95	30.393
574.28	29.820
574.62	29.087
574.96	29.444
575.29	29.101
575.63	28.842
575.97	29.059
576.30	29.491
576.64	28.689
576.98	29.215
577.31	29.491
577.65	28.739
577.98	28.550
578.32	28.509
578.66	28.304
578.99	28.989
579.33	28.604
579.67	29.119
580.00	29.342
580.34	29.303
580.67	28.783
581.01	28.866
581.35	28.747
581.68	28.144
582.02	28.464
582.35	28.338
582.69	28.711
583.02	28.199
583.36	28.909
583.70	29.699
584.03	29.691
584.37	30.068
584.70	29.093
585.04	28.912
585.37	28.624
585.71	28.339
586.04	28.366
586.38	28.648
586.72	29.010
587.05	29.434
587.39	29.326
587.72	29.606
588.06	29.366
588.39	29.109
588.73	29.457
589.06	30.952
589.40	29.278
589.73	30.340
590.07	30.476
590.40	30.186
590.73	31.054
591.07	30.619
591.40	29.653
591.74	30.407
592.07	30.798
592.41	30.698
592.74	30.187
593.08	28.641
593.41	29.193
593.75	29.081
594.08	28.218
594.41	29.694
594.75	29.313
595.08	29.512
595.42	29.223
595.75	29.666
596.09	29.711
596.42	29.640
596.75	30.817
597.09	29.886
597.42	30.668
597.75	30.279
598.09	29.244
598.42	30.460
598.76	29.043
599.09	29.127
599.42	28.420
599.76	29.270
600.09	28.695
600.42	29.151
600.76	28.158
601.09	28.511
601.42	28.711
601.76	29.337
602.09	29.290
602.42	30.118
602.76	30.178
603.09	29.277
603.42	29.222
603.76	28.992
604.09	29.324
604.42	29.526
604.76	30.752
605.09	29.982
605.42	30.158
605.75	29.028
606.09	28.705
606.42	27.982
606.75	29.827
607.09	30.066
607.42	29.198
607.75	29.352
608.08	28.437
608.42	28.917
608.75	29.060
609.08	28.999
609.41	29.391
609.75	29.788
610.08	29.805
610.41	28.841
610.74	29.937
611.07	30.284
611.41	30.254
611.74	29.638
612.07	28.694
612.40	29.212
612.73	29.661
613.07	28.740
613.40	30.635
613.73	30.050
614.06	29.716
614.39	29.893
614.72	30.308
615.06	29.497
615.39	29.476
615.72	28.956
616.05	28.994
616.38	29.117
616.71	30.826
617.05	29.154
617.38	28.787
617.71	30.126
618.04	31.302
618.37	30.958
618.70	31.815
619.03	31.250
619.36	29.667
619.69	31.463
620.03	31.994
620.36	30.114
620.69	30.193
621.02	30.734
621.35	31.784
621.68	31.718
622.01	32.083
622.34	31.365
622.67	31.546
623.00	30.704
623.33	30.107
623.66	29.469
623.99	30.408
624.32	31.103
624.65	30.376
624.99	31.603
625.32	29.947
625.65	32.522
625.98	31.587
626.31	30.840
626.64	31.542
626.97	31.850
627.30	32.137
627.63	30.589
627.96	31.896
628.29	31.452
628.62	31.760
628.95	33.066
629.28	31.754
629.61	32.702
629.94	31.867
630.26	31.522
630.59	32.050
630.92	33.641
631.25	30.974
631.58	33.700
631.91	32.018
632.24	32.798
632.57	32.614
632.90	31.910
633.23	33.529
633.56	34.257
633.89	33.292
634.22	33.580
634.55	33.926
634.88	33.078
635.20	32.821
635.53	33.067
635.86	32.510
636.19	32.988
636.52	33.418
636.85	33.127
637.18	29.686
637.51	33.333
637.83	33.114
638.16	35.471
638.49	32.425
638.82	35.000
639.15	32.972
639.48	33.150
639.81	34.868
640.13	33.622
640.46	32.799
640.79	33.137
641.12	32.939
641.45	32.432
641.77	33.778
642.10	35.861
642.43	34.084
642.76	34.158
643.09	34.087
643.41	33.657
643.74	30.972
644.07	34.647
644.40	35.642
644.73	35.201
645.05	32.718
645.38	36.508
645.71	35.106
646.04	37.163
646.36	33.511
646.69	36.151
647.02	34.783
647.35	35.261
647.67	35.832
648.00	36.381
648.33	35.324
648.66	32.542
648.98	31.826
649.31	32.727
649.64	32.653
649.96	31.929
650.29	35.094
650.62	34.872
650.94	36.852
651.27	31.657
651.60	33.333
651.92	31.643
652.25	33.925
652.58	33.000
652.90	34.305
653.23	34.454
653.56	31.810
653.88	33.849
654.21	32.399
654.54	32.767
654.86	33.786
655.19	31.433
655.52	28.793
655.84	23.926
656.17	26.297
656.49	35.556
656.82	37.947
657.15	29.556
657.47	22.136
657.80	16.547
658.13	16.561
658.45	25.821
658.78	26.591
659.10	26.796
659.43	27.559
659.75	28.860
660.08	28.621
660.41	31.971
660.73	30.249
661.06	32.409
661.38	34.247
661.71	31.417
662.03	36.481
662.36	34.945
662.68	31.858
663.01	35.808
663.33	32.947
663.66	31.163
663.98	35.116
664.31	33.475
664.63	33.871
664.96	31.087
665.28	34.216
665.61	31.818
665.93	33.913
666.26	35.141
666.58	32.662
666.91	33.176
667.23	36.085
667.56	39.573
667.88	32.854
668.21	33.413
668.53	34.988
668.86	33.255
669.18	34.670
669.50	37.530
669.83	32.326
670.15	36.131
670.48	32.536
670.80	34.793
671.13	31.096
671.45	31.735
671.77	34.335
672.10	30.693
672.42	30.899
672.75	30.373
673.07	32.558
673.39	30.092
673.72	30.375
674.04	29.792
674.37	30.932
674.69	30.193
675.01	32.889
675.34	33.559
675.66	33.102
675.98	34.812
676.31	33.716
676.63	31.354
676.95	29.773
677.28	32.471
677.60	36.386
677.92	28.670
678.25	33.260
678.57	31.602
678.89	33.613
679.22	29.530
679.54	30.723
679.86	29.821
680.18	28.932
680.51	30.114
680.83	27.833
681.15	31.600
681.48	34.221
681.80	31.405
682.12	32.258
682.44	32.427
682.77	31.788
683.09	30.206
683.41	30.909
683.73	31.797
684.06	32.301
684.38	29.892
684.70	34.641
685.02	30.290
685.34	27.075
685.67	29.081
685.99	29.295
686.31	31.150
686.63	31.911
686.96	27.757
687.28	25.657
687.60	27.376
687.92	31.919
688.24	31.855
688.56	29.913
688.89	31.250
689.21	32.000
689.53	31.090
689.85	30.465
690.17	31.473
690.49	29.078
690.82	29.612
691.14	29.524
691.46	31.776
691.78	32.432
692.10	32.473
692.42	30.736
692.74	35.043
693.06	28.829
693.39	26.697
693.71	27.828
694.03	29.792
694.35	30.607
694.67	31.313
694.99	30.026
695.31	32.898
695.63	28.750
695.95	27.778
696.27	30.829
696.59	33.611
696.91	29.132
697.23	28.278
697.56	31.436
697.88	29.462
698.20	29.613
698.52	30.588
698.84	27.033
699.16	28.500
699.48	28.822
699.80	29.529
700.12	30.728
700.44	31.933
700.76	29.360
701.08	27.576
701.40	30.723
701.72	34.568
702.04	29.043
702.36	34.448
702.68	34.234
703.00	29.697
703.32	29.032
703.64	28.814
703.96	29.565
704.28	30.675
704.60	36.190
704.91	28.707
705.23	32.558
705.55	32.509
705.87	32.130
706.19	35.185
706.51	32.302
706.83	35.048
707.15	26.791
707.47	27.731
707.79	26.823
708.11	28.750
708.43	27.500
708.74	25.065
709.06	29.296
709.38	32.110
709.70	30.178
710.02	28.981
710.34	29.721
710.66	29.167
710.98	27.815
711.29	30.164
711.61	32.203
711.93	29.642
712.25	33.333
712.57	30.403
712.89	25.373
713.20	29.066
713.52	31.010
713.84	32.082
714.16	27.835
714.48	28.387
714.80	28.846
715.11	26.140
715.43	27.273
715.75	29.667
716.07	28.571
716.39	28.859
716.70	29.151
717.02	27.481
717.34	29.555
717.66	27.434
717.97	26.957
718.29	33.054
718.61	27.165
718.93	28.682
719.24	26.616
719.56	29.317
719.88	26.804
720.20	29.167
720.51	26.820
720.83	30.502
721.15	33.193
721.46	28.629
721.78	25.296
722.10	30.483
722.42	24.481
722.73	24.898
723.05	31.020
723.37	30.932
723.68	33.333
724.00	25.641
724.32	28.000
724.63	28.636
724.95	30.568
725.27	27.189
725.58	28.814
725.90	25.794
726.22	27.413
726.53	29.831
726.85	33.708
727.16	35.849
727.48	20.243
727.80	29.150
728.11	32.203
728.43	28.627
728.74	25.000
729.06	27.200
729.38	28.195
729.69	27.092
730.01	29.231
730.32	27.612
730.64	27.562
730.96	27.925
731.27	23.667
731.59	26.102
731.90	24.204
732.22	28.707
732.53	31.229
732.85	29.078
733.16	29.966
733.48	27.698
733.80	30.797
734.11	26.780
734.43	25.086
734.74	25.455
735.06	24.104
735.37	28.097
735.69	25.926
736.00	19.512
736.32	27.517
736.63	27.113
736.95	26.280
737.26	23.843
737.58	22.819
737.89	22.711
738.21	27.068
738.52	31.276
738.83	23.581
739.15	21.834
739.46	24.803
739.78	24.542
740.09	29.085
740.41	23.551
740.72	27.165
741.04	26.316
741.35	26.383
741.66	29.384
741.98	26.020
742.29	31.188
742.61	27.749
742.92	17.536
743.23	23.148
743.55	27.149
743.86	25.837
744.18	25.837
744.49	19.149
744.80	21.739
745.12	33.690
745.43	23.415
745.74	26.562
746.06	28.780
746.37	30.890
746.68	28.910
747.00	27.128
747.31	27.861
747.62	25.243
747.94	27.751
748.25	23.267
748.56	27.322
748.88	28.796
749.19	30.851
749.50	23.153
749.82	23.113
750.13	22.936
750.44	23.684
750.75	23.507
751.07	27.372
751.38	28.736
751.69	20.392
752.01	25.581
752.32	24.303
752.63	25.296
752.94	26.293
753.26	29.707
753.57	24.887
753.88	23.451
754.19	21.667
754.51	20.661
754.82	21.053
755.13	29.583
755.44	28.629
755.75	26.953
756.07	23.735
756.38	25.283
756.69	16.858
757.00	22.333
757.31	24.183
757.63	17.683
757.94	22.500
758.25	20.000
758.56	20.745
758.87	19.263
759.18	19.315
759.50	24.000
759.81	24.749
760.12	24.516
760.43	19.091
760.74	23.148
761.05	22.769
761.36	22.443
761.67	21.212
761.99	27.211
762.30	19.273
762.61	22.925
762.92	22.624
763.23	26.126
763.54	21.495
763.85	25.424
764.16	20.747
764.47	23.790
764.78	20.879
765.10	25.926
765.41	21.767
765.72	25.714
766.03	19.925
766.34	26.277
766.65	28.287
766.96	22.727
767.27	27.128
767.58	21.264
767.89	19.858
768.20	25.568
768.51	21.978
768.82	18.719
769.13	18.433
769.44	17.597
769.75	23.288
770.06	23.276
770.37	25.000
770.68	20.305
770.99	19.005
771.30	27.451
771.61	21.719
771.92	25.431
772.23	23.153
772.54	24.194
772.85	27.778
773.16	21.910
773.47	30.719
773.78	22.222
774.09	23.952
774.39	20.667
774.70	26.115
775.01	26.207
775.32	23.571
775.63	25.620
775.94	22.901
776.25	21.260
776.56	20.833
776.87	24.038
777.18	24.786
777.48	25.000
777.79	18.261
778.10	16.190
778.41	20.721
778.72	25.397
779.03	24.812
779.34	24.823
779.65	25.342
779.95	15.068
780.26	26.897
780.57	19.512
780.88	22.047
781.19	23.276
781.50	24.031
781.80	26.036
782.11	14.465
782.42	22.308
782.73	12.950
783.04	22.222
783.34	17.361
783.65	17.949
783.96	12.295
784.27	27.586
784.57	17.886
784.88	22.656
785.19	30.000
785.50	26.000
785.81	26.724
786.11	18.103
786.42	20.388
786.73	30.000
787.04	16.327
787.34	22.321
787.65	21.905
787.96	13.274
788.26	25.455
788.57	24.786
788.88	27.344
789.19	24.603
789.49	12.174
789.80	16.327
790.11	18.182
790.41	23.636
790.72	32.609
791.03	26.136
791.33	28.750
791.64	26.250
791.95	19.767
792.25	23.404
792.56	37.079
792.87	15.068
793.17	24.638
793.48	8.000
793.79	22.500
794.09	25.000
794.40	8.491
794.70	16.505
795.01	14.634
795.32	17.949
795.62	3.810
795.93	26.471
796.23	21.698
796.54	20.833
796.85	20.588
797.15	22.535
797.46	8.333
797.76	40.909
798.07	12.791
798.37	13.158
798.68	19.697
798.99	24.691
799.29	40.000
799.60	5.797
799.90	20.000
800.21	21.311
800.51	9.231
800.82	11.864
801.12	20.290
801.43	24.590
801.73	22.222
802.04	12.000
802.34	10.448
802.65	46.154
802.95	7.143
803.26	7.692
803.56	33.333
803.87	6.522
804.17	10.667
804.48	30.159
804.78	0.000
805.09	17.391
805.39	-6.667
805.70	22.222
806.00	-15.789
806.30	25.352
806.61	21.429
806.91	-1.389
807.22	32.895
807.52	34.667
807.83	10.909
808.13	16.667
808.43	30.882
808.74	13.433
809.04	15.254
809.35	17.308
809.65	29.688
809.95	8.108
810.26	4.545
810.56	15.068
810.86	42.857
811.17	-2.000
811.47	34.694
811.77	-7.895
812.08	20.455
812.38	50.943
812.69	30.000
812.99	6.061
813.29	47.368
813.59	-20.000
813.90	18.182
814.20	-2.564
814.50	11.538
814.81	16.981
815.11	10.638
815.41	20.339
815.72	2.381
816.02	31.373
816.32	0.000
816.62	21.951
816.93	-29.730
817.23	0.000
817.53	29.167
817.84	-8.696
818.14	17.308
818.44	5.263
818.74	32.609
819.04	-25.000
819.35	32.432
819.65	8.824
819.95	19.444
820.25	4.762
820.56	5.000
820.86	-13.793
821.16	20.000
821.46	14.894
821.76	12.500
822.07	32.558
822.37	-27.027
822.67	-18.750
822.97	30.952
823.27	3.571
823.57	12.000
823.88	-22.222
824.18	21.429
824.48	5.882
824.78	29.032
825.08	4.348
825.38	24.242
825.69	-20.833
825.99	28.947
826.29	-8.333
826.59	40.000
826.89	-61.905
827.19	23.913
827.49	-5.000
827.79	28.571
828.09	21.429
828.39	6.061
828.70	48.649
829.00	0.000
829.30	-28.571
829.60	13.333
829.90	6.250
830.20	10.526
830.50	7.407
830.80	-21.739
831.10	27.273
831.40	51.515
831.70	12.903
832.00	33.333
832.30	-38.095
832.60	-33.333
832.90	27.586
833.20	-25.000
833.50	-6.061
833.80	7.407
834.10	11.538
834.40	-3.125
834.70	-77.778
835.00	-5.263
835.30	34.615
835.60	6.667
835.90	29.032
836.20	18.182
836.50	17.857
836.80	-19.231
837.10	21.429
837.40	33.333
837.70	36.364
838.00	-72.727
838.30	17.391
838.60	15.385
838.90	22.727
839.19	21.429
839.49	50.000
839.79	15.385
840.09	-33.333
840.39	3.571
840.69	3.571
840.99	-26.923
841.29	-42.105
841.59	-260.000
841.88	18.182
842.18	70.000
842.48	12.500
842.78	6.667
843.08	0.000
843.38	-110.000
843.68	-21.739
843.97	40.000
844.27	-66.667
844.57	-30.000
844.87	16.667
845.17	4.762
845.47	13.333
845.76	28.571
846.06	47.059
846.36	120.000
846.66	-28.571
846.96	0.000
847.25	-112.500
847.55	21.429
847.85	87.500
848.15	4.545
848.44	-300.000
848.74	25.000
849.04	29.630
849.34	-36.364
849.63	-33.333
849.93	-180.000
850.23	5.556
850.53	60.000
850.82	61.538
851.12	0.000
851.42	0.000
851.71	7.692
852.01	64.286
852.31	-275.000
852.61	45.455
852.90	20.000
853.20	21.053
853.50	-8.333
853.79	34.783
854.09	66.667
854.39	21.053
854.68	8.333
854.98	32.258
855.28	26.923
855.57	10.000
855.87	55.556
856.17	33.333
856.46	57.143
856.76	-26.667
857.05	-33.333
857.35	32.000
857.65	27.778
857.94	-69.231
858.24	55.172
858.53	44.444
858.83	0.000
859.13	-4.545
859.42	0.000
859.72	300.000
860.01	-200.000
860.31	32.000
860.60	-4.762
860.90	-200.000
861.20	-20.000
861.49	-600.000
861.79	-13.333
862.08	30.000
862.38	93.333
862.67	-120.000
862.97	0.000
863.26	0.000
863.56	61.111
863.85	-66.667
864.15	33.333
864.44	-70.000
864.74	50.000
865.03	75.000
865.33	-100.000
865.62	133.333
865.92	-50.000
866.21	-316.667
866.51	143.750
866.80	-18.182
867.10	-200.000
867.39	91.667
867.69	0.000
867.98	15.385
868.27	-266.667
868.57	-20.000
868.86	5.556
869.16	-138.462
869.45	53.333
869.75	-1400.000
870.04	0.000
870.33	-214.286
870.63	42.857
870.92	400.000
871.22	-140.000
871.51	-300.000
871.80	88.889
872.10	233.333
>>>>>End Processed Spectral Data<<<<<
