SpectraSuite Data File
++++++++++++++++++++++++++++++++++++
Date: Fri May 15 17:08:49 PDT 2015
User: schluterlab
Dark Spectrum Present: Yes
Reference Spectrum Present: Yes
Number of Sampled Component Spectra: 1
Spectrometers: USB2E3373
Integration Time (usec): 3000 (USB2E3373)
Spectra Averaged: 3 (USB2E3373)
Boxcar Smoothing: 0 (USB2E3373)
Correct for Electrical Dark: No (USB2E3373)
Strobe/Lamp Enabled: No (USB2E3373)
Correct for Detector Non-linearity: No (USB2E3373)
Correct for Stray Light: No (USB2E3373)
Number of Pixels in Processed Spectrum: 2048
>>>>>Begin Processed Spectral Data<<<<<
178.53	0.000
178.91	0.000
179.29	75.000
179.67	0.000
180.04	-85.714
180.42	225.000
180.80	700.000
181.18	33.333
181.56	-350.000
181.94	250.000
182.31	-1200.000
182.69	120.000
183.07	-33.333
183.45	60.000
183.83	-100.000
184.20	9.091
184.58	-55.556
184.96	-425.000
185.34	-466.667
185.72	250.000
186.09	53.846
186.47	-700.000
186.85	66.667
187.23	33.333
187.61	-500.000
187.98	-166.667
188.36	222.222
188.74	-33.333
189.12	70.588
189.49	66.667
189.87	0.000
190.25	164.286
190.63	550.000
191.00	200.000
191.38	52.632
191.76	50.000
192.14	50.000
192.51	200.000
192.89	11.111
193.27	114.286
193.65	133.333
194.02	181.818
194.40	110.000
194.78	50.000
195.15	16.667
195.53	-87.500
195.91	200.000
196.29	275.000
196.66	92.308
197.04	42.857
197.42	11.111
197.79	-200.000
198.17	-7.692
198.55	400.000
198.92	-200.000
199.30	400.000
199.68	280.000
200.05	233.333
200.43	0.000
200.81	200.000
201.18	333.333
201.56	900.000
201.94	0.000
202.31	-366.667
202.69	80.000
203.07	-250.000
203.44	600.000
203.82	0.000
204.19	64.286
204.57	0.000
204.95	50.000
205.32	80.000
205.70	57.143
206.08	-50.000
206.45	344.444
206.83	92.857
207.20	-57.143
207.58	-800.000
207.96	133.333
208.33	-30.000
208.71	125.000
209.08	-16.667
209.46	500.000
209.84	100.000
210.21	400.000
210.59	-14.286
210.96	83.333
211.34	-50.000
211.71	73.333
212.09	-57.143
212.46	-100.000
212.84	0.000
213.22	100.000
213.59	-100.000
213.97	84.615
214.34	109.091
214.72	133.333
215.09	250.000
215.47	61.538
215.84	136.364
216.22	66.667
216.59	25.000
216.97	650.000
217.34	125.000
217.72	0.000
218.09	-62.500
218.47	12.500
218.84	1000.000
219.22	22.222
219.59	40.000
219.97	133.333
220.34	125.000
220.72	100.000
221.09	-50.000
221.47	200.000
221.84	0.000
222.22	300.000
222.59	72.727
222.97	25.000
223.34	166.667
223.72	-42.857
224.09	47.619
224.46	53.571
224.84	-66.667
225.21	30.000
225.59	60.000
225.96	0.000
226.34	-50.000
226.71	-42.857
227.08	100.000
227.46	137.500
227.83	-200.000
228.21	111.111
228.58	90.909
228.95	137.500
229.33	70.000
229.70	31.250
230.08	0.000
230.45	-71.429
230.82	171.429
231.20	33.333
231.57	100.000
231.95	85.714
232.32	-10.000
232.69	100.000
233.07	266.667
233.44	140.000
233.81	60.000
234.19	122.222
234.56	29.412
234.93	-150.000
235.31	275.000
235.68	60.000
236.05	-15.385
236.43	15.000
236.80	58.824
237.17	40.625
237.55	30.000
237.92	22.222
238.29	25.000
238.67	53.333
239.04	52.941
239.41	-7.317
239.79	33.333
240.16	48.780
240.53	55.263
240.91	34.783
241.28	38.095
241.65	35.714
242.02	28.767
242.40	35.000
242.77	35.593
243.14	30.303
243.51	46.250
243.89	40.230
244.26	14.943
244.63	35.714
245.00	34.021
245.38	27.835
245.75	16.854
246.12	20.690
246.49	31.405
246.87	29.808
247.24	20.168
247.61	21.053
247.98	25.203
248.36	23.750
248.73	31.579
249.10	24.675
249.47	29.747
249.84	28.758
250.22	23.529
250.59	29.412
250.96	28.638
251.33	22.674
251.70	30.588
252.08	23.350
252.45	32.178
252.82	22.613
253.19	28.111
253.56	24.299
253.94	27.477
254.31	29.565
254.68	36.842
255.05	20.866
255.42	26.638
255.79	32.432
256.16	30.350
256.54	29.104
256.91	23.194
257.28	25.279
257.65	25.843
258.02	21.631
258.39	27.273
258.76	28.205
259.14	26.910
259.51	26.214
259.88	26.460
260.25	24.510
260.62	24.653
260.99	24.746
261.36	27.055
261.73	24.684
262.10	27.964
262.47	27.301
262.85	25.705
263.22	23.385
263.59	26.480
263.96	23.292
264.33	26.061
264.70	26.190
265.07	28.274
265.44	25.779
265.81	28.249
266.18	24.044
266.55	24.422
266.92	26.943
267.29	26.371
267.66	25.575
268.03	23.822
268.40	26.371
268.77	30.481
269.14	24.700
269.51	24.165
269.88	27.681
270.25	23.214
270.62	22.683
270.99	24.552
271.36	22.494
271.73	24.648
272.10	24.818
272.47	25.296
272.84	24.257
273.21	25.986
273.58	26.265
273.95	20.824
274.32	24.249
274.69	23.077
275.06	26.786
275.43	24.490
275.80	24.724
276.17	25.057
276.54	25.268
276.91	24.342
277.28	22.489
277.65	22.727
278.02	23.404
278.39	22.319
278.76	22.851
279.13	20.124
279.50	25.000
279.87	25.918
280.23	22.796
280.60	24.756
280.97	27.879
281.34	25.192
281.71	24.230
282.08	23.313
282.45	21.918
282.82	21.236
283.19	23.985
283.56	22.736
283.92	22.581
284.29	23.846
284.66	24.031
285.03	21.415
285.40	20.794
285.77	20.738
286.14	23.105
286.51	25.092
286.87	20.841
287.24	23.941
287.61	21.517
287.98	23.333
288.35	21.144
288.72	23.117
289.08	22.396
289.45	22.144
289.82	19.580
290.19	20.307
290.56	21.441
290.93	21.044
291.29	19.569
291.66	22.047
292.03	19.298
292.40	19.516
292.77	19.936
293.13	17.045
293.50	16.692
293.87	19.542
294.24	19.474
294.60	19.672
294.97	17.708
295.34	17.178
295.71	18.033
296.08	19.731
296.44	17.354
296.81	17.639
297.18	20.000
297.55	18.970
297.91	16.438
298.28	19.129
298.65	19.539
299.02	16.173
299.38	15.595
299.75	19.034
300.12	17.932
300.48	17.128
300.85	17.490
301.22	16.494
301.59	18.289
301.95	16.962
302.32	18.418
302.69	17.786
303.05	16.832
303.42	15.567
303.79	17.874
304.15	15.651
304.52	15.339
304.89	13.918
305.25	16.828
305.62	14.469
305.99	13.918
306.35	16.185
306.72	14.961
307.09	14.709
307.45	15.959
307.82	14.468
308.19	17.189
308.55	13.959
308.92	15.468
309.29	15.084
309.65	14.962
310.02	15.622
310.38	15.477
310.75	15.847
311.12	14.209
311.48	14.422
311.85	15.079
312.22	14.346
312.58	15.499
312.95	15.048
313.31	14.389
313.68	14.555
314.05	16.122
314.41	15.464
314.78	15.052
315.14	16.238
315.51	15.942
315.87	14.754
316.24	17.290
316.61	16.831
316.97	17.460
317.34	16.406
317.70	17.208
318.07	17.115
318.43	17.549
318.80	17.140
319.16	17.188
319.53	17.854
319.89	17.717
320.26	18.421
320.62	18.556
320.99	18.789
321.35	19.322
321.72	20.249
322.08	20.645
322.45	20.406
322.81	19.352
323.18	19.823
323.54	21.332
323.91	21.519
324.27	20.703
324.64	23.127
325.00	23.266
325.37	25.528
325.73	22.756
326.10	25.431
326.46	26.188
326.83	25.809
327.19	26.678
327.56	27.715
327.92	27.993
328.29	27.946
328.65	28.113
329.01	28.952
329.38	30.323
329.74	29.651
330.11	31.325
330.47	28.664
330.84	30.577
331.20	32.890
331.56	30.648
331.93	31.781
332.29	33.089
332.66	31.855
333.02	32.993
333.38	33.181
333.75	33.150
334.11	31.871
334.48	34.361
334.84	33.425
335.20	35.041
335.57	34.451
335.93	34.417
336.29	34.622
336.66	35.695
337.02	34.851
337.38	33.981
337.75	35.818
338.11	36.519
338.47	34.033
338.84	35.860
339.20	35.466
339.56	37.156
339.93	36.347
340.29	36.606
340.65	36.380
341.02	36.259
341.38	35.575
341.74	36.396
342.11	35.269
342.47	36.922
342.83	36.851
343.20	35.976
343.56	37.652
343.92	37.290
344.28	36.721
344.65	35.838
345.01	36.733
345.37	36.754
345.73	36.485
346.10	37.877
346.46	36.585
346.82	36.334
347.19	34.165
347.55	37.009
347.91	37.298
348.27	35.812
348.63	36.968
349.00	37.080
349.36	36.326
349.72	38.308
350.08	37.869
350.45	36.552
350.81	36.794
351.17	37.704
351.53	38.694
351.89	37.407
352.26	36.560
352.62	38.790
352.98	39.116
353.34	36.957
353.70	38.835
354.07	37.661
354.43	38.431
354.79	38.893
355.15	38.730
355.51	38.370
355.87	38.430
356.24	39.396
356.60	39.450
356.96	39.286
357.32	39.617
357.68	38.624
358.04	38.207
358.40	39.309
358.77	40.112
359.13	39.392
359.49	38.136
359.85	39.392
360.21	39.075
360.57	38.638
360.93	40.469
361.29	37.538
361.66	40.674
362.02	40.909
362.38	40.213
362.74	40.651
363.10	40.707
363.46	41.883
363.82	41.623
364.18	39.852
364.54	39.485
364.90	40.143
365.26	40.975
365.62	42.774
365.98	41.496
366.35	43.481
366.71	41.611
367.07	42.380
367.43	41.769
367.79	41.555
368.15	42.067
368.51	43.044
368.87	42.283
369.23	41.877
369.59	43.003
369.95	42.522
370.31	43.136
370.67	43.582
371.03	42.121
371.39	42.888
371.75	43.443
372.11	42.796
372.47	44.601
372.83	43.577
373.19	43.581
373.55	42.816
373.91	44.348
374.27	45.500
374.63	44.724
374.99	44.610
375.35	45.682
375.71	45.734
376.07	45.506
376.42	45.646
376.78	45.906
377.14	45.091
377.50	46.547
377.86	47.055
378.22	47.033
378.58	47.628
378.94	47.133
379.30	47.162
379.66	47.586
380.02	46.781
380.38	47.352
380.74	47.516
381.09	48.221
381.45	47.890
381.81	48.550
382.17	48.033
382.53	48.282
382.89	49.278
383.25	49.596
383.61	49.085
383.97	49.460
384.32	48.593
384.68	48.793
385.04	48.284
385.40	49.347
385.76	50.566
386.12	51.164
386.48	51.916
386.83	50.793
387.19	50.366
387.55	52.133
387.91	51.100
388.27	50.549
388.62	51.668
388.98	51.565
389.34	51.093
389.70	52.455
390.06	50.220
390.42	52.267
390.77	52.518
391.13	51.639
391.49	53.687
391.85	53.996
392.20	52.793
392.56	53.592
392.92	52.437
393.28	53.420
393.64	53.033
393.99	53.417
394.35	53.321
394.71	53.704
395.07	52.860
395.42	51.973
395.78	53.225
396.14	53.026
396.50	53.773
396.85	54.024
397.21	53.258
397.57	54.044
397.92	54.224
398.28	54.713
398.64	52.771
399.00	53.442
399.35	52.596
399.71	53.475
400.07	55.018
400.42	53.427
400.78	54.562
401.14	54.930
401.49	54.199
401.85	55.576
402.21	55.120
402.57	54.375
402.92	54.454
403.28	54.825
403.63	55.422
403.99	54.592
404.35	55.091
404.70	53.929
405.06	54.172
405.42	54.692
405.77	54.968
406.13	54.715
406.49	55.595
406.84	55.379
407.20	56.532
407.55	54.346
407.91	55.214
408.27	55.895
408.62	55.446
408.98	54.097
409.34	57.125
409.69	53.553
410.05	54.249
410.40	56.358
410.76	55.730
411.11	55.250
411.47	56.410
411.83	54.865
412.18	57.658
412.54	55.119
412.89	55.419
413.25	55.535
413.60	55.528
413.96	54.908
414.31	55.671
414.67	55.805
415.03	55.659
415.38	56.789
415.74	56.612
416.09	56.956
416.45	56.989
416.80	55.585
417.16	57.390
417.51	56.296
417.87	56.323
418.22	58.161
418.58	57.124
418.93	57.304
419.29	56.210
419.64	57.615
420.00	58.186
420.35	56.896
420.71	58.323
421.06	57.213
421.42	59.195
421.77	57.746
422.12	57.719
422.48	58.148
422.83	58.643
423.19	57.901
423.54	58.495
423.90	58.657
424.25	59.357
424.61	59.608
424.96	57.724
425.31	60.254
425.67	59.331
426.02	60.188
426.38	60.301
426.73	61.985
427.09	61.456
427.44	60.529
427.79	60.990
428.15	61.772
428.50	62.568
428.85	60.934
429.21	60.781
429.56	62.102
429.92	61.531
430.27	60.902
430.62	61.892
430.98	62.155
431.33	61.462
431.68	60.963
432.04	62.828
432.39	61.209
432.74	61.996
433.10	63.448
433.45	63.560
433.80	62.565
434.16	62.105
434.51	62.634
434.86	62.544
435.22	63.264
435.57	63.880
435.92	64.192
436.28	62.612
436.63	64.062
436.98	62.978
437.34	62.976
437.69	64.222
438.04	63.590
438.39	63.592
438.75	64.724
439.10	64.516
439.45	65.490
439.81	63.303
440.16	66.390
440.51	65.134
440.86	66.465
441.22	64.706
441.57	64.073
441.92	65.373
442.27	66.408
442.63	65.792
442.98	65.824
443.33	63.773
443.68	64.934
444.03	66.617
444.39	64.240
444.74	67.001
445.09	65.813
445.44	66.040
445.79	66.581
446.15	65.474
446.50	64.504
446.85	66.312
447.20	65.120
447.55	67.522
447.91	65.877
448.26	66.192
448.61	66.436
448.96	67.011
449.31	65.549
449.66	66.492
450.02	66.458
450.37	67.220
450.72	64.490
451.07	66.646
451.42	65.169
451.77	66.606
452.12	65.132
452.47	66.516
452.83	66.372
453.18	65.212
453.53	66.941
453.88	65.999
454.23	66.810
454.58	67.065
454.93	65.915
455.28	64.889
455.63	66.832
455.98	67.228
456.34	66.922
456.69	66.074
457.04	67.045
457.39	67.801
457.74	67.654
458.09	64.979
458.44	66.823
458.79	65.770
459.14	65.103
459.49	66.866
459.84	65.933
460.19	65.777
460.54	66.504
460.89	66.705
461.24	66.708
461.59	66.211
461.94	65.220
462.29	66.707
462.64	66.113
462.99	66.283
463.34	66.134
463.69	66.409
464.04	66.586
464.39	66.040
464.74	66.442
465.09	66.126
465.44	67.109
465.79	64.229
466.14	65.792
466.49	65.785
466.84	65.556
467.19	64.768
467.54	65.900
467.89	65.635
468.24	65.511
468.59	67.429
468.94	65.968
469.29	66.426
469.64	66.097
469.99	68.605
470.34	66.485
470.68	67.412
471.03	67.587
471.38	66.049
471.73	64.916
472.08	67.164
472.43	66.242
472.78	66.004
473.13	67.891
473.48	65.016
473.83	65.318
474.17	67.746
474.52	65.922
474.87	64.848
475.22	66.016
475.57	66.121
475.92	65.826
476.27	65.192
476.61	67.361
476.96	64.194
477.31	65.873
477.66	64.213
478.01	65.637
478.36	64.325
478.70	65.851
479.05	65.110
479.40	65.395
479.75	63.139
480.10	64.567
480.45	64.550
480.79	65.710
481.14	65.727
481.49	64.631
481.84	64.575
482.19	63.471
482.53	63.645
482.88	63.341
483.23	63.340
483.58	63.208
483.92	64.327
484.27	63.172
484.62	62.842
484.97	63.143
485.31	62.247
485.66	61.311
486.01	60.322
486.36	59.923
486.70	60.144
487.05	60.487
487.40	60.936
487.75	60.958
488.09	61.867
488.44	62.173
488.79	62.495
489.13	62.941
489.48	63.232
489.83	62.825
490.17	63.371
490.52	62.910
490.87	62.008
491.22	64.040
491.56	63.662
491.91	62.954
492.26	64.074
492.60	62.620
492.95	64.978
493.30	63.361
493.64	65.029
493.99	62.947
494.34	62.913
494.68	63.810
495.03	63.893
495.37	63.199
495.72	63.806
496.07	64.146
496.41	63.208
496.76	63.703
497.11	62.366
497.45	63.389
497.80	65.136
498.14	63.785
498.49	63.433
498.84	64.222
499.18	63.353
499.53	63.790
499.87	62.549
500.22	62.710
500.56	63.490
500.91	63.002
501.26	62.926
501.60	63.601
501.95	63.950
502.29	63.245
502.64	63.851
502.98	64.677
503.33	62.680
503.67	63.325
504.02	64.223
504.36	63.286
504.71	63.182
505.06	63.463
505.40	63.503
505.75	63.608
506.09	62.443
506.44	64.990
506.78	63.776
507.13	63.392
507.47	61.305
507.82	64.263
508.16	63.761
508.51	63.484
508.85	63.213
509.19	64.077
509.54	63.378
509.88	64.132
510.23	63.959
510.57	64.404
510.92	64.552
511.26	64.921
511.61	64.906
511.95	63.288
512.30	63.803
512.64	63.495
512.98	64.683
513.33	64.522
513.67	64.639
514.02	66.533
514.36	64.914
514.70	65.443
515.05	66.157
515.39	66.234
515.74	66.587
516.08	66.587
516.42	65.312
516.77	65.067
517.11	66.231
517.46	65.290
517.80	66.329
518.14	65.340
518.49	65.024
518.83	65.067
519.17	63.918
519.52	64.535
519.86	65.006
520.20	67.132
520.55	66.229
520.89	66.499
521.23	66.878
521.58	67.003
521.92	65.769
522.26	67.274
522.61	66.753
522.95	68.609
523.29	65.502
523.64	67.154
523.98	67.401
524.32	66.302
524.66	66.389
525.01	66.623
525.35	65.846
525.69	67.744
526.04	66.005
526.38	67.250
526.72	65.337
527.06	65.045
527.41	66.557
527.75	66.220
528.09	65.249
528.43	67.522
528.78	65.743
529.12	65.871
529.46	66.212
529.80	65.991
530.15	65.809
530.49	66.330
530.83	67.373
531.17	65.279
531.51	67.237
531.86	66.417
532.20	65.414
532.54	65.895
532.88	66.804
533.22	65.390
533.57	65.662
533.91	65.666
534.25	66.732
534.59	65.747
534.93	63.184
535.27	63.515
535.62	64.096
535.96	65.297
536.30	66.755
536.64	66.161
536.98	64.878
537.32	66.999
537.66	67.181
538.01	65.804
538.35	65.465
538.69	63.449
539.03	64.730
539.37	65.814
539.71	66.326
540.05	65.920
540.39	67.313
540.73	66.318
541.07	65.401
541.42	65.726
541.76	66.758
542.10	65.588
542.44	66.435
542.78	63.317
543.12	65.385
543.46	65.994
543.80	65.996
544.14	64.219
544.48	65.690
544.82	65.345
545.16	66.872
545.50	65.955
545.84	66.643
546.18	67.092
546.52	65.609
546.86	66.715
547.20	67.668
547.54	66.360
547.88	65.421
548.22	63.840
548.56	65.172
548.90	67.251
549.24	64.050
549.58	66.220
549.92	65.618
550.26	67.253
550.60	67.807
550.94	67.961
551.28	68.315
551.62	68.769
551.96	68.195
552.30	67.763
552.64	64.951
552.98	66.596
553.32	65.835
553.66	65.965
554.00	66.350
554.34	66.765
554.68	66.372
555.02	67.039
555.36	66.866
555.69	66.520
556.03	66.738
556.37	66.762
556.71	67.798
557.05	67.860
557.39	65.576
557.73	67.691
558.07	68.250
558.41	66.998
558.75	68.511
559.08	69.346
559.42	68.968
559.76	69.335
560.10	67.508
560.44	68.280
560.78	65.315
561.12	67.419
561.45	67.604
561.79	67.927
562.13	67.991
562.47	66.978
562.81	67.147
563.15	67.842
563.48	67.327
563.82	67.879
564.16	69.499
564.50	66.081
564.84	65.930
565.17	66.734
565.51	68.511
565.85	67.901
566.19	66.777
566.52	67.091
566.86	68.059
567.20	67.186
567.54	66.484
567.88	65.905
568.21	66.233
568.55	65.598
568.89	65.503
569.23	64.179
569.56	64.273
569.90	64.393
570.24	61.667
570.57	63.236
570.91	62.182
571.25	61.723
571.59	61.165
571.92	59.437
572.26	60.870
572.60	61.302
572.93	60.213
573.27	60.564
573.61	60.770
573.95	60.759
574.28	59.719
574.62	59.471
574.96	59.137
575.29	59.894
575.63	58.331
575.97	59.474
576.30	60.360
576.64	59.523
576.98	60.154
577.31	60.605
577.65	60.252
577.98	60.144
578.32	58.603
578.66	58.092
578.99	58.774
579.33	59.281
579.67	58.415
580.00	59.392
580.34	59.204
580.67	59.125
581.01	59.846
581.35	59.281
581.68	59.122
582.02	59.736
582.35	59.183
582.69	59.291
583.02	59.389
583.36	60.043
583.70	60.826
584.03	61.384
584.37	62.676
584.70	60.907
585.04	59.767
585.37	60.737
585.71	60.405
586.04	60.590
586.38	60.336
586.72	61.090
587.05	62.045
587.39	61.280
587.72	61.810
588.06	62.414
588.39	61.151
588.73	61.996
589.06	61.937
589.40	62.012
589.73	64.147
590.07	63.973
590.40	63.545
590.73	65.651
591.07	64.461
591.40	64.426
591.74	65.747
592.07	65.584
592.41	65.504
592.74	64.078
593.08	62.627
593.41	62.834
593.75	62.807
594.08	62.890
594.41	63.501
594.75	63.473
595.08	64.207
595.42	64.262
595.75	65.978
596.09	64.621
596.42	65.068
596.75	65.409
597.09	66.834
597.42	64.182
597.75	66.468
598.09	63.875
598.42	64.847
598.76	64.736
599.09	63.542
599.42	64.191
599.76	64.748
600.09	64.140
600.42	64.519
600.76	63.596
601.09	64.351
601.42	63.416
601.76	65.026
602.09	64.893
602.42	66.428
602.76	65.450
603.09	65.407
603.42	67.809
603.76	65.323
604.09	64.561
604.42	65.821
604.76	67.646
605.09	65.859
605.42	66.862
605.75	66.287
606.09	65.350
606.42	64.804
606.75	64.545
607.09	66.198
607.42	65.131
607.75	65.231
608.08	65.139
608.42	65.053
608.75	67.855
609.08	68.411
609.41	66.548
609.75	68.246
610.08	67.998
610.41	65.845
610.74	67.235
611.07	68.992
611.41	68.241
611.74	69.030
612.07	68.094
612.40	68.654
612.73	70.508
613.07	68.560
613.40	67.998
613.73	67.655
614.06	68.726
614.39	69.374
614.72	68.796
615.06	70.279
615.39	66.758
615.72	68.084
616.05	68.659
616.38	68.034
616.71	69.725
617.05	69.920
617.38	71.213
617.71	71.195
618.04	70.159
618.37	70.807
618.70	72.409
619.03	72.639
619.36	73.227
619.69	73.389
620.03	73.338
620.36	74.177
620.69	72.448
621.02	72.248
621.35	76.266
621.68	75.765
622.01	73.833
622.34	74.461
622.67	75.000
623.00	74.043
623.33	74.466
623.66	72.625
623.99	73.449
624.32	75.361
624.65	73.985
624.99	73.815
625.32	74.981
625.65	76.119
625.98	75.745
626.31	75.395
626.64	77.123
626.97	77.574
627.30	78.196
627.63	78.250
627.96	78.796
628.29	77.798
628.62	81.514
628.95	80.461
629.28	80.544
629.61	79.661
629.94	79.081
630.26	78.953
630.59	82.830
630.92	81.128
631.25	79.385
631.58	80.617
631.91	79.605
632.24	81.422
632.57	81.477
632.90	82.325
633.23	82.471
633.56	84.257
633.89	82.737
634.22	84.198
634.55	84.752
634.88	87.101
635.20	81.923
635.53	86.800
635.86	85.566
636.19	86.028
636.52	87.372
636.85	83.375
637.18	83.396
637.51	83.396
637.83	84.231
638.16	88.267
638.49	88.283
638.82	86.184
639.15	85.889
639.48	88.721
639.81	86.611
640.13	88.745
640.46	87.464
640.79	85.714
641.12	87.001
641.45	87.988
641.77	87.407
642.10	90.047
642.43	88.585
642.76	91.089
643.09	90.953
643.41	90.453
643.74	89.786
644.07	89.984
644.40	93.919
644.73	92.820
645.05	88.591
645.38	94.180
645.71	92.376
646.04	95.512
646.36	92.908
646.69	92.266
647.02	97.921
647.35	93.470
647.67	94.881
648.00	94.590
648.33	89.761
648.66	92.881
648.98	92.630
649.31	91.901
649.64	88.226
649.96	88.979
650.29	94.378
650.62	93.333
650.94	92.963
651.27	93.669
651.60	89.910
651.92	91.608
652.25	91.297
652.58	90.333
652.90	91.424
653.23	90.756
653.56	90.355
653.88	89.863
654.21	88.441
654.54	87.946
654.86	92.869
655.19	88.450
655.52	80.341
655.84	68.345
656.17	74.572
656.49	99.105
656.82	100.000
657.15	81.085
657.47	58.981
657.80	44.189
658.13	43.927
658.45	69.107
658.78	69.183
659.10	69.837
659.43	70.524
659.75	72.718
660.08	75.793
660.41	80.592
660.73	86.464
661.06	91.854
661.38	94.912
661.71	95.072
662.03	102.146
662.36	97.143
662.68	98.451
663.01	100.218
663.33	103.480
663.66	101.628
663.98	99.767
664.31	95.522
664.63	99.078
664.96	97.174
665.28	97.572
665.61	99.784
665.93	97.826
666.26	99.783
666.58	99.329
666.91	104.000
667.23	102.594
667.56	103.555
667.88	99.281
668.21	101.909
668.53	103.310
668.86	102.594
669.18	98.821
669.50	97.337
669.83	100.000
670.15	100.699
670.48	105.024
670.80	100.922
671.13	98.210
671.45	96.575
671.77	97.425
672.10	97.030
672.42	98.502
672.75	93.961
673.07	94.454
673.39	95.963
673.72	94.083
674.04	98.542
674.37	97.669
674.69	97.645
675.01	102.889
675.34	99.775
675.66	99.537
675.98	98.226
676.31	100.229
676.63	101.663
676.95	100.682
677.28	104.235
677.60	103.133
677.92	97.936
678.25	99.344
678.57	103.030
678.89	98.529
679.22	105.369
679.54	95.984
679.86	95.030
680.18	94.369
680.51	93.561
680.83	96.421
681.15	99.400
681.48	97.746
681.80	95.661
682.12	97.379
682.44	96.862
682.77	103.532
683.09	101.373
683.41	101.591
683.73	100.000
684.06	100.000
684.38	96.989
684.70	104.793
685.02	96.680
685.34	97.036
685.67	95.122
685.99	91.320
686.31	92.566
686.63	95.918
686.96	95.247
687.28	96.768
687.60	94.487
687.92	100.606
688.24	96.371
688.56	99.127
688.89	102.009
689.21	101.111
689.53	100.232
689.85	99.535
690.17	100.893
690.49	100.000
690.82	101.942
691.14	101.190
691.46	101.869
691.78	98.874
692.10	99.140
692.42	100.216
692.74	98.077
693.06	100.450
693.39	99.321
693.71	98.416
694.03	96.536
694.35	99.065
694.67	101.263
694.99	105.483
695.31	105.222
695.63	103.500
695.95	99.495
696.27	102.850
696.59	110.556
696.91	104.202
697.23	102.314
697.56	102.723
697.88	99.570
698.20	99.772
698.52	100.706
698.84	100.239
699.16	101.750
699.48	104.261
699.80	97.767
700.12	107.547
700.44	107.563
700.76	106.977
701.08	107.273
701.40	106.325
701.72	115.432
702.04	114.851
702.36	118.060
702.68	107.808
703.00	112.121
703.32	105.572
703.64	104.520
703.96	102.319
704.28	109.202
704.60	111.746
704.91	111.672
705.23	112.957
705.55	118.375
705.87	111.552
706.19	115.926
706.51	111.684
706.83	109.003
707.15	108.100
707.47	108.123
707.79	103.125
708.11	100.250
708.43	101.500
708.74	102.067
709.06	107.887
709.38	111.621
709.70	104.438
710.02	111.783
710.34	110.217
710.66	108.013
710.98	110.596
711.29	115.410
711.61	116.610
711.93	108.143
712.25	119.588
712.57	119.780
712.89	110.821
713.20	110.727
713.52	112.544
713.84	109.215
714.16	113.746
714.48	114.516
714.80	110.577
715.11	105.775
715.43	107.524
715.75	111.000
716.07	109.967
716.39	109.396
716.70	110.332
717.02	109.160
717.34	118.623
717.66	115.044
717.97	121.304
718.29	118.828
718.61	118.110
718.93	110.465
719.24	114.829
719.56	117.269
719.88	104.811
720.20	109.848
720.51	111.877
720.83	112.355
721.15	121.008
721.46	119.355
721.78	112.648
722.10	105.948
722.42	117.842
722.73	113.878
723.05	117.143
723.37	116.949
723.68	120.270
724.00	115.812
724.32	115.111
724.63	117.727
724.95	119.214
725.27	118.894
725.58	117.373
725.90	113.095
726.22	110.039
726.53	106.441
726.85	109.363
727.16	110.566
727.48	113.360
727.80	116.194
728.11	113.983
728.43	107.451
728.74	109.677
729.06	110.800
729.38	112.030
729.69	114.343
730.01	105.000
730.32	113.433
730.64	111.307
730.96	111.698
731.27	105.000
731.59	111.525
731.90	107.325
732.22	107.256
732.53	105.316
732.85	113.830
733.16	104.377
733.48	110.432
733.80	112.681
734.11	105.085
734.43	110.309
734.74	106.061
735.06	108.143
735.37	101.813
735.69	111.785
736.00	110.105
736.32	110.403
736.63	110.563
736.95	102.048
737.26	105.694
737.58	104.027
737.89	112.454
738.21	107.895
738.52	117.284
738.83	116.594
739.15	109.607
739.46	106.693
739.78	108.059
740.09	103.922
740.41	107.609
740.72	110.630
741.04	110.931
741.35	105.957
741.66	116.114
741.98	116.327
742.29	113.366
742.61	121.466
742.92	114.218
743.23	111.574
743.55	118.552
743.86	117.703
744.18	116.746
744.49	117.553
744.80	125.543
745.12	133.155
745.43	114.146
745.74	127.604
746.06	119.024
746.37	123.037
746.68	108.057
747.00	122.872
747.31	123.881
747.62	115.049
747.94	119.139
748.25	118.317
748.56	130.055
748.88	120.419
749.19	129.787
749.50	123.645
749.82	115.094
750.13	116.972
750.44	108.647
750.75	117.537
751.07	111.679
751.38	111.494
751.69	114.118
752.01	116.667
752.32	113.147
752.63	113.043
752.94	117.241
753.26	115.063
753.57	110.860
753.88	119.027
754.19	112.500
754.51	120.661
754.82	111.741
755.13	125.417
755.44	111.694
755.75	112.109
756.07	110.895
756.38	112.075
756.69	114.943
757.00	103.667
757.31	107.190
757.63	98.780
757.94	96.389
758.25	102.466
758.56	101.330
758.87	98.584
759.18	103.738
759.50	112.364
759.81	107.692
760.12	108.065
760.43	103.939
760.74	106.790
761.05	107.692
761.36	102.557
761.67	106.061
761.99	110.544
762.30	107.636
762.61	108.696
762.92	112.217
763.23	116.216
763.54	106.542
763.85	111.441
764.16	110.788
764.47	113.710
764.78	102.564
765.10	105.387
765.41	100.000
765.72	103.492
766.03	104.887
766.34	106.204
766.65	105.179
766.96	125.758
767.27	121.809
767.58	118.391
767.89	133.333
768.20	114.205
768.51	119.780
768.82	117.241
769.13	112.442
769.44	109.013
769.75	110.959
770.06	100.000
770.37	111.538
770.68	122.335
770.99	108.597
771.30	117.157
771.61	111.765
771.92	107.759
772.23	116.749
772.54	112.903
772.85	127.778
773.16	115.730
773.47	139.869
773.78	135.948
774.09	116.168
774.39	120.667
774.70	115.924
775.01	120.000
775.32	117.143
775.63	123.140
775.94	122.901
776.25	113.386
776.56	136.667
776.87	137.500
777.18	109.402
777.48	130.172
777.79	118.261
778.10	133.333
778.41	134.234
778.72	123.016
779.03	112.030
779.34	124.823
779.65	121.918
779.95	108.904
780.26	116.552
780.57	125.203
780.88	109.449
781.19	130.172
781.50	121.705
781.80	106.509
782.11	110.063
782.42	132.308
782.73	116.547
783.04	117.778
783.34	106.944
783.65	115.385
783.96	122.951
784.27	118.621
784.57	118.699
784.88	113.281
785.19	136.000
785.50	139.000
785.81	113.793
786.11	113.793
786.42	129.126
786.73	130.000
787.04	134.694
787.34	110.714
787.65	124.762
787.96	111.504
788.26	123.636
788.57	119.658
788.88	107.031
789.19	103.175
789.49	119.130
789.80	129.592
790.11	121.212
790.41	102.727
790.72	128.261
791.03	143.182
791.33	130.000
791.64	141.250
791.95	113.953
792.25	112.766
792.56	120.225
792.87	139.726
793.17	131.884
793.48	125.333
793.79	115.000
794.09	136.250
794.40	108.491
794.70	108.738
795.01	108.943
795.32	106.838
795.62	124.762
795.93	120.588
796.23	107.547
796.54	113.542
796.85	164.706
797.15	128.169
797.46	145.833
797.76	121.212
798.07	98.837
798.37	126.316
798.68	113.636
798.99	103.704
799.29	145.714
799.60	127.536
799.90	125.333
800.21	140.984
800.51	124.615
800.82	142.373
801.12	111.594
801.43	132.787
801.73	119.048
802.04	142.000
802.34	105.970
802.65	157.692
802.95	98.214
803.26	117.308
803.56	168.627
803.87	136.957
804.17	100.000
804.48	117.460
804.78	131.481
805.09	145.652
805.39	151.111
805.70	127.778
806.00	119.298
806.30	119.718
806.61	118.571
806.91	101.389
807.22	114.474
807.52	116.000
807.83	140.000
808.13	93.056
808.43	135.294
808.74	119.403
809.04	122.034
809.35	138.462
809.65	114.062
809.95	132.432
810.26	118.182
810.56	101.370
810.86	147.619
811.17	128.000
811.47	136.735
811.77	123.684
812.08	109.091
812.38	122.642
812.69	157.500
812.99	157.576
813.29	136.842
813.59	131.429
813.90	147.727
814.20	151.282
814.50	130.769
814.81	132.075
815.11	123.404
815.41	120.339
815.72	147.619
816.02	123.529
816.32	93.750
816.62	151.220
816.93	154.054
817.23	151.429
817.53	97.917
817.84	110.870
818.14	134.615
818.44	118.421
818.74	132.609
819.04	110.000
819.35	137.838
819.65	138.235
819.95	83.333
820.25	133.333
820.56	157.500
820.86	113.793
821.16	170.000
821.46	87.234
821.76	122.500
822.07	151.163
822.37	97.297
822.67	131.250
822.97	133.333
823.27	128.571
823.57	132.000
823.88	107.407
824.18	185.714
824.48	120.588
824.78	106.452
825.08	169.565
825.38	154.545
825.69	129.167
825.99	118.421
826.29	133.333
826.59	266.667
826.89	152.381
827.19	104.348
827.49	110.000
827.79	140.000
828.09	142.857
828.39	142.424
828.70	145.946
829.00	117.857
829.30	185.714
829.60	120.000
829.90	112.500
830.20	86.842
830.50	129.630
830.80	152.174
831.10	131.818
831.40	133.333
831.70	135.484
832.00	185.714
832.30	142.857
832.60	233.333
832.90	106.897
833.20	145.000
833.50	109.091
833.80	114.815
834.10	111.538
834.40	106.250
834.70	355.556
835.00	131.579
835.30	203.846
835.60	293.333
835.90	87.097
836.20	177.273
836.50	157.143
836.80	126.923
837.10	107.143
837.40	1000.000
837.70	140.909
838.00	181.818
838.30	108.696
838.60	184.615
838.90	186.364
839.19	89.286
839.49	110.000
839.79	230.769
840.09	200.000
840.39	114.286
840.69	114.286
840.99	107.692
841.29	94.737
841.59	210.000
841.88	145.455
842.18	250.000
842.48	150.000
842.78	173.333
843.08	111.111
843.38	160.000
843.68	91.304
843.97	126.667
844.27	113.333
844.57	125.000
844.87	105.556
845.17	95.238
845.47	173.333
845.76	104.762
846.06	147.059
846.36	120.000
846.66	150.000
846.96	153.333
847.25	200.000
847.55	107.143
847.85	187.500
848.15	77.273
848.44	366.667
848.74	90.000
849.04	96.296
849.34	145.455
849.63	183.333
849.93	140.000
850.23	94.444
850.53	190.000
850.82	46.154
851.12	188.889
851.42	193.333
851.71	80.769
852.01	121.429
852.31	325.000
852.61	109.091
852.90	90.000
853.20	157.895
853.50	275.000
853.79	52.174
854.09	104.167
854.39	73.684
854.68	116.667
854.98	112.903
855.28	161.538
855.57	110.000
855.87	127.778
856.17	133.333
856.46	92.857
856.76	153.333
857.05	333.333
857.35	68.000
857.65	155.556
857.94	100.000
858.24	93.103
858.53	111.111
858.83	96.296
859.13	122.727
859.42	60.870
859.72	450.000
860.01	100.000
860.31	88.000
860.60	133.333
860.90	400.000
861.20	46.667
861.49	600.000
861.79	120.000
862.08	60.000
862.38	173.333
862.67	260.000
862.97	316.667
863.26	175.000
863.56	133.333
863.85	233.333
864.15	83.333
864.44	100.000
864.74	135.714
865.03	-300.000
865.33	140.000
865.62	433.333
865.92	150.000
866.21	133.333
866.51	62.500
866.80	72.727
867.10	700.000
867.39	108.333
867.69	0.000
867.98	200.000
868.27	566.667
868.57	80.000
868.86	105.556
869.16	46.154
869.45	180.000
869.75	900.000
870.04	0.000
870.33	157.143
870.63	128.571
870.92	-100.000
871.22	-40.000
871.51	600.000
871.80	255.556
872.10	-133.333
>>>>>End Processed Spectral Data<<<<<
