SpectraSuite Data File
++++++++++++++++++++++++++++++++++++
Date: Fri May 15 17:03:03 PDT 2015
User: schluterlab
Dark Spectrum Present: Yes
Reference Spectrum Present: Yes
Number of Sampled Component Spectra: 1
Spectrometers: USB2E3373
Integration Time (usec): 3000 (USB2E3373)
Spectra Averaged: 3 (USB2E3373)
Boxcar Smoothing: 0 (USB2E3373)
Correct for Electrical Dark: No (USB2E3373)
Strobe/Lamp Enabled: No (USB2E3373)
Correct for Detector Non-linearity: No (USB2E3373)
Correct for Stray Light: No (USB2E3373)
Number of Pixels in Processed Spectrum: 2048
>>>>>Begin Processed Spectral Data<<<<<
178.53	0.000
178.91	0.000
179.29	225.000
179.67	550.000
180.04	-0.000
180.42	200.000
180.80	1400.000
181.18	-200.000
181.56	-100.000
181.94	150.000
182.31	500.000
182.69	140.000
183.07	100.000
183.45	-160.000
183.83	16.667
184.20	100.000
184.58	55.556
184.96	-325.000
185.34	-200.000
185.72	-100.000
186.09	23.077
186.47	600.000
186.85	50.000
187.23	55.556
187.61	-700.000
187.98	-133.333
188.36	22.222
188.74	0.000
189.12	47.059
189.49	55.556
189.87	0.000
190.25	85.714
190.63	250.000
191.00	-33.333
191.38	57.895
191.76	600.000
192.14	-0.000
192.51	650.000
192.89	-100.000
193.27	42.857
193.65	83.333
194.02	145.455
194.40	70.000
194.78	-12.500
195.15	75.000
195.53	-12.500
195.91	200.000
196.29	-25.000
196.66	61.538
197.04	-100.000
197.42	44.444
197.79	-66.667
198.17	-92.308
198.55	500.000
198.92	333.333
199.30	600.000
199.68	100.000
200.05	233.333
200.43	0.000
200.81	-33.333
201.18	-100.000
201.56	900.000
201.94	-50.000
202.31	-100.000
202.69	-160.000
203.07	125.000
203.44	900.000
203.82	0.000
204.19	50.000
204.57	-200.000
204.95	87.500
205.32	130.000
205.70	100.000
206.08	50.000
206.45	288.889
206.83	85.714
207.20	71.429
207.58	-1000.000
207.96	200.000
208.33	-50.000
208.71	0.000
209.08	-133.333
209.46	700.000
209.84	-160.000
210.21	500.000
210.59	71.429
210.96	66.667
211.34	175.000
211.71	53.333
212.09	-14.286
212.46	-700.000
212.84	0.000
213.22	190.000
213.59	-150.000
213.97	123.077
214.34	100.000
214.72	33.333
215.09	250.000
215.47	-53.846
215.84	45.455
216.22	-333.333
216.59	87.500
216.97	900.000
217.34	275.000
217.72	-180.000
218.09	37.500
218.47	50.000
218.84	700.000
219.22	-11.111
219.59	-20.000
219.97	-0.000
220.34	100.000
220.72	114.286
221.09	75.000
221.47	200.000
221.84	50.000
222.22	-400.000
222.59	136.364
222.97	75.000
223.34	200.000
223.72	50.000
224.09	61.905
224.46	71.429
224.84	100.000
225.21	30.000
225.59	53.333
225.96	100.000
226.34	125.000
226.71	28.571
227.08	-50.000
227.46	87.500
227.83	0.000
228.21	33.333
228.58	100.000
228.95	50.000
229.33	20.000
229.70	75.000
230.08	125.000
230.45	28.571
230.82	128.571
231.20	20.000
231.57	114.286
231.95	57.143
232.32	10.000
232.69	78.571
233.07	100.000
233.44	40.000
233.81	120.000
234.19	77.778
234.56	64.706
234.93	-300.000
235.31	350.000
235.68	60.000
236.05	23.077
236.43	25.000
236.80	147.059
237.17	28.125
237.55	80.000
237.92	62.963
238.29	61.111
238.67	86.667
239.04	38.235
239.41	19.512
239.79	80.000
240.16	82.927
240.53	55.263
240.91	73.913
241.28	68.254
241.65	75.000
242.02	58.904
242.40	83.333
242.77	71.186
243.14	63.636
243.51	52.500
243.89	68.966
244.26	62.069
244.63	69.048
245.00	64.948
245.38	67.010
245.75	59.551
246.12	60.345
246.49	72.727
246.87	60.577
247.24	68.067
247.61	57.018
247.98	65.041
248.36	56.875
248.73	55.263
249.10	64.935
249.47	70.253
249.84	72.549
250.22	66.471
250.59	72.549
250.96	57.746
251.33	59.302
251.70	72.353
252.08	68.020
252.45	65.347
252.82	66.332
253.19	63.594
253.56	66.822
253.94	60.811
254.31	66.957
254.68	64.035
255.05	61.417
255.42	67.249
255.79	60.618
256.16	63.813
256.54	63.433
256.91	64.639
257.28	56.506
257.65	61.049
258.02	63.121
258.39	65.657
258.76	65.568
259.14	66.445
259.51	62.136
259.88	64.605
260.25	65.033
260.62	68.403
260.99	63.729
261.36	63.014
261.73	63.608
262.10	64.742
262.47	61.350
262.85	64.577
263.22	63.385
263.59	61.371
263.96	67.702
264.33	66.667
264.70	65.774
265.07	65.774
265.44	66.289
265.81	61.017
266.18	66.940
266.55	61.697
266.92	67.098
267.29	64.230
267.66	63.683
268.03	64.398
268.40	59.530
268.77	66.310
269.14	61.391
269.51	64.010
269.88	63.342
270.25	63.776
270.62	61.220
270.99	65.729
271.36	61.369
271.73	63.850
272.10	66.180
272.47	64.066
272.84	66.832
273.21	61.485
273.58	60.723
273.95	63.387
274.32	62.818
274.69	56.787
275.06	64.063
275.43	60.998
275.80	61.589
276.17	63.678
276.54	59.529
276.91	63.377
277.28	60.044
277.65	59.298
278.02	60.638
278.39	61.707
278.76	63.732
279.13	58.299
279.50	61.345
279.87	59.179
280.23	62.581
280.60	59.844
280.97	63.030
281.34	58.846
281.71	61.602
282.08	58.078
282.45	59.100
282.82	57.529
283.19	63.443
283.56	56.455
283.92	59.583
284.29	57.115
284.66	56.395
285.03	58.350
285.40	58.223
285.77	53.779
286.14	57.040
286.51	59.225
286.87	56.307
287.24	56.906
287.61	54.321
287.98	55.789
288.35	55.459
288.72	56.567
289.08	54.688
289.45	55.712
289.82	53.322
290.19	53.754
290.56	53.859
290.93	52.189
291.29	49.769
291.66	48.976
292.03	51.196
292.40	52.903
292.77	48.963
293.13	48.864
293.50	47.344
293.87	48.244
294.24	49.459
294.60	47.690
294.97	46.726
295.34	47.239
295.71	46.796
296.08	47.384
296.44	42.532
296.81	45.417
297.18	44.638
297.55	44.715
297.91	44.110
298.28	45.119
298.65	41.655
299.02	42.722
299.38	39.808
299.75	44.276
300.12	42.801
300.48	42.556
300.85	40.177
301.22	41.169
301.59	40.658
301.95	42.785
302.32	42.802
302.69	41.915
303.05	39.480
303.42	39.477
303.79	41.822
304.15	39.904
304.52	39.477
304.89	39.415
305.25	38.136
305.62	37.806
305.99	38.480
306.35	40.116
306.72	37.683
307.09	39.795
307.45	37.084
307.82	37.616
308.19	39.721
308.55	38.386
308.92	38.562
309.29	37.654
309.65	37.244
310.02	38.064
310.38	39.078
310.75	39.454
311.12	38.859
311.48	36.585
311.85	37.068
312.22	36.709
312.58	37.367
312.95	37.353
313.31	37.164
313.68	36.859
314.05	36.224
314.41	38.041
314.78	37.526
315.14	38.335
315.51	38.716
315.87	36.988
316.24	37.715
316.61	36.713
316.97	36.706
317.34	37.109
317.70	35.946
318.07	35.096
318.43	35.882
318.80	34.848
319.16	37.305
319.53	36.372
319.89	36.713
320.26	36.741
320.62	37.212
320.99	35.804
321.35	35.149
321.72	37.279
322.08	35.952
322.45	35.228
322.81	36.149
323.18	35.525
323.54	34.170
323.91	34.567
324.27	35.547
324.64	35.674
325.00	34.489
325.37	36.823
325.73	34.905
326.10	35.604
326.46	36.323
326.83	36.045
327.19	35.571
327.56	35.187
327.92	35.651
328.29	35.446
328.65	34.811
329.01	34.283
329.38	34.747
329.74	34.466
330.11	34.198
330.47	34.508
330.84	33.942
331.20	36.502
331.56	33.056
331.93	34.338
332.29	35.380
332.66	32.941
333.02	34.015
333.38	34.005
333.75	34.341
334.11	32.319
334.48	33.273
334.84	34.615
335.20	33.486
335.57	33.998
335.93	34.598
336.29	33.057
336.66	33.697
337.02	33.086
337.38	32.963
337.75	32.727
338.11	33.454
338.47	33.303
338.84	34.566
339.20	33.638
339.56	33.761
339.93	33.035
340.29	34.771
340.65	33.154
341.02	32.535
341.38	31.947
341.74	32.597
342.11	30.763
342.47	31.673
342.83	33.045
343.20	32.230
343.56	33.130
343.92	32.772
344.28	33.561
344.65	32.211
345.01	33.016
345.37	31.876
345.73	33.975
346.10	33.563
346.46	32.044
346.82	32.242
347.19	31.505
347.55	33.166
347.91	32.686
348.27	31.205
348.63	32.368
349.00	31.583
349.36	32.253
349.72	32.504
350.08	32.541
350.45	30.646
350.81	32.060
351.17	31.433
351.53	32.490
351.89	32.205
352.26	30.560
352.62	32.581
352.98	32.369
353.34	30.998
353.70	32.039
354.07	31.774
354.43	31.385
354.79	30.636
355.15	31.667
355.51	30.934
355.87	31.149
356.24	31.892
356.60	31.690
356.96	31.190
357.32	30.990
357.68	29.789
358.04	31.099
358.40	31.109
358.77	30.861
359.13	29.704
359.49	29.815
359.85	30.421
360.21	30.542
360.57	29.457
360.93	30.635
361.29	29.230
361.66	30.799
362.02	30.530
362.38	30.160
362.74	30.810
363.10	32.205
363.46	30.096
363.82	30.128
364.18	30.701
364.54	30.294
364.90	29.462
365.26	30.495
365.62	31.314
365.98	30.718
366.35	31.318
366.71	30.525
367.07	31.350
367.43	29.978
367.79	30.035
368.15	30.725
368.51	30.299
368.87	30.151
369.23	29.964
369.59	30.904
369.95	30.352
370.31	29.552
370.67	30.224
371.03	29.350
371.39	29.322
371.75	29.158
372.11	29.672
372.47	30.178
372.83	30.376
373.19	29.815
373.55	27.870
373.91	29.590
374.27	30.191
374.63	29.361
374.99	28.723
375.35	29.526
375.71	29.720
376.07	29.073
376.42	28.980
376.78	28.658
377.14	28.910
377.50	29.216
377.86	29.987
378.22	29.930
378.58	29.936
378.94	29.427
379.30	29.382
379.66	30.784
380.02	29.982
380.38	29.093
380.74	28.426
381.09	29.448
381.45	28.991
381.81	29.488
382.17	29.315
382.53	27.733
382.89	30.383
383.25	30.180
383.61	30.061
383.97	29.270
384.32	29.018
384.68	29.783
385.04	28.799
385.40	28.811
385.76	30.063
386.12	29.625
386.48	28.991
386.83	29.613
387.19	28.938
387.55	30.050
387.91	29.340
388.27	28.571
388.62	29.893
388.98	28.668
389.34	30.356
389.70	30.019
390.06	29.012
390.42	29.275
390.77	29.889
391.13	29.508
391.49	28.590
391.85	29.695
392.20	29.504
392.56	30.006
392.92	30.006
393.28	29.481
393.64	29.369
393.99	30.846
394.35	29.349
394.71	29.949
395.07	30.295
395.42	30.480
395.78	30.489
396.14	30.391
396.50	29.803
396.85	29.556
397.21	31.078
397.57	30.031
397.92	30.138
398.28	29.713
398.64	30.361
399.00	30.756
399.35	30.023
399.71	31.648
400.07	31.862
400.42	30.539
400.78	30.557
401.14	30.430
401.49	30.316
401.85	30.043
402.21	30.542
402.57	30.312
402.92	30.489
403.28	30.451
403.63	32.093
403.99	31.186
404.35	31.418
404.70	31.012
405.06	30.846
405.42	31.013
405.77	30.506
406.13	30.617
406.49	31.024
406.84	31.235
407.20	31.367
407.55	30.972
407.91	30.882
408.27	31.166
408.62	31.938
408.98	31.115
409.34	32.528
409.69	31.460
410.05	30.788
410.40	30.679
410.76	31.665
411.11	31.750
411.47	32.544
411.83	31.638
412.18	32.046
412.54	31.086
412.89	31.650
413.25	33.093
413.60	32.609
413.96	32.025
414.31	32.012
414.67	32.136
415.03	31.758
415.38	33.029
415.74	32.769
416.09	33.442
416.45	32.411
416.80	32.320
417.16	32.735
417.51	33.178
417.87	32.203
418.22	33.290
418.58	33.378
418.93	32.163
419.29	31.882
419.64	32.599
420.00	34.635
420.35	32.478
420.71	33.657
421.06	33.517
421.42	33.654
421.77	33.526
422.12	33.485
422.48	33.460
422.83	32.831
423.19	33.296
423.54	33.921
423.90	33.746
424.25	33.295
424.61	33.660
424.96	33.217
425.31	34.315
425.67	34.331
426.02	34.747
426.38	34.627
426.73	33.898
427.09	35.696
427.44	35.235
427.79	34.590
428.15	35.073
428.50	35.554
428.85	34.644
429.21	34.578
429.56	36.065
429.92	34.412
430.27	34.536
430.62	34.187
430.98	34.342
431.33	35.647
431.68	34.589
432.04	35.048
432.39	33.771
432.74	33.915
433.10	36.149
433.45	34.886
433.80	35.694
434.16	36.122
434.51	36.183
434.86	34.785
435.22	35.502
435.57	35.995
435.92	36.048
436.28	35.003
436.63	35.083
436.98	34.878
437.34	34.664
437.69	35.599
438.04	35.214
438.39	36.042
438.75	35.458
439.10	36.955
439.45	35.301
439.81	36.514
440.16	36.520
440.51	35.642
440.86	36.193
441.22	36.029
441.57	37.086
441.92	36.411
442.27	35.809
442.63	37.955
442.98	36.760
443.33	37.229
443.68	36.340
444.03	37.109
444.39	37.531
444.74	37.625
445.09	37.249
445.44	36.410
445.79	37.184
446.15	36.399
446.50	36.217
446.85	36.451
447.20	36.288
447.55	36.551
447.91	36.379
448.26	36.710
448.61	36.788
448.96	37.120
449.31	36.994
449.66	36.121
450.02	36.680
450.37	37.048
450.72	37.285
451.07	37.089
451.42	36.829
451.77	36.950
452.12	35.885
452.47	36.510
452.83	36.514
453.18	36.433
453.53	36.726
453.88	37.098
454.23	36.509
454.58	37.720
454.93	37.436
455.28	35.429
455.63	37.570
455.98	36.681
456.34	37.676
456.69	35.959
457.04	37.303
457.39	36.087
457.74	36.759
458.09	36.257
458.44	37.098
458.79	36.471
459.14	37.243
459.49	37.194
459.84	37.789
460.19	36.954
460.54	36.125
460.89	37.557
461.24	37.081
461.59	37.470
461.94	36.101
462.29	38.239
462.64	36.678
462.99	36.628
463.34	36.579
463.69	36.873
464.04	36.501
464.39	38.084
464.74	38.773
465.09	38.178
465.44	37.969
465.79	35.998
466.14	37.913
466.49	37.378
466.84	35.931
467.19	37.860
467.54	36.079
467.89	36.071
468.24	36.861
468.59	37.270
468.94	36.063
469.29	36.984
469.64	37.321
469.99	37.631
470.34	35.358
470.68	37.808
471.03	38.004
471.38	35.877
471.73	36.275
472.08	36.364
472.43	36.644
472.78	36.052
473.13	37.483
473.48	37.134
473.83	36.550
474.17	36.658
474.52	36.056
474.87	36.545
475.22	37.340
475.57	36.307
475.92	37.301
476.27	38.009
476.61	37.269
476.96	36.419
477.31	37.155
477.66	36.404
478.01	36.552
478.36	36.220
478.70	36.759
479.05	36.264
479.40	36.513
479.75	36.653
480.10	36.252
480.45	36.250
480.79	37.613
481.14	37.346
481.49	35.714
481.84	37.500
482.19	36.155
482.53	37.170
482.88	36.420
483.23	36.756
483.58	35.425
483.92	36.544
484.27	36.463
484.62	36.531
484.97	36.028
485.31	36.525
485.66	37.507
486.01	38.696
486.36	38.992
486.70	37.964
487.05	36.788
487.40	36.918
487.75	36.817
488.09	36.279
488.44	35.282
488.79	36.384
489.13	35.817
489.48	35.699
489.83	35.336
490.17	35.640
490.52	35.797
490.87	34.567
491.22	35.864
491.56	36.433
491.91	35.564
492.26	36.072
492.60	35.461
492.95	36.203
493.30	36.248
493.64	36.198
493.99	36.425
494.34	35.437
494.68	36.524
495.03	35.134
495.37	34.936
495.72	35.840
496.07	35.951
496.41	35.849
496.76	36.251
497.11	35.212
497.45	36.325
497.80	36.276
498.14	35.271
498.49	35.653
498.84	35.778
499.18	36.094
499.53	35.863
499.87	34.922
500.22	35.410
500.56	35.552
500.91	35.492
501.26	35.640
501.60	35.416
501.95	35.517
502.29	36.029
502.64	36.004
502.98	36.162
503.33	34.918
503.67	35.663
504.02	36.070
504.36	36.269
504.71	36.364
505.06	35.783
505.40	35.838
505.75	36.237
506.09	35.783
506.44	36.191
506.78	36.786
507.13	35.264
507.47	34.883
507.82	35.203
508.16	35.446
508.51	36.411
508.85	35.322
509.19	35.125
509.54	36.086
509.88	34.466
510.23	34.750
510.57	35.810
510.92	34.009
511.26	35.570
511.61	35.259
511.95	35.671
512.30	34.534
512.64	34.891
512.98	34.587
513.33	35.311
513.67	34.451
514.02	36.270
514.36	35.029
514.70	35.373
515.05	36.193
515.39	35.065
515.74	35.928
516.08	35.386
516.42	36.101
516.77	35.342
517.11	36.320
517.46	35.488
517.80	35.340
518.14	34.170
518.49	35.276
518.83	35.419
519.17	34.203
519.52	34.221
519.86	34.454
520.20	34.629
520.55	33.959
520.89	35.069
521.23	33.186
521.58	34.826
521.92	34.231
522.26	34.418
522.61	35.065
522.95	35.497
523.29	34.053
523.64	34.943
523.98	34.673
524.32	33.505
524.66	34.059
525.01	35.974
525.35	35.062
525.69	34.209
526.04	33.995
526.38	34.565
526.72	33.617
527.06	34.371
527.41	35.224
527.75	34.048
528.09	35.017
528.43	35.246
528.78	34.851
529.12	34.839
529.46	33.983
529.80	33.882
530.15	36.172
530.49	34.478
530.83	35.499
531.17	34.520
531.51	34.268
531.86	33.787
532.20	33.890
532.54	34.581
532.88	34.155
533.22	34.274
533.57	34.404
533.91	35.509
534.25	36.328
534.59	35.407
534.93	34.110
535.27	35.216
535.62	34.413
535.96	35.356
536.30	35.686
536.64	35.700
536.98	32.962
537.32	35.846
537.66	36.466
538.01	34.825
538.35	34.743
538.69	35.286
539.03	35.270
539.37	34.926
539.71	35.106
540.05	34.759
540.39	35.942
540.73	35.425
541.07	34.738
541.42	35.484
541.76	35.857
542.10	34.756
542.44	35.163
542.78	34.480
543.12	35.234
543.46	34.075
543.80	35.045
544.14	33.645
544.48	33.977
544.82	34.655
545.16	35.519
545.50	35.047
545.84	35.269
546.18	35.603
546.52	34.463
546.86	34.292
547.20	35.050
547.54	34.134
547.88	35.190
548.22	35.043
548.56	35.620
548.90	36.051
549.24	34.986
549.58	34.133
549.92	34.310
550.26	35.018
550.60	34.721
550.94	35.026
551.28	34.003
551.62	35.615
551.96	35.113
552.30	35.673
552.64	33.921
552.98	34.388
553.32	34.879
553.66	35.123
554.00	34.453
554.34	35.081
554.68	34.513
555.02	34.970
555.36	34.181
555.69	34.579
556.03	34.547
556.37	35.160
556.71	34.729
557.05	34.377
557.39	33.903
557.73	34.483
558.07	35.520
558.41	34.609
558.75	33.983
559.08	33.885
559.42	34.286
559.76	34.107
560.10	34.709
560.44	34.401
560.78	36.364
561.12	35.543
561.45	36.191
561.79	35.644
562.13	35.699
562.47	33.885
562.81	35.519
563.15	33.921
563.48	35.856
563.82	35.484
564.16	35.655
564.50	34.595
564.84	35.141
565.17	36.083
565.51	36.817
565.85	35.254
566.19	35.610
566.52	36.126
566.86	36.568
567.20	35.803
567.54	37.287
567.88	37.493
568.21	37.557
568.55	36.359
568.89	36.448
569.23	37.313
569.56	37.084
569.90	36.744
570.24	37.067
570.57	38.255
570.91	37.923
571.25	37.817
571.59	37.901
571.92	37.067
572.26	37.530
572.60	37.612
572.93	36.743
573.27	37.335
573.61	37.709
573.95	37.138
574.28	37.447
574.62	37.198
574.96	37.871
575.29	37.910
575.63	36.538
575.97	37.381
576.30	36.969
576.64	37.483
576.98	38.018
577.31	37.380
577.65	38.119
577.98	38.271
578.32	38.415
578.66	37.567
578.99	37.295
579.33	36.697
579.67	37.421
580.00	37.418
580.34	37.413
580.67	37.265
581.01	38.112
581.35	37.877
581.68	38.162
582.02	38.723
582.35	38.292
582.69	37.807
583.02	37.471
583.36	37.331
583.70	37.124
584.03	38.254
584.37	37.747
584.70	37.253
585.04	37.591
585.37	37.568
585.71	38.089
586.04	37.821
586.38	36.970
586.72	37.360
587.05	38.215
587.39	38.300
587.72	39.448
588.06	38.361
588.39	37.397
588.73	37.210
589.06	38.063
589.40	37.297
589.73	37.641
590.07	37.198
590.40	38.042
590.73	37.974
591.07	38.126
591.40	37.088
591.74	37.557
592.07	37.894
592.41	37.500
592.74	36.957
593.08	36.500
593.41	38.484
593.75	37.357
594.08	37.521
594.41	37.373
594.75	37.137
595.08	38.063
595.42	37.578
595.75	38.603
596.09	36.552
596.42	36.957
596.75	36.545
597.09	36.993
597.42	37.173
597.75	37.884
598.09	36.804
598.42	36.958
598.76	36.722
599.09	37.700
599.42	37.135
599.76	36.945
600.09	36.652
600.42	36.770
600.76	36.441
601.09	36.870
601.42	36.976
601.76	37.237
602.09	37.252
602.42	37.953
602.76	37.988
603.09	37.625
603.42	39.047
603.76	36.774
604.09	37.141
604.42	37.310
604.76	38.095
605.09	37.706
605.42	36.659
605.75	37.084
606.09	37.070
606.42	36.656
606.75	36.883
607.09	37.363
607.42	37.173
607.75	36.767
608.08	35.984
608.42	36.592
608.75	37.494
609.08	37.120
609.41	36.497
609.75	36.341
610.08	37.294
610.41	36.377
610.74	37.055
611.07	37.571
611.41	36.430
611.74	37.207
612.07	36.617
612.40	37.035
612.73	37.232
613.07	36.108
613.40	36.160
613.73	36.598
614.06	37.006
614.39	36.492
614.72	36.303
615.06	36.983
615.39	37.336
615.72	35.899
616.05	36.201
616.38	35.043
616.71	36.147
617.05	35.454
617.38	36.769
617.71	35.912
618.04	37.016
618.37	37.074
618.70	37.228
619.03	37.222
619.36	35.094
619.69	35.861
620.03	36.669
620.36	36.266
620.69	34.761
621.02	34.862
621.35	34.440
621.68	35.799
622.01	35.833
622.34	35.674
622.67	35.568
623.00	35.145
623.33	35.290
623.66	35.378
623.99	36.006
624.32	35.513
624.65	35.789
624.99	36.644
625.32	35.178
625.65	35.585
625.98	35.133
626.31	34.331
626.64	36.222
626.97	35.340
627.30	36.778
627.63	35.182
627.96	35.220
628.29	35.245
628.62	34.513
628.95	34.369
629.28	34.980
629.61	33.400
629.94	35.777
630.26	35.277
630.59	35.588
630.92	33.949
631.25	34.256
631.58	34.802
631.91	33.991
632.24	35.092
632.57	34.318
632.90	33.096
633.23	33.176
633.56	32.494
633.89	33.416
634.22	33.951
634.55	34.180
634.88	33.716
635.20	30.769
635.53	32.400
635.86	33.030
636.19	34.541
636.52	34.439
636.85	32.010
637.18	33.836
637.51	33.333
637.83	32.852
638.16	35.061
638.49	32.153
638.82	36.184
639.15	33.514
639.48	34.250
639.81	33.333
640.13	32.612
640.46	31.341
640.79	30.191
641.12	33.383
641.45	33.784
641.77	33.333
642.10	34.123
642.43	32.637
642.76	32.673
643.09	31.341
643.41	32.524
643.74	30.807
644.07	32.184
644.40	34.122
644.73	30.823
645.05	32.383
645.38	32.804
645.71	32.624
646.04	34.111
646.36	30.674
646.69	33.094
647.02	32.514
647.35	30.970
647.67	32.358
648.00	33.955
648.33	32.423
648.66	32.373
648.98	30.486
649.31	33.884
649.64	33.438
649.96	31.929
650.29	34.412
650.62	34.701
650.94	32.037
651.27	31.657
651.60	33.514
651.92	32.692
652.25	31.083
652.58	34.833
652.90	33.448
653.23	31.933
653.56	30.118
653.88	32.302
654.21	31.173
654.54	31.919
654.86	36.163
655.19	32.895
655.52	37.384
655.84	39.107
656.17	45.627
656.49	61.801
656.82	63.765
657.15	47.576
657.47	34.239
657.80	25.256
658.13	24.641
658.45	36.801
658.78	35.416
659.10	34.624
659.43	33.707
659.75	33.843
660.08	33.862
660.41	34.014
660.73	33.840
661.06	33.102
661.38	32.485
661.71	31.006
662.03	31.760
662.36	33.407
662.68	29.867
663.01	32.751
663.33	30.394
663.66	30.698
663.98	31.163
664.31	33.049
664.63	32.028
664.96	27.609
665.28	30.464
665.61	31.602
665.93	31.087
666.26	31.453
666.58	30.872
666.91	29.647
667.23	32.783
667.56	31.991
667.88	30.216
668.21	31.742
668.53	32.861
668.86	32.311
669.18	28.538
669.50	29.540
669.83	27.674
670.15	30.769
670.48	29.904
670.80	34.101
671.13	30.649
671.45	31.279
671.77	33.047
672.10	34.059
672.42	32.584
672.75	33.393
673.07	33.274
673.39	33.578
673.72	29.191
674.04	30.833
674.37	30.508
674.69	30.835
675.01	34.444
675.34	29.279
675.66	34.259
675.98	32.816
676.31	35.092
676.63	34.204
676.95	33.864
677.28	32.235
677.60	35.181
677.92	33.028
678.25	31.510
678.57	30.952
678.89	31.723
679.22	35.794
679.54	31.526
679.86	33.797
680.18	34.951
680.51	33.902
680.83	33.400
681.15	30.800
681.48	33.197
681.80	34.504
682.12	33.065
682.44	30.126
682.77	31.347
683.09	32.265
683.41	30.682
683.73	32.488
684.06	31.416
684.38	33.333
684.70	34.423
685.02	34.025
685.34	31.225
685.67	35.084
685.99	34.358
686.31	32.743
686.63	33.210
686.96	30.608
687.28	29.495
687.60	29.468
687.92	34.141
688.24	30.847
688.56	32.533
688.89	33.036
689.21	36.000
689.53	31.090
689.85	30.698
690.17	33.929
690.49	32.151
690.82	30.583
691.14	32.857
691.46	33.178
691.78	35.586
692.10	34.624
692.42	31.818
692.74	32.692
693.06	34.685
693.39	34.389
693.71	33.032
694.03	33.487
694.35	32.944
694.67	35.354
694.99	30.809
695.31	32.115
695.63	32.500
695.95	32.071
696.27	33.938
696.59	32.222
696.91	33.053
697.23	31.105
697.56	33.416
697.88	37.634
698.20	35.535
698.52	33.176
698.84	32.536
699.16	29.750
699.48	33.333
699.80	33.002
700.12	34.232
700.44	33.333
700.76	31.395
701.08	29.091
701.40	31.627
701.72	31.481
702.04	31.023
702.36	34.448
702.68	29.129
703.00	33.333
703.32	34.311
703.64	28.249
703.96	32.464
704.28	33.436
704.60	31.746
704.91	29.968
705.23	32.226
705.55	40.989
705.87	32.130
706.19	32.593
706.51	31.959
706.83	36.334
707.15	28.972
707.47	32.213
707.79	32.292
708.11	35.750
708.43	33.250
708.74	34.625
709.06	36.338
709.38	33.945
709.70	32.544
710.02	31.529
710.34	34.056
710.66	30.128
710.98	32.781
711.29	35.738
711.61	34.237
711.93	33.876
712.25	34.708
712.57	34.066
712.89	35.075
713.20	34.602
713.52	34.495
713.84	29.693
714.16	32.302
714.48	34.839
714.80	33.013
715.11	35.562
715.43	31.348
715.75	34.333
716.07	30.897
716.39	30.872
716.70	32.841
717.02	29.771
717.34	30.769
717.66	33.628
717.97	33.478
718.29	33.891
718.61	34.646
718.93	33.333
719.24	34.601
719.56	34.940
719.88	33.333
720.20	35.606
720.51	32.950
720.83	34.363
721.15	36.975
721.46	33.871
721.78	25.692
722.10	28.996
722.42	30.290
722.73	34.694
723.05	37.143
723.37	36.017
723.68	37.387
724.00	33.761
724.32	24.444
724.63	29.545
724.95	32.314
725.27	31.336
725.58	33.898
725.90	31.349
726.22	32.819
726.53	34.915
726.85	34.457
727.16	35.849
727.48	30.769
727.80	28.745
728.11	33.475
728.43	28.235
728.74	29.839
729.06	35.600
729.38	36.466
729.69	34.661
730.01	32.308
730.32	35.448
730.64	33.922
730.96	31.321
731.27	34.000
731.59	37.966
731.90	33.439
732.22	36.593
732.53	36.213
732.85	36.170
733.16	38.047
733.48	34.173
733.80	32.246
734.11	34.915
734.43	34.708
734.74	33.636
735.06	37.459
735.37	40.181
735.69	36.364
736.00	34.843
736.32	33.557
736.63	31.690
736.95	36.177
737.26	36.299
737.58	31.879
737.89	39.927
738.21	33.459
738.52	35.802
738.83	36.245
739.15	34.498
739.46	38.189
739.78	31.868
740.09	38.889
740.41	41.304
740.72	31.102
741.04	34.818
741.35	36.596
741.66	29.858
741.98	35.204
742.29	33.663
742.61	34.555
742.92	30.806
743.23	31.944
743.55	35.747
743.86	33.493
744.18	29.187
744.49	30.319
744.80	33.152
745.12	38.503
745.43	32.683
745.74	38.542
746.06	38.537
746.37	32.984
746.68	34.597
747.00	29.787
747.31	41.791
747.62	32.524
747.94	34.450
748.25	34.653
748.56	38.798
748.88	36.126
749.19	36.702
749.50	37.438
749.82	33.019
750.13	32.110
750.44	38.722
750.75	39.179
751.07	41.971
751.38	36.782
751.69	30.588
752.01	34.496
752.32	37.052
752.63	37.154
752.94	31.466
753.26	40.586
753.57	30.769
753.88	34.071
754.19	32.917
754.51	37.603
754.82	39.676
755.13	39.167
755.44	37.500
755.75	41.797
756.07	40.467
756.38	37.358
756.69	32.950
757.00	34.000
757.31	36.601
757.63	36.280
757.94	33.056
758.25	37.534
758.56	36.170
758.87	34.844
759.18	36.137
759.50	34.182
759.81	37.124
760.12	40.000
760.43	36.970
760.74	37.963
761.05	37.231
761.36	35.795
761.67	40.606
761.99	42.857
762.30	31.273
762.61	39.526
762.92	34.389
763.23	31.982
763.54	38.318
763.85	34.746
764.16	35.270
764.47	40.323
764.78	38.095
765.10	36.364
765.41	36.593
765.72	35.238
766.03	37.594
766.34	37.591
766.65	37.450
766.96	37.374
767.27	33.511
767.58	35.632
767.89	31.915
768.20	28.977
768.51	37.912
768.82	37.931
769.13	35.023
769.44	35.193
769.75	31.963
770.06	35.776
770.37	37.500
770.68	34.518
770.99	39.367
771.30	38.235
771.61	38.914
771.92	41.810
772.23	42.857
772.54	44.624
772.85	35.802
773.16	34.831
773.47	45.098
773.78	44.444
774.09	37.725
774.39	31.333
774.70	29.299
775.01	39.310
775.32	37.857
775.63	42.149
775.94	39.695
776.25	33.858
776.56	35.833
776.87	42.308
777.18	33.333
777.48	31.034
777.79	30.435
778.10	26.667
778.41	33.333
778.72	28.571
779.03	47.368
779.34	35.461
779.65	40.411
779.95	39.726
780.26	36.552
780.57	28.455
780.88	40.945
781.19	39.655
781.50	37.209
781.80	40.828
782.11	34.591
782.42	46.154
782.73	31.655
783.04	40.000
783.34	41.667
783.65	24.786
783.96	37.705
784.27	41.379
784.57	34.146
784.88	39.063
785.19	45.000
785.50	51.000
785.81	35.345
786.11	37.069
786.42	36.893
786.73	46.364
787.04	36.735
787.34	33.929
787.65	39.048
787.96	39.823
788.26	40.000
788.57	28.205
788.88	43.750
789.19	42.857
789.49	36.522
789.80	33.673
790.11	25.253
790.41	29.091
790.72	40.217
791.03	36.364
791.33	51.250
791.64	51.250
791.95	25.581
792.25	41.489
792.56	40.449
792.87	43.836
793.17	42.029
793.48	24.000
793.79	33.750
794.09	57.500
794.40	35.849
794.70	47.573
795.01	34.959
795.32	34.188
795.62	36.190
795.93	38.235
796.23	52.830
796.54	40.625
796.85	41.176
797.15	42.254
797.46	44.444
797.76	48.485
798.07	30.233
798.37	32.895
798.68	22.727
798.99	37.037
799.29	51.429
799.60	30.435
799.90	53.333
800.21	49.180
800.51	41.538
800.82	40.678
801.12	50.725
801.43	45.902
801.73	39.683
802.04	38.000
802.34	16.418
802.65	34.615
802.95	32.143
803.26	42.308
803.56	31.373
803.87	23.913
804.17	38.667
804.48	38.095
804.78	27.778
805.09	34.783
805.39	24.444
805.70	46.296
806.00	0.000
806.30	29.577
806.61	35.714
806.91	41.667
807.22	43.421
807.52	53.333
807.83	32.727
808.13	41.667
808.43	54.412
808.74	40.299
809.04	38.983
809.35	30.769
809.65	37.500
809.95	29.730
810.26	20.455
810.56	41.096
810.86	23.810
811.17	40.000
811.47	40.816
811.77	28.947
812.08	27.273
812.38	30.189
812.69	60.000
812.99	51.515
813.29	42.105
813.59	22.857
813.90	34.091
814.20	28.205
814.50	40.385
814.81	58.491
815.11	19.149
815.41	61.017
815.72	38.095
816.02	45.098
816.32	27.083
816.62	48.780
816.93	27.027
817.23	48.571
817.53	62.500
817.84	47.826
818.14	46.154
818.44	26.316
818.74	39.130
819.04	10.000
819.35	43.243
819.65	50.000
819.95	36.111
820.25	33.333
820.56	45.000
820.86	0.000
821.16	62.500
821.46	31.915
821.76	47.500
822.07	51.163
822.37	35.135
822.67	18.750
822.97	64.286
823.27	25.000
823.57	48.000
823.88	40.741
824.18	71.429
824.48	64.706
824.78	3.226
825.08	34.783
825.38	27.273
825.69	37.500
825.99	42.105
826.29	33.333
826.59	0.000
826.89	9.524
827.19	52.174
827.49	17.500
827.79	42.857
828.09	35.714
828.39	27.273
828.70	37.838
829.00	53.571
829.30	42.857
829.60	50.000
829.90	0.000
830.20	23.684
830.50	14.815
830.80	21.739
831.10	77.273
831.40	75.758
831.70	61.290
832.00	76.190
832.30	19.048
832.60	166.667
832.90	3.448
833.20	50.000
833.50	48.485
833.80	62.963
834.10	73.077
834.40	50.000
834.70	44.444
835.00	63.158
835.30	76.923
835.60	93.333
835.90	41.935
836.20	59.091
836.50	53.571
836.80	-7.692
837.10	53.571
837.40	66.667
837.70	81.818
838.00	18.182
838.30	39.130
838.60	7.692
838.90	59.091
839.19	10.714
839.49	110.000
839.79	130.769
840.09	0.000
840.39	35.714
840.69	21.429
840.99	30.769
841.29	-5.263
841.59	-80.000
841.88	36.364
842.18	80.000
842.48	18.750
842.78	66.667
843.08	48.148
843.38	20.000
843.68	52.174
843.97	93.333
844.27	26.667
844.57	40.000
844.87	16.667
845.17	9.524
845.47	46.667
845.76	42.857
846.06	76.471
846.36	50.000
846.66	100.000
846.96	26.667
847.25	50.000
847.55	71.429
847.85	-75.000
848.15	13.636
848.44	-166.667
848.74	100.000
849.04	22.222
849.34	54.545
849.63	-16.667
849.93	-80.000
850.23	44.444
850.53	70.000
850.82	38.462
851.12	22.222
851.42	0.000
851.71	19.231
852.01	71.429
852.31	-25.000
852.61	0.000
852.90	60.000
853.20	110.526
853.50	50.000
853.79	47.826
854.09	66.667
854.39	47.368
854.68	41.667
854.98	51.613
855.28	53.846
855.57	70.000
855.87	83.333
856.17	74.074
856.46	85.714
856.76	40.000
857.05	188.889
857.35	48.000
857.65	0.000
857.94	46.154
858.24	68.966
858.53	94.444
858.83	62.963
859.13	27.273
859.42	30.435
859.72	-75.000
860.01	-133.333
860.31	76.000
860.60	57.143
860.90	200.000
861.20	53.333
861.49	-300.000
861.79	20.000
862.08	20.000
862.38	66.667
862.67	20.000
862.97	0.000
863.26	125.000
863.56	105.556
863.85	-233.333
864.15	77.778
864.44	20.000
864.74	121.429
865.03	175.000
865.33	60.000
865.62	183.333
865.92	66.667
866.21	-166.667
866.51	93.750
866.80	-27.273
867.10	-50.000
867.39	50.000
867.69	0.000
867.98	38.462
868.27	166.667
868.57	40.000
868.86	38.889
869.16	7.692
869.45	93.333
869.75	200.000
870.04	0.000
870.33	28.571
870.63	80.952
870.92	-0.000
871.22	-60.000
871.51	-400.000
871.80	122.222
872.10	200.000
>>>>>End Processed Spectral Data<<<<<
