SpectraSuite Data File
++++++++++++++++++++++++++++++++++++
Date: Fri May 15 17:11:17 PDT 2015
User: schluterlab
Dark Spectrum Present: Yes
Reference Spectrum Present: Yes
Number of Sampled Component Spectra: 1
Spectrometers: USB2E3373
Integration Time (usec): 3000 (USB2E3373)
Spectra Averaged: 3 (USB2E3373)
Boxcar Smoothing: 0 (USB2E3373)
Correct for Electrical Dark: No (USB2E3373)
Strobe/Lamp Enabled: No (USB2E3373)
Correct for Detector Non-linearity: No (USB2E3373)
Correct for Stray Light: No (USB2E3373)
Number of Pixels in Processed Spectrum: 2048
>>>>>Begin Processed Spectral Data<<<<<
178.53	0.000
178.91	0.000
179.29	75.000
179.67	0.000
180.04	-42.857
180.42	50.000
180.80	200.000
181.18	-66.667
181.56	-50.000
181.94	100.000
182.31	-200.000
182.69	140.000
183.07	266.667
183.45	120.000
183.83	-66.667
184.20	81.818
184.58	-33.333
184.96	-250.000
185.34	-66.667
185.72	-250.000
186.09	-7.692
186.47	100.000
186.85	33.333
187.23	77.778
187.61	-700.000
187.98	0.000
188.36	33.333
188.74	-166.667
189.12	70.588
189.49	83.333
189.87	0.000
190.25	78.571
190.63	400.000
191.00	166.667
191.38	63.158
191.76	550.000
192.14	-300.000
192.51	400.000
192.89	44.444
193.27	71.429
193.65	100.000
194.02	100.000
194.40	30.000
194.78	37.500
195.15	-41.667
195.53	-112.500
195.91	-0.000
196.29	100.000
196.66	92.308
197.04	14.286
197.42	-44.444
197.79	-233.333
198.17	-30.769
198.55	1100.000
198.92	-66.667
199.30	700.000
199.68	60.000
200.05	0.000
200.43	0.000
200.81	100.000
201.18	100.000
201.56	400.000
201.94	300.000
202.31	66.667
202.69	-160.000
203.07	-50.000
203.44	1100.000
203.82	0.000
204.19	100.000
204.57	-300.000
204.95	-75.000
205.32	100.000
205.70	57.143
206.08	25.000
206.45	211.111
206.83	164.286
207.20	0.000
207.58	200.000
207.96	-133.333
208.33	-60.000
208.71	225.000
209.08	-216.667
209.46	-300.000
209.84	40.000
210.21	200.000
210.59	157.143
210.96	216.667
211.34	-75.000
211.71	106.667
212.09	-85.714
212.46	-500.000
212.84	0.000
213.22	50.000
213.59	-50.000
213.97	15.385
214.34	100.000
214.72	-83.333
215.09	175.000
215.47	69.231
215.84	54.545
216.22	166.667
216.59	-75.000
216.97	550.000
217.34	175.000
217.72	40.000
218.09	62.500
218.47	25.000
218.84	-500.000
219.22	-55.556
219.59	160.000
219.97	33.333
220.34	175.000
220.72	-28.571
221.09	-125.000
221.47	250.000
221.84	-150.000
222.22	-650.000
222.59	72.727
222.97	66.667
223.34	100.000
223.72	7.143
224.09	14.286
224.46	21.429
224.84	166.667
225.21	20.000
225.59	33.333
225.96	-150.000
226.34	150.000
226.71	-171.429
227.08	133.333
227.46	112.500
227.83	-550.000
228.21	100.000
228.58	63.636
228.95	137.500
229.33	50.000
229.70	68.750
230.08	0.000
230.45	-71.429
230.82	142.857
231.20	20.000
231.57	92.857
231.95	14.286
232.32	-50.000
232.69	21.429
233.07	433.333
233.44	-100.000
233.81	30.000
234.19	100.000
234.56	-17.647
234.93	-250.000
235.31	200.000
235.68	-220.000
236.05	38.462
236.43	-40.000
236.80	52.941
237.17	37.500
237.55	20.000
237.92	14.815
238.29	41.667
238.67	26.667
239.04	23.529
239.41	-2.439
239.79	40.000
240.16	29.268
240.53	26.316
240.91	28.261
241.28	28.571
241.65	51.786
242.02	45.205
242.40	18.333
242.77	57.627
243.14	25.758
243.51	25.000
243.89	28.736
244.26	29.885
244.63	22.619
245.00	15.464
245.38	25.773
245.75	8.989
246.12	20.690
246.49	23.967
246.87	28.846
247.24	21.008
247.61	20.175
247.98	21.951
248.36	28.125
248.73	21.711
249.10	26.623
249.47	18.354
249.84	24.837
250.22	24.118
250.59	25.490
250.96	27.230
251.33	19.186
251.70	24.118
252.08	29.949
252.45	19.802
252.82	23.618
253.19	28.571
253.56	18.224
253.94	28.829
254.31	24.348
254.68	27.632
255.05	19.291
255.42	25.764
255.79	20.463
256.16	25.292
256.54	22.761
256.91	21.673
257.28	22.677
257.65	20.974
258.02	21.277
258.39	25.589
258.76	29.670
259.14	24.585
259.51	26.214
259.88	24.399
260.25	24.510
260.62	25.000
260.99	22.034
261.36	18.151
261.73	25.633
262.10	27.356
262.47	22.699
262.85	23.197
263.22	22.769
263.59	23.053
263.96	27.950
264.33	25.152
264.70	24.405
265.07	22.917
265.44	25.212
265.81	22.599
266.18	24.590
266.55	25.707
266.92	23.057
267.29	22.715
267.66	23.785
268.03	28.534
268.40	24.282
268.77	26.738
269.14	23.261
269.51	26.478
269.88	21.945
270.25	21.429
270.62	24.146
270.99	24.297
271.36	24.205
271.73	22.066
272.10	25.547
272.47	26.005
272.84	25.990
273.21	23.666
273.58	25.542
273.95	27.002
274.32	21.247
274.69	22.851
275.06	25.000
275.43	20.862
275.80	21.192
276.17	19.540
276.54	22.698
276.91	21.272
277.28	24.891
277.65	22.934
278.02	22.553
278.39	23.632
278.76	23.690
279.13	21.162
279.50	23.529
279.87	24.838
280.23	21.505
280.60	25.146
280.97	24.646
281.34	21.346
281.71	24.435
282.08	23.926
282.45	21.526
282.82	20.077
283.19	22.824
283.56	25.048
283.92	20.493
284.29	20.962
284.66	21.318
285.03	19.450
285.40	22.117
285.77	19.332
286.14	24.188
286.51	21.402
286.87	21.755
287.24	20.258
287.61	20.811
287.98	23.684
288.35	19.064
288.72	21.366
289.08	19.444
289.45	21.441
289.82	19.755
290.19	20.307
290.56	20.412
290.93	18.855
291.29	18.798
291.66	20.472
292.03	20.096
292.40	18.226
292.77	19.458
293.13	16.883
293.50	15.175
293.87	19.084
294.24	19.629
294.60	18.033
294.97	17.708
295.34	16.871
295.71	17.735
296.08	16.891
296.44	14.936
296.81	19.583
297.18	17.391
297.55	18.022
297.91	17.671
298.28	17.810
298.65	18.589
299.02	16.442
299.38	15.048
299.75	17.241
300.12	15.969
300.48	16.601
300.85	15.336
301.22	17.143
301.59	16.974
301.95	17.595
302.32	16.991
302.69	15.920
303.05	14.975
303.42	16.065
303.79	16.706
304.15	17.204
304.52	14.982
304.89	15.322
305.25	14.286
305.62	14.236
305.99	14.737
306.35	15.260
306.72	14.848
307.09	16.648
307.45	14.466
307.82	15.972
308.19	15.215
308.55	16.031
308.92	16.013
309.29	15.196
309.65	14.962
310.02	14.411
310.38	16.026
310.75	15.519
311.12	15.285
311.48	13.786
311.85	14.031
312.22	13.608
312.58	15.817
312.95	13.234
313.31	15.114
313.68	15.183
314.05	13.571
314.41	13.918
314.78	14.433
315.14	14.697
315.51	15.839
315.87	14.344
316.24	15.875
316.61	16.043
316.97	14.583
317.34	15.723
317.70	14.818
318.07	14.808
318.43	15.294
318.80	14.299
319.16	15.039
319.53	15.290
319.89	14.862
320.26	14.575
320.62	15.045
320.99	14.405
321.35	13.977
321.72	15.680
322.08	15.609
322.45	17.157
322.81	16.798
323.18	15.309
323.54	14.865
323.91	15.190
324.27	16.113
324.64	15.262
325.00	16.606
325.37	16.988
325.73	14.415
326.10	14.714
326.46	16.413
326.83	17.323
327.19	16.129
327.56	16.768
327.92	16.989
328.29	16.250
328.65	16.981
329.01	17.004
329.38	18.249
329.74	16.619
330.11	17.146
330.47	17.811
330.84	16.442
331.20	17.490
331.56	17.500
331.93	17.534
332.29	16.407
332.66	17.557
333.02	17.100
333.38	17.782
333.75	17.674
334.11	18.084
334.48	16.954
334.84	17.857
335.20	17.475
335.57	17.498
335.93	17.886
336.29	18.692
336.66	17.802
337.02	17.100
337.38	17.593
337.75	16.818
338.11	17.313
338.47	18.796
338.84	17.468
339.20	18.373
339.56	18.257
339.93	17.368
340.29	18.807
340.65	17.832
341.02	18.085
341.38	18.142
341.74	17.756
342.11	16.984
342.47	17.438
342.83	17.128
343.20	18.728
343.56	17.652
343.92	18.866
344.28	18.446
344.65	17.444
345.01	18.237
345.37	18.082
345.73	18.410
346.10	18.723
346.46	17.830
346.82	18.085
347.19	16.625
347.55	18.129
347.91	18.447
348.27	18.593
348.63	18.484
349.00	18.294
349.36	17.706
349.72	18.740
350.08	18.852
350.45	17.638
350.81	17.857
351.17	17.997
351.53	19.184
351.89	17.589
352.26	16.960
352.62	19.274
352.98	17.671
353.34	18.438
353.70	18.447
354.07	19.032
354.43	18.014
354.79	18.910
355.15	19.365
355.51	18.829
355.87	18.204
356.24	17.945
356.60	18.674
356.96	18.889
357.32	18.371
357.68	17.670
358.04	18.255
358.40	18.730
358.77	19.458
359.13	18.495
359.49	18.721
359.85	18.643
360.21	19.219
360.57	18.669
360.93	18.457
361.29	18.731
361.66	19.436
362.02	20.076
362.38	19.802
362.74	19.001
363.10	19.263
363.46	19.199
363.82	19.835
364.18	18.819
364.54	18.971
364.90	19.068
365.26	19.651
365.62	20.292
365.98	19.721
366.35	20.320
366.71	20.325
367.07	20.392
367.43	19.914
367.79	19.929
368.15	20.603
368.51	19.592
368.87	19.311
369.23	18.773
369.59	19.971
369.95	20.455
370.31	20.882
370.67	19.851
371.03	19.866
371.39	20.058
371.75	19.853
372.11	20.685
372.47	20.266
372.83	21.008
373.19	20.114
373.55	20.217
373.91	20.302
374.27	21.049
374.63	21.321
374.99	20.567
375.35	20.125
375.71	21.469
376.07	20.576
376.42	20.612
376.78	21.074
377.14	21.124
377.50	21.514
377.86	20.549
378.22	21.442
378.58	21.282
378.94	20.227
379.30	21.709
379.66	21.630
380.02	21.582
380.38	21.546
380.74	20.766
381.09	22.209
381.45	21.651
381.81	22.702
382.17	22.018
382.53	21.549
382.89	21.846
383.25	22.900
383.61	23.476
383.97	22.413
384.32	22.452
384.68	23.096
385.04	22.917
385.40	22.402
385.76	24.906
386.12	22.962
386.48	22.989
386.83	23.145
387.19	23.260
387.55	24.090
387.91	22.800
388.27	23.077
388.62	23.411
388.98	23.880
389.34	24.172
389.70	24.425
390.06	23.537
390.42	24.482
390.77	23.741
391.13	23.834
391.49	24.386
391.85	24.756
392.20	24.231
392.56	24.348
392.92	23.899
393.28	25.000
393.64	23.844
393.99	25.768
394.35	24.921
394.71	25.479
395.07	24.639
395.42	24.651
395.78	25.472
396.14	25.536
396.50	25.872
396.85	25.306
397.21	26.754
397.57	25.016
397.92	25.704
398.28	25.862
398.64	25.602
399.00	25.564
399.35	24.605
399.71	24.986
400.07	25.816
400.42	25.887
400.78	25.903
401.14	25.771
401.49	26.444
401.85	25.655
402.21	25.843
402.57	26.187
402.92	25.659
403.28	26.566
403.63	26.103
403.99	25.638
404.35	26.733
404.70	26.131
405.06	25.382
405.42	26.476
405.77	25.915
406.13	26.019
406.49	26.465
406.84	25.917
407.20	26.249
407.55	25.628
407.91	26.136
408.27	26.322
408.62	27.323
408.98	26.309
409.34	27.385
409.69	26.292
410.05	26.539
410.40	26.543
410.76	27.805
411.11	27.375
411.47	27.942
411.83	26.742
412.18	27.992
412.54	26.904
412.89	27.155
413.25	27.076
413.60	27.453
413.96	27.546
414.31	27.195
414.67	27.518
415.03	27.430
415.38	26.697
415.74	26.775
416.09	27.498
416.45	28.427
416.80	27.429
417.16	28.246
417.51	27.648
417.87	27.966
418.22	28.174
418.58	27.023
418.93	28.589
419.29	26.825
419.64	28.775
420.00	29.345
420.35	28.418
420.71	28.858
421.06	28.115
421.42	28.486
421.77	28.844
422.12	28.207
422.48	27.721
422.83	29.408
423.19	28.781
423.54	29.101
423.90	28.504
424.25	29.736
424.61	29.437
424.96	29.268
425.31	28.827
425.67	29.167
426.02	29.800
426.38	29.618
426.73	30.448
427.09	30.190
427.44	29.235
427.79	28.580
428.15	30.036
428.50	29.861
428.85	29.054
429.21	30.447
429.56	30.243
429.92	30.971
430.27	29.524
430.62	29.692
430.98	30.308
431.33	30.967
431.68	30.926
432.04	30.184
432.39	30.006
432.74	30.006
433.10	31.897
433.45	30.645
433.80	30.818
434.16	30.028
434.51	30.645
434.86	31.591
435.22	31.352
435.57	32.564
435.92	31.497
436.28	31.544
436.63	32.059
436.98	31.170
437.34	30.732
437.69	31.783
438.04	31.282
438.39	31.277
438.75	31.208
439.10	31.919
439.45	32.319
439.81	32.049
440.16	32.067
440.51	32.299
440.86	34.320
441.22	31.561
441.57	32.395
441.92	32.634
442.27	32.262
442.63	32.173
442.98	32.280
443.33	31.998
443.68	31.936
444.03	33.135
444.39	33.153
444.74	33.501
445.09	33.519
445.44	33.675
445.79	34.244
446.15	32.214
446.50	32.224
446.85	33.262
447.20	33.472
447.55	33.650
447.91	33.277
448.26	32.499
448.61	33.506
448.96	33.276
449.31	33.815
449.66	33.391
450.02	33.371
450.37	33.906
450.72	32.761
451.07	34.177
451.42	32.834
451.77	33.032
452.12	32.775
452.47	33.870
452.83	33.333
453.18	33.080
453.53	34.513
453.88	33.212
454.23	33.805
454.58	34.131
454.93	33.441
455.28	32.635
455.63	33.044
455.98	33.373
456.34	33.653
456.69	33.863
457.04	35.035
457.39	33.597
457.74	32.769
458.09	32.313
458.44	32.885
458.79	34.174
459.14	33.753
459.49	33.851
459.84	33.051
460.19	33.556
460.54	33.435
460.89	32.841
461.24	32.484
461.59	33.135
461.94	33.019
462.29	34.198
462.64	34.352
462.99	34.056
463.34	33.449
463.69	33.462
464.04	32.990
464.39	33.414
464.74	32.454
465.09	33.874
465.44	32.718
465.79	32.880
466.14	33.466
466.49	33.755
466.84	33.789
467.19	33.980
467.54	33.653
467.89	33.165
468.24	33.759
468.59	34.095
468.94	33.460
469.29	32.984
469.64	34.381
469.99	33.917
470.34	33.311
470.68	34.154
471.03	34.253
471.38	34.237
471.73	33.964
472.08	33.039
472.43	33.154
472.78	32.625
473.13	33.197
473.48	33.746
473.83	33.437
474.17	34.132
474.52	34.014
474.87	33.152
475.22	33.069
475.57	33.258
475.92	33.790
476.27	33.702
476.61	33.565
476.96	32.683
477.31	34.721
477.66	33.596
478.01	32.678
478.36	33.115
478.70	34.638
479.05	33.516
479.40	33.386
479.75	33.003
480.10	33.077
480.45	33.650
480.79	33.635
481.14	33.607
481.49	33.596
481.84	33.398
482.19	33.255
482.53	32.854
482.88	33.365
483.23	32.678
483.58	34.245
483.92	32.720
484.27	32.589
484.62	33.035
484.97	33.043
485.31	32.551
485.66	31.730
486.01	31.860
486.36	31.864
486.70	32.162
487.05	32.633
487.40	32.730
487.75	33.746
488.09	33.375
488.44	33.872
488.79	33.545
489.13	33.494
489.48	33.433
489.83	33.229
490.17	33.213
490.52	32.933
490.87	33.364
491.22	33.763
491.56	32.306
491.91	32.122
492.26	33.738
492.60	32.965
492.95	33.743
493.30	32.926
493.64	33.055
493.99	33.382
494.34	33.398
494.68	33.286
495.03	32.555
495.37	32.630
495.72	33.417
496.07	33.610
496.41	33.066
496.76	32.842
497.11	32.510
497.45	33.365
497.80	34.208
498.14	32.538
498.49	33.062
498.84	33.633
499.18	33.032
499.53	33.284
499.87	32.296
500.22	33.086
500.56	33.232
500.91	33.384
501.26	32.724
501.60	32.514
501.95	33.721
502.29	32.785
502.64	33.253
502.98	33.004
503.33	32.085
503.67	33.205
504.02	33.382
504.36	33.647
504.71	32.071
505.06	32.964
505.40	33.147
505.75	33.505
506.09	33.300
506.44	34.702
506.78	33.265
507.13	32.937
507.47	32.950
507.82	33.974
508.16	32.964
508.51	33.736
508.85	33.543
509.19	33.103
509.54	32.815
509.88	32.309
510.23	34.104
510.57	33.191
510.92	33.529
511.26	33.061
511.61	33.773
511.95	33.151
512.30	33.703
512.64	34.224
512.98	33.071
513.33	33.632
513.67	33.314
514.02	34.954
514.36	34.514
514.70	34.907
515.05	35.370
515.39	33.884
515.74	35.090
516.08	34.250
516.42	34.393
516.77	34.523
517.11	34.599
517.46	34.650
517.80	34.088
518.14	34.354
518.49	32.873
518.83	34.083
519.17	33.899
519.52	33.333
519.86	33.673
520.20	35.176
520.55	33.834
520.89	33.877
521.23	33.882
521.58	34.574
521.92	34.936
522.26	34.288
522.61	34.156
522.95	35.298
523.29	34.371
523.64	35.070
523.98	33.830
524.32	35.180
524.66	34.699
525.01	34.610
525.35	34.413
525.69	35.219
526.04	34.987
526.38	35.149
526.72	34.925
527.06	34.825
527.41	34.894
527.75	33.646
528.09	35.150
528.43	35.989
528.78	34.983
529.12	35.806
529.46	34.893
529.80	34.452
530.15	36.106
530.49	35.354
530.83	34.952
531.17	34.587
531.51	36.320
531.86	34.398
532.20	35.282
532.54	35.739
532.88	35.866
533.22	34.812
533.57	34.993
533.91	35.052
534.25	36.133
534.59	34.702
534.93	34.298
535.27	33.629
535.62	34.997
535.96	34.834
536.30	36.082
536.64	35.768
536.98	35.470
537.32	36.344
537.66	36.746
538.01	35.315
538.35	35.229
538.69	35.286
539.03	34.723
539.37	35.195
539.71	35.787
540.05	35.506
540.39	36.427
540.73	34.798
541.07	36.257
541.42	36.559
541.76	35.582
542.10	35.444
542.44	35.650
542.78	35.100
543.12	36.264
543.46	35.675
543.80	36.294
544.14	33.378
544.48	35.710
544.82	36.364
545.16	36.066
545.50	35.514
545.84	36.756
546.18	36.596
546.52	36.482
546.86	36.449
547.20	36.409
547.54	34.064
547.88	36.073
548.22	35.503
548.56	35.686
548.90	36.119
549.24	36.157
549.58	36.530
549.92	36.312
550.26	36.484
550.60	36.580
550.94	36.370
551.28	36.476
551.62	36.615
551.96	36.466
552.30	36.696
552.64	35.966
552.98	36.217
553.32	37.019
553.66	35.994
554.00	36.861
554.34	38.035
554.68	36.578
555.02	36.533
555.36	36.051
555.69	36.557
556.03	35.617
556.37	36.228
556.71	36.679
557.05	37.286
557.39	35.539
557.73	36.807
558.07	38.009
558.41	37.136
558.75	37.880
559.08	37.352
559.42	36.508
559.76	37.630
560.10	36.544
560.44	36.858
560.78	35.594
561.12	38.152
561.45	36.753
561.79	37.955
562.13	37.331
562.47	37.842
562.81	37.032
563.15	36.812
563.48	37.977
563.82	37.886
564.16	37.187
564.50	36.622
564.84	36.212
565.17	37.022
565.51	37.295
565.85	37.174
566.19	37.865
566.52	37.668
566.86	37.725
567.20	36.550
567.54	36.983
567.88	37.434
568.21	37.613
568.55	37.120
568.89	37.320
569.23	37.025
569.56	36.602
569.90	36.460
570.24	35.728
570.57	36.800
570.91	36.494
571.25	35.613
571.59	34.600
571.92	35.200
572.26	36.021
572.60	35.690
572.93	35.268
573.27	35.423
573.61	36.217
573.95	35.527
574.28	35.567
574.62	35.342
574.96	35.403
575.29	34.831
575.63	34.802
575.97	35.050
576.30	35.311
576.64	34.675
576.98	35.238
577.31	35.562
577.65	35.872
577.98	35.228
578.32	35.078
578.66	35.031
578.99	35.517
579.33	35.099
579.67	35.352
580.00	35.266
580.34	35.995
580.67	35.880
581.01	36.095
581.35	35.637
581.68	35.800
582.02	35.456
582.35	35.710
582.69	35.294
583.02	35.463
583.36	36.669
583.70	36.968
584.03	37.503
584.37	38.142
584.70	37.170
585.04	35.311
585.37	36.388
585.71	36.707
586.04	35.981
586.38	36.730
586.72	36.987
587.05	37.348
587.39	37.210
587.72	37.944
588.06	37.365
588.39	36.913
588.73	37.576
589.06	38.291
589.40	38.092
589.73	38.919
590.07	39.124
590.40	38.080
590.73	39.333
591.07	39.525
591.40	38.691
591.74	38.733
592.07	39.425
592.41	39.443
592.74	38.630
593.08	36.570
593.41	37.759
593.75	37.161
594.08	37.762
594.41	38.501
594.75	38.626
595.08	38.063
595.42	39.308
595.75	39.467
596.09	38.898
596.42	39.810
596.75	39.920
597.09	39.544
597.42	39.070
597.75	39.579
598.09	38.479
598.42	38.357
598.76	39.683
599.09	39.343
599.42	37.742
599.76	38.676
600.09	38.198
600.42	38.893
600.76	37.816
601.09	38.321
601.42	38.621
601.76	39.182
602.09	39.356
602.42	40.059
602.76	40.365
603.09	39.535
603.42	40.552
603.76	38.508
604.09	39.247
604.42	39.382
604.76	41.121
605.09	39.899
605.42	39.007
605.75	39.711
606.09	39.788
606.42	39.366
606.75	39.351
607.09	40.220
607.42	39.034
607.75	39.254
608.08	39.668
608.42	39.744
608.75	40.337
609.08	39.960
609.41	40.102
609.75	40.827
610.08	40.639
610.41	39.034
610.74	39.590
611.07	40.465
611.41	41.775
611.74	41.471
612.07	40.525
612.40	41.138
612.73	40.452
613.07	41.226
613.40	40.700
613.73	40.907
614.06	40.679
614.39	40.271
614.72	40.280
615.06	39.888
615.39	40.175
615.72	39.666
616.05	41.006
616.38	40.798
616.71	40.612
617.05	41.878
617.38	41.106
617.71	41.950
618.04	42.667
618.37	42.119
618.70	41.386
619.03	43.194
619.36	40.666
619.69	42.381
620.03	43.170
620.36	41.845
620.69	40.828
621.02	42.125
621.35	43.817
621.68	43.537
622.01	42.750
622.34	41.740
622.67	42.744
623.00	42.113
623.33	42.530
623.66	40.763
623.99	43.343
624.32	43.346
624.65	42.105
624.99	42.739
625.32	42.911
625.65	43.284
625.98	44.803
626.31	43.142
626.64	43.068
626.97	45.026
627.30	43.608
627.63	44.194
627.96	44.295
628.29	44.126
628.62	45.231
628.95	44.890
629.28	44.758
629.61	44.467
629.94	44.575
630.26	44.565
630.59	45.786
630.92	45.846
631.25	42.974
631.58	45.595
631.91	44.298
632.24	43.693
632.57	45.682
632.90	44.365
633.23	44.235
633.56	47.355
633.89	46.609
634.22	46.667
634.55	45.616
634.88	44.317
635.20	46.282
635.53	46.133
635.86	45.774
636.19	46.442
636.52	46.429
636.85	46.650
637.18	46.918
637.51	45.660
637.83	46.386
638.16	47.613
638.49	45.640
638.82	47.237
639.15	47.897
639.48	48.418
639.81	48.396
640.13	47.908
640.46	45.918
640.79	47.275
641.12	46.677
641.45	47.297
641.77	48.444
642.10	50.079
642.43	46.785
642.76	48.680
643.09	49.273
643.41	47.087
643.74	49.094
644.07	50.411
644.40	49.831
644.73	49.562
645.05	47.651
645.38	48.501
645.71	48.404
646.04	50.090
646.36	49.645
646.69	48.741
647.02	52.174
647.35	51.119
647.67	48.080
648.00	52.239
648.33	50.341
648.66	46.610
648.98	46.064
649.31	46.281
649.64	48.823
649.96	46.191
650.29	49.063
650.62	51.282
650.94	50.741
651.27	48.603
651.60	47.748
651.92	47.203
652.25	48.135
652.58	46.167
652.90	49.571
653.23	49.244
653.56	45.178
653.88	46.907
654.21	47.285
654.54	47.878
654.86	48.557
655.19	46.053
655.52	45.511
655.84	39.985
656.17	44.426
656.49	60.684
656.82	64.310
657.15	50.234
657.47	38.285
657.80	29.013
658.13	28.676
658.45	45.435
658.78	46.447
659.10	46.605
659.43	47.957
659.75	49.581
660.08	48.345
660.41	51.073
660.73	52.762
661.06	52.860
661.38	49.315
661.71	45.996
662.03	51.502
662.36	52.527
662.68	48.451
663.01	53.712
663.33	51.740
663.66	49.070
663.98	52.558
664.31	49.254
664.63	48.848
664.96	46.957
665.28	47.682
665.61	47.835
665.93	51.957
666.26	50.976
666.58	48.770
666.91	51.294
667.23	53.066
667.56	49.526
667.88	51.559
668.21	52.983
668.53	52.482
668.86	52.830
669.18	51.887
669.50	48.426
669.83	48.837
670.15	51.282
670.48	52.153
670.80	50.230
671.13	51.454
671.45	46.575
671.77	48.712
672.10	47.921
672.42	49.438
672.75	50.622
673.07	52.236
673.39	51.927
673.72	48.126
674.04	47.917
674.37	51.059
674.69	49.679
675.01	50.889
675.34	52.027
675.66	50.000
675.98	50.998
676.31	50.000
676.63	53.444
676.95	49.545
677.28	55.529
677.60	53.494
677.92	47.706
678.25	49.891
678.57	49.784
678.89	48.739
679.22	48.770
679.54	47.791
679.86	47.117
680.18	51.068
680.51	50.379
680.83	50.895
681.15	48.800
681.48	55.123
681.80	51.860
682.12	49.395
682.44	48.117
682.77	51.656
683.09	50.572
683.41	49.091
683.73	51.382
684.06	52.434
684.38	48.817
684.70	51.198
685.02	48.963
685.34	48.024
685.67	50.469
685.99	48.644
686.31	47.788
686.63	49.351
686.96	46.578
687.28	47.273
687.60	48.669
687.92	51.717
688.24	52.016
688.56	50.655
688.89	52.009
689.21	51.111
689.53	51.740
689.85	52.791
690.17	50.446
690.49	52.009
690.82	53.155
691.14	50.000
691.46	50.234
691.78	50.450
692.10	51.613
692.42	49.351
692.74	48.932
693.06	49.775
693.39	47.964
693.71	45.701
694.03	49.654
694.35	54.206
694.67	52.525
694.99	49.086
695.31	50.653
695.63	50.750
695.95	50.000
696.27	51.295
696.59	52.222
696.91	51.541
697.23	51.928
697.56	51.485
697.88	50.753
698.20	49.431
698.52	52.706
698.84	47.368
699.16	48.750
699.48	49.373
699.80	50.620
700.12	53.908
700.44	53.782
700.76	49.128
701.08	50.303
701.40	53.916
701.72	56.790
702.04	57.096
702.36	55.184
702.68	55.255
703.00	51.515
703.32	53.079
703.64	49.718
703.96	51.594
704.28	49.693
704.60	53.333
704.91	49.211
705.23	52.159
705.55	56.184
705.87	52.708
706.19	58.148
706.51	51.203
706.83	55.949
707.15	49.221
707.47	53.221
707.79	51.823
708.11	49.250
708.43	51.500
708.74	49.612
709.06	57.746
709.38	57.187
709.70	52.071
710.02	53.185
710.34	51.084
710.66	50.641
710.98	51.987
711.29	50.820
711.61	59.661
711.93	52.769
712.25	57.388
712.57	56.044
712.89	53.731
713.20	54.671
713.52	55.401
713.84	50.853
714.16	56.357
714.48	52.581
714.80	51.923
715.11	55.927
715.43	51.411
715.75	50.667
716.07	49.502
716.39	52.013
716.70	48.708
717.02	52.672
717.34	55.870
717.66	54.867
717.97	49.130
718.29	57.741
718.61	58.268
718.93	51.550
719.24	53.612
719.56	52.610
719.88	50.172
720.20	49.621
720.51	51.724
720.83	55.212
721.15	54.202
721.46	46.774
721.78	52.174
722.10	50.558
722.42	51.037
722.73	54.694
723.05	58.776
723.37	57.627
723.68	58.559
724.00	55.556
724.32	52.444
724.63	58.182
724.95	55.459
725.27	58.525
725.58	58.051
725.90	51.190
726.22	52.896
726.53	51.525
726.85	51.685
727.16	54.717
727.48	51.012
727.80	52.227
728.11	55.508
728.43	53.725
728.74	47.984
729.06	51.200
729.38	58.647
729.69	54.183
730.01	46.154
730.32	54.851
730.64	54.770
730.96	54.340
731.27	52.000
731.59	51.525
731.90	53.503
732.22	50.473
732.53	52.824
732.85	50.355
733.16	54.545
733.48	54.676
733.80	52.899
734.11	52.203
734.43	53.608
734.74	50.606
735.06	51.140
735.37	50.453
735.69	55.219
736.00	57.143
736.32	51.007
736.63	54.577
736.95	51.877
737.26	48.043
737.58	47.651
737.89	53.114
738.21	56.015
738.52	50.617
738.83	55.459
739.15	50.218
739.46	51.575
739.78	45.421
740.09	48.366
740.41	49.638
740.72	47.244
741.04	56.275
741.35	49.362
741.66	52.133
741.98	56.633
742.29	53.960
742.61	55.497
742.92	51.659
743.23	46.296
743.55	52.036
743.86	50.718
744.18	49.282
744.49	56.915
744.80	48.913
745.12	63.636
745.43	48.780
745.74	57.812
746.06	52.195
746.37	58.115
746.68	57.346
747.00	54.787
747.31	54.229
747.62	50.000
747.94	58.852
748.25	52.475
748.56	59.563
748.88	60.733
749.19	60.638
749.50	53.695
749.82	48.113
750.13	55.505
750.44	56.767
750.75	51.493
751.07	54.380
751.38	55.556
751.69	49.804
752.01	55.814
752.32	52.590
752.63	54.150
752.94	56.897
753.26	60.251
753.57	54.299
753.88	58.407
754.19	53.333
754.51	50.000
754.82	51.417
755.13	55.833
755.44	48.387
755.75	51.172
756.07	50.973
756.38	53.208
756.69	50.958
757.00	49.000
757.31	53.595
757.63	50.915
757.94	45.833
758.25	46.027
758.56	49.202
758.87	48.442
759.18	48.598
759.50	50.545
759.81	53.846
760.12	51.613
760.43	46.970
760.74	50.926
761.05	50.769
761.36	48.864
761.67	51.818
761.99	51.020
762.30	50.909
762.61	52.174
762.92	48.869
763.23	50.901
763.54	50.935
763.85	52.542
764.16	51.037
764.47	51.613
764.78	47.253
765.10	55.892
765.41	49.527
765.72	47.937
766.03	53.008
766.34	48.175
766.65	56.574
766.96	56.061
767.27	54.787
767.58	50.575
767.89	60.993
768.20	54.545
768.51	48.901
768.82	47.783
769.13	50.230
769.44	51.502
769.75	54.795
770.06	47.845
770.37	52.404
770.68	54.822
770.99	53.394
771.30	53.922
771.61	60.181
771.92	52.155
772.23	58.621
772.54	48.925
772.85	47.531
773.16	51.124
773.47	66.013
773.78	58.824
774.09	52.695
774.39	48.000
774.70	55.414
775.01	64.828
775.32	52.857
775.63	53.719
775.94	51.908
776.25	54.331
776.56	55.000
776.87	51.923
777.18	51.282
777.48	49.138
777.79	60.870
778.10	40.952
778.41	56.757
778.72	53.968
779.03	60.902
779.34	50.355
779.65	56.164
779.95	54.795
780.26	54.483
780.57	47.967
780.88	50.394
781.19	61.207
781.50	48.837
781.80	49.112
782.11	49.057
782.42	60.769
782.73	59.712
783.04	48.889
783.34	54.167
783.65	49.573
783.96	54.918
784.27	47.586
784.57	50.407
784.88	57.813
785.19	57.000
785.50	68.000
785.81	62.931
786.11	56.034
786.42	54.369
786.73	63.636
787.04	50.000
787.34	54.464
787.65	64.762
787.96	48.673
788.26	60.000
788.57	52.991
788.88	54.688
789.19	48.413
789.49	48.696
789.80	59.184
790.11	55.556
790.41	32.727
790.72	57.609
791.03	61.364
791.33	61.250
791.64	46.250
791.95	47.674
792.25	65.957
792.56	56.180
792.87	67.123
793.17	43.478
793.48	53.333
793.79	45.000
794.09	63.750
794.40	46.226
794.70	72.816
795.01	43.902
795.32	53.846
795.62	51.429
795.93	56.863
796.23	60.377
796.54	50.000
796.85	70.588
797.15	49.296
797.46	44.444
797.76	63.636
798.07	47.674
798.37	48.684
798.68	51.515
798.99	60.494
799.29	64.286
799.60	65.217
799.90	62.667
800.21	70.492
800.51	60.000
800.82	67.797
801.12	46.377
801.43	60.656
801.73	53.968
802.04	70.000
802.34	44.776
802.65	67.308
802.95	69.643
803.26	42.308
803.56	76.471
803.87	58.696
804.17	60.000
804.48	60.317
804.78	51.852
805.09	41.304
805.39	68.889
805.70	35.185
806.00	38.596
806.30	54.930
806.61	50.000
806.91	51.389
807.22	65.789
807.52	52.000
807.83	41.818
808.13	47.222
808.43	51.471
808.74	50.746
809.04	49.153
809.35	67.308
809.65	40.625
809.95	78.378
810.26	50.000
810.56	36.986
810.86	64.286
811.17	46.000
811.47	79.592
811.77	57.895
812.08	63.636
812.38	50.943
812.69	27.500
812.99	66.667
813.29	60.526
813.59	40.000
813.90	43.182
814.20	56.410
814.50	78.846
814.81	54.717
815.11	44.681
815.41	64.407
815.72	66.667
816.02	45.098
816.32	39.583
816.62	41.463
816.93	56.757
817.23	0.000
817.53	64.583
817.84	30.435
818.14	51.923
818.44	28.947
818.74	76.087
819.04	32.500
819.35	56.757
819.65	70.588
819.95	50.000
820.25	45.238
820.56	55.000
820.86	17.241
821.16	80.000
821.46	65.957
821.76	80.000
822.07	53.488
822.37	51.351
822.67	62.500
822.97	88.095
823.27	64.286
823.57	56.000
823.88	33.333
824.18	64.286
824.48	67.647
824.78	45.161
825.08	95.652
825.38	42.424
825.69	12.500
825.99	42.105
826.29	58.333
826.59	160.000
826.89	23.810
827.19	45.652
827.49	65.000
827.79	91.429
828.09	64.286
828.39	57.576
828.70	94.595
829.00	75.000
829.30	42.857
829.60	103.333
829.90	28.125
830.20	47.368
830.50	44.444
830.80	39.130
831.10	50.000
831.40	87.879
831.70	51.613
832.00	76.190
832.30	42.857
832.60	100.000
832.90	17.241
833.20	55.000
833.50	60.606
833.80	44.444
834.10	76.923
834.40	62.500
834.70	55.556
835.00	84.211
835.30	73.077
835.60	93.333
835.90	109.677
836.20	63.636
836.50	53.571
836.80	7.692
837.10	25.000
837.40	-33.333
837.70	36.364
838.00	100.000
838.30	52.174
838.60	46.154
838.90	18.182
839.19	21.429
839.49	53.333
839.79	69.231
840.09	-50.000
840.39	50.000
840.69	50.000
840.99	0.000
841.29	21.053
841.59	50.000
841.88	81.818
842.18	40.000
842.48	106.250
842.78	93.333
843.08	62.963
843.38	0.000
843.68	56.522
843.97	86.667
844.27	60.000
844.57	40.000
844.87	33.333
845.17	14.286
845.47	73.333
845.76	61.905
846.06	82.353
846.36	150.000
846.66	85.714
846.96	106.667
847.25	162.500
847.55	85.714
847.85	12.500
848.15	22.727
848.44	133.333
848.74	80.000
849.04	96.296
849.34	145.455
849.63	-50.000
849.93	-20.000
850.23	-5.556
850.53	130.000
850.82	15.385
851.12	88.889
851.42	86.667
851.71	30.769
852.01	64.286
852.31	150.000
852.61	36.364
852.90	65.000
853.20	52.632
853.50	141.667
853.79	52.174
854.09	79.167
854.39	52.632
854.68	66.667
854.98	38.710
855.28	15.385
855.57	40.000
855.87	72.222
856.17	81.481
856.46	128.571
856.76	13.333
857.05	100.000
857.35	60.000
857.65	27.778
857.94	53.846
858.24	48.276
858.53	100.000
858.83	33.333
859.13	68.182
859.42	73.913
859.72	150.000
860.01	-133.333
860.31	36.000
860.60	9.524
860.90	300.000
861.20	13.333
861.49	400.000
861.79	0.000
862.08	-5.000
862.38	86.667
862.67	-140.000
862.97	0.000
863.26	50.000
863.56	38.889
863.85	-300.000
864.15	55.556
864.44	60.000
864.74	64.286
865.03	50.000
865.33	80.000
865.62	216.667
865.92	41.667
866.21	33.333
866.51	106.250
866.80	18.182
867.10	600.000
867.39	116.667
867.69	0.000
867.98	30.769
868.27	-166.667
868.57	86.667
868.86	44.444
869.16	-7.692
869.45	66.667
869.75	-1400.000
870.04	0.000
870.33	14.286
870.63	66.667
870.92	66.667
871.22	-140.000
871.51	300.000
871.80	200.000
872.10	33.333
>>>>>End Processed Spectral Data<<<<<
