SpectraSuite Data File
++++++++++++++++++++++++++++++++++++
Date: Fri May 15 17:18:47 PDT 2015
User: schluterlab
Dark Spectrum Present: Yes
Reference Spectrum Present: Yes
Number of Sampled Component Spectra: 1
Spectrometers: USB2E3373
Integration Time (usec): 3000 (USB2E3373)
Spectra Averaged: 3 (USB2E3373)
Boxcar Smoothing: 0 (USB2E3373)
Correct for Electrical Dark: No (USB2E3373)
Strobe/Lamp Enabled: No (USB2E3373)
Correct for Detector Non-linearity: No (USB2E3373)
Correct for Stray Light: No (USB2E3373)
Number of Pixels in Processed Spectrum: 2048
>>>>>Begin Processed Spectral Data<<<<<
178.53	0.000
178.91	0.000
179.29	100.000
179.67	-50.000
180.04	-57.143
180.42	250.000
180.80	500.000
181.18	-200.000
181.56	50.000
181.94	250.000
182.31	-300.000
182.69	240.000
183.07	166.667
183.45	20.000
183.83	-33.333
184.20	36.364
184.58	144.444
184.96	-150.000
185.34	-400.000
185.72	-200.000
186.09	23.077
186.47	100.000
186.85	33.333
187.23	-22.222
187.61	-400.000
187.98	-100.000
188.36	111.111
188.74	-133.333
189.12	47.059
189.49	55.556
189.87	0.000
190.25	107.143
190.63	500.000
191.00	266.667
191.38	21.053
191.76	900.000
192.14	-125.000
192.51	400.000
192.89	-22.222
193.27	42.857
193.65	-33.333
194.02	81.818
194.40	0.000
194.78	-50.000
195.15	-8.333
195.53	112.500
195.91	-0.000
196.29	25.000
196.66	30.769
197.04	114.286
197.42	-77.778
197.79	-533.333
198.17	-53.846
198.55	1100.000
198.92	-66.667
199.30	600.000
199.68	20.000
200.05	-200.000
200.43	0.000
200.81	166.667
201.18	200.000
201.56	1200.000
201.94	50.000
202.31	-66.667
202.69	40.000
203.07	-0.000
203.44	1200.000
203.82	0.000
204.19	57.143
204.57	-400.000
204.95	62.500
205.32	150.000
205.70	57.143
206.08	275.000
206.45	277.778
206.83	107.143
207.20	0.000
207.58	-800.000
207.96	66.667
208.33	100.000
208.71	150.000
209.08	-16.667
209.46	100.000
209.84	60.000
210.21	-300.000
210.59	185.714
210.96	66.667
211.34	175.000
211.71	106.667
212.09	71.429
212.46	-900.000
212.84	0.000
213.22	80.000
213.59	-150.000
213.97	69.231
214.34	27.273
214.72	83.333
215.09	375.000
215.47	69.231
215.84	36.364
216.22	-133.333
216.59	162.500
216.97	450.000
217.34	75.000
217.72	-120.000
218.09	100.000
218.47	75.000
218.84	700.000
219.22	44.444
219.59	-100.000
219.97	100.000
220.34	-75.000
220.72	14.286
221.09	-50.000
221.47	300.000
221.84	100.000
222.22	-400.000
222.59	9.091
222.97	141.667
223.34	433.333
223.72	0.000
224.09	28.571
224.46	14.286
224.84	233.333
225.21	20.000
225.59	53.333
225.96	250.000
226.34	125.000
226.71	28.571
227.08	0.000
227.46	12.500
227.83	-400.000
228.21	-22.222
228.58	109.091
228.95	100.000
229.33	10.000
229.70	112.500
230.08	12.500
230.45	0.000
230.82	71.429
231.20	40.000
231.57	128.571
231.95	114.286
232.32	30.000
232.69	64.286
233.07	366.667
233.44	160.000
233.81	-60.000
234.19	-44.444
234.56	23.529
234.93	150.000
235.31	0.000
235.68	-100.000
236.05	-15.385
236.43	75.000
236.80	5.882
237.17	43.750
237.55	15.000
237.92	-3.704
238.29	41.667
238.67	20.000
239.04	8.824
239.41	0.000
239.79	-26.667
240.16	36.585
240.53	28.947
240.91	2.174
241.28	23.810
241.65	37.500
242.02	26.027
242.40	18.333
242.77	16.949
243.14	7.576
243.51	12.500
243.89	25.287
244.26	19.540
244.63	11.905
245.00	6.186
245.38	13.402
245.75	-2.247
246.12	9.483
246.49	12.397
246.87	27.885
247.24	12.605
247.61	6.140
247.98	8.943
248.36	15.000
248.73	9.868
249.10	3.247
249.47	13.924
249.84	11.765
250.22	12.353
250.59	13.725
250.96	14.554
251.33	7.558
251.70	11.765
252.08	9.645
252.45	10.396
252.82	14.070
253.19	11.521
253.56	9.346
253.94	11.712
254.31	13.913
254.68	10.526
255.05	10.236
255.42	11.354
255.79	10.425
256.16	10.895
256.54	13.060
256.91	9.506
257.28	13.011
257.65	9.738
258.02	8.511
258.39	11.111
258.76	11.355
259.14	12.292
259.51	8.091
259.88	9.622
260.25	11.765
260.62	8.333
260.99	7.797
261.36	9.932
261.73	6.962
262.10	11.246
262.47	9.816
262.85	13.480
263.22	10.154
263.59	13.084
263.96	13.665
264.33	6.667
264.70	13.095
265.07	9.524
265.44	8.782
265.81	10.169
266.18	8.470
266.55	12.596
266.92	11.658
267.29	10.966
267.66	11.253
268.03	9.686
268.40	10.966
268.77	10.695
269.14	11.031
269.51	11.054
269.88	10.474
270.25	9.949
270.62	10.000
270.99	9.719
271.36	11.002
271.73	10.329
272.10	8.516
272.47	11.584
272.84	7.178
273.21	12.065
273.58	9.639
273.95	11.670
274.32	7.390
274.69	8.371
275.06	11.384
275.43	9.070
275.80	10.155
276.17	12.644
276.54	10.707
276.91	11.404
277.28	7.860
277.65	7.025
278.02	9.574
278.39	10.722
278.76	6.709
279.13	8.299
279.50	9.454
279.87	11.015
280.23	7.957
280.60	10.526
280.97	8.687
281.34	9.423
281.71	12.526
282.08	11.043
282.45	10.568
282.82	10.425
283.19	8.511
283.56	9.634
283.92	9.867
284.29	10.192
284.66	9.302
285.03	7.269
285.40	9.263
285.77	10.193
286.14	7.401
286.51	10.886
286.87	8.044
287.24	6.077
287.61	8.289
287.98	10.702
288.35	8.839
288.72	9.982
289.08	7.118
289.45	9.842
289.82	8.741
290.19	9.044
290.56	8.233
290.93	9.091
291.29	8.166
291.66	10.236
292.03	8.134
292.40	7.097
292.77	9.250
293.13	7.143
293.50	6.980
293.87	7.328
294.24	7.883
294.60	7.004
294.97	7.887
295.34	7.515
295.71	7.004
296.08	7.474
296.44	6.686
296.81	8.056
297.18	7.391
297.55	8.672
297.91	7.671
298.28	9.235
298.65	7.056
299.02	6.469
299.38	4.514
299.75	6.069
300.12	6.545
300.48	6.588
300.85	8.492
301.22	7.143
301.59	6.053
301.95	7.468
302.32	7.523
302.69	7.338
303.05	7.178
303.42	6.974
303.79	8.411
304.15	8.244
304.52	5.351
304.89	6.316
305.25	7.748
305.62	6.418
305.99	5.848
306.35	6.821
306.72	5.399
307.09	7.982
307.45	7.577
307.82	5.440
308.19	7.549
308.55	6.761
308.92	7.081
309.29	6.369
309.65	6.674
310.02	7.041
310.38	7.355
310.75	6.448
311.12	6.889
311.48	6.469
311.85	6.702
312.22	5.485
312.58	5.839
312.95	6.190
313.31	6.729
313.68	6.597
314.05	7.347
314.41	7.216
314.78	6.186
315.14	7.400
315.51	8.282
315.87	6.557
316.24	9.201
316.61	7.283
316.97	7.937
317.34	7.031
317.70	7.648
318.07	8.173
318.43	7.647
318.80	8.428
319.16	8.594
319.53	9.022
319.89	8.071
320.26	9.312
320.62	9.529
320.99	7.933
321.35	9.044
321.72	9.242
322.08	8.661
322.45	9.848
322.81	9.823
323.18	9.421
323.54	11.004
323.91	9.737
324.27	11.328
324.64	12.734
325.00	11.861
325.37	12.397
325.73	10.698
326.10	12.171
326.46	12.287
326.83	12.861
327.19	12.206
327.56	12.598
327.92	12.236
328.29	12.589
328.65	12.453
329.01	13.327
329.38	13.088
329.74	12.370
330.11	14.087
330.47	14.193
330.84	12.308
331.20	14.544
331.56	13.333
331.93	13.790
332.29	15.124
332.66	12.941
333.02	14.777
333.38	14.299
333.75	14.377
334.11	13.518
334.48	15.050
334.84	14.835
335.20	13.998
335.57	13.146
335.93	14.634
336.29	15.285
336.66	14.623
337.02	14.684
337.38	14.074
337.75	15.091
338.11	15.059
338.47	15.420
338.84	15.712
339.20	15.356
339.56	14.771
339.93	14.503
340.29	15.229
340.65	14.964
341.02	14.273
341.38	13.363
341.74	13.428
342.11	14.385
342.47	14.680
342.83	14.533
343.20	13.415
343.56	13.826
343.92	14.615
344.28	15.030
344.65	14.680
345.01	13.137
345.37	14.214
345.73	15.732
346.10	15.531
346.46	15.475
346.82	14.321
347.19	13.549
347.55	14.703
347.91	14.968
348.27	13.662
348.63	14.566
349.00	13.946
349.36	13.882
349.72	14.262
350.08	13.361
350.45	14.924
350.81	13.123
351.17	13.436
351.53	14.449
351.89	13.955
352.26	13.120
352.62	15.645
352.98	14.940
353.34	14.412
353.70	14.401
354.07	14.677
354.43	14.171
354.79	13.625
355.15	14.921
355.51	13.845
355.87	14.239
356.24	13.703
356.60	14.147
356.96	14.286
357.32	13.978
357.68	13.370
358.04	14.055
358.40	14.309
358.77	14.115
359.13	13.131
359.49	13.790
359.85	14.509
360.21	14.593
360.57	13.772
360.93	14.523
361.29	13.822
361.66	13.636
362.02	15.227
362.38	14.242
362.74	13.853
363.10	13.770
363.46	14.678
363.82	15.026
364.18	13.875
364.54	13.603
364.90	13.477
365.26	13.901
365.62	15.547
365.98	14.296
366.35	14.567
366.71	14.043
367.07	15.239
367.43	13.587
367.79	15.194
368.15	14.860
368.51	14.421
368.87	13.783
369.23	14.224
369.59	13.703
369.95	15.103
370.31	15.029
370.67	14.254
371.03	13.966
371.39	14.150
371.75	14.505
372.11	15.264
372.47	15.754
372.83	15.046
373.19	15.264
373.55	15.379
373.91	14.543
374.27	15.096
374.63	14.860
374.99	14.326
375.35	15.599
375.71	14.545
376.07	14.396
376.42	14.218
376.78	15.772
377.14	15.098
377.50	14.542
377.86	15.930
378.22	14.742
378.58	14.423
378.94	16.005
379.30	15.471
379.66	15.110
380.02	15.267
380.38	15.094
380.74	15.440
381.09	16.196
381.45	15.413
381.81	15.731
382.17	15.292
382.53	15.178
382.89	15.443
383.25	15.868
383.61	16.646
383.97	15.429
384.32	15.510
384.68	16.161
385.04	14.645
385.40	15.059
385.76	16.730
386.12	16.947
386.48	17.114
386.83	16.107
387.19	16.484
387.55	17.315
387.91	16.993
388.27	16.056
388.62	17.055
388.98	15.777
389.34	16.552
389.70	16.594
390.06	16.866
390.42	16.321
390.77	16.939
391.13	16.393
391.49	15.847
391.85	16.439
392.20	17.012
392.56	16.910
392.92	16.970
393.28	16.981
393.64	16.517
393.99	17.806
394.35	16.698
394.71	17.944
395.07	17.096
395.42	17.001
395.78	16.743
396.14	17.339
396.50	17.311
396.85	17.772
397.21	17.607
397.57	17.367
397.92	17.675
398.28	17.529
398.64	16.928
399.00	18.284
399.35	16.479
399.71	17.519
400.07	17.412
400.42	17.136
400.78	17.269
401.14	18.149
401.49	18.106
401.85	17.124
402.21	17.349
402.57	18.000
402.92	17.064
403.28	18.045
403.63	17.024
403.99	17.219
404.35	18.114
404.70	17.917
405.06	17.450
405.42	18.521
405.77	16.967
406.13	17.753
406.49	16.933
406.84	18.643
407.20	17.881
407.55	17.321
407.91	17.045
408.27	16.953
408.62	18.523
408.98	18.238
409.34	18.401
409.69	17.377
410.05	17.426
410.40	18.025
410.76	18.456
411.11	18.312
411.47	18.738
411.83	17.577
412.18	18.275
412.54	17.416
412.89	17.672
413.25	17.329
413.60	18.261
413.96	18.098
414.31	18.598
414.67	18.473
415.03	18.176
415.38	18.211
415.74	18.111
416.09	18.942
416.45	18.569
416.80	18.242
417.16	19.130
417.51	19.187
417.87	18.774
418.22	18.135
418.58	18.729
418.93	19.310
419.29	17.350
419.64	17.887
420.00	20.025
420.35	18.687
420.71	18.712
421.06	19.030
421.42	18.450
421.77	18.902
422.12	18.161
422.48	18.950
422.83	18.445
423.19	19.526
423.54	18.460
423.90	19.317
424.25	18.829
424.61	19.033
424.96	19.396
425.31	20.104
425.67	20.188
426.02	19.729
426.38	19.912
426.73	19.915
427.09	20.633
427.44	19.824
427.79	19.859
428.15	20.449
428.50	19.261
428.85	19.472
429.21	20.034
429.56	20.270
429.92	19.979
430.27	19.348
430.62	19.812
430.98	19.798
431.33	20.347
431.68	19.990
432.04	20.514
432.39	20.137
432.74	20.325
433.10	21.207
433.45	20.370
433.80	20.546
434.16	20.000
434.51	20.753
434.86	20.964
435.22	20.808
435.57	21.210
435.92	21.198
436.28	21.228
436.63	20.707
436.98	20.394
437.34	21.113
437.69	22.004
438.04	20.798
438.39	21.197
438.75	21.676
439.10	22.015
439.45	22.033
439.81	21.346
440.16	22.506
440.51	22.448
440.86	22.840
441.22	22.568
441.57	21.523
441.92	22.823
442.27	21.563
442.63	22.323
442.98	22.114
443.33	21.981
443.68	21.910
444.03	22.404
444.39	22.381
444.74	23.188
445.09	22.216
445.44	22.678
445.79	23.105
446.15	22.742
446.50	22.185
446.85	23.486
447.20	22.680
447.55	23.605
447.91	23.181
448.26	22.937
448.61	23.431
448.96	23.121
449.31	22.601
449.66	22.822
450.02	23.274
450.37	23.355
450.72	23.654
451.07	24.494
451.42	23.408
451.77	23.267
452.12	22.907
452.47	23.632
452.83	23.852
453.18	24.858
453.53	24.589
453.88	24.529
454.23	24.339
454.58	24.811
454.93	24.742
455.28	24.063
455.63	24.737
455.98	25.556
456.34	24.521
456.69	24.524
457.04	24.890
457.39	24.423
457.74	24.365
458.09	25.250
458.44	25.219
458.79	24.146
459.14	25.057
459.49	25.075
459.84	24.873
460.19	24.757
460.54	25.978
460.89	25.170
461.24	24.534
461.59	25.831
461.94	25.472
462.29	26.055
462.64	26.379
462.99	25.863
463.34	26.078
463.69	26.190
464.04	25.666
464.39	25.773
464.74	25.890
465.09	27.261
465.44	26.890
465.79	25.567
466.14	25.428
466.49	25.187
466.84	26.294
467.19	26.471
467.54	25.862
467.89	26.342
468.24	26.277
468.59	27.492
468.94	26.730
469.29	27.607
469.64	28.230
469.99	28.031
470.34	26.280
470.68	28.039
471.03	27.672
471.38	28.031
471.73	28.151
472.08	28.358
472.43	27.383
472.78	27.005
473.13	27.143
473.48	27.427
473.83	27.833
474.17	27.785
474.52	28.462
474.87	28.364
475.22	27.700
475.57	27.668
475.92	28.524
476.27	28.231
476.61	29.225
476.96	27.775
477.31	28.231
477.66	28.315
478.01	28.467
478.36	28.105
478.70	28.983
479.05	28.297
479.40	29.094
479.75	28.259
480.10	28.930
480.45	28.450
480.79	29.154
481.14	28.996
481.49	28.670
481.84	27.992
482.19	28.438
482.53	28.921
482.88	28.926
483.23	28.407
483.58	28.726
483.92	28.509
484.27	29.490
484.62	28.732
484.97	28.109
485.31	27.601
485.66	26.303
486.01	26.753
486.36	26.139
486.70	26.324
487.05	27.027
487.40	27.249
487.75	28.028
488.09	28.245
488.44	27.820
488.79	28.129
489.13	29.247
489.48	29.414
489.83	29.327
490.17	29.483
490.52	30.300
490.87	29.616
491.22	30.898
491.56	30.028
491.91	30.210
492.26	30.287
492.60	29.607
492.95	31.481
493.30	30.484
493.64	30.992
493.99	30.821
494.34	30.874
494.68	30.857
495.03	30.024
495.37	31.011
495.72	30.389
496.07	30.878
496.41	30.236
496.76	30.677
497.11	30.834
497.45	30.644
497.80	31.786
498.14	31.644
498.49	31.437
498.84	31.337
499.18	31.627
499.53	31.845
499.87	30.107
500.22	31.850
500.56	32.224
500.91	31.928
501.26	32.081
501.60	30.694
501.95	31.198
502.29	30.993
502.64	31.564
502.98	32.166
503.33	31.316
503.67	31.470
504.02	32.600
504.36	32.509
504.71	31.919
505.06	31.454
505.40	32.132
505.75	33.144
506.09	32.489
506.44	32.957
506.78	32.398
507.13	33.040
507.47	32.585
507.82	32.318
508.16	33.862
508.51	32.529
508.85	33.595
509.19	32.624
509.54	33.619
509.88	33.172
510.23	33.513
510.57	34.527
510.92	32.409
511.26	33.606
511.61	33.828
511.95	33.589
512.30	34.978
512.64	34.001
512.98	33.970
513.33	34.247
513.67	34.849
514.02	35.355
514.36	35.429
514.70	36.364
515.05	36.486
515.39	35.419
515.74	36.048
516.08	35.923
516.42	36.278
516.77	36.630
517.11	35.430
517.46	36.146
517.80	36.055
518.14	35.762
518.49	35.517
518.83	36.087
519.17	36.082
519.52	35.228
519.86	35.714
520.20	36.209
520.55	35.397
520.89	37.829
521.23	36.795
521.58	37.666
521.92	36.923
522.26	37.541
522.61	38.052
522.95	37.682
523.29	36.722
523.64	37.802
523.98	38.950
524.32	36.662
524.66	37.964
525.01	38.442
525.35	37.200
525.69	36.835
526.04	37.169
526.38	39.105
526.72	36.887
527.06	37.030
527.41	38.259
527.75	36.729
528.09	38.870
528.43	38.825
528.78	37.426
529.12	38.968
529.46	38.077
529.80	36.985
530.15	38.152
530.49	37.508
530.83	38.782
531.17	37.273
531.51	38.509
531.86	37.390
532.20	38.065
532.54	37.713
532.88	38.398
533.22	38.172
533.57	37.680
533.91	38.185
534.25	38.346
534.59	37.267
534.93	37.508
535.27	37.690
535.62	37.071
535.96	37.052
536.30	38.061
536.64	38.663
536.98	37.840
537.32	38.691
537.66	38.149
538.01	37.832
538.35	38.350
538.69	38.149
539.03	38.072
539.37	38.022
539.71	37.696
540.05	37.950
540.39	39.266
540.73	38.354
541.07	39.157
541.42	38.642
541.76	38.266
542.10	38.266
542.44	38.846
542.78	36.339
543.12	38.736
543.46	39.638
543.80	38.723
544.14	36.782
544.48	37.775
544.82	38.209
545.16	38.456
545.50	37.650
545.84	38.598
546.18	39.220
546.52	37.924
546.86	39.396
547.20	38.340
547.54	37.597
547.88	37.976
548.22	37.804
548.56	38.193
548.90	38.747
549.24	37.948
549.58	38.717
549.92	38.599
550.26	37.656
550.60	39.331
550.94	38.312
551.28	39.799
551.62	40.154
551.96	39.098
552.30	38.596
552.64	37.094
552.98	38.608
553.32	37.589
553.66	38.171
554.00	38.686
554.34	38.035
554.68	38.422
555.02	40.253
555.36	38.743
555.69	38.901
556.03	37.687
556.37	37.936
556.71	38.773
557.05	39.821
557.39	38.141
557.73	38.306
558.07	39.744
558.41	38.438
558.75	39.595
559.08	39.086
559.42	40.159
559.76	39.311
560.10	38.532
560.44	39.464
560.78	38.671
561.12	37.588
561.45	38.651
561.79	38.655
562.13	38.467
562.47	36.475
562.81	39.121
563.15	37.870
563.48	37.553
563.82	39.190
564.16	38.092
564.50	36.959
564.84	37.282
565.17	36.553
565.51	39.139
565.85	38.134
566.19	37.401
566.52	38.338
566.86	38.046
567.20	36.737
567.54	35.766
567.88	37.727
568.21	37.613
568.55	35.815
568.89	36.396
569.23	34.617
569.56	34.807
569.90	34.389
570.24	33.234
570.57	34.000
570.91	32.659
571.25	32.095
571.59	32.295
571.92	31.259
572.26	32.156
572.60	32.310
572.93	31.346
573.27	31.254
573.61	31.444
573.95	31.158
574.28	30.747
574.62	30.562
574.96	30.965
575.29	30.666
575.63	29.930
575.97	30.930
576.30	31.094
576.64	30.066
576.98	31.094
577.31	30.769
577.65	30.115
577.98	29.628
578.32	29.593
578.66	29.658
578.99	29.574
579.33	29.953
579.67	30.280
580.00	30.101
580.34	30.299
580.67	30.069
581.01	29.851
581.35	29.587
581.68	28.853
582.02	29.106
582.35	29.322
582.69	29.899
583.02	29.759
583.36	29.998
583.70	30.945
584.03	31.387
584.37	31.649
584.70	30.659
585.04	30.233
585.37	29.681
585.71	30.264
586.04	29.476
586.38	30.248
586.72	30.502
587.05	30.907
587.39	30.389
587.72	31.247
588.06	31.110
588.39	30.704
588.73	31.074
589.06	31.735
589.40	31.352
589.73	32.092
590.07	32.515
590.40	31.347
590.73	33.114
591.07	32.358
591.40	32.947
591.74	32.986
592.07	32.699
592.41	32.553
592.74	31.382
593.08	31.016
593.41	30.939
593.75	30.880
594.08	30.690
594.41	31.077
594.75	31.107
595.08	31.290
595.42	31.137
595.75	30.980
596.09	31.744
596.42	31.955
596.75	32.149
597.09	32.437
597.42	32.069
597.75	32.158
598.09	32.187
598.42	32.401
598.76	31.231
599.09	31.170
599.42	30.693
599.76	31.377
600.09	31.071
600.42	30.819
600.76	29.978
601.09	30.687
601.42	30.513
601.76	30.885
602.09	31.807
602.42	31.550
602.76	31.494
603.09	31.229
603.42	31.814
603.76	30.847
604.09	31.227
604.42	32.107
604.76	32.132
605.09	31.764
605.42	32.144
605.75	30.604
606.09	31.380
606.42	30.942
606.75	30.346
607.09	31.648
607.42	31.280
607.75	31.128
608.08	30.458
608.42	31.201
608.75	32.482
609.08	31.639
609.41	32.386
609.75	31.200
610.08	31.653
610.41	31.208
610.74	32.082
611.07	31.163
611.41	32.278
611.74	33.049
612.07	31.531
612.40	32.495
612.73	32.429
613.07	31.496
613.40	32.768
613.73	33.016
614.06	33.222
614.39	32.092
614.72	32.381
615.06	32.235
615.39	30.731
615.72	31.970
616.05	32.626
616.38	32.422
616.71	33.333
617.05	32.366
617.38	33.187
617.71	32.453
618.04	31.619
618.37	34.174
618.70	33.729
619.03	35.625
619.36	33.357
619.69	35.406
620.03	34.843
620.36	34.406
620.69	34.118
621.02	35.015
621.35	35.768
621.68	36.650
622.01	35.333
622.34	35.595
622.67	34.858
623.00	35.299
623.33	34.909
623.66	33.508
623.99	33.888
624.32	34.601
624.65	33.835
624.99	34.011
625.32	34.117
625.65	35.114
625.98	34.972
626.31	35.495
626.64	36.482
626.97	35.689
627.30	35.902
627.63	36.049
627.96	35.130
628.29	35.985
628.62	37.070
628.95	36.874
629.28	37.097
629.61	37.488
629.94	36.852
630.26	37.253
630.59	38.398
630.92	36.923
631.25	35.487
631.58	36.784
631.91	36.952
632.24	37.500
632.57	39.659
632.90	39.620
633.23	38.588
633.56	40.050
633.89	39.457
634.22	41.358
634.55	38.374
634.88	38.570
635.20	39.359
635.53	40.533
635.86	38.622
636.19	40.362
636.52	38.265
636.85	37.345
637.18	37.610
637.51	38.994
637.83	38.239
638.16	41.064
638.49	38.965
638.82	39.868
639.15	38.399
639.48	39.065
639.81	38.354
640.13	39.827
640.46	39.650
640.79	40.353
641.12	39.734
641.45	40.090
641.77	42.222
642.10	40.442
642.43	40.514
642.76	41.419
643.09	41.519
643.41	39.968
643.74	40.527
644.07	40.394
644.40	42.736
644.73	41.331
645.05	40.772
645.38	41.446
645.71	40.780
646.04	42.190
646.36	40.248
646.69	42.626
647.02	44.234
647.35	38.060
647.67	41.316
648.00	43.657
648.33	41.297
648.66	40.000
648.98	40.201
649.31	39.504
649.64	38.462
649.96	38.412
650.29	41.227
650.62	40.171
650.94	40.000
651.27	41.527
651.60	41.261
651.92	40.734
652.25	38.899
652.58	39.000
652.90	43.053
653.23	37.143
653.56	37.394
653.88	38.832
654.21	38.704
654.54	37.012
654.86	40.917
655.19	34.357
655.52	29.644
655.84	23.741
656.17	26.007
656.49	35.607
656.82	37.905
657.15	29.301
657.47	21.949
657.80	16.530
658.13	16.508
658.45	26.139
658.78	26.451
659.10	27.189
659.43	27.776
659.75	29.896
660.08	31.862
660.41	34.219
660.73	35.635
661.06	37.782
661.38	39.530
661.71	36.961
662.03	44.421
662.36	41.319
662.68	39.823
663.01	41.485
663.33	40.603
663.66	37.674
663.98	43.023
664.31	41.791
664.63	38.710
664.96	37.609
665.28	35.762
665.61	40.693
665.93	42.174
666.26	37.744
666.58	38.255
666.91	38.353
667.23	44.811
667.56	42.654
667.88	45.324
668.21	42.243
668.53	42.553
668.86	43.632
669.18	38.679
669.50	41.404
669.83	43.256
670.15	38.462
670.48	39.952
670.80	38.249
671.13	41.834
671.45	36.758
671.77	41.416
672.10	38.416
672.42	37.828
672.75	37.300
673.07	37.925
673.39	36.147
673.72	35.897
674.04	37.917
674.37	36.441
674.69	35.118
675.01	36.667
675.34	36.712
675.66	39.352
675.98	38.137
676.31	39.220
676.63	40.143
676.95	38.182
677.28	40.471
677.60	39.759
677.92	38.073
678.25	38.293
678.57	35.498
678.89	35.924
679.22	38.031
679.54	32.932
679.86	33.797
680.18	38.058
680.51	34.848
680.83	35.785
681.15	37.200
681.48	37.295
681.80	39.050
682.12	35.685
682.44	37.866
682.77	37.528
683.09	36.842
683.41	35.909
683.73	38.479
684.06	36.504
684.38	36.129
684.70	38.344
685.02	35.477
685.34	35.968
685.67	34.709
685.99	33.635
686.31	31.858
686.63	31.725
686.96	34.601
687.28	33.535
687.60	32.319
687.92	35.556
688.24	34.879
688.56	34.279
688.89	34.821
689.21	37.556
689.53	35.731
689.85	37.209
690.17	35.045
690.49	35.461
690.82	38.350
691.14	35.238
691.46	35.047
691.78	36.712
692.10	37.849
692.42	35.281
692.74	35.897
693.06	34.234
693.39	34.842
693.71	36.652
694.03	32.794
694.35	36.449
694.67	36.111
694.99	36.031
695.31	38.903
695.63	36.750
695.95	35.859
696.27	37.306
696.59	37.778
696.91	37.815
697.23	32.905
697.56	34.158
697.88	35.484
698.20	35.080
698.52	35.059
698.84	31.818
699.16	32.250
699.48	35.589
699.80	34.491
700.12	35.310
700.44	39.496
700.76	34.012
701.08	38.182
701.40	35.843
701.72	42.284
702.04	37.954
702.36	41.806
702.68	36.336
703.00	34.848
703.32	33.724
703.64	31.638
703.96	35.072
704.28	34.663
704.60	40.635
704.91	35.016
705.23	35.216
705.55	39.929
705.87	43.321
706.19	42.222
706.51	35.395
706.83	34.727
707.15	33.333
707.47	35.014
707.79	34.115
708.11	32.750
708.43	32.500
708.74	33.850
709.06	36.620
709.38	37.003
709.70	35.799
710.02	30.892
710.34	31.889
710.66	33.654
710.98	29.801
711.29	37.377
711.61	34.915
711.93	34.853
712.25	38.832
712.57	32.967
712.89	35.448
713.20	36.332
713.52	36.585
713.84	38.908
714.16	35.395
714.48	32.903
714.80	34.936
715.11	29.787
715.43	30.721
715.75	30.000
716.07	31.229
716.39	32.215
716.70	34.686
717.02	30.534
717.34	38.057
717.66	36.726
717.97	40.435
718.29	31.381
718.61	35.827
718.93	35.659
719.24	29.278
719.56	34.538
719.88	32.646
720.20	34.848
720.51	35.249
720.83	32.432
721.15	40.336
721.46	39.919
721.78	29.644
722.10	31.599
722.42	33.195
722.73	34.694
723.05	36.327
723.37	41.525
723.68	38.288
724.00	32.906
724.32	32.889
724.63	36.364
724.95	35.371
725.27	39.171
725.58	34.746
725.90	28.175
726.22	31.660
726.53	33.898
726.85	36.330
727.16	38.491
727.48	31.984
727.80	34.413
728.11	29.661
728.43	35.294
728.74	26.613
729.06	34.000
729.38	36.090
729.69	32.271
730.01	31.154
730.32	35.448
730.64	31.449
730.96	33.585
731.27	31.667
731.59	33.559
731.90	30.573
732.22	34.700
732.53	34.219
732.85	31.915
733.16	33.333
733.48	29.496
733.80	30.072
734.11	28.814
734.43	31.615
734.74	28.788
735.06	31.270
735.37	29.909
735.69	32.660
736.00	30.662
736.32	33.221
736.63	29.577
736.95	29.010
737.26	28.470
737.58	27.517
737.89	27.106
738.21	34.962
738.52	33.333
738.83	34.498
739.15	30.131
739.46	34.252
739.78	28.205
740.09	28.758
740.41	30.435
740.72	26.378
741.04	37.652
741.35	31.915
741.66	34.597
741.98	30.612
742.29	38.614
742.61	31.414
742.92	30.332
743.23	31.481
743.55	30.769
743.86	29.187
744.18	33.493
744.49	36.702
744.80	35.870
745.12	40.107
745.43	30.244
745.74	41.667
746.06	39.024
746.37	34.555
746.68	32.227
747.00	32.447
747.31	35.821
747.62	29.126
747.94	31.579
748.25	32.178
748.56	33.333
748.88	32.461
749.19	36.702
749.50	30.049
749.82	25.472
750.13	29.817
750.44	33.083
750.75	34.701
751.07	34.307
751.38	32.184
751.69	25.098
752.01	34.109
752.32	30.279
752.63	31.621
752.94	28.879
753.26	34.310
753.57	25.792
753.88	33.186
754.19	28.750
754.51	31.405
754.82	26.316
755.13	32.500
755.44	34.274
755.75	32.031
756.07	30.739
756.38	25.283
756.69	25.287
757.00	28.333
757.31	24.837
757.63	24.390
757.94	25.833
758.25	25.205
758.56	26.064
758.87	21.246
759.18	26.480
759.50	32.727
759.81	29.766
760.12	30.645
760.43	26.970
760.74	27.469
761.05	27.077
761.36	28.977
761.67	29.697
761.99	29.592
762.30	26.182
762.61	26.087
762.92	26.697
763.23	30.180
763.54	27.570
763.85	29.237
764.16	27.801
764.47	24.194
764.78	27.473
765.10	29.293
765.41	30.599
765.72	27.302
766.03	23.308
766.34	28.832
766.65	32.271
766.96	27.778
767.27	29.787
767.58	35.632
767.89	30.496
768.20	30.114
768.51	33.516
768.82	30.542
769.13	27.650
769.44	27.468
769.75	25.571
770.06	27.155
770.37	31.731
770.68	26.904
770.99	27.602
771.30	30.882
771.61	24.887
771.92	28.448
772.23	29.557
772.54	30.645
772.85	35.185
773.16	29.213
773.47	33.987
773.78	36.601
774.09	25.749
774.39	26.000
774.70	28.662
775.01	33.793
775.32	35.714
775.63	27.273
775.94	32.824
776.25	34.646
776.56	25.833
776.87	36.538
777.18	23.932
777.48	31.897
777.79	33.043
778.10	23.810
778.41	37.838
778.72	40.476
779.03	33.083
779.34	31.915
779.65	34.247
779.95	26.712
780.26	34.483
780.57	32.520
780.88	32.283
781.19	26.724
781.50	39.535
781.80	28.994
782.11	21.384
782.42	36.154
782.73	30.216
783.04	36.296
783.34	25.000
783.65	18.803
783.96	27.869
784.27	34.483
784.57	22.764
784.88	33.594
785.19	32.000
785.50	39.000
785.81	34.483
786.11	37.069
786.42	20.388
786.73	41.818
787.04	24.490
787.34	32.143
787.65	28.571
787.96	20.354
788.26	27.273
788.57	21.368
788.88	31.250
789.19	25.397
789.49	25.217
789.80	22.449
790.11	33.333
790.41	33.636
790.72	38.043
791.03	37.500
791.33	40.000
791.64	25.000
791.95	15.116
792.25	36.170
792.56	33.708
792.87	27.397
793.17	36.232
793.48	13.333
793.79	37.500
794.09	38.750
794.40	21.698
794.70	27.184
795.01	35.772
795.32	25.641
795.62	23.810
795.93	18.627
796.23	35.849
796.54	31.250
796.85	36.765
797.15	35.211
797.46	37.500
797.76	48.485
798.07	27.907
798.37	34.211
798.68	31.818
798.99	27.160
799.29	30.000
799.60	30.435
799.90	36.000
800.21	29.508
800.51	33.846
800.82	16.949
801.12	36.232
801.43	39.344
801.73	33.333
802.04	54.000
802.34	38.806
802.65	57.692
802.95	37.500
803.26	32.692
803.56	35.294
803.87	23.913
804.17	40.000
804.48	34.921
804.78	12.963
805.09	45.652
805.39	22.222
805.70	40.741
806.00	19.298
806.30	25.352
806.61	30.000
806.91	19.444
807.22	43.421
807.52	37.333
807.83	23.636
808.13	40.278
808.43	39.706
808.74	29.851
809.04	16.949
809.35	32.692
809.65	34.375
809.95	16.216
810.26	38.636
810.56	30.137
810.86	50.000
811.17	28.000
811.47	53.061
811.77	36.842
812.08	2.273
812.38	35.849
812.69	40.000
812.99	42.424
813.29	15.789
813.59	14.286
813.90	38.636
814.20	20.513
814.50	34.615
814.81	47.170
815.11	14.894
815.41	49.153
815.72	47.619
816.02	41.176
816.32	35.417
816.62	31.707
816.93	40.541
817.23	31.429
817.53	39.583
817.84	30.435
818.14	21.154
818.44	31.579
818.74	45.652
819.04	30.000
819.35	37.838
819.65	26.471
819.95	22.222
820.25	30.952
820.56	57.500
820.86	17.241
821.16	60.000
821.46	57.447
821.76	37.500
822.07	30.233
822.37	18.919
822.67	25.000
822.97	69.048
823.27	32.143
823.57	60.000
823.88	40.741
824.18	35.714
824.48	64.706
824.78	58.065
825.08	39.130
825.38	24.242
825.69	0.000
825.99	26.316
826.29	50.000
826.59	6.667
826.89	-9.524
827.19	50.000
827.49	40.000
827.79	60.000
828.09	60.714
828.39	39.394
828.70	64.865
829.00	25.000
829.30	14.286
829.60	43.333
829.90	53.125
830.20	28.947
830.50	22.222
830.80	39.130
831.10	36.364
831.40	72.727
831.70	29.032
832.00	52.381
832.30	52.381
832.60	-66.667
832.90	48.276
833.20	0.000
833.50	75.758
833.80	22.222
834.10	23.077
834.40	59.375
834.70	0.000
835.00	31.579
835.30	92.308
835.60	86.667
835.90	22.581
836.20	27.273
836.50	50.000
836.80	7.692
837.10	39.286
837.40	-66.667
837.70	72.727
838.00	18.182
838.30	17.391
838.60	84.615
838.90	31.818
839.19	60.714
839.49	33.333
839.79	38.462
840.09	-16.667
840.39	78.571
840.69	57.143
840.99	38.462
841.29	36.842
841.59	80.000
841.88	54.545
842.18	60.000
842.48	75.000
842.78	40.000
843.08	62.963
843.38	-10.000
843.68	78.261
843.97	86.667
844.27	26.667
844.57	10.000
844.87	33.333
845.17	19.048
845.47	53.333
845.76	42.857
846.06	52.941
846.36	60.000
846.66	35.714
846.96	53.333
847.25	-75.000
847.55	21.429
847.85	87.500
848.15	27.273
848.44	-133.333
848.74	65.000
849.04	55.556
849.34	-54.545
849.63	133.333
849.93	-60.000
850.23	50.000
850.53	200.000
850.82	61.538
851.12	44.444
851.42	60.000
851.71	26.923
852.01	0.000
852.31	-50.000
852.61	36.364
852.90	25.000
853.20	31.579
853.50	100.000
853.79	13.043
854.09	16.667
854.39	-5.263
854.68	-4.167
854.98	19.355
855.28	53.846
855.57	95.000
855.87	66.667
856.17	29.630
856.46	21.429
856.76	20.000
857.05	88.889
857.35	40.000
857.65	44.444
857.94	46.154
858.24	106.897
858.53	83.333
858.83	40.741
859.13	54.545
859.42	34.783
859.72	250.000
860.01	-233.333
860.31	40.000
860.60	28.571
860.90	200.000
861.20	33.333
861.49	-150.000
861.79	20.000
862.08	35.000
862.38	146.667
862.67	-80.000
862.97	66.667
863.26	83.333
863.56	33.333
863.85	233.333
864.15	33.333
864.44	40.000
864.74	178.571
865.03	300.000
865.33	20.000
865.62	116.667
865.92	66.667
866.21	-33.333
866.51	100.000
866.80	-27.273
867.10	0.000
867.39	141.667
867.69	0.000
867.98	100.000
868.27	-66.667
868.57	60.000
868.86	50.000
869.16	23.077
869.45	73.333
869.75	200.000
870.04	0.000
870.33	-42.857
870.63	57.143
870.92	233.333
871.22	-60.000
871.51	100.000
871.80	144.444
872.10	-100.000
>>>>>End Processed Spectral Data<<<<<
