SpectraSuite Data File
++++++++++++++++++++++++++++++++++++
Date: Fri May 15 20:00:30 PDT 2015
User: schluterlab
Dark Spectrum Present: Yes
Reference Spectrum Present: Yes
Number of Sampled Component Spectra: 1
Spectrometers: USB2E3373
Integration Time (usec): 3000 (USB2E3373)
Spectra Averaged: 3 (USB2E3373)
Boxcar Smoothing: 0 (USB2E3373)
Correct for Electrical Dark: No (USB2E3373)
Strobe/Lamp Enabled: No (USB2E3373)
Correct for Detector Non-linearity: No (USB2E3373)
Correct for Stray Light: No (USB2E3373)
Number of Pixels in Processed Spectrum: 2048
>>>>>Begin Processed Spectral Data<<<<<
178.53	0.000
178.91	0.000
179.29	200.000
179.67	50.000
180.04	-71.429
180.42	300.000
180.80	400.000
181.18	166.667
181.56	200.000
181.94	300.000
182.31	-400.000
182.69	-60.000
183.07	166.667
183.45	-80.000
183.83	33.333
184.20	27.273
184.58	122.222
184.96	50.000
185.34	-100.000
185.72	400.000
186.09	123.077
186.47	-900.000
186.85	116.667
187.23	-11.111
187.61	-400.000
187.98	100.000
188.36	77.778
188.74	-66.667
189.12	58.824
189.49	16.667
189.87	0.000
190.25	35.714
190.63	750.000
191.00	0.000
191.38	52.632
191.76	500.000
192.14	-100.000
192.51	550.000
192.89	77.778
193.27	57.143
193.65	33.333
194.02	81.818
194.40	10.000
194.78	-50.000
195.15	-25.000
195.53	0.000
195.91	150.000
196.29	125.000
196.66	15.385
197.04	-171.429
197.42	-33.333
197.79	-266.667
198.17	-76.923
198.55	500.000
198.92	0.000
199.30	1000.000
199.68	40.000
200.05	66.667
200.43	0.000
200.81	366.667
201.18	-366.667
201.56	1200.000
201.94	550.000
202.31	-66.667
202.69	-120.000
203.07	100.000
203.44	2000.000
203.82	0.000
204.19	85.714
204.57	-400.000
204.95	12.500
205.32	30.000
205.70	228.571
206.08	75.000
206.45	377.778
206.83	85.714
207.20	-14.286
207.58	-400.000
207.96	0.000
208.33	-10.000
208.71	25.000
209.08	-133.333
209.46	300.000
209.84	100.000
210.21	-700.000
210.59	85.714
210.96	50.000
211.34	0.000
211.71	80.000
212.09	14.286
212.46	-800.000
212.84	0.000
213.22	150.000
213.59	200.000
213.97	46.154
214.34	90.909
214.72	-83.333
215.09	425.000
215.47	46.154
215.84	18.182
216.22	-466.667
216.59	25.000
216.97	700.000
217.34	225.000
217.72	-160.000
218.09	-75.000
218.47	150.000
218.84	400.000
219.22	22.222
219.59	20.000
219.97	166.667
220.34	175.000
220.72	157.143
221.09	-50.000
221.47	200.000
221.84	-450.000
222.22	-900.000
222.59	81.818
222.97	58.333
223.34	-33.333
223.72	-35.714
224.09	4.762
224.46	25.000
224.84	33.333
225.21	10.000
225.59	60.000
225.96	50.000
226.34	100.000
226.71	42.857
227.08	0.000
227.46	25.000
227.83	50.000
228.21	-11.111
228.58	136.364
228.95	-25.000
229.33	-50.000
229.70	50.000
230.08	0.000
230.45	-14.286
230.82	85.714
231.20	0.000
231.57	21.429
231.95	200.000
232.32	-50.000
232.69	14.286
233.07	-66.667
233.44	80.000
233.81	20.000
234.19	77.778
234.56	41.176
234.93	-100.000
235.31	200.000
235.68	-100.000
236.05	-30.769
236.43	50.000
236.80	82.353
237.17	34.375
237.55	60.000
237.92	40.741
238.29	58.333
238.67	83.333
239.04	50.000
239.41	31.707
239.79	23.333
240.16	68.293
240.53	39.474
240.91	6.522
241.28	50.794
241.65	51.786
242.02	39.726
242.40	50.000
242.77	74.576
243.14	42.424
243.51	45.000
243.89	63.218
244.26	47.126
244.63	54.762
245.00	56.701
245.38	51.546
245.75	34.831
246.12	50.862
246.49	50.413
246.87	62.500
247.24	45.378
247.61	49.123
247.98	49.593
248.36	46.250
248.73	50.000
249.10	46.753
249.47	43.671
249.84	52.288
250.22	48.235
250.59	50.980
250.96	49.765
251.33	43.605
251.70	47.059
252.08	49.746
252.45	43.069
252.82	55.276
253.19	48.848
253.56	50.000
253.94	44.595
254.31	46.957
254.68	50.877
255.05	48.819
255.42	50.655
255.79	47.876
256.16	51.362
256.54	44.776
256.91	47.148
257.28	49.071
257.65	44.944
258.02	47.163
258.39	47.811
258.76	46.886
259.14	46.179
259.51	50.162
259.88	45.704
260.25	50.654
260.62	48.611
260.99	43.729
261.36	50.685
261.73	45.886
262.10	48.328
262.47	46.012
262.85	46.395
263.22	50.154
263.59	49.221
263.96	50.000
264.33	51.212
264.70	44.345
265.07	45.238
265.44	52.691
265.81	46.328
266.18	50.546
266.55	48.329
266.92	51.813
267.29	49.347
267.66	46.036
268.03	47.644
268.40	49.086
268.77	50.267
269.14	46.283
269.51	47.044
269.88	44.140
270.25	46.939
270.62	44.390
270.99	46.292
271.36	47.922
271.73	44.836
272.10	47.202
272.47	48.463
272.84	48.020
273.21	44.780
273.58	46.024
273.95	46.224
274.32	42.032
274.69	43.665
275.06	46.205
275.43	44.898
275.80	45.916
276.17	46.667
276.54	42.827
276.91	45.395
277.28	42.795
277.65	43.182
278.02	43.404
278.39	45.952
278.76	45.073
279.13	41.079
279.50	45.588
279.87	44.924
280.23	45.376
280.60	45.614
280.97	49.293
281.34	44.038
281.71	44.559
282.08	43.763
282.45	42.661
282.82	44.402
283.19	43.907
283.56	46.050
283.92	45.351
284.29	43.077
284.66	43.023
285.03	44.794
285.40	43.667
285.77	42.179
286.14	42.058
286.51	45.018
286.87	40.768
287.24	43.278
287.61	42.504
287.98	42.807
288.35	43.328
288.72	42.557
289.08	42.708
289.45	42.707
289.82	41.259
290.19	39.078
290.56	40.652
290.93	41.414
291.29	37.134
291.66	39.685
292.03	39.553
292.40	38.065
292.77	39.234
293.13	36.688
293.50	35.053
293.87	36.641
294.24	35.085
294.60	36.811
294.97	37.500
295.34	35.890
295.71	35.917
296.08	34.679
296.44	33.713
296.81	32.361
297.18	36.087
297.55	34.417
297.91	33.836
298.28	33.245
298.65	33.243
299.02	34.232
299.38	31.190
299.75	32.552
300.12	32.199
300.48	33.070
300.85	31.812
301.22	31.429
301.59	33.158
301.95	33.671
302.32	32.555
302.69	31.716
303.05	30.693
303.42	32.379
303.79	30.958
304.15	32.258
304.52	31.629
304.89	30.058
305.25	30.993
305.62	29.755
305.99	31.345
306.35	30.173
306.72	28.909
307.09	30.787
307.45	30.884
307.82	29.398
308.19	31.475
308.55	30.207
308.92	31.917
309.29	29.497
309.65	30.571
310.02	29.593
310.38	29.967
310.75	32.678
311.12	31.432
311.48	29.799
311.85	28.796
312.22	29.747
312.58	30.679
312.95	29.562
313.31	29.814
313.68	29.843
314.05	29.796
314.41	30.309
314.78	29.691
315.14	30.627
315.51	31.573
315.87	31.557
316.24	31.648
316.61	31.791
316.97	32.440
317.34	31.250
317.70	32.409
318.07	30.481
318.43	31.667
318.80	30.966
319.16	33.105
319.53	33.143
319.89	31.201
320.26	32.895
320.62	32.999
320.99	32.463
321.35	32.785
321.72	33.645
322.08	32.931
322.45	33.401
322.81	33.890
323.18	34.053
323.54	32.239
323.91	32.911
324.27	32.520
324.64	34.082
325.00	35.675
325.37	35.996
325.73	34.089
326.10	35.967
326.46	34.978
326.83	35.346
327.19	35.310
327.56	35.969
327.92	37.148
328.29	35.536
328.65	37.830
329.01	36.857
329.38	37.327
329.74	36.922
330.11	35.774
330.47	35.529
330.84	36.923
331.20	37.643
331.56	37.037
331.93	37.352
332.29	37.580
332.66	36.471
333.02	36.152
333.38	36.572
333.75	38.553
334.11	36.795
334.48	36.446
334.84	37.271
335.20	36.231
335.57	35.539
335.93	36.495
336.29	38.029
336.66	36.240
337.02	36.245
337.38	35.833
337.75	36.818
338.11	36.610
338.47	36.496
338.84	37.431
339.20	35.466
339.56	36.881
339.93	36.347
340.29	35.596
340.65	37.455
341.02	35.816
341.38	36.018
341.74	36.307
342.11	34.229
342.47	35.854
342.83	35.986
343.20	34.843
343.56	36.783
343.92	36.492
344.28	36.208
344.65	35.492
345.01	35.955
345.37	34.483
345.73	36.067
346.10	37.705
346.46	36.669
346.82	36.498
347.19	35.245
347.55	35.589
347.91	36.408
348.27	34.357
348.63	36.712
349.00	34.619
349.36	35.910
349.72	36.153
350.08	35.738
350.45	36.632
350.81	35.299
351.17	35.668
351.53	35.510
351.89	34.187
352.26	34.640
352.62	33.710
352.98	35.582
353.34	35.024
353.70	35.518
354.07	34.919
354.43	34.668
354.79	34.682
355.15	35.794
355.51	35.443
355.87	34.790
356.24	34.339
356.60	35.166
356.96	33.810
357.32	35.623
357.68	33.776
358.04	33.845
358.40	34.727
358.77	35.885
359.13	36.029
359.49	34.438
359.85	34.633
360.21	34.530
360.57	34.966
360.93	35.174
361.29	33.988
361.66	34.875
362.02	35.758
362.38	35.187
362.74	35.503
363.10	34.387
363.46	33.877
363.82	35.312
364.18	34.613
364.54	35.294
364.90	34.624
365.26	34.862
365.62	36.715
365.98	36.584
366.35	35.033
366.71	36.511
367.07	35.341
367.43	34.651
367.79	35.406
368.15	34.602
368.51	35.251
368.87	36.037
369.23	34.296
369.59	35.058
369.95	36.070
370.31	35.621
370.67	36.269
371.03	35.101
371.39	34.792
371.75	34.945
372.11	34.308
372.47	36.612
372.83	35.415
373.19	36.448
373.55	35.451
373.91	35.493
374.27	36.003
374.63	35.894
374.99	35.106
375.35	35.446
375.71	36.364
376.07	34.972
376.42	36.395
376.78	35.839
377.14	36.357
377.50	35.724
377.86	35.408
378.22	36.631
378.58	36.538
378.94	34.909
379.30	36.494
379.66	36.865
380.02	36.603
380.38	35.484
380.74	36.385
381.09	37.853
381.45	36.575
381.81	36.644
382.17	37.056
382.53	36.914
382.89	37.853
383.25	38.270
383.61	37.622
383.97	36.825
384.32	37.523
384.68	37.895
385.04	37.439
385.40	37.834
385.76	38.931
386.12	38.616
386.48	37.931
386.83	37.476
387.19	38.767
387.55	38.519
387.91	38.142
388.27	37.607
388.62	39.648
388.98	37.385
389.34	39.288
389.70	38.347
390.06	38.263
390.42	39.573
390.77	39.111
391.13	38.588
391.49	39.457
391.85	39.181
392.20	40.050
392.56	38.271
392.92	39.225
393.28	39.505
393.64	39.219
393.99	40.878
394.35	39.469
394.71	40.166
395.07	39.221
395.42	38.130
395.78	39.935
396.14	39.596
396.50	39.759
396.85	39.214
397.21	39.787
397.57	39.122
397.92	39.904
398.28	39.483
398.64	38.253
399.00	39.391
399.35	38.826
399.71	39.345
400.07	40.266
400.42	38.862
400.78	38.579
401.14	39.504
401.49	39.726
401.85	38.452
402.21	38.735
402.57	39.062
402.92	38.959
403.28	39.724
403.63	38.714
403.99	39.541
404.35	40.787
404.70	38.750
405.06	39.013
405.42	39.093
405.77	38.989
406.13	39.756
406.49	38.366
406.84	38.631
407.20	39.133
407.55	38.699
407.91	37.901
408.27	38.177
408.62	38.523
408.98	39.618
409.34	39.901
409.69	38.178
410.05	39.286
410.40	38.889
410.76	39.445
411.11	39.000
411.47	39.711
411.83	38.920
412.18	38.739
412.54	38.826
412.89	36.884
413.25	39.771
413.60	38.261
413.96	38.466
414.31	37.866
414.67	37.267
415.03	38.282
415.38	36.880
415.74	38.176
416.09	39.517
416.45	39.230
416.80	38.401
417.16	38.743
417.51	38.241
417.87	39.113
418.22	39.573
418.58	38.395
418.93	39.310
419.29	36.620
419.64	39.080
420.00	38.917
420.35	38.746
420.71	38.032
421.06	37.999
421.42	38.522
421.77	38.728
422.12	38.138
422.48	37.845
422.83	38.979
423.19	38.318
423.54	38.036
423.90	38.928
424.25	38.863
424.61	38.923
424.96	38.328
425.31	39.053
425.67	39.378
426.02	38.987
426.38	39.699
426.73	39.346
427.09	39.684
427.44	39.000
427.79	39.246
428.15	39.078
428.50	39.007
428.85	39.681
429.21	39.445
429.56	40.377
429.92	39.034
430.27	38.847
430.62	38.683
430.98	39.013
431.33	38.906
431.68	38.566
432.04	40.246
432.39	38.448
432.74	38.906
433.10	40.000
433.45	38.829
433.80	39.930
434.16	38.892
434.51	38.656
434.86	38.560
435.22	39.428
435.57	39.800
435.92	39.162
436.28	38.879
436.63	39.418
436.98	38.702
437.34	38.536
437.69	40.549
438.04	39.430
438.39	39.218
438.75	40.862
439.10	39.106
439.45	39.197
439.81	39.205
440.16	40.321
440.51	39.045
440.86	40.242
441.22	38.575
441.57	38.631
441.92	40.399
442.27	39.634
442.63	40.257
442.98	39.632
443.33	39.176
443.68	40.000
444.03	40.984
444.39	40.089
444.74	40.803
445.09	39.699
445.44	40.855
445.79	41.052
446.15	39.152
446.50	39.101
446.85	40.117
447.20	40.615
447.55	39.955
447.91	40.214
448.26	40.353
448.61	40.299
448.96	41.193
449.31	39.942
449.66	39.837
450.02	40.901
450.37	40.130
450.72	40.836
451.07	41.076
451.42	39.201
451.77	39.602
452.12	39.474
452.47	39.987
452.83	40.459
453.18	40.101
453.53	40.013
453.88	39.951
454.23	40.504
454.58	40.806
454.93	39.755
455.28	39.937
455.63	39.864
455.98	40.229
456.34	40.868
456.69	40.407
457.04	41.399
457.39	40.705
457.74	40.750
458.09	38.493
458.44	39.789
458.79	39.888
459.14	40.675
459.49	40.597
459.84	39.425
460.19	40.595
460.54	41.443
460.89	40.909
461.24	40.994
461.59	40.439
461.94	38.805
462.29	40.350
462.64	40.997
462.99	40.487
463.34	39.708
463.69	39.447
464.04	40.315
464.39	39.721
464.74	40.000
465.09	41.235
465.44	41.777
465.79	40.420
466.14	40.992
466.49	40.426
466.84	41.106
467.19	41.802
467.54	40.038
467.89	40.114
468.24	40.268
468.59	42.286
468.94	39.937
469.29	40.984
469.64	40.602
469.99	41.205
470.34	40.273
470.68	39.821
471.03	40.835
471.38	40.514
471.73	40.686
472.08	38.738
472.43	40.336
472.78	39.411
473.13	40.340
473.48	41.564
473.83	39.851
474.17	40.285
474.52	39.183
474.87	40.667
475.22	40.696
475.57	40.824
475.92	40.318
476.27	40.512
476.61	39.988
476.96	39.654
477.31	40.346
477.66	39.888
478.01	39.641
478.36	39.978
478.70	40.783
479.05	40.330
479.40	40.488
479.75	39.625
480.10	40.553
480.45	39.850
480.79	41.138
481.14	42.008
481.49	39.901
481.84	40.878
482.19	39.570
482.53	41.151
482.88	38.616
483.23	40.163
483.58	39.340
483.92	39.981
484.27	40.611
484.62	39.937
484.97	40.216
485.31	40.860
485.66	40.193
486.01	41.505
486.36	42.030
486.70	41.207
487.05	40.719
487.40	41.262
487.75	40.563
488.09	39.957
488.44	40.440
488.79	39.634
489.13	39.984
489.48	40.060
489.83	39.641
490.17	38.787
490.52	39.215
490.87	39.195
491.22	39.733
491.56	39.469
491.91	39.149
492.26	40.301
492.60	39.395
492.95	39.941
493.30	39.228
493.64	41.061
493.99	39.130
494.34	40.097
494.68	40.286
495.03	39.708
495.37	40.088
495.72	40.030
496.07	39.756
496.41	39.953
496.76	40.120
497.11	39.404
497.45	39.809
497.80	40.918
498.14	38.847
498.49	39.766
498.84	39.920
499.18	40.512
499.53	39.782
499.87	40.370
500.22	38.625
500.56	40.393
500.91	39.106
501.26	39.446
501.60	39.646
501.95	39.981
502.29	40.678
502.64	40.010
502.98	40.947
503.33	39.385
503.67	39.373
504.02	40.909
504.36	39.832
504.71	40.303
505.06	39.507
505.40	39.391
505.75	40.052
506.09	39.128
506.44	39.784
506.78	39.592
507.13	39.555
507.47	39.217
507.82	39.209
508.16	38.774
508.51	40.504
508.85	39.717
509.19	39.117
509.54	40.322
509.88	39.482
510.23	39.591
510.57	39.818
510.92	38.913
511.26	39.662
511.61	40.264
511.95	40.110
512.30	39.080
512.64	40.011
512.98	38.855
513.33	40.179
513.67	38.431
514.02	40.160
514.36	40.343
514.70	40.268
515.05	40.599
515.39	39.256
515.74	41.257
516.08	40.048
516.42	40.342
516.77	39.789
517.11	40.890
517.46	39.557
517.80	39.213
518.14	39.437
518.49	39.183
518.83	40.158
519.17	38.508
519.52	39.550
519.86	38.715
520.20	40.158
520.55	38.524
520.89	40.151
521.23	38.885
521.58	39.369
521.92	40.321
522.26	39.427
522.61	39.221
522.95	40.331
523.29	38.945
523.64	39.771
523.98	40.570
524.32	39.433
524.66	40.525
525.01	40.325
525.35	39.339
525.69	40.337
526.04	39.352
526.38	39.883
526.72	39.045
527.06	39.624
527.41	40.501
527.75	38.874
528.09	39.601
528.43	40.716
528.78	38.416
529.12	39.097
529.46	39.181
529.80	39.139
530.15	40.990
530.49	39.327
530.83	40.014
531.17	39.758
531.51	40.014
531.86	38.681
532.20	39.179
532.54	39.891
532.88	40.657
533.22	39.180
533.57	39.777
533.91	39.752
534.25	40.690
534.59	38.807
534.93	39.711
535.27	39.277
535.62	39.793
535.96	39.465
536.30	40.435
536.64	39.904
536.98	39.652
537.32	39.900
537.66	41.024
538.01	40.350
538.35	40.014
538.69	38.948
539.03	38.893
539.37	39.569
539.71	39.400
540.05	39.172
540.39	39.404
540.73	39.331
541.07	39.848
541.42	39.852
541.76	40.812
542.10	39.367
542.44	40.584
542.78	38.197
543.12	40.247
543.46	40.682
543.80	41.221
544.14	39.119
544.48	39.307
544.82	40.465
545.16	40.232
545.50	40.654
545.84	40.014
546.18	40.426
546.52	39.366
546.86	39.756
547.20	40.486
547.54	39.152
547.88	40.897
548.22	39.053
548.56	39.050
548.90	41.173
549.24	39.738
549.58	39.492
549.92	38.456
550.26	40.879
550.60	40.446
550.94	39.432
551.28	39.645
551.62	40.000
551.96	39.925
552.30	39.693
552.64	40.127
552.98	40.577
553.32	39.087
553.66	39.695
554.00	39.854
554.34	39.513
554.68	38.422
555.02	40.030
555.36	38.968
555.69	39.634
556.03	40.257
556.37	39.288
556.71	39.783
557.05	40.716
557.39	38.067
557.73	40.255
558.07	40.498
558.41	39.510
558.75	38.504
559.08	40.110
559.42	39.206
559.76	39.712
560.10	39.067
560.44	39.538
560.78	40.629
561.12	41.326
561.45	41.883
561.79	40.476
562.13	40.028
562.47	39.712
562.81	40.418
563.15	39.563
563.48	40.099
563.82	40.082
564.16	39.903
564.50	40.676
564.84	40.562
565.17	39.839
565.51	41.462
565.85	41.427
566.19	39.721
566.52	40.885
566.86	40.938
567.20	40.847
567.54	40.876
567.88	41.301
568.21	42.308
568.55	40.652
568.89	41.632
569.23	41.310
569.56	42.119
569.90	43.078
570.24	41.347
570.57	42.545
570.91	42.733
571.25	41.730
571.59	41.732
571.92	41.067
572.26	42.150
572.60	42.016
572.93	41.261
573.27	41.944
573.61	42.094
573.95	42.299
574.28	42.029
574.62	42.004
574.96	42.059
575.29	42.554
575.63	41.358
575.97	41.095
576.30	41.861
576.64	41.669
576.98	42.574
577.31	42.394
577.65	42.110
577.98	42.244
578.32	42.231
578.66	41.758
578.99	42.068
579.33	41.844
579.67	41.711
580.00	42.152
580.34	42.637
580.67	41.939
581.01	41.931
581.35	42.248
581.68	42.787
582.02	43.182
582.35	42.377
582.69	42.501
583.02	42.085
583.36	41.755
583.70	42.290
584.03	42.146
584.37	42.377
584.70	42.308
585.04	41.839
585.37	42.015
585.71	42.360
586.04	41.704
586.38	41.638
586.72	42.841
587.05	43.212
587.39	42.466
587.72	42.947
588.06	42.264
588.39	42.068
588.73	40.995
589.06	42.107
589.40	42.136
589.73	42.059
590.07	42.032
590.40	42.608
590.73	42.875
591.07	41.433
591.40	41.719
591.74	41.719
592.07	41.651
592.41	42.889
592.74	42.015
593.08	41.600
593.41	42.142
593.75	41.413
594.08	41.092
594.41	41.048
594.75	42.290
595.08	41.809
595.42	42.584
595.75	42.246
596.09	41.751
596.42	41.091
596.75	42.318
597.09	40.729
597.42	41.644
597.75	42.464
598.09	41.693
598.42	41.606
598.76	41.570
599.09	41.747
599.42	41.341
599.76	42.325
600.09	41.780
600.42	41.736
600.76	40.936
601.09	41.641
601.42	42.068
601.76	42.358
602.09	41.460
602.42	42.123
602.76	41.893
603.09	42.110
603.42	42.475
603.76	41.210
604.09	41.677
604.42	42.005
604.76	42.234
605.09	42.505
605.42	41.490
605.75	41.813
606.09	41.741
606.42	41.076
606.75	41.515
607.09	41.626
607.42	40.673
607.75	40.808
608.08	40.386
608.42	40.566
608.75	42.169
609.08	42.451
609.41	42.030
609.75	41.784
610.08	42.287
610.41	41.159
610.74	41.784
611.07	41.137
611.41	41.567
611.74	41.791
612.07	40.899
612.40	40.919
612.73	41.977
613.07	40.664
613.40	41.411
613.73	41.130
614.06	41.514
614.39	41.963
614.72	41.401
615.06	41.508
615.39	41.321
615.72	39.989
616.05	41.620
616.38	40.114
616.71	40.856
617.05	41.137
617.38	41.546
617.71	42.579
618.04	41.968
618.37	41.236
618.70	42.178
619.03	41.389
619.36	39.436
619.69	42.456
620.03	42.075
620.36	39.914
620.69	41.613
621.02	41.667
621.35	41.577
621.68	40.306
622.01	41.583
622.34	42.059
622.67	42.035
623.00	39.893
623.33	41.235
623.66	39.940
623.99	41.225
624.32	40.380
624.65	39.925
624.99	41.309
625.32	40.940
625.65	41.084
625.98	40.371
626.31	39.485
626.64	41.248
626.97	40.489
627.30	41.156
627.63	39.948
627.96	40.970
628.29	41.998
628.62	40.806
628.95	39.279
629.28	39.718
629.61	39.781
629.94	39.589
630.26	39.328
630.59	40.479
630.92	38.974
631.25	38.872
631.58	38.106
631.91	39.145
632.24	40.596
632.57	40.909
632.90	37.722
633.23	38.235
633.56	39.169
633.89	39.457
634.22	41.605
634.55	39.136
634.88	38.825
635.20	38.333
635.53	41.200
635.86	39.662
636.19	40.233
636.52	40.816
636.85	38.958
637.18	37.862
637.51	39.119
637.83	39.290
638.16	40.246
638.49	38.828
638.82	39.079
639.15	39.620
639.48	41.265
639.81	39.331
640.13	39.538
640.46	38.338
640.79	37.113
641.12	38.552
641.45	40.541
641.77	37.630
642.10	39.494
642.43	38.907
642.76	37.624
643.09	39.095
643.41	37.217
643.74	38.056
644.07	37.438
644.40	40.878
644.73	38.529
645.05	37.081
645.38	37.213
645.71	37.943
646.04	39.318
646.36	36.879
646.69	38.489
647.02	40.076
647.35	40.299
647.67	38.391
648.00	38.806
648.33	39.420
648.66	40.508
648.98	35.678
649.31	37.190
649.64	37.206
649.96	36.791
650.29	39.864
650.62	39.316
650.94	37.778
651.27	37.244
651.60	39.099
651.92	37.063
652.25	38.366
652.58	38.500
652.90	41.338
653.23	37.983
653.56	35.871
653.88	40.378
654.21	36.602
654.54	39.219
654.86	42.275
655.19	37.427
655.52	44.814
655.84	43.541
656.17	48.148
656.49	65.484
656.82	67.215
657.15	51.018
657.47	37.637
657.80	27.556
658.13	26.975
658.45	40.800
658.78	40.386
659.10	39.534
659.43	39.168
659.75	38.629
660.08	38.621
660.41	38.917
660.73	36.602
661.06	38.995
661.38	36.595
661.71	35.113
662.03	37.339
662.36	34.725
662.68	36.504
663.01	36.900
663.33	35.963
663.66	37.209
663.98	36.744
664.31	37.527
664.63	32.258
664.96	35.652
665.28	34.437
665.61	37.662
665.93	37.174
666.26	38.829
666.58	37.584
666.91	37.176
667.23	40.094
667.56	37.204
667.88	34.532
668.21	38.186
668.53	36.643
668.86	36.321
669.18	37.500
669.50	38.257
669.83	34.651
670.15	37.296
670.48	36.603
670.80	38.479
671.13	36.242
671.45	34.475
671.77	38.412
672.10	38.218
672.42	38.764
672.75	37.833
673.07	39.356
673.39	37.431
673.72	33.728
674.04	35.000
674.37	37.924
674.69	37.473
675.01	38.667
675.34	35.811
675.66	36.806
675.98	39.911
676.31	35.780
676.63	33.492
676.95	34.318
677.28	37.647
677.60	39.036
677.92	36.468
678.25	36.324
678.57	38.312
678.89	37.185
679.22	39.821
679.54	36.747
679.86	33.797
680.18	38.252
680.51	36.742
680.83	38.569
681.15	37.600
681.48	39.344
681.80	36.983
682.12	36.694
682.44	36.820
682.77	37.748
683.09	37.529
683.41	36.364
683.73	36.636
684.06	35.619
684.38	37.849
684.70	36.383
685.02	35.685
685.34	35.968
685.67	37.899
685.99	39.241
686.31	35.929
686.63	38.590
686.96	37.262
687.28	34.949
687.60	37.833
687.92	41.212
688.24	36.895
688.56	38.210
688.89	36.384
689.21	37.778
689.53	36.427
689.85	36.744
690.17	37.277
690.49	36.643
690.82	35.437
691.14	34.524
691.46	37.383
691.78	38.063
692.10	39.785
692.42	35.714
692.74	37.821
693.06	38.739
693.39	34.615
693.71	35.747
694.03	33.025
694.35	38.785
694.67	33.586
694.99	34.987
695.31	36.031
695.63	35.750
695.95	38.131
696.27	36.269
696.59	36.111
696.91	35.574
697.23	33.933
697.56	36.139
697.88	38.065
698.20	35.308
698.52	37.882
698.84	33.014
699.16	34.750
699.48	36.842
699.80	35.484
700.12	36.927
700.44	35.294
700.76	34.884
701.08	36.667
701.40	37.349
701.72	39.506
702.04	32.013
702.36	34.783
702.68	38.438
703.00	38.182
703.32	35.777
703.64	34.746
703.96	35.942
704.28	33.129
704.60	33.968
704.91	35.016
705.23	33.223
705.55	39.929
705.87	35.018
706.19	38.889
706.51	35.739
706.83	38.907
707.15	33.333
707.47	38.095
707.79	38.281
708.11	41.750
708.43	38.250
708.74	35.917
709.06	39.155
709.38	38.226
709.70	37.870
710.02	35.987
710.34	36.533
710.66	32.051
710.98	35.762
711.29	37.705
711.61	34.576
711.93	35.831
712.25	39.863
712.57	35.531
712.89	35.821
713.20	34.602
713.52	34.843
713.84	37.543
714.16	37.801
714.48	35.484
714.80	37.179
715.11	37.082
715.43	33.229
715.75	32.000
716.07	34.219
716.39	37.248
716.70	31.365
717.02	32.824
717.34	39.676
717.66	38.938
717.97	30.870
718.29	32.636
718.61	35.827
718.93	37.984
719.24	38.783
719.56	35.341
719.88	37.457
720.20	35.606
720.51	34.483
720.83	35.907
721.15	37.395
721.46	37.097
721.78	37.549
722.10	30.855
722.42	34.855
722.73	34.694
723.05	44.082
723.37	44.492
723.68	39.640
724.00	38.462
724.32	31.111
724.63	38.182
724.95	37.991
725.27	34.101
725.58	39.407
725.90	36.111
726.22	37.066
726.53	37.627
726.85	38.202
727.16	38.868
727.48	35.628
727.80	33.198
728.11	36.017
728.43	36.078
728.74	31.048
729.06	35.600
729.38	39.098
729.69	33.068
730.01	35.000
730.32	36.567
730.64	38.869
730.96	37.736
731.27	38.667
731.59	37.288
731.90	37.261
732.22	38.801
732.53	40.864
732.85	39.007
733.16	38.047
733.48	37.770
733.80	38.406
734.11	36.271
734.43	37.113
734.74	35.152
735.06	37.459
735.37	39.577
735.69	42.088
736.00	34.495
736.32	38.926
736.63	41.549
736.95	37.884
737.26	39.146
737.58	35.906
737.89	34.432
738.21	33.459
738.52	38.683
738.83	33.188
739.15	34.061
739.46	37.008
739.78	32.234
740.09	34.314
740.41	38.043
740.72	32.677
741.04	35.223
741.35	37.447
741.66	36.019
741.98	33.163
742.29	34.158
742.61	37.173
742.92	28.436
743.23	36.111
743.55	33.484
743.86	38.278
744.18	29.187
744.49	31.915
744.80	38.043
745.12	41.711
745.43	31.707
745.74	41.667
746.06	36.098
746.37	36.649
746.68	31.754
747.00	33.511
747.31	37.811
747.62	39.320
747.94	35.407
748.25	34.653
748.56	33.880
748.88	29.843
749.19	40.426
749.50	38.424
749.82	30.189
750.13	36.239
750.44	40.226
750.75	40.299
751.07	39.051
751.38	34.483
751.69	37.647
752.01	42.636
752.32	35.458
752.63	32.806
752.94	38.793
753.26	37.657
753.57	33.032
753.88	38.938
754.19	30.833
754.51	38.430
754.82	37.247
755.13	38.750
755.44	36.694
755.75	34.375
756.07	37.743
756.38	34.340
756.69	31.418
757.00	39.333
757.31	37.908
757.63	32.317
757.94	34.722
758.25	35.342
758.56	35.904
758.87	33.711
759.18	32.399
759.50	35.273
759.81	37.458
760.12	33.226
760.43	37.273
760.74	36.728
761.05	37.231
761.36	34.375
761.67	37.576
761.99	39.456
762.30	39.636
762.61	32.016
762.92	41.629
763.23	38.739
763.54	37.850
763.85	38.559
764.16	34.025
764.47	35.484
764.78	33.333
765.10	36.700
765.41	36.909
765.72	39.048
766.03	37.970
766.34	32.117
766.65	39.044
766.96	37.374
767.27	31.915
767.58	28.736
767.89	39.716
768.20	34.659
768.51	31.868
768.82	43.842
769.13	32.258
769.44	35.193
769.75	39.269
770.06	35.776
770.37	32.212
770.68	35.533
770.99	34.842
771.30	39.706
771.61	35.747
771.92	39.224
772.23	39.409
772.54	36.022
772.85	35.802
773.16	32.022
773.47	47.059
773.78	37.255
774.09	38.922
774.39	38.667
774.70	31.210
775.01	33.793
775.32	40.714
775.63	29.752
775.94	33.588
776.25	36.220
776.56	31.667
776.87	27.885
777.18	41.026
777.48	40.517
777.79	31.304
778.10	38.095
778.41	31.532
778.72	37.302
779.03	37.594
779.34	35.461
779.65	38.356
779.95	39.726
780.26	40.690
780.57	35.772
780.88	32.283
781.19	33.621
781.50	34.109
781.80	39.053
782.11	32.075
782.42	45.385
782.73	36.691
783.04	34.074
783.34	36.806
783.65	22.222
783.96	44.262
784.27	33.793
784.57	34.146
784.88	31.250
785.19	47.000
785.50	32.000
785.81	37.069
786.11	29.310
786.42	38.835
786.73	43.636
787.04	51.020
787.34	25.000
787.65	27.619
787.96	30.973
788.26	34.545
788.57	35.043
788.88	38.281
789.19	30.952
789.49	33.043
789.80	39.796
790.11	35.354
790.41	28.182
790.72	43.478
791.03	35.227
791.33	47.500
791.64	37.500
791.95	45.349
792.25	43.617
792.56	42.697
792.87	17.808
793.17	43.478
793.48	32.000
793.79	31.250
794.09	41.250
794.40	30.189
794.70	34.951
795.01	42.276
795.32	35.043
795.62	39.048
795.93	36.275
796.23	27.358
796.54	40.625
796.85	35.294
797.15	35.211
797.46	51.389
797.76	54.545
798.07	36.047
798.37	36.842
798.68	33.333
798.99	33.333
799.29	38.571
799.60	37.681
799.90	24.000
800.21	39.344
800.51	38.462
800.82	33.898
801.12	52.174
801.43	45.902
801.73	38.095
802.04	38.000
802.34	38.806
802.65	44.231
802.95	39.286
803.26	21.154
803.56	49.020
803.87	-8.696
804.17	42.667
804.48	49.206
804.78	14.815
805.09	30.435
805.39	26.667
805.70	50.000
806.00	12.281
806.30	32.394
806.61	44.286
806.91	23.611
807.22	43.421
807.52	44.000
807.83	36.364
808.13	38.889
808.43	55.882
808.74	20.896
809.04	25.424
809.35	50.000
809.65	43.750
809.95	5.405
810.26	15.909
810.56	32.877
810.86	21.429
811.17	34.000
811.47	51.020
811.77	31.579
812.08	31.818
812.38	37.736
812.69	15.000
812.99	33.333
813.29	39.474
813.59	5.714
813.90	31.818
814.20	-2.564
814.50	34.615
814.81	49.057
815.11	6.383
815.41	28.814
815.72	11.905
816.02	31.373
816.32	43.750
816.62	39.024
816.93	5.405
817.23	42.857
817.53	45.833
817.84	39.130
818.14	32.692
818.44	44.737
818.74	65.217
819.04	20.000
819.35	48.649
819.65	50.000
819.95	5.556
820.25	38.095
820.56	57.500
820.86	-41.379
821.16	60.000
821.46	17.021
821.76	35.000
822.07	32.558
822.37	10.811
822.67	0.000
822.97	45.238
823.27	25.000
823.57	64.000
823.88	-7.407
824.18	21.429
824.48	23.529
824.78	12.903
825.08	56.522
825.38	54.545
825.69	4.167
825.99	23.684
826.29	8.333
826.59	86.667
826.89	14.286
827.19	26.087
827.49	30.000
827.79	37.143
828.09	71.429
828.39	60.606
828.70	40.541
829.00	42.857
829.30	47.619
829.60	10.000
829.90	15.625
830.20	15.789
830.50	40.741
830.80	13.043
831.10	59.091
831.40	39.394
831.70	58.065
832.00	33.333
832.30	47.619
832.60	8.333
832.90	20.690
833.20	20.000
833.50	42.424
833.80	33.333
834.10	30.769
834.40	40.625
834.70	177.778
835.00	36.842
835.30	61.538
835.60	20.000
835.90	51.613
836.20	77.273
836.50	50.000
836.80	11.538
837.10	32.143
837.40	-66.667
837.70	45.455
838.00	-90.909
838.30	73.913
838.60	46.154
838.90	81.818
839.19	39.286
839.49	36.667
839.79	-7.692
840.09	-16.667
840.39	60.714
840.69	10.714
840.99	34.615
841.29	36.842
841.59	-70.000
841.88	63.636
842.18	50.000
842.48	25.000
842.78	93.333
843.08	33.333
843.38	-100.000
843.68	47.826
843.97	60.000
844.27	-6.667
844.57	10.000
844.87	94.444
845.17	47.619
845.47	-6.667
845.76	71.429
846.06	47.059
846.36	40.000
846.66	42.857
846.96	33.333
847.25	-100.000
847.55	64.286
847.85	37.500
848.15	13.636
848.44	-333.333
848.74	55.000
849.04	55.556
849.34	54.545
849.63	-100.000
849.93	-160.000
850.23	-22.222
850.53	120.000
850.82	23.077
851.12	122.222
851.42	46.667
851.71	3.846
852.01	21.429
852.31	-200.000
852.61	45.455
852.90	30.000
853.20	15.789
853.50	16.667
853.79	69.565
854.09	95.833
854.39	15.789
854.68	12.500
854.98	38.710
855.28	50.000
855.57	30.000
855.87	50.000
856.17	51.852
856.46	50.000
856.76	13.333
857.05	77.778
857.35	40.000
857.65	38.889
857.94	69.231
858.24	55.172
858.53	122.222
858.83	-7.407
859.13	31.818
859.42	78.261
859.72	25.000
860.01	166.667
860.31	72.000
860.60	52.381
860.90	133.333
861.20	6.667
861.49	-350.000
861.79	0.000
862.08	65.000
862.38	140.000
862.67	-120.000
862.97	50.000
863.26	-8.333
863.56	105.556
863.85	-66.667
864.15	61.111
864.44	10.000
864.74	85.714
865.03	275.000
865.33	-100.000
865.62	50.000
865.92	41.667
866.21	100.000
866.51	56.250
866.80	-36.364
867.10	-400.000
867.39	183.333
867.69	0.000
867.98	61.538
868.27	133.333
868.57	-26.667
868.86	72.222
869.16	-46.154
869.45	86.667
869.75	-200.000
870.04	0.000
870.33	-85.714
870.63	61.905
870.92	-33.333
871.22	-140.000
871.51	-300.000
871.80	77.778
872.10	-33.333
>>>>>End Processed Spectral Data<<<<<
