SpectraSuite Data File
++++++++++++++++++++++++++++++++++++
Date: Fri May 15 20:13:06 PDT 2015
User: schluterlab
Dark Spectrum Present: Yes
Reference Spectrum Present: Yes
Number of Sampled Component Spectra: 1
Spectrometers: USB2E3373
Integration Time (usec): 3000 (USB2E3373)
Spectra Averaged: 3 (USB2E3373)
Boxcar Smoothing: 0 (USB2E3373)
Correct for Electrical Dark: No (USB2E3373)
Strobe/Lamp Enabled: No (USB2E3373)
Correct for Detector Non-linearity: No (USB2E3373)
Correct for Stray Light: No (USB2E3373)
Number of Pixels in Processed Spectrum: 2048
>>>>>Begin Processed Spectral Data<<<<<
178.53	0.000
178.91	0.000
179.29	-12.500
179.67	-150.000
180.04	14.286
180.42	225.000
180.80	400.000
181.18	-0.000
181.56	400.000
181.94	50.000
182.31	-0.000
182.69	20.000
183.07	-166.667
183.45	-20.000
183.83	216.667
184.20	-54.545
184.58	211.111
184.96	-275.000
185.34	-66.667
185.72	-50.000
186.09	30.769
186.47	-100.000
186.85	100.000
187.23	66.667
187.61	-100.000
187.98	166.667
188.36	122.222
188.74	33.333
189.12	5.882
189.49	16.667
189.87	0.000
190.25	57.143
190.63	-50.000
191.00	-266.667
191.38	5.263
191.76	50.000
192.14	-0.000
192.51	350.000
192.89	22.222
193.27	-85.714
193.65	-33.333
194.02	81.818
194.40	40.000
194.78	-50.000
195.15	33.333
195.53	112.500
195.91	500.000
196.29	-50.000
196.66	100.000
197.04	-57.143
197.42	-11.111
197.79	-366.667
198.17	-69.231
198.55	600.000
198.92	-200.000
199.30	1000.000
199.68	-200.000
200.05	-166.667
200.43	0.000
200.81	433.333
201.18	-66.667
201.56	1000.000
201.94	150.000
202.31	-33.333
202.69	-140.000
203.07	-0.000
203.44	500.000
203.82	0.000
204.19	28.571
204.57	-300.000
204.95	12.500
205.32	10.000
205.70	114.286
206.08	0.000
206.45	122.222
206.83	114.286
207.20	-42.857
207.58	-100.000
207.96	-233.333
208.33	-60.000
208.71	175.000
209.08	-16.667
209.46	-300.000
209.84	-80.000
210.21	-300.000
210.59	-42.857
210.96	83.333
211.34	125.000
211.71	80.000
212.09	-100.000
212.46	-1400.000
212.84	0.000
213.22	110.000
213.59	-50.000
213.97	0.000
214.34	54.545
214.72	16.667
215.09	150.000
215.47	-7.692
215.84	-54.545
216.22	-200.000
216.59	-62.500
216.97	-150.000
217.34	50.000
217.72	-80.000
218.09	50.000
218.47	12.500
218.84	-700.000
219.22	-100.000
219.59	-80.000
219.97	-0.000
220.34	250.000
220.72	100.000
221.09	-25.000
221.47	-150.000
221.84	0.000
222.22	-400.000
222.59	72.727
222.97	33.333
223.34	133.333
223.72	7.143
224.09	33.333
224.46	28.571
224.84	333.333
225.21	0.000
225.59	60.000
225.96	250.000
226.34	225.000
226.71	42.857
227.08	-33.333
227.46	-37.500
227.83	-100.000
228.21	77.778
228.58	9.091
228.95	12.500
229.33	40.000
229.70	18.750
230.08	-87.500
230.45	42.857
230.82	42.857
231.20	-40.000
231.57	35.714
231.95	114.286
232.32	-30.000
232.69	85.714
233.07	33.333
233.44	-120.000
233.81	-20.000
234.19	55.556
234.56	0.000
234.93	-250.000
235.31	0.000
235.68	-300.000
236.05	-7.692
236.43	-10.000
236.80	17.647
237.17	25.000
237.55	-5.000
237.92	-29.630
238.29	36.111
238.67	0.000
239.04	-8.824
239.41	-14.634
239.79	-6.667
240.16	19.512
240.53	-7.895
240.91	-4.348
241.28	9.524
241.65	16.071
242.02	26.027
242.40	11.667
242.77	-8.475
243.14	-3.030
243.51	12.500
243.89	18.391
244.26	8.046
244.63	3.571
245.00	5.155
245.38	12.371
245.75	2.247
246.12	3.448
246.49	7.438
246.87	10.577
247.24	-0.840
247.61	3.509
247.98	-6.504
248.36	1.250
248.73	7.895
249.10	3.247
249.47	1.266
249.84	2.614
250.22	6.471
250.59	3.268
250.96	9.390
251.33	2.907
251.70	0.588
252.08	7.107
252.45	6.436
252.82	4.523
253.19	6.912
253.56	3.271
253.94	7.207
254.31	6.522
254.68	7.895
255.05	2.362
255.42	4.367
255.79	10.039
256.16	5.058
256.54	9.701
256.91	4.563
257.28	3.346
257.65	4.494
258.02	3.901
258.39	5.724
258.76	6.593
259.14	4.651
259.51	8.738
259.88	5.155
260.25	5.882
260.62	8.681
260.99	3.051
261.36	4.795
261.73	5.063
262.10	3.040
262.47	5.828
262.85	1.254
263.22	4.308
263.59	7.165
263.96	7.453
264.33	4.848
264.70	6.845
265.07	5.655
265.44	5.666
265.81	5.367
266.18	8.197
266.55	6.170
266.92	5.440
267.29	4.178
267.66	4.092
268.03	6.021
268.40	2.872
268.77	8.021
269.14	3.837
269.51	5.656
269.88	4.988
270.25	3.061
270.62	1.707
270.99	1.790
271.36	4.890
271.73	3.052
272.10	4.866
272.47	5.674
272.84	2.475
273.21	5.568
273.58	6.506
273.95	6.178
274.32	1.386
274.69	2.941
275.06	5.580
275.43	4.082
275.80	6.181
276.17	2.299
276.54	5.782
276.91	5.921
277.28	4.148
277.65	4.132
278.02	4.255
278.39	4.158
278.76	4.403
279.13	1.037
279.50	3.571
279.87	7.559
280.23	2.581
280.60	5.263
280.97	5.859
281.34	5.192
281.71	5.133
282.08	4.090
282.45	3.914
282.82	2.896
283.19	3.868
283.56	6.166
283.92	3.985
284.29	5.385
284.66	3.488
285.03	4.322
285.40	3.592
285.77	2.636
286.14	4.513
286.51	1.476
286.87	4.022
287.24	4.788
287.61	2.293
287.98	5.263
288.35	4.159
288.72	5.079
289.08	4.167
289.45	4.745
289.82	5.769
290.19	2.560
290.56	1.715
290.93	2.525
291.29	2.773
291.66	4.252
292.03	3.668
292.40	5.000
292.77	4.306
293.13	1.461
293.50	2.428
293.87	3.817
294.24	3.555
294.60	4.173
294.97	4.464
295.34	3.528
295.71	3.875
296.08	3.288
296.44	1.991
296.81	2.917
297.18	2.609
297.55	5.149
297.91	3.425
298.28	5.541
298.65	3.935
299.02	4.852
299.38	2.599
299.75	3.724
300.12	3.665
300.48	2.767
300.85	3.802
301.22	3.247
301.59	3.816
301.95	4.304
302.32	4.021
302.69	3.109
303.05	4.703
303.42	3.736
303.79	4.206
304.15	2.628
304.52	2.735
304.89	4.561
305.25	3.511
305.62	3.384
305.99	3.392
306.35	2.659
306.72	2.587
307.09	3.421
307.45	3.904
307.82	4.167
308.19	4.530
308.55	4.253
308.92	4.684
309.29	4.022
309.65	2.583
310.02	4.070
310.38	3.952
310.75	3.607
311.12	3.875
311.48	4.242
311.85	5.445
312.22	3.903
312.58	5.732
312.95	4.696
313.31	3.106
313.68	3.874
314.05	5.918
314.41	5.361
314.78	4.639
315.14	5.550
315.51	7.453
315.87	6.352
316.24	7.887
316.61	7.874
316.97	8.730
317.34	7.715
317.70	9.178
318.07	8.365
318.43	8.333
318.80	9.470
319.16	9.375
319.53	11.871
319.89	11.122
320.26	10.931
320.62	12.738
320.99	11.587
321.35	13.361
321.72	14.538
322.08	14.300
322.45	15.736
322.81	16.012
323.18	16.683
323.54	16.892
323.91	17.527
324.27	20.703
324.64	21.629
325.00	21.533
325.37	24.977
325.73	22.484
326.10	24.523
326.46	26.996
326.83	26.859
327.19	28.771
327.56	31.364
327.92	31.250
328.29	31.607
328.65	34.245
329.01	34.007
329.38	36.866
329.74	35.316
330.11	37.627
330.47	39.703
330.84	40.481
331.20	42.015
331.56	42.500
331.93	42.374
332.29	44.363
332.66	44.163
333.02	44.981
333.38	45.371
333.75	47.985
334.11	45.837
334.48	49.320
334.84	47.253
335.20	49.588
335.57	47.869
335.93	50.136
336.29	51.013
336.66	50.681
337.02	51.487
337.38	50.278
337.75	52.636
338.11	52.119
338.47	54.015
338.84	53.512
339.20	53.656
339.56	55.780
339.93	52.731
340.29	53.945
340.65	55.556
341.02	55.053
341.38	54.779
341.74	54.417
342.11	52.080
342.47	57.206
342.83	55.969
343.20	55.662
343.56	56.174
343.92	56.599
344.28	56.277
344.65	55.354
345.01	58.427
345.37	56.518
345.73	55.565
346.10	59.275
346.46	56.182
346.82	56.056
347.19	56.110
347.55	59.064
347.91	58.252
348.27	56.184
348.63	58.092
349.00	58.244
349.36	58.520
349.72	59.287
350.08	59.590
350.45	58.739
350.81	59.635
351.17	57.573
351.53	58.939
351.89	59.785
352.26	59.600
352.62	60.323
352.98	58.394
353.34	58.615
353.70	59.951
354.07	59.194
354.43	59.007
354.79	60.363
355.15	61.825
355.51	61.076
355.87	59.951
356.24	60.522
356.60	62.247
356.96	61.032
357.32	60.863
357.68	61.063
358.04	61.874
358.40	60.772
358.77	62.440
359.13	61.569
359.49	61.864
359.85	60.998
360.21	62.679
360.57	61.591
360.93	63.767
361.29	61.405
361.66	65.125
362.02	65.000
362.38	64.661
362.74	63.058
363.10	62.904
363.46	64.270
363.82	64.538
364.18	62.140
364.54	62.941
364.90	65.018
365.26	64.192
365.62	65.839
365.98	64.443
366.35	65.550
366.71	65.928
367.07	65.602
367.43	66.355
367.79	65.230
368.15	66.475
368.51	66.060
368.87	65.039
369.23	66.426
369.59	65.816
369.95	66.496
370.31	66.908
370.67	66.642
371.03	65.646
371.39	66.885
371.75	67.106
372.11	66.762
372.47	69.305
372.83	66.998
373.19	67.618
373.55	67.220
373.91	68.107
374.27	68.462
374.63	68.629
374.99	68.227
375.35	67.549
375.71	70.000
376.07	70.014
376.42	69.456
376.78	70.201
377.14	69.397
377.50	70.385
377.86	69.210
378.22	69.943
378.58	71.026
378.94	69.754
379.30	71.117
379.66	70.972
380.02	70.693
380.38	71.759
380.74	71.335
381.09	72.945
381.45	71.621
381.81	73.041
382.17	72.970
382.53	72.517
382.89	73.446
383.25	74.487
383.61	72.622
383.97	72.508
384.32	72.670
384.68	72.570
385.04	73.897
385.40	74.300
385.76	74.969
386.12	74.515
386.48	76.245
386.83	72.860
387.19	74.786
387.55	76.098
387.91	75.978
388.27	74.786
388.62	76.841
388.98	76.059
389.34	75.453
389.70	77.439
390.06	75.393
390.42	75.907
390.77	75.670
391.13	74.653
391.49	76.843
391.85	78.493
392.20	76.208
392.56	76.224
392.92	75.807
393.28	77.182
393.64	74.955
393.99	77.743
394.35	77.103
394.71	78.544
395.07	76.304
395.42	76.442
395.78	77.459
396.14	76.608
396.50	78.313
396.85	78.171
397.21	76.253
397.57	76.050
397.92	76.453
398.28	77.011
398.64	75.783
399.00	78.104
399.35	75.847
399.71	77.427
400.07	77.025
400.42	75.337
400.78	79.302
401.14	75.983
401.49	77.129
401.85	76.417
402.21	76.145
402.57	77.375
402.92	77.478
403.28	77.820
403.63	77.680
403.99	76.977
404.35	79.575
404.70	75.417
405.06	75.911
405.42	76.445
405.77	76.351
406.13	76.135
406.49	77.324
406.84	78.729
407.20	77.845
407.55	76.948
407.91	78.008
408.27	77.374
408.62	76.615
408.98	75.847
409.34	78.934
409.69	77.907
410.05	76.478
410.40	77.346
410.76	77.925
411.11	75.625
411.47	78.830
411.83	77.464
412.18	79.022
412.54	75.843
412.89	76.355
413.25	77.617
413.60	77.764
413.96	76.442
414.31	76.585
414.67	75.882
415.03	76.365
415.38	77.023
415.74	77.068
416.09	76.290
416.45	77.380
416.80	77.396
417.16	78.591
417.51	78.614
417.87	76.988
418.22	79.145
418.58	78.328
418.93	77.555
419.29	76.440
419.64	78.419
420.00	80.164
420.35	77.313
420.71	78.129
421.06	79.067
421.42	78.546
421.77	79.364
422.12	77.469
422.48	77.856
422.83	77.784
423.19	77.991
423.54	78.072
423.90	79.152
424.25	78.990
424.61	78.764
424.96	78.223
425.31	79.492
425.67	80.927
426.02	81.331
426.38	81.027
426.73	80.508
427.09	80.633
427.44	79.882
427.79	78.845
428.15	78.337
428.50	79.952
428.85	78.931
429.21	79.796
429.56	82.049
429.92	80.277
430.27	79.298
430.62	80.031
430.98	79.618
431.33	80.599
431.68	79.383
432.04	80.883
432.39	79.749
432.74	78.954
433.10	81.149
433.45	80.466
433.80	80.325
434.16	80.554
434.51	80.430
434.86	81.185
435.22	81.604
435.57	81.347
435.92	81.138
436.28	79.845
436.63	81.289
436.98	81.228
437.34	80.823
437.69	80.978
438.04	80.969
438.39	79.780
438.75	83.546
439.10	80.023
439.45	81.802
439.81	82.385
440.16	83.135
440.51	83.403
440.86	83.142
441.22	81.731
441.57	83.057
441.92	83.158
442.27	83.481
442.63	81.317
442.98	82.481
443.33	81.859
443.68	82.281
444.03	83.010
444.39	82.784
444.74	83.166
445.09	83.463
445.44	82.621
445.79	84.012
446.15	81.663
446.50	81.420
446.85	84.644
447.20	81.648
447.55	82.589
447.91	82.290
448.26	82.413
448.61	82.211
448.96	84.223
449.31	82.486
449.66	82.056
450.02	84.313
450.37	83.343
450.72	82.761
451.07	83.734
451.42	82.147
451.77	82.158
452.12	80.024
452.47	82.807
452.83	81.861
453.18	82.922
453.53	85.398
453.88	83.424
454.23	81.684
454.58	83.564
454.93	83.827
455.28	79.810
455.63	82.207
455.98	82.562
456.34	82.950
456.69	83.545
457.04	84.940
457.39	83.536
457.74	84.099
458.09	81.989
458.44	82.446
458.79	80.728
459.14	82.494
459.49	83.821
459.84	82.346
460.19	80.886
460.54	82.029
460.89	82.614
461.24	82.733
461.59	81.354
461.94	81.635
462.29	82.992
462.64	83.455
462.99	82.329
463.34	82.267
463.69	81.918
464.04	84.262
464.39	82.656
464.74	81.595
465.09	83.718
465.44	83.958
465.79	81.009
466.14	82.839
466.49	81.886
466.84	81.797
467.19	82.416
467.54	80.971
467.89	82.817
468.24	81.569
468.59	83.238
468.94	80.000
469.29	82.033
469.64	79.494
469.99	83.041
470.34	81.297
470.68	83.371
471.03	82.236
471.38	81.598
471.73	83.053
472.08	82.157
472.43	83.087
472.78	82.385
473.13	83.197
473.48	81.629
473.83	80.324
474.17	83.614
474.52	82.578
474.87	80.242
475.22	82.062
475.57	82.044
475.92	83.982
476.27	81.432
476.61	83.912
476.96	79.197
477.31	82.910
477.66	80.899
478.01	81.808
478.36	81.754
478.70	83.034
479.05	81.154
479.40	81.081
479.75	81.022
480.10	82.284
480.45	81.650
480.79	82.175
481.14	82.992
481.49	81.182
481.84	81.805
482.19	82.554
482.53	83.070
482.88	80.621
483.23	82.486
483.58	80.425
483.92	79.913
484.27	80.310
484.62	81.130
484.97	80.307
485.31	81.105
485.66	79.957
486.01	80.907
486.36	80.037
486.70	80.721
487.05	80.969
487.40	80.403
487.75	80.197
488.09	79.079
488.44	79.883
488.79	79.940
489.13	81.050
489.48	80.291
489.83	81.076
490.17	80.360
490.52	80.370
490.87	79.963
491.22	81.137
491.56	79.934
491.91	79.685
492.26	80.943
492.60	79.894
492.95	80.275
493.30	79.482
493.64	81.974
493.99	79.614
494.34	81.117
494.68	81.571
495.03	79.611
495.37	80.667
495.72	80.464
496.07	80.585
496.41	80.283
496.76	81.621
497.11	79.972
497.45	80.382
497.80	81.181
498.14	79.285
498.49	80.041
498.84	79.790
499.18	79.618
499.53	80.456
499.87	80.399
500.22	80.762
500.56	80.585
500.91	80.422
501.26	79.634
501.60	80.571
501.95	80.640
502.29	80.000
502.64	79.875
502.98	80.809
503.33	79.443
503.67	78.361
504.02	80.303
504.36	80.604
504.71	79.040
505.06	79.567
505.40	78.934
505.75	81.649
506.09	77.851
506.44	79.877
506.78	79.643
507.13	79.473
507.47	79.582
507.82	79.647
508.16	79.503
508.51	79.696
508.85	79.696
509.19	80.149
509.54	79.732
509.88	77.724
510.23	79.451
510.57	78.995
510.92	77.825
511.26	80.851
511.61	80.748
511.95	80.384
512.30	79.878
512.64	79.299
512.98	79.562
513.33	80.078
513.67	80.045
514.02	80.664
514.36	81.886
514.70	81.119
515.05	81.199
515.39	79.457
515.74	79.880
516.08	79.976
516.42	80.153
516.77	80.281
517.11	79.407
517.46	80.610
517.80	79.499
518.14	79.486
518.49	78.906
518.83	80.377
519.17	79.260
519.52	78.034
519.86	79.952
520.20	78.615
520.55	79.550
520.89	77.917
521.23	78.657
521.58	80.189
521.92	80.513
522.26	79.375
522.61	80.195
522.95	80.464
523.29	79.225
523.64	78.971
523.98	80.881
524.32	78.866
524.66	79.257
525.01	81.299
525.35	79.261
525.69	80.404
526.04	79.630
526.38	80.156
526.72	78.025
527.06	78.145
527.41	78.364
527.75	80.094
528.09	78.937
528.43	79.271
528.78	78.878
529.12	78.387
529.46	79.077
529.80	77.961
530.15	80.264
530.49	80.943
530.83	80.848
531.17	78.039
531.51	80.027
531.86	79.810
532.20	80.376
532.54	79.306
532.88	78.782
533.22	79.570
533.57	80.210
533.91	79.178
534.25	80.794
534.59	79.538
534.93	76.463
535.27	78.109
535.62	78.483
535.96	79.256
536.30	78.100
536.64	80.565
536.98	78.746
537.32	79.801
537.66	79.523
538.01	80.559
538.35	78.710
538.69	76.831
539.03	77.580
539.37	78.802
539.71	76.960
540.05	78.208
540.39	78.116
540.73	79.568
541.07	80.387
541.42	78.763
541.76	78.596
542.10	79.009
542.44	81.098
542.78	76.875
543.12	78.434
543.46	79.764
543.80	79.528
544.14	76.836
544.48	76.616
544.82	79.904
545.16	79.030
545.50	78.238
545.84	79.816
546.18	78.723
546.52	78.371
546.86	78.720
547.20	79.828
547.54	77.173
547.88	78.465
548.22	77.712
548.56	77.902
548.90	78.774
549.24	77.548
549.58	76.728
549.92	77.841
550.26	78.388
550.60	78.513
550.94	80.209
551.28	78.053
551.62	79.769
551.96	78.872
552.30	79.020
552.64	78.209
552.98	79.395
553.32	78.031
553.66	77.141
554.00	79.124
554.34	77.770
554.68	76.696
555.02	77.976
555.36	79.132
555.69	78.095
556.03	78.016
556.37	78.363
556.71	78.051
557.05	78.747
557.39	77.323
557.73	78.111
558.07	78.130
558.41	80.015
558.75	79.034
559.08	78.408
559.42	80.159
559.76	79.904
560.10	78.746
560.44	78.853
560.78	76.643
561.12	79.126
561.45	79.621
561.79	79.482
562.13	77.999
562.47	77.482
562.81	78.530
563.15	78.279
563.48	79.703
563.82	78.929
564.16	79.387
564.50	77.905
564.84	77.644
565.17	76.794
565.51	79.167
565.85	79.081
566.19	78.581
566.52	77.480
566.86	78.985
567.20	79.265
567.54	79.319
567.88	80.726
568.21	79.412
568.55	79.728
568.89	78.799
569.23	78.527
569.56	78.371
569.90	80.430
570.24	77.521
570.57	79.091
570.91	78.843
571.25	77.475
571.59	76.674
571.92	75.407
572.26	76.027
572.60	77.488
572.93	75.777
573.27	76.332
573.61	77.148
573.95	76.679
574.28	77.357
574.62	75.413
574.96	75.817
575.29	75.391
575.63	74.631
575.97	75.359
576.30	75.991
576.64	75.099
576.98	77.194
577.31	76.997
577.65	76.674
577.98	76.374
578.32	75.996
578.66	74.662
578.99	75.363
579.33	74.519
579.67	74.615
580.00	75.924
580.34	75.697
580.67	74.209
581.01	76.249
581.35	75.711
581.68	75.674
582.02	76.509
582.35	74.968
582.69	75.984
583.02	75.411
583.36	76.579
583.70	76.350
584.03	76.508
584.37	77.837
584.70	76.484
585.04	75.000
585.37	75.774
585.71	75.734
586.04	75.895
586.38	75.540
586.72	76.413
587.05	76.574
587.39	77.216
587.72	78.075
588.06	77.443
588.39	76.588
588.73	76.038
589.06	77.136
589.40	76.011
589.73	76.196
590.07	77.757
590.40	77.748
590.73	78.295
591.07	77.014
591.40	78.139
591.74	76.923
592.07	76.809
592.41	77.076
592.74	77.380
593.08	75.899
593.41	76.211
593.75	75.597
594.08	75.524
594.41	76.274
594.75	75.763
595.08	76.920
595.42	76.813
595.75	77.394
596.09	77.326
596.42	76.478
596.75	76.776
597.09	76.036
597.42	76.739
597.75	77.600
598.09	75.645
598.42	75.767
598.76	76.619
599.09	75.841
599.42	75.104
599.76	75.621
600.09	76.207
600.42	75.588
600.76	74.220
601.09	75.840
601.42	74.422
601.76	76.380
602.09	75.083
602.42	77.043
602.76	76.995
603.09	77.118
603.42	78.637
603.76	76.653
604.09	76.185
604.42	76.481
604.76	76.814
605.09	76.005
605.42	75.892
605.75	76.532
606.09	75.796
606.42	75.688
606.75	76.364
607.09	76.923
607.42	75.188
607.75	75.311
608.08	74.528
608.42	73.869
608.75	75.904
609.08	76.682
609.41	75.838
609.75	77.016
610.08	76.286
610.41	75.700
610.74	76.841
611.07	76.899
611.41	77.997
611.74	77.772
612.07	77.409
612.40	77.462
612.73	78.475
613.07	76.209
613.40	75.875
613.73	77.672
614.06	76.405
614.39	76.763
614.72	74.062
615.06	76.257
615.39	74.727
615.72	75.242
616.05	76.201
616.38	75.157
616.71	76.208
617.05	77.332
617.38	76.870
617.71	77.358
618.04	77.905
618.37	77.364
618.70	77.294
619.03	77.847
619.36	78.148
619.69	79.985
620.03	77.502
620.36	78.541
620.69	77.302
621.02	78.135
621.35	78.257
621.68	80.102
622.01	78.667
622.34	75.818
622.67	77.050
623.00	78.025
623.33	77.820
623.66	76.963
623.99	77.005
624.32	77.871
624.65	78.271
624.99	78.330
625.32	77.710
625.65	80.754
625.98	78.566
626.31	78.886
626.64	80.676
626.97	78.621
627.30	79.510
627.63	77.816
627.96	78.167
628.29	80.389
628.62	81.416
628.95	79.459
629.28	80.948
629.61	78.863
629.94	80.743
630.26	78.063
630.59	79.813
630.92	79.795
631.25	76.308
631.58	80.837
631.91	79.715
632.24	81.078
632.57	81.932
632.90	81.376
633.23	77.882
633.56	81.990
633.89	81.381
634.22	83.457
634.55	82.084
634.88	81.481
635.20	79.359
635.53	84.267
635.86	81.274
636.19	81.113
636.52	82.270
636.85	79.529
637.18	80.755
637.51	80.629
637.83	79.106
638.16	83.902
638.49	81.608
638.82	80.921
639.15	80.597
639.48	81.155
639.81	81.869
640.13	84.127
640.46	82.945
640.79	81.738
641.12	80.059
641.45	80.180
641.77	81.926
642.10	84.360
642.43	80.547
642.76	83.663
643.09	82.553
643.41	80.097
643.74	81.384
644.07	80.788
644.40	83.446
644.73	83.012
645.05	79.362
645.38	84.303
645.71	84.752
646.04	84.560
646.36	82.447
646.69	83.633
647.02	87.146
647.35	83.955
647.67	81.718
648.00	85.075
648.33	81.058
648.66	81.695
648.98	81.910
649.31	82.645
649.64	77.865
649.96	81.037
650.29	82.624
650.62	84.103
650.94	86.296
651.27	82.123
651.60	83.063
651.92	81.469
652.25	81.883
652.58	77.833
652.90	85.420
653.23	79.328
653.56	82.910
653.88	79.381
654.21	81.086
654.54	80.645
654.86	80.985
655.19	79.094
655.52	82.353
655.84	76.120
656.17	82.892
656.49	100.000
656.82	100.000
657.15	100.000
657.47	68.495
657.80	48.901
658.13	48.004
658.45	74.319
658.78	73.665
659.10	72.924
659.43	72.080
659.75	74.840
660.08	74.414
660.41	75.485
660.73	77.210
661.06	79.723
661.38	80.235
661.71	79.261
662.03	81.760
662.36	82.857
662.68	82.080
663.01	83.843
663.33	85.847
663.66	82.326
663.98	83.488
664.31	80.171
664.63	81.106
664.96	78.478
665.28	78.587
665.61	84.632
665.93	84.348
666.26	82.213
666.58	80.761
666.91	83.059
667.23	83.491
667.56	84.597
667.88	83.693
668.21	81.623
668.53	81.560
668.86	86.321
669.18	81.840
669.50	79.903
669.83	80.465
670.15	83.683
670.48	84.450
670.80	79.954
671.13	79.195
671.45	78.311
671.77	82.403
672.10	77.426
672.42	81.273
672.75	79.218
673.07	79.964
673.39	79.450
673.72	78.895
674.04	77.292
674.37	79.237
674.69	80.514
675.01	80.667
675.34	79.505
675.66	80.556
675.98	80.710
676.31	81.422
676.63	80.048
676.95	80.455
677.28	80.471
677.60	84.337
677.92	77.982
678.25	78.556
678.57	75.974
678.89	80.042
679.22	82.550
679.54	76.104
679.86	75.547
680.18	79.223
680.51	77.841
680.83	75.944
681.15	78.600
681.48	83.811
681.80	81.612
682.12	77.218
682.44	79.498
682.77	79.470
683.09	79.863
683.41	77.273
683.73	80.184
684.06	77.876
684.38	77.419
684.70	85.839
685.02	80.290
685.34	80.040
685.67	79.362
685.99	79.024
686.31	75.398
686.63	76.438
686.96	77.757
687.28	78.586
687.60	73.954
687.92	79.596
688.24	77.621
688.56	80.786
688.89	77.009
689.21	77.111
689.53	80.510
689.85	79.070
690.17	79.911
690.49	77.541
690.82	77.184
691.14	78.333
691.46	80.841
691.78	79.505
692.10	76.344
692.42	78.355
692.74	72.650
693.06	79.730
693.39	76.018
693.71	76.018
694.03	75.289
694.35	79.206
694.67	79.545
694.99	76.501
695.31	81.201
695.63	77.500
695.95	80.303
696.27	78.497
696.59	82.500
696.91	79.552
697.23	80.720
697.56	79.703
697.88	78.495
698.20	80.182
698.52	77.176
698.84	77.512
699.16	76.500
699.48	79.950
699.80	78.412
700.12	81.132
700.44	79.832
700.76	76.453
701.08	77.879
701.40	77.711
701.72	81.790
702.04	81.518
702.36	87.625
702.68	79.279
703.00	84.848
703.32	78.592
703.64	72.034
703.96	75.362
704.28	80.368
704.60	79.683
704.91	76.341
705.23	83.056
705.55	85.866
705.87	79.422
706.19	82.222
706.51	77.320
706.83	84.244
707.15	76.947
707.47	78.431
707.79	75.260
708.11	75.750
708.43	75.000
708.74	75.194
709.06	76.620
709.38	79.817
709.70	75.148
710.02	78.981
710.34	80.186
710.66	69.231
710.98	80.795
711.29	77.705
711.61	76.949
711.93	74.593
712.25	79.038
712.57	82.784
712.89	73.134
713.20	74.740
713.52	76.655
713.84	75.768
714.16	79.381
714.48	77.097
714.80	78.846
715.11	81.763
715.43	73.981
715.75	78.000
716.07	72.757
716.39	74.161
716.70	75.646
717.02	77.863
717.34	78.138
717.66	79.646
717.97	71.304
718.29	73.222
718.61	69.291
718.93	77.907
719.24	74.905
719.56	79.920
719.88	74.570
720.20	76.515
720.51	76.628
720.83	80.695
721.15	80.672
721.46	74.597
721.78	77.866
722.10	71.004
722.42	73.859
722.73	75.918
723.05	79.184
723.37	76.695
723.68	79.730
724.00	79.487
724.32	77.333
724.63	78.636
724.95	79.476
725.27	79.724
725.58	82.203
725.90	71.429
726.22	77.992
726.53	70.508
726.85	74.906
727.16	74.717
727.48	74.089
727.80	77.328
728.11	78.390
728.43	75.686
728.74	76.613
729.06	80.400
729.38	80.827
729.69	70.518
730.01	67.692
730.32	76.493
730.64	74.558
730.96	75.094
731.27	69.333
731.59	76.949
731.90	73.885
732.22	74.132
732.53	76.412
732.85	76.241
733.16	74.074
733.48	70.144
733.80	78.986
734.11	67.458
734.43	75.945
734.74	73.333
735.06	78.502
735.37	74.622
735.69	79.125
736.00	72.474
736.32	71.141
736.63	74.296
736.95	73.038
737.26	72.242
737.58	73.826
737.89	78.388
738.21	74.436
738.52	80.247
738.83	80.786
739.15	75.109
739.46	79.528
739.78	68.864
740.09	71.242
740.41	72.826
740.72	70.472
741.04	78.138
741.35	72.340
741.66	72.038
741.98	75.000
742.29	76.238
742.61	76.963
742.92	71.090
743.23	74.537
743.55	76.471
743.86	71.292
744.18	76.555
744.49	74.468
744.80	79.891
745.12	82.353
745.43	77.073
745.74	79.688
746.06	76.585
746.37	79.058
746.68	78.199
747.00	80.319
747.31	81.592
747.62	75.728
747.94	74.163
748.25	73.762
748.56	81.967
748.88	73.298
749.19	83.511
749.50	72.906
749.82	67.453
750.13	76.147
750.44	78.947
750.75	80.970
751.07	78.102
751.38	74.713
751.69	69.412
752.01	73.643
752.32	71.713
752.63	72.727
752.94	75.862
753.26	78.243
753.57	72.398
753.88	75.221
754.19	75.833
754.51	73.554
754.82	73.684
755.13	78.333
755.44	73.790
755.75	73.047
756.07	75.097
756.38	71.698
756.69	72.414
757.00	68.333
757.31	68.301
757.63	65.549
757.94	68.889
758.25	67.397
758.56	67.287
758.87	61.473
759.18	66.978
759.50	70.182
759.81	75.251
760.12	70.645
760.43	69.697
760.74	74.383
761.05	76.000
761.36	69.886
761.67	70.909
761.99	74.150
762.30	65.455
762.61	76.680
762.92	69.231
763.23	72.523
763.54	71.495
763.85	72.881
764.16	70.539
764.47	73.790
764.78	64.835
765.10	72.391
765.41	68.139
765.72	65.714
766.03	70.301
766.34	68.978
766.65	64.940
766.96	73.737
767.27	72.340
767.58	75.287
767.89	76.596
768.20	67.045
768.51	77.473
768.82	70.936
769.13	65.438
769.44	66.953
769.75	73.973
770.06	68.966
770.37	64.423
770.68	69.036
770.99	65.611
771.30	78.922
771.61	71.493
771.92	71.552
772.23	74.384
772.54	75.269
772.85	73.457
773.16	69.663
773.47	80.392
773.78	75.163
774.09	64.072
774.39	71.333
774.70	71.338
775.01	77.931
775.32	69.286
775.63	70.248
775.94	64.122
776.25	67.717
776.56	79.167
776.87	81.731
777.18	62.393
777.48	75.862
777.79	60.000
778.10	67.619
778.41	72.973
778.72	72.222
779.03	72.932
779.34	64.539
779.65	68.493
779.95	67.123
780.26	65.517
780.57	65.041
780.88	65.354
781.19	72.414
781.50	80.620
781.80	69.822
782.11	63.522
782.42	81.538
782.73	63.309
783.04	69.630
783.34	64.583
783.65	59.829
783.96	72.951
784.27	73.793
784.57	69.106
784.88	67.969
785.19	81.000
785.50	90.000
785.81	75.862
786.11	75.000
786.42	70.874
786.73	79.091
787.04	76.531
787.34	65.179
787.65	67.619
787.96	74.336
788.26	80.909
788.57	70.940
788.88	75.000
789.19	61.905
789.49	68.696
789.80	69.388
790.11	67.677
790.41	53.636
790.72	78.261
791.03	71.591
791.33	82.500
791.64	75.000
791.95	58.140
792.25	76.596
792.56	76.404
792.87	69.863
793.17	75.362
793.48	58.667
793.79	55.000
794.09	73.750
794.40	65.094
794.70	71.845
795.01	60.976
795.32	60.684
795.62	72.381
795.93	70.588
796.23	71.698
796.54	67.708
796.85	61.765
797.15	67.606
797.46	73.611
797.76	89.394
798.07	61.628
798.37	59.211
798.68	62.121
798.99	41.975
799.29	71.429
799.60	71.014
799.90	68.000
800.21	83.607
800.51	64.615
800.82	54.237
801.12	71.014
801.43	72.131
801.73	65.079
802.04	78.000
802.34	62.687
802.65	53.846
802.95	51.786
803.26	48.077
803.56	56.863
803.87	67.391
804.17	53.333
804.48	80.952
804.78	55.556
805.09	73.913
805.39	91.111
805.70	64.815
806.00	45.614
806.30	53.521
806.61	78.571
806.91	55.556
807.22	67.105
807.52	72.000
807.83	52.727
808.13	75.000
808.43	73.529
808.74	82.090
809.04	59.322
809.35	61.538
809.65	75.000
809.95	67.568
810.26	29.545
810.56	54.795
810.86	83.333
811.17	62.000
811.47	61.224
811.77	78.947
812.08	70.455
812.38	54.717
812.69	80.000
812.99	48.485
813.29	81.579
813.59	42.857
813.90	65.909
814.20	71.795
814.50	61.538
814.81	75.472
815.11	59.574
815.41	66.102
815.72	52.381
816.02	56.863
816.32	58.333
816.62	70.732
816.93	43.243
817.23	77.143
817.53	47.917
817.84	41.304
818.14	78.846
818.44	36.842
818.74	63.043
819.04	22.500
819.35	89.189
819.65	50.000
819.95	47.222
820.25	47.619
820.56	60.000
820.86	48.276
821.16	87.500
821.46	76.596
821.76	47.500
822.07	72.093
822.37	37.838
822.67	50.000
822.97	78.571
823.27	60.714
823.57	100.000
823.88	33.333
824.18	82.143
824.48	38.235
824.78	87.097
825.08	91.304
825.38	103.030
825.69	58.333
825.99	52.632
826.29	58.333
826.59	126.667
826.89	57.143
827.19	52.174
827.49	55.000
827.79	77.143
828.09	53.571
828.39	96.970
828.70	67.568
829.00	42.857
829.30	71.429
829.60	66.667
829.90	112.500
830.20	44.737
830.50	55.556
830.80	43.478
831.10	54.545
831.40	75.758
831.70	77.419
832.00	76.190
832.30	61.905
832.60	75.000
832.90	34.483
833.20	15.000
833.50	54.545
833.80	92.593
834.10	42.308
834.40	65.625
834.70	166.667
835.00	94.737
835.30	100.000
835.60	126.667
835.90	51.613
836.20	50.000
836.50	85.714
836.80	-15.385
837.10	60.714
837.40	233.333
837.70	36.364
838.00	45.455
838.30	86.957
838.60	30.769
838.90	45.455
839.19	50.000
839.49	73.333
839.79	146.154
840.09	50.000
840.39	75.000
840.69	57.143
840.99	11.538
841.29	84.211
841.59	60.000
841.88	63.636
842.18	20.000
842.48	50.000
842.78	20.000
843.08	37.037
843.38	-130.000
843.68	39.130
843.97	86.667
844.27	73.333
844.57	25.000
844.87	88.889
845.17	33.333
845.47	33.333
845.76	-4.762
846.06	100.000
846.36	170.000
846.66	42.857
846.96	80.000
847.25	0.000
847.55	71.429
847.85	100.000
848.15	90.909
848.44	-66.667
848.74	75.000
849.04	25.926
849.34	81.818
849.63	-33.333
849.93	-20.000
850.23	50.000
850.53	150.000
850.82	7.692
851.12	88.889
851.42	0.000
851.71	46.154
852.01	28.571
852.31	-25.000
852.61	18.182
852.90	5.000
853.20	47.368
853.50	16.667
853.79	39.130
854.09	79.167
854.39	15.789
854.68	62.500
854.98	61.290
855.28	46.154
855.57	40.000
855.87	111.111
856.17	55.556
856.46	35.714
856.76	-20.000
857.05	166.667
857.35	60.000
857.65	44.444
857.94	84.615
858.24	51.724
858.53	94.444
858.83	48.148
859.13	59.091
859.42	52.174
859.72	300.000
860.01	-100.000
860.31	40.000
860.60	85.714
860.90	-433.333
861.20	-13.333
861.49	-150.000
861.79	0.000
862.08	70.000
862.38	126.667
862.67	-80.000
862.97	50.000
863.26	25.000
863.56	61.111
863.85	-533.333
864.15	72.222
864.44	-70.000
864.74	92.857
865.03	-75.000
865.33	240.000
865.62	216.667
865.92	100.000
866.21	50.000
866.51	93.750
866.80	0.000
867.10	100.000
867.39	58.333
867.69	0.000
867.98	61.538
868.27	333.333
868.57	80.000
868.86	27.778
869.16	-30.769
869.45	153.333
869.75	-800.000
870.04	0.000
870.33	14.286
870.63	71.429
870.92	200.000
871.22	-240.000
871.51	400.000
871.80	11.111
872.10	166.667
>>>>>End Processed Spectral Data<<<<<
