SpectraSuite Data File
++++++++++++++++++++++++++++++++++++
Date: Fri May 15 17:30:38 PDT 2015
User: schluterlab
Dark Spectrum Present: Yes
Reference Spectrum Present: Yes
Number of Sampled Component Spectra: 1
Spectrometers: USB2E3373
Integration Time (usec): 3000 (USB2E3373)
Spectra Averaged: 3 (USB2E3373)
Boxcar Smoothing: 0 (USB2E3373)
Correct for Electrical Dark: No (USB2E3373)
Strobe/Lamp Enabled: No (USB2E3373)
Correct for Detector Non-linearity: No (USB2E3373)
Correct for Stray Light: No (USB2E3373)
Number of Pixels in Processed Spectrum: 2048
>>>>>Begin Processed Spectral Data<<<<<
178.53	0.000
178.91	0.000
179.29	37.500
179.67	-350.000
180.04	-14.286
180.42	175.000
180.80	200.000
181.18	33.333
181.56	350.000
181.94	-100.000
182.31	-100.000
182.69	200.000
183.07	166.667
183.45	140.000
183.83	-100.000
184.20	9.091
184.58	77.778
184.96	-50.000
185.34	-300.000
185.72	50.000
186.09	38.462
186.47	-300.000
186.85	216.667
187.23	55.556
187.61	-300.000
187.98	0.000
188.36	55.556
188.74	-133.333
189.12	-35.294
189.49	27.778
189.87	0.000
190.25	64.286
190.63	200.000
191.00	0.000
191.38	47.368
191.76	400.000
192.14	-0.000
192.51	600.000
192.89	11.111
193.27	-14.286
193.65	183.333
194.02	54.545
194.40	20.000
194.78	0.000
195.15	0.000
195.53	25.000
195.91	-0.000
196.29	50.000
196.66	84.615
197.04	-42.857
197.42	11.111
197.79	-133.333
198.17	-115.385
198.55	300.000
198.92	-166.667
199.30	800.000
199.68	-180.000
200.05	166.667
200.43	0.000
200.81	133.333
201.18	-133.333
201.56	1100.000
201.94	-350.000
202.31	-200.000
202.69	-100.000
203.07	75.000
203.44	-400.000
203.82	0.000
204.19	28.571
204.57	-533.333
204.95	187.500
205.32	170.000
205.70	71.429
206.08	75.000
206.45	100.000
206.83	157.143
207.20	0.000
207.58	-800.000
207.96	100.000
208.33	-40.000
208.71	25.000
209.08	16.667
209.46	-400.000
209.84	-100.000
210.21	-1200.000
210.59	214.286
210.96	150.000
211.34	175.000
211.71	40.000
212.09	-42.857
212.46	-1200.000
212.84	0.000
213.22	130.000
213.59	-250.000
213.97	30.769
214.34	36.364
214.72	0.000
215.09	200.000
215.47	0.000
215.84	54.545
216.22	-233.333
216.59	62.500
216.97	400.000
217.34	300.000
217.72	-60.000
218.09	125.000
218.47	175.000
218.84	-900.000
219.22	-88.889
219.59	-60.000
219.97	200.000
220.34	275.000
220.72	28.571
221.09	75.000
221.47	-100.000
221.84	-300.000
222.22	150.000
222.59	45.455
222.97	0.000
223.34	-233.333
223.72	-28.571
224.09	0.000
224.46	42.857
224.84	-200.000
225.21	60.000
225.59	66.667
225.96	-400.000
226.34	400.000
226.71	128.571
227.08	83.333
227.46	25.000
227.83	-350.000
228.21	-33.333
228.58	9.091
228.95	100.000
229.33	-20.000
229.70	37.500
230.08	-50.000
230.45	42.857
230.82	42.857
231.20	-6.667
231.57	78.571
231.95	100.000
232.32	-40.000
232.69	92.857
233.07	-100.000
233.44	-80.000
233.81	-50.000
234.19	133.333
234.56	52.941
234.93	-650.000
235.31	425.000
235.68	-40.000
236.05	-7.692
236.43	35.000
236.80	88.235
237.17	46.875
237.55	60.000
237.92	29.630
238.29	55.556
238.67	86.667
239.04	47.059
239.41	43.902
239.79	96.667
240.16	70.732
240.53	60.526
240.91	63.043
241.28	58.730
241.65	67.857
242.02	73.973
242.40	51.667
242.77	69.492
243.14	77.273
243.51	58.750
243.89	83.908
244.26	63.218
244.63	63.095
245.00	59.794
245.38	82.474
245.75	68.539
246.12	57.759
246.49	61.157
246.87	78.846
247.24	59.664
247.61	71.053
247.98	57.724
248.36	58.125
248.73	69.737
249.10	61.688
249.47	68.354
249.84	62.745
250.22	61.176
250.59	76.471
250.96	61.033
251.33	66.860
251.70	71.176
252.08	68.020
252.45	64.356
252.82	70.854
253.19	64.516
253.56	65.421
253.94	66.216
254.31	63.913
254.68	69.298
255.05	65.748
255.42	64.629
255.79	67.181
256.16	70.428
256.54	68.284
256.91	62.738
257.28	66.171
257.65	67.416
258.02	65.603
258.39	64.646
258.76	66.667
259.14	66.777
259.51	65.372
259.88	71.134
260.25	63.072
260.62	69.097
260.99	65.424
261.36	63.699
261.73	66.139
262.10	65.957
262.47	68.712
262.85	66.771
263.22	67.385
263.59	67.601
263.96	69.565
264.33	69.091
264.70	66.964
265.07	66.964
265.44	67.422
265.81	61.299
266.18	68.033
266.55	64.524
266.92	64.767
267.29	68.146
267.66	66.240
268.03	70.681
268.40	65.013
268.77	68.449
269.14	61.871
269.51	71.208
269.88	63.342
270.25	65.816
270.62	64.146
270.99	65.985
271.36	63.081
271.73	65.962
272.10	63.017
272.47	64.066
272.84	69.059
273.21	67.981
273.58	64.096
273.95	63.158
274.32	64.665
274.69	62.670
275.06	65.625
275.43	64.626
275.80	62.472
276.17	64.368
276.54	59.101
276.91	65.132
277.28	60.917
277.65	59.917
278.02	60.426
278.39	62.801
278.76	62.474
279.13	59.336
279.50	64.706
279.87	63.283
280.23	61.720
280.60	61.209
280.97	62.828
281.34	58.462
281.71	63.039
282.08	59.714
282.45	58.708
282.82	62.355
283.19	60.928
283.56	59.152
283.92	60.342
284.29	60.385
284.66	61.628
285.03	59.921
285.40	57.467
285.77	55.536
286.14	57.762
286.51	61.439
286.87	56.307
287.24	60.958
287.61	58.730
287.98	55.263
288.35	57.366
288.72	56.392
289.08	55.208
289.45	56.239
289.82	53.497
290.19	52.730
290.56	55.918
290.93	54.714
291.29	51.156
291.66	50.236
292.03	53.110
292.40	51.129
292.77	51.196
293.13	48.864
293.50	47.951
293.87	48.550
294.24	44.513
294.60	45.306
294.97	47.024
295.34	48.773
295.71	46.796
296.08	46.786
296.44	45.804
296.81	44.444
297.18	46.812
297.55	47.425
297.91	46.027
298.28	44.855
298.65	43.419
299.02	43.935
299.38	42.955
299.75	42.483
300.12	43.063
300.48	43.610
300.85	42.839
301.22	42.987
301.59	42.763
301.95	43.291
302.32	42.672
302.69	41.418
303.05	40.965
303.42	42.092
303.79	41.121
304.15	42.413
304.52	41.855
304.89	40.234
305.25	39.952
305.62	38.390
305.99	38.596
306.35	39.075
306.72	38.695
307.09	39.111
307.45	39.954
307.82	38.426
308.19	41.231
308.55	38.168
308.92	40.523
309.29	38.212
309.65	39.397
310.02	38.724
310.38	38.858
310.75	39.781
311.12	40.151
311.48	38.282
311.85	38.115
312.22	38.186
312.58	38.641
312.95	37.567
313.31	37.164
313.68	38.010
314.05	37.245
314.41	37.216
314.78	36.701
315.14	38.335
315.51	38.820
315.87	38.217
316.24	36.198
316.61	37.205
316.97	37.798
317.34	36.621
317.70	36.807
318.07	36.346
318.43	38.235
318.80	35.795
319.16	37.598
319.53	36.467
319.89	35.630
320.26	36.336
320.62	36.810
320.99	36.952
321.35	36.691
321.72	36.656
322.08	36.858
322.45	36.548
322.81	37.426
323.18	36.114
323.54	36.776
323.91	36.611
324.27	36.230
324.64	35.955
325.00	36.679
325.37	36.455
325.73	35.811
326.10	35.695
326.46	35.336
326.83	34.296
327.19	35.397
327.56	36.751
327.92	36.444
328.29	34.464
328.65	36.415
329.01	35.478
329.38	35.115
329.74	36.072
330.11	34.476
330.47	33.952
330.84	34.712
331.20	37.928
331.56	33.611
331.93	35.068
332.29	34.830
332.66	34.932
333.02	34.944
333.38	35.289
333.75	34.799
334.11	33.751
334.48	34.814
334.84	34.615
335.20	35.041
335.57	33.817
335.93	34.959
336.29	34.715
336.66	32.516
337.02	33.829
337.38	33.889
337.75	34.909
338.11	34.896
338.47	33.303
338.84	32.810
339.20	33.821
339.56	34.771
339.93	35.094
340.29	35.229
340.65	33.333
341.02	34.574
341.38	33.982
341.74	33.569
342.11	32.929
342.47	33.719
342.83	34.516
343.20	32.491
343.56	33.739
343.92	32.861
344.28	33.988
344.65	33.074
345.01	33.103
345.37	32.044
345.73	32.134
346.10	33.046
346.46	32.969
346.82	32.488
347.19	32.086
347.55	32.498
347.91	31.877
348.27	32.094
348.63	33.646
349.00	30.927
349.36	32.502
349.72	32.919
350.08	33.115
350.45	33.121
350.81	32.558
351.17	32.003
351.53	32.571
351.89	31.709
352.26	31.840
352.62	32.258
352.98	30.924
353.34	30.676
353.70	32.686
354.07	31.129
354.43	31.305
354.79	31.462
355.15	31.905
355.51	32.199
355.87	31.634
356.24	30.750
356.60	31.205
356.96	32.540
357.32	31.390
357.68	31.118
358.04	30.614
358.40	31.672
358.77	31.180
359.13	30.264
359.49	29.815
359.85	29.797
360.21	31.738
360.57	30.069
360.93	31.392
361.29	28.776
361.66	31.113
362.02	31.212
362.38	30.693
362.74	31.945
363.10	31.076
363.46	31.134
363.82	31.630
364.18	30.037
364.54	30.368
364.90	31.039
365.26	30.422
365.62	30.949
365.98	30.645
366.35	31.173
366.71	30.820
367.07	30.769
367.43	29.907
367.79	30.459
368.15	30.653
368.51	30.517
368.87	29.864
369.23	29.170
369.59	30.321
369.95	30.499
370.31	30.130
370.67	28.955
371.03	28.753
371.39	28.738
371.75	30.256
372.11	28.887
372.47	29.290
372.83	30.234
373.19	29.601
373.55	29.819
373.91	29.734
374.27	29.270
374.63	29.505
374.99	29.149
375.35	29.944
375.71	30.559
376.07	28.441
376.42	28.776
376.78	29.799
377.14	29.045
377.50	28.021
377.86	28.313
378.22	28.909
378.58	29.295
378.94	29.679
379.30	29.632
379.66	29.091
380.02	29.552
380.38	28.424
380.74	28.665
381.09	28.957
381.45	28.318
381.81	28.809
382.17	28.553
382.53	29.419
382.89	29.818
383.25	28.811
383.61	29.939
383.97	28.254
384.32	29.143
384.68	29.350
385.04	28.431
385.40	28.376
385.76	29.623
386.12	29.690
386.48	30.460
386.83	28.662
387.19	28.266
387.55	29.109
387.91	28.056
388.27	28.205
388.62	28.823
388.98	28.422
389.34	28.420
389.70	29.273
390.06	29.075
390.42	27.979
390.77	29.366
391.13	28.184
391.49	28.784
391.85	27.940
392.20	27.997
392.56	28.671
392.92	28.890
393.28	28.302
393.64	28.468
393.99	29.216
394.35	28.463
394.71	28.289
395.07	27.844
395.42	28.294
395.78	28.664
396.14	28.247
396.50	28.535
396.85	28.783
397.21	28.070
397.57	28.401
397.92	28.760
398.28	28.506
398.64	28.133
399.00	28.217
399.35	26.919
399.71	27.800
400.07	29.202
400.42	28.213
400.78	28.475
401.14	28.675
401.49	27.874
401.85	28.032
402.21	28.133
402.57	28.938
402.92	28.419
403.28	28.258
403.63	28.499
403.99	28.635
404.35	29.856
404.70	27.202
405.06	27.732
405.42	27.595
405.77	27.716
406.13	27.648
406.49	27.827
406.84	27.445
407.20	28.718
407.55	26.980
407.91	27.406
408.27	27.342
408.62	28.492
408.98	27.418
409.34	27.819
409.69	27.261
410.05	27.340
410.40	27.593
410.76	27.925
411.11	27.938
411.47	28.665
411.83	26.114
412.18	28.378
412.54	27.715
412.89	27.401
413.25	27.377
413.60	27.329
413.96	28.160
414.31	28.049
414.67	27.774
415.03	28.096
415.38	27.611
415.74	28.599
416.09	28.478
416.45	27.346
416.80	25.843
417.16	27.693
417.51	27.981
417.87	27.445
418.22	27.461
418.58	26.756
418.93	28.025
419.29	26.569
419.64	27.414
420.00	28.463
420.35	26.866
420.71	27.886
421.06	28.115
421.42	28.065
421.77	27.688
422.12	27.526
422.48	27.558
422.83	26.914
423.19	28.837
423.54	26.631
423.90	26.737
424.25	28.014
424.61	28.764
424.96	27.120
425.31	28.596
425.67	27.289
426.02	28.151
426.38	27.802
426.73	28.269
427.09	28.734
427.44	27.882
427.79	27.873
428.15	28.095
428.50	27.014
428.85	26.843
429.21	27.391
429.56	27.871
429.92	27.170
430.27	27.569
430.62	27.339
430.98	27.919
431.33	27.708
431.68	26.740
432.04	28.340
432.39	26.982
432.74	27.420
433.10	27.701
433.45	27.240
433.80	27.220
434.16	27.258
434.51	27.204
434.86	27.410
435.22	27.650
435.57	27.199
435.92	27.545
436.28	28.086
436.63	27.895
436.98	26.419
437.34	27.707
437.69	27.847
438.04	27.293
438.39	27.123
438.75	27.080
439.10	26.712
439.45	27.632
439.81	27.890
440.16	28.207
440.51	28.299
440.86	28.882
441.22	28.224
441.57	27.539
441.92	28.541
442.27	27.716
442.63	28.694
442.98	28.202
443.33	27.880
443.68	27.056
444.03	28.713
444.39	27.742
444.74	28.540
445.09	27.561
445.44	27.977
445.79	28.726
446.15	27.753
446.50	27.177
446.85	28.002
447.20	27.216
447.55	28.125
447.91	28.314
448.26	28.571
448.61	27.922
448.96	27.424
449.31	28.092
449.66	28.281
450.02	28.180
450.37	28.097
450.72	27.835
451.07	26.835
451.42	27.840
451.77	28.089
452.12	27.033
452.47	26.529
452.83	27.974
453.18	27.767
453.53	28.192
453.88	27.444
454.23	28.457
454.58	28.149
454.93	28.286
455.28	26.095
455.63	28.270
455.98	28.382
456.34	28.225
456.69	27.637
457.04	28.986
457.39	27.582
457.74	27.993
458.09	27.546
458.44	27.911
458.79	26.499
459.14	27.975
459.49	28.119
459.84	27.806
460.19	27.549
460.54	28.729
460.89	27.614
461.24	27.329
461.59	28.385
461.94	26.918
462.29	27.744
462.64	27.641
462.99	27.894
463.34	27.816
463.69	27.091
464.04	27.785
464.39	26.925
464.74	27.546
465.09	28.447
465.44	28.159
465.79	26.701
466.14	27.993
466.49	27.430
466.84	28.019
467.19	27.597
467.54	28.672
467.89	27.479
468.24	28.041
468.59	28.127
468.94	27.365
469.29	27.607
469.64	27.068
469.99	27.961
470.34	26.894
470.68	27.964
471.03	28.450
471.38	27.960
471.73	28.081
472.08	26.459
472.43	26.913
472.78	26.662
473.13	26.735
473.48	27.296
473.83	27.086
474.17	27.979
474.52	26.994
474.87	26.970
475.22	27.151
475.57	27.160
475.92	27.647
476.27	28.405
476.61	27.546
476.96	26.827
477.31	26.988
477.66	26.798
478.01	27.456
478.36	26.961
478.70	27.787
479.05	27.253
479.40	27.027
479.75	27.268
480.10	27.445
480.45	27.600
480.79	27.845
481.14	27.203
481.49	27.143
481.84	26.882
482.19	27.035
482.53	27.722
482.88	26.826
483.23	27.495
483.58	27.311
483.92	27.009
484.27	26.299
484.62	27.521
484.97	27.280
485.31	26.698
485.66	26.814
486.01	27.814
486.36	27.541
486.70	28.342
487.05	28.077
487.40	27.508
487.75	28.423
488.09	27.812
488.44	28.611
488.79	27.792
489.13	27.845
489.48	27.277
489.83	27.713
490.17	26.562
490.52	26.928
490.87	26.006
491.22	26.361
491.56	26.423
491.91	26.625
492.26	27.078
492.60	26.871
492.95	26.857
493.30	26.673
493.64	26.621
493.99	26.618
494.34	26.650
494.68	25.857
495.03	26.423
495.37	26.546
495.72	26.956
496.07	26.927
496.41	25.708
496.76	26.992
497.11	26.409
497.45	26.683
497.80	26.842
498.14	26.776
498.49	26.511
498.84	26.597
499.18	26.406
499.53	26.091
499.87	25.681
500.22	25.964
500.56	26.425
500.91	25.904
501.26	26.644
501.60	26.611
501.95	27.026
502.29	26.053
502.64	27.075
502.98	26.591
503.33	25.889
503.67	26.458
504.02	26.686
504.36	25.977
504.71	25.808
505.06	25.566
505.40	26.142
505.75	26.804
506.09	26.305
506.44	27.105
506.78	26.378
507.13	26.319
507.47	25.640
507.82	25.374
508.16	26.149
508.51	26.495
508.85	26.792
509.19	24.907
509.54	26.059
509.88	26.321
510.23	26.627
510.57	26.724
510.92	24.254
511.26	25.586
511.61	26.183
511.95	25.479
512.30	26.441
512.64	26.377
512.98	25.716
513.33	26.413
513.67	26.322
514.02	26.144
514.36	25.829
514.70	26.340
515.05	26.439
515.39	25.148
515.74	26.407
516.08	25.045
516.42	27.150
516.77	26.156
517.11	25.579
517.46	25.194
517.80	25.805
518.14	25.107
518.49	24.099
518.83	25.334
519.17	24.985
519.52	24.630
519.86	25.090
520.20	25.152
520.55	24.953
520.89	25.596
521.23	25.269
521.58	25.678
521.92	24.872
522.26	25.895
522.61	24.740
522.95	25.762
523.29	25.095
523.64	25.349
523.98	25.470
524.32	24.356
524.66	26.120
525.01	25.195
525.35	25.794
525.69	24.983
526.04	25.463
526.38	26.135
526.72	24.787
527.06	24.708
527.41	25.792
527.75	24.464
528.09	24.518
528.43	25.726
528.78	24.224
529.12	25.290
529.46	24.561
529.80	24.763
530.15	25.413
530.49	24.781
530.83	25.855
531.17	24.916
531.51	26.265
531.86	24.881
532.20	24.356
532.54	25.528
532.88	26.010
533.22	25.470
533.57	25.950
533.91	25.522
534.25	26.693
534.59	23.926
534.93	24.921
535.27	24.492
535.62	24.822
535.96	25.766
536.30	25.198
536.64	25.982
536.98	25.366
537.32	25.818
537.66	24.755
538.01	26.224
538.35	25.243
538.69	25.166
539.03	24.129
539.37	26.312
539.71	25.222
540.05	25.051
540.39	25.208
540.73	25.732
541.07	25.483
541.42	26.344
541.76	25.120
542.10	25.258
542.44	25.295
542.78	24.501
543.12	25.343
543.46	25.035
543.80	24.913
544.14	24.766
544.48	26.049
544.82	25.290
545.16	25.546
545.50	25.033
545.84	25.708
546.18	25.390
546.52	24.802
546.86	23.652
547.20	25.751
547.54	24.452
547.88	25.476
548.22	24.852
548.56	25.660
548.90	25.135
549.24	25.551
549.58	24.824
549.92	24.660
550.26	25.861
550.60	24.833
550.94	25.765
551.28	24.884
551.62	24.846
551.96	25.263
552.30	24.927
552.64	24.824
552.98	24.613
553.32	25.392
553.66	24.383
554.00	24.015
554.34	26.809
554.68	25.074
555.02	24.777
555.36	25.280
555.69	25.495
556.03	23.840
556.37	24.698
556.71	26.209
557.05	24.981
557.39	23.941
557.73	24.513
558.07	25.038
558.41	25.498
558.75	24.240
559.08	24.901
559.42	24.603
559.76	25.300
560.10	24.235
560.44	23.529
560.78	24.755
561.12	24.612
561.45	25.650
561.79	24.160
562.13	24.485
562.47	24.820
562.81	24.928
563.15	24.260
563.48	25.248
563.82	25.875
564.16	26.671
564.50	24.662
564.84	25.435
565.17	25.017
565.51	26.913
565.85	25.240
566.19	25.862
566.52	25.335
566.86	25.835
567.20	25.405
567.54	25.912
567.88	27.065
568.21	26.923
568.55	25.978
568.89	26.129
569.23	26.721
569.56	26.489
569.90	27.284
570.24	27.317
570.57	27.309
570.91	27.396
571.25	26.669
571.59	26.503
571.92	26.133
572.26	27.053
572.60	27.380
572.93	27.581
573.27	26.803
573.61	27.536
573.95	27.335
574.28	27.304
574.62	26.850
574.96	26.427
575.29	27.082
575.63	26.354
575.97	26.484
576.30	27.298
576.64	26.649
576.98	27.902
577.31	27.845
577.65	27.064
577.98	27.874
578.32	27.404
578.66	27.079
578.99	26.860
579.33	26.805
579.67	26.823
580.00	27.013
580.34	27.910
580.67	27.151
581.01	27.642
581.35	26.960
581.68	27.121
582.02	27.546
582.35	27.892
582.69	27.892
583.02	27.494
583.36	27.419
583.70	27.882
584.03	28.107
584.37	28.317
584.70	27.995
585.04	27.383
585.37	27.371
585.71	27.425
586.04	27.257
586.38	26.914
586.72	27.288
587.05	27.123
587.39	28.040
587.72	27.884
588.06	27.789
588.39	27.627
588.73	27.015
589.06	27.691
589.40	27.757
589.73	28.003
590.07	28.059
590.40	26.858
590.73	27.306
591.07	26.887
591.40	27.159
591.74	27.330
592.07	27.134
592.41	26.988
592.74	27.121
593.08	26.336
593.41	26.623
593.75	27.118
594.08	26.571
594.41	26.783
594.75	26.679
595.08	26.826
595.42	26.868
595.75	27.563
596.09	27.522
596.42	27.367
596.75	27.087
597.09	26.970
597.42	27.191
597.75	26.752
598.09	27.343
598.42	26.083
598.76	26.384
599.09	26.763
599.42	26.715
599.76	26.599
600.09	27.187
600.42	27.218
600.76	25.892
601.09	26.489
601.42	27.145
601.76	26.876
602.09	27.021
602.42	26.748
602.76	27.504
603.09	26.744
603.42	27.467
603.76	25.968
604.09	26.731
604.42	27.030
604.76	26.747
605.09	27.422
605.42	26.591
605.75	26.489
606.09	26.412
606.42	26.814
606.75	26.537
607.09	27.165
607.42	26.717
607.75	26.377
608.08	26.280
608.42	26.953
608.75	26.988
609.08	26.358
609.41	27.005
609.75	27.016
610.08	26.710
610.41	25.314
610.74	25.500
611.07	26.512
611.41	25.895
611.74	26.226
612.07	26.124
612.40	26.258
612.73	25.932
613.07	26.603
613.40	26.586
613.73	26.133
614.06	25.487
614.39	26.509
614.72	25.658
615.06	25.922
615.39	25.600
615.72	26.211
616.05	25.754
616.38	25.470
616.71	25.994
617.05	26.313
617.38	25.581
617.71	26.352
618.04	26.921
618.37	27.301
618.70	26.931
619.03	26.736
619.36	25.760
619.69	26.080
620.03	26.881
620.36	26.609
620.69	24.911
621.02	25.994
621.35	25.643
621.68	25.340
622.01	25.083
622.34	25.060
622.67	26.498
623.00	25.038
623.33	25.686
623.66	24.682
623.99	25.794
624.32	26.084
624.65	24.436
624.99	26.336
625.32	24.185
625.65	26.394
625.98	26.511
626.31	25.021
626.64	25.390
626.97	25.218
627.30	24.869
627.63	25.650
627.96	25.876
628.29	23.589
628.62	24.680
628.95	25.551
629.28	24.597
629.61	24.726
629.94	26.979
630.26	23.814
630.59	25.806
630.92	25.744
631.25	23.179
631.58	25.000
631.91	24.013
632.24	24.656
632.57	24.545
632.90	22.894
633.23	25.059
633.56	22.670
633.89	23.428
634.22	22.963
634.55	24.142
634.88	24.904
635.20	23.846
635.53	24.133
635.86	21.717
636.19	23.286
636.52	25.510
636.85	23.821
637.18	23.396
637.51	24.151
637.83	24.047
638.16	24.147
638.49	25.068
638.82	25.000
639.15	24.016
639.48	23.659
639.81	24.268
640.13	23.377
640.46	23.469
640.79	22.533
641.12	23.929
641.45	23.724
641.77	24.000
642.10	23.855
642.43	20.257
642.76	24.257
643.09	24.556
643.41	20.550
643.74	22.900
644.07	21.675
644.40	26.014
644.73	22.417
645.05	25.168
645.38	22.399
645.71	24.113
646.04	25.494
646.36	23.227
646.69	24.101
647.02	24.386
647.35	23.507
647.67	23.949
648.00	22.761
648.33	24.232
648.66	22.034
648.98	23.451
649.31	23.471
649.64	22.763
649.96	21.880
650.29	23.680
650.62	23.419
650.94	22.963
651.27	23.091
651.60	24.505
651.92	23.077
652.25	23.623
652.58	24.000
652.90	24.357
653.23	24.706
653.56	21.827
653.88	24.742
654.21	21.891
654.54	22.071
654.86	25.637
655.19	23.977
655.52	26.006
655.84	25.512
656.17	29.890
656.49	41.601
656.82	44.472
657.15	34.421
657.47	25.679
657.80	19.189
658.13	19.128
658.45	30.575
658.78	30.423
659.10	30.247
659.43	29.729
659.75	29.008
660.08	28.345
660.41	28.090
660.73	26.381
661.06	24.783
661.38	23.483
661.71	20.739
662.03	25.966
662.36	21.099
662.68	19.248
663.01	22.489
663.33	22.738
663.66	19.302
663.98	18.605
664.31	20.043
664.63	21.659
664.96	20.652
665.28	20.309
665.61	20.563
665.93	23.696
666.26	21.692
666.58	19.016
666.91	23.294
667.23	22.877
667.56	20.853
667.88	20.863
668.21	21.241
668.53	22.931
668.86	22.877
669.18	19.575
669.50	22.034
669.83	21.628
670.15	24.242
670.48	22.249
670.80	23.733
671.13	21.477
671.45	21.005
671.77	25.536
672.10	22.574
672.42	21.723
672.75	22.735
673.07	26.118
673.39	24.587
673.72	21.499
674.04	22.917
674.37	23.941
674.69	23.340
675.01	24.667
675.34	21.847
675.66	22.222
675.98	24.834
676.31	24.541
676.63	21.378
676.95	24.318
677.28	24.235
677.60	25.542
677.92	21.560
678.25	23.414
678.57	22.294
678.89	23.739
679.22	24.385
679.54	22.088
679.86	20.676
680.18	22.330
680.51	23.485
680.83	22.465
681.15	25.400
681.48	25.410
681.80	24.380
682.12	22.581
682.44	23.013
682.77	24.503
683.09	24.485
683.41	21.818
683.73	22.120
684.06	23.673
684.38	20.860
684.70	23.094
685.02	24.066
685.34	21.146
685.67	24.390
685.99	24.774
686.31	25.841
686.63	22.635
686.96	23.194
687.28	21.212
687.60	22.814
687.92	22.020
688.24	22.177
688.56	25.546
688.89	22.098
689.21	25.111
689.53	20.650
689.85	24.186
690.17	22.768
690.49	23.641
690.82	23.058
691.14	22.143
691.46	21.729
691.78	24.550
692.10	23.011
692.42	24.892
692.74	23.932
693.06	24.550
693.39	20.588
693.71	22.851
694.03	20.092
694.35	21.495
694.67	23.990
694.99	21.932
695.31	23.499
695.63	26.000
695.95	22.980
696.27	21.503
696.59	21.667
696.91	21.849
697.23	21.594
697.56	22.772
697.88	25.376
698.20	24.146
698.52	23.059
698.84	21.531
699.16	19.000
699.48	25.313
699.80	23.821
700.12	24.259
700.44	23.810
700.76	22.384
701.08	23.939
701.40	21.687
701.72	26.543
702.04	22.442
702.36	21.070
702.68	22.222
703.00	22.121
703.32	22.581
703.64	18.362
703.96	22.609
704.28	24.233
704.60	24.444
704.91	20.505
705.23	21.595
705.55	26.502
705.87	23.827
706.19	21.481
706.51	20.275
706.83	22.508
707.15	18.380
707.47	23.249
707.79	20.313
708.11	25.250
708.43	23.500
708.74	22.481
709.06	24.507
709.38	22.324
709.70	22.781
710.02	18.471
710.34	23.529
710.66	17.628
710.98	22.848
711.29	22.951
711.61	21.695
711.93	24.430
712.25	21.306
712.57	21.245
712.89	23.507
713.20	24.567
713.52	22.648
713.84	19.454
714.16	24.055
714.48	20.968
714.80	26.282
715.11	21.884
715.43	21.003
715.75	22.333
716.07	22.924
716.39	23.490
716.70	16.974
717.02	18.702
717.34	23.077
717.66	15.487
717.97	20.870
718.29	20.502
718.61	20.472
718.93	18.605
719.24	28.137
719.56	18.072
719.88	21.306
720.20	21.970
720.51	15.326
720.83	25.097
721.15	26.050
721.46	26.613
721.78	20.158
722.10	23.420
722.42	15.768
722.73	20.000
723.05	30.612
723.37	28.390
723.68	24.775
724.00	17.521
724.32	19.556
724.63	24.545
724.95	21.397
725.27	26.267
725.58	24.153
725.90	18.254
726.22	21.622
726.53	28.475
726.85	23.596
727.16	27.547
727.48	20.243
727.80	23.887
728.11	20.339
728.43	21.176
728.74	18.952
729.06	22.800
729.38	28.195
729.69	24.303
730.01	21.154
730.32	24.627
730.64	24.028
730.96	22.642
731.27	21.000
731.59	24.407
731.90	21.019
732.22	23.344
732.53	27.243
732.85	20.922
733.16	22.896
733.48	19.784
733.80	27.536
734.11	22.373
734.43	22.337
734.74	22.727
735.06	22.150
735.37	23.565
735.69	26.599
736.00	23.345
736.32	23.490
736.63	26.056
736.95	23.208
737.26	20.996
737.58	20.805
737.89	21.612
738.21	23.308
738.52	25.103
738.83	24.454
739.15	19.651
739.46	25.591
739.78	22.711
740.09	21.242
740.41	22.101
740.72	20.472
741.04	27.530
741.35	23.404
741.66	19.905
741.98	21.429
742.29	20.792
742.61	19.895
742.92	14.692
743.23	14.352
743.55	17.647
743.86	22.967
744.18	21.531
744.49	21.809
744.80	19.022
745.12	26.738
745.43	19.024
745.74	26.042
746.06	21.463
746.37	25.131
746.68	24.171
747.00	22.872
747.31	21.393
747.62	24.272
747.94	21.531
748.25	21.782
748.56	25.137
748.88	19.895
749.19	23.404
749.50	16.256
749.82	16.038
750.13	21.101
750.44	23.308
750.75	26.493
751.07	27.737
751.38	22.989
751.69	19.608
752.01	24.419
752.32	19.522
752.63	22.530
752.94	21.552
753.26	25.941
753.57	19.457
753.88	20.354
754.19	24.167
754.51	21.901
754.82	18.623
755.13	28.333
755.44	23.790
755.75	24.609
756.07	24.903
756.38	24.528
756.69	23.755
757.00	22.667
757.31	26.797
757.63	21.646
757.94	24.444
758.25	20.822
758.56	22.872
758.87	21.530
759.18	23.988
759.50	25.091
759.81	24.080
760.12	23.548
760.43	21.212
760.74	21.605
761.05	24.000
761.36	23.295
761.67	27.273
761.99	27.211
762.30	20.000
762.61	22.925
762.92	24.887
763.23	21.622
763.54	23.364
763.85	22.034
764.16	20.747
764.47	25.403
764.78	22.344
765.10	26.936
765.41	25.552
765.72	24.444
766.03	25.188
766.34	23.358
766.65	24.303
766.96	28.283
767.27	18.617
767.58	18.391
767.89	22.695
768.20	12.500
768.51	23.626
768.82	27.586
769.13	21.659
769.44	24.034
769.75	21.005
770.06	22.845
770.37	23.558
770.68	20.812
770.99	23.982
771.30	25.980
771.61	24.434
771.92	30.172
772.23	28.079
772.54	18.280
772.85	24.691
773.16	28.090
773.47	20.915
773.78	23.529
774.09	19.760
774.39	24.000
774.70	26.115
775.01	25.517
775.32	20.714
775.63	19.008
775.94	21.374
776.25	21.260
776.56	26.667
776.87	24.038
777.18	12.821
777.48	24.138
777.79	22.609
778.10	10.476
778.41	17.117
778.72	23.016
779.03	26.316
779.34	31.206
779.65	24.658
779.95	19.863
780.26	22.759
780.57	24.390
780.88	20.472
781.19	17.241
781.50	31.783
781.80	21.893
782.11	18.239
782.42	26.154
782.73	28.058
783.04	22.963
783.34	20.833
783.65	17.094
783.96	24.590
784.27	20.690
784.57	17.073
784.88	25.000
785.19	19.000
785.50	23.000
785.81	24.138
786.11	17.241
786.42	21.359
786.73	27.273
787.04	18.367
787.34	17.857
787.65	13.333
787.96	23.894
788.26	29.091
788.57	21.368
788.88	25.781
789.19	26.190
789.49	10.435
789.80	22.449
790.11	22.222
790.41	24.545
790.72	35.870
791.03	15.909
791.33	27.500
791.64	28.750
791.95	16.279
792.25	32.979
792.56	29.213
792.87	9.589
793.17	10.145
793.48	14.667
793.79	11.250
794.09	26.250
794.40	24.528
794.70	14.563
795.01	25.203
795.32	26.496
795.62	16.190
795.93	28.431
796.23	25.472
796.54	28.125
796.85	45.588
797.15	25.352
797.46	23.611
797.76	33.333
798.07	17.442
798.37	18.421
798.68	15.152
798.99	13.580
799.29	22.857
799.60	24.638
799.90	30.667
800.21	31.148
800.51	18.462
800.82	20.339
801.12	31.884
801.43	31.148
801.73	25.397
802.04	10.000
802.34	14.925
802.65	34.615
802.95	5.357
803.26	-3.846
803.56	19.608
803.87	13.043
804.17	28.000
804.48	19.048
804.78	14.815
805.09	36.957
805.39	11.111
805.70	5.556
806.00	14.035
806.30	26.761
806.61	37.143
806.91	2.778
807.22	27.632
807.52	22.667
807.83	21.818
808.13	25.000
808.43	36.765
808.74	25.373
809.04	27.119
809.35	26.923
809.65	28.125
809.95	18.919
810.26	15.909
810.56	28.767
810.86	11.905
811.17	22.000
811.47	34.694
811.77	-7.895
812.08	0.000
812.38	28.302
812.69	22.500
812.99	-18.182
813.29	15.789
813.59	-11.429
813.90	20.455
814.20	15.385
814.50	42.308
814.81	24.528
815.11	8.511
815.41	15.254
815.72	38.095
816.02	13.725
816.32	4.167
816.62	24.390
816.93	16.216
817.23	20.000
817.53	31.250
817.84	23.913
818.14	19.231
818.44	10.526
818.74	39.130
819.04	-12.500
819.35	54.054
819.65	20.588
819.95	5.556
820.25	-4.762
820.56	42.500
820.86	17.241
821.16	60.000
821.46	38.298
821.76	55.000
822.07	25.581
822.37	-16.216
822.67	50.000
822.97	30.952
823.27	10.714
823.57	4.000
823.88	11.111
824.18	28.571
824.48	2.941
824.78	16.129
825.08	39.130
825.38	15.152
825.69	-29.167
825.99	10.526
826.29	25.000
826.59	-6.667
826.89	-23.810
827.19	26.087
827.49	10.000
827.79	-5.714
828.09	35.714
828.39	48.485
828.70	27.027
829.00	35.714
829.30	-14.286
829.60	23.333
829.90	43.750
830.20	15.789
830.50	40.741
830.80	17.391
831.10	68.182
831.40	39.394
831.70	25.806
832.00	61.905
832.30	-28.571
832.60	58.333
832.90	20.690
833.20	25.000
833.50	48.485
833.80	22.222
834.10	26.923
834.40	31.250
834.70	11.111
835.00	15.789
835.30	80.769
835.60	73.333
835.90	32.258
836.20	22.727
836.50	42.857
836.80	7.692
837.10	25.000
837.40	-133.333
837.70	22.727
838.00	-54.545
838.30	21.739
838.60	-15.385
838.90	40.909
839.19	7.143
839.49	56.667
839.79	0.000
840.09	-58.333
840.39	28.571
840.69	3.571
840.99	-19.231
841.29	10.526
841.59	10.000
841.88	-9.091
842.18	50.000
842.48	37.500
842.78	60.000
843.08	18.519
843.38	-150.000
843.68	34.783
843.97	40.000
844.27	-40.000
844.57	35.000
844.87	0.000
845.17	-23.810
845.47	20.000
845.76	38.095
846.06	58.824
846.36	-30.000
846.66	-14.286
846.96	60.000
847.25	-100.000
847.55	92.857
847.85	125.000
848.15	-13.636
848.44	-566.667
848.74	-15.000
849.04	55.556
849.34	-72.727
849.63	-216.667
849.93	-240.000
850.23	16.667
850.53	110.000
850.82	-15.385
851.12	-11.111
851.42	-6.667
851.71	3.846
852.01	21.429
852.31	-100.000
852.61	-27.273
852.90	55.000
853.20	42.105
853.50	16.667
853.79	60.870
854.09	75.000
854.39	31.579
854.68	33.333
854.98	25.806
855.28	46.154
855.57	5.000
855.87	0.000
856.17	14.815
856.46	7.143
856.76	0.000
857.05	88.889
857.35	32.000
857.65	55.556
857.94	69.231
858.24	20.690
858.53	55.556
858.83	22.222
859.13	40.909
859.42	13.043
859.72	0.000
860.01	-200.000
860.31	56.000
860.60	19.048
860.90	33.333
861.20	-6.667
861.49	-500.000
861.79	-60.000
862.08	80.000
862.38	173.333
862.67	80.000
862.97	83.333
863.26	41.667
863.56	55.556
863.85	-200.000
864.15	33.333
864.44	0.000
864.74	50.000
865.03	75.000
865.33	-20.000
865.62	33.333
865.92	58.333
866.21	-133.333
866.51	37.500
866.80	-18.182
867.10	-550.000
867.39	66.667
867.69	0.000
867.98	53.846
868.27	-300.000
868.57	33.333
868.86	66.667
869.16	-23.077
869.45	100.000
869.75	-1200.000
870.04	0.000
870.33	0.000
870.63	114.286
870.92	533.333
871.22	-180.000
871.51	400.000
871.80	188.889
872.10	300.000
>>>>>End Processed Spectral Data<<<<<
