SpectraSuite Data File
++++++++++++++++++++++++++++++++++++
Date: Fri May 15 17:13:54 PDT 2015
User: schluterlab
Dark Spectrum Present: Yes
Reference Spectrum Present: Yes
Number of Sampled Component Spectra: 1
Spectrometers: USB2E3373
Integration Time (usec): 3000 (USB2E3373)
Spectra Averaged: 3 (USB2E3373)
Boxcar Smoothing: 0 (USB2E3373)
Correct for Electrical Dark: No (USB2E3373)
Strobe/Lamp Enabled: No (USB2E3373)
Correct for Detector Non-linearity: No (USB2E3373)
Correct for Stray Light: No (USB2E3373)
Number of Pixels in Processed Spectrum: 2048
>>>>>Begin Processed Spectral Data<<<<<
178.53	0.000
178.91	0.000
179.29	50.000
179.67	-350.000
180.04	42.857
180.42	375.000
180.80	700.000
181.18	-66.667
181.56	-450.000
181.94	-150.000
182.31	200.000
182.69	-20.000
183.07	66.667
183.45	180.000
183.83	116.667
184.20	27.273
184.58	55.556
184.96	-375.000
185.34	-333.333
185.72	50.000
186.09	84.615
186.47	-300.000
186.85	66.667
187.23	66.667
187.61	-600.000
187.98	-333.333
188.36	33.333
188.74	133.333
189.12	47.059
189.49	16.667
189.87	0.000
190.25	107.143
190.63	400.000
191.00	-266.667
191.38	21.053
191.76	950.000
192.14	50.000
192.51	-100.000
192.89	11.111
193.27	14.286
193.65	116.667
194.02	90.909
194.40	110.000
194.78	12.500
195.15	16.667
195.53	-87.500
195.91	300.000
196.29	-200.000
196.66	7.692
197.04	-28.571
197.42	44.444
197.79	33.333
198.17	46.154
198.55	700.000
198.92	-300.000
199.30	-200.000
199.68	-80.000
200.05	-200.000
200.43	0.000
200.81	-100.000
201.18	100.000
201.56	700.000
201.94	0.000
202.31	-233.333
202.69	-80.000
203.07	200.000
203.44	900.000
203.82	0.000
204.19	7.143
204.57	-533.333
204.95	-0.000
205.32	90.000
205.70	-71.429
206.08	25.000
206.45	122.222
206.83	114.286
207.20	-28.571
207.58	400.000
207.96	-33.333
208.33	30.000
208.71	150.000
209.08	-133.333
209.46	800.000
209.84	40.000
210.21	-200.000
210.59	71.429
210.96	50.000
211.34	50.000
211.71	113.333
212.09	-42.857
212.46	-300.000
212.84	0.000
213.22	30.000
213.59	150.000
213.97	100.000
214.34	54.545
214.72	-50.000
215.09	300.000
215.47	0.000
215.84	36.364
216.22	-100.000
216.59	25.000
216.97	550.000
217.34	175.000
217.72	-180.000
218.09	200.000
218.47	137.500
218.84	-1100.000
219.22	-133.333
219.59	80.000
219.97	-66.667
220.34	100.000
220.72	142.857
221.09	-25.000
221.47	250.000
221.84	-650.000
222.22	-350.000
222.59	-9.091
222.97	-8.333
223.34	166.667
223.72	-7.143
224.09	28.571
224.46	7.143
224.84	433.333
225.21	80.000
225.59	53.333
225.96	-250.000
226.34	-0.000
226.71	14.286
227.08	-16.667
227.46	-100.000
227.83	-200.000
228.21	-55.556
228.58	45.455
228.95	-62.500
229.33	70.000
229.70	6.250
230.08	37.500
230.45	-57.143
230.82	-28.571
231.20	20.000
231.57	92.857
231.95	14.286
232.32	20.000
232.69	-7.143
233.07	0.000
233.44	-80.000
233.81	10.000
234.19	44.444
234.56	11.765
234.93	-0.000
235.31	200.000
235.68	-120.000
236.05	46.154
236.43	-20.000
236.80	123.529
237.17	87.500
237.55	55.000
237.92	29.630
238.29	47.222
238.67	56.667
239.04	32.353
239.41	36.585
239.79	46.667
240.16	68.293
240.53	39.474
240.91	34.783
241.28	57.143
241.65	57.143
242.02	56.164
242.40	43.333
242.77	50.847
243.14	56.061
243.51	61.250
243.89	59.770
244.26	55.172
244.63	46.429
245.00	39.175
245.38	53.608
245.75	47.191
246.12	37.069
246.49	46.281
246.87	71.154
247.24	53.782
247.61	49.123
247.98	54.472
248.36	51.875
248.73	54.605
249.10	47.403
249.47	54.430
249.84	47.712
250.22	55.294
250.59	53.595
250.96	52.582
251.33	48.256
251.70	55.882
252.08	49.239
252.45	50.000
252.82	56.784
253.19	47.926
253.56	48.131
253.94	50.450
254.31	54.348
254.68	54.386
255.05	50.000
255.42	50.655
255.79	49.035
256.16	51.751
256.54	55.224
256.91	50.190
257.28	54.275
257.65	49.813
258.02	49.291
258.39	47.811
258.76	53.846
259.14	51.163
259.51	52.104
259.88	52.234
260.25	50.654
260.62	55.903
260.99	51.186
261.36	52.397
261.73	47.785
262.10	51.368
262.47	50.000
262.85	48.276
263.22	56.923
263.59	50.467
263.96	52.484
264.33	52.424
264.70	50.893
265.07	56.250
265.44	51.558
265.81	50.565
266.18	51.093
266.55	49.871
266.92	51.295
267.29	53.786
267.66	48.849
268.03	52.880
268.40	51.175
268.77	55.615
269.14	46.043
269.51	50.900
269.88	49.127
270.25	49.490
270.62	46.341
270.99	48.338
271.36	48.655
271.73	46.714
272.10	47.689
272.47	51.773
272.84	48.515
273.21	47.564
273.58	48.916
273.95	49.199
274.32	49.192
274.69	45.701
275.06	48.661
275.43	48.980
275.80	47.020
276.17	50.115
276.54	46.253
276.91	50.439
277.28	48.472
277.65	46.488
278.02	46.170
278.39	48.796
278.76	48.637
279.13	42.531
279.50	46.849
279.87	48.596
280.23	44.301
280.60	46.784
280.97	50.909
281.34	46.731
281.71	50.924
282.08	49.284
282.45	44.227
282.82	48.456
283.19	44.681
283.56	47.206
283.92	45.731
284.29	46.346
284.66	44.961
285.03	47.544
285.40	46.125
285.77	45.167
286.14	44.043
286.51	47.048
286.87	42.230
287.24	46.777
287.61	43.739
287.98	46.667
288.35	41.594
288.72	44.658
289.08	42.188
289.45	43.937
289.82	42.483
290.19	41.809
290.56	41.681
290.93	40.572
291.29	39.908
291.66	40.157
292.03	40.191
292.40	40.323
292.77	39.394
293.13	37.013
293.50	38.695
293.87	38.321
294.24	37.558
294.60	36.513
294.97	37.946
295.34	36.350
295.71	38.301
296.08	35.426
296.44	35.135
296.81	35.556
297.18	36.232
297.55	36.450
297.91	33.151
298.28	34.301
298.65	33.243
299.02	33.019
299.38	32.695
299.75	33.103
300.12	32.853
300.48	34.783
300.85	33.207
301.22	34.026
301.59	33.289
301.95	34.051
302.32	33.722
302.69	34.328
303.05	32.054
303.42	32.628
303.79	32.360
304.15	33.453
304.52	32.224
304.89	31.930
305.25	31.235
305.62	29.055
305.99	29.942
306.35	30.289
306.72	31.046
307.09	31.129
307.45	30.080
307.82	30.440
308.19	32.520
308.55	29.008
308.92	32.789
309.29	31.173
309.65	30.786
310.02	28.933
310.38	31.065
310.75	30.710
311.12	31.432
311.48	30.541
311.85	30.785
312.22	28.903
312.58	28.450
312.95	28.922
313.31	29.089
313.68	30.890
314.05	30.000
314.41	29.175
314.78	29.278
315.14	28.880
315.51	28.675
315.87	28.586
316.24	30.738
316.61	30.020
316.97	29.365
317.34	27.539
317.70	30.019
318.07	29.615
318.43	29.412
318.80	28.125
319.16	29.883
319.53	29.820
319.89	27.756
320.26	29.960
320.62	29.388
320.99	27.871
321.35	27.646
321.72	29.595
322.08	29.607
322.45	29.746
322.81	28.291
323.18	28.067
323.54	27.992
323.91	27.264
324.27	27.637
324.64	28.933
325.00	28.558
325.37	28.834
325.73	26.564
326.10	27.157
326.46	28.700
326.83	28.259
327.19	27.986
327.56	27.889
327.92	28.697
328.29	27.143
328.65	27.736
329.01	27.022
329.38	27.465
329.74	26.629
330.11	28.916
330.47	25.881
330.84	27.596
331.20	28.802
331.56	27.870
331.93	27.763
332.29	27.773
332.66	26.606
333.02	26.301
333.38	25.940
333.75	27.289
334.11	26.410
334.48	27.380
334.84	26.374
335.20	26.258
335.57	27.017
335.93	27.100
336.29	27.164
336.66	27.066
337.02	26.022
337.38	27.315
337.75	27.273
338.11	26.240
338.47	26.095
338.84	26.433
339.20	28.062
339.56	26.606
339.93	26.410
340.29	27.064
340.65	27.151
341.02	26.241
341.38	26.195
341.74	27.297
342.11	24.783
342.47	26.423
342.83	26.817
343.20	25.871
343.56	27.130
343.92	25.686
344.28	27.156
344.65	26.339
345.01	25.065
345.37	26.072
345.73	27.197
346.10	26.833
346.46	24.811
346.82	25.286
347.19	24.938
347.55	26.065
347.91	25.485
348.27	24.980
348.63	27.002
349.00	26.251
349.36	24.771
349.72	25.041
350.08	25.820
350.45	26.097
350.81	24.502
351.17	24.593
351.53	25.224
351.89	24.360
352.26	25.440
352.62	25.081
352.98	24.980
353.34	24.477
353.70	25.647
354.07	24.113
354.43	24.660
354.79	24.690
355.15	26.032
355.51	26.187
355.87	25.728
356.24	23.736
356.60	25.384
356.96	25.873
357.32	24.681
357.68	24.316
358.04	25.040
358.40	25.000
358.77	24.641
359.13	24.660
359.49	24.037
359.85	24.493
360.21	24.402
360.57	24.254
360.93	25.038
361.29	23.338
361.66	25.078
362.02	25.076
362.38	24.752
362.74	23.543
363.10	25.583
363.46	24.611
363.82	24.718
364.18	23.764
364.54	23.309
364.90	23.082
365.26	24.527
365.62	24.672
365.98	24.047
366.35	24.399
366.71	25.129
367.07	24.456
367.43	24.227
367.79	23.746
368.15	24.336
368.51	24.618
368.87	23.977
369.23	23.394
369.59	23.542
369.95	24.707
370.31	24.783
370.67	23.433
371.03	23.450
371.39	23.487
371.75	23.297
372.11	23.395
372.47	23.521
372.83	23.350
373.19	23.252
373.55	22.744
373.91	24.118
374.27	23.459
374.63	23.977
374.99	24.113
375.35	24.164
375.71	22.727
376.07	22.683
376.42	22.857
376.78	24.430
377.14	23.290
377.50	24.170
377.86	22.825
378.22	23.548
378.58	23.654
378.94	22.369
379.30	23.269
379.66	23.511
380.02	22.808
380.38	23.189
380.74	22.561
381.09	23.497
381.45	22.936
381.81	23.689
382.17	23.604
382.53	23.423
382.89	23.540
383.25	23.895
383.61	23.476
383.97	23.048
384.32	23.265
384.68	23.220
385.04	22.794
385.40	23.149
385.76	24.151
386.12	24.062
386.48	23.499
386.83	23.018
387.19	23.138
387.55	23.839
387.91	22.922
388.27	22.222
388.62	24.229
388.98	23.450
389.34	23.485
389.70	24.736
390.06	23.600
390.42	23.510
390.77	24.526
391.13	23.140
391.49	23.351
391.85	23.327
392.20	22.913
392.56	23.586
392.92	23.371
393.28	23.231
393.64	23.003
393.99	24.890
394.35	22.201
394.71	23.563
395.07	23.319
395.42	22.647
395.78	22.801
396.14	22.951
396.50	23.526
396.85	23.825
397.21	24.060
397.57	23.511
397.92	23.188
398.28	23.333
398.64	22.289
399.00	23.363
399.35	22.178
399.71	23.665
400.07	23.640
400.42	23.072
400.78	24.005
401.14	23.472
401.49	23.169
401.85	22.425
402.21	22.410
402.57	23.625
402.92	22.459
403.28	24.311
403.63	23.077
403.99	24.043
404.35	23.173
404.70	22.321
405.06	22.620
405.42	23.555
405.77	22.080
406.13	22.119
406.49	22.439
406.84	22.616
407.20	23.239
407.55	22.666
407.91	23.195
408.27	22.626
408.62	23.077
408.98	23.475
409.34	24.226
409.69	22.351
410.05	21.613
410.40	22.160
410.76	23.402
411.11	23.000
411.47	23.800
411.83	23.101
412.18	23.295
412.54	23.596
412.89	22.414
413.25	23.767
413.60	23.292
413.96	22.761
414.31	22.927
414.67	21.937
415.03	23.036
415.38	22.193
415.74	23.192
416.09	23.122
416.45	22.755
416.80	22.935
417.16	22.721
417.51	22.918
417.87	22.425
418.22	23.575
418.58	22.676
418.93	23.260
419.29	22.919
419.64	23.526
420.00	23.426
420.35	23.224
420.71	23.329
421.06	22.713
421.42	23.137
421.77	21.618
422.12	22.645
422.48	21.494
422.83	22.042
423.19	22.348
423.54	22.693
423.90	22.379
424.25	22.503
424.61	22.338
424.96	22.474
425.31	23.166
425.67	22.242
426.02	22.850
426.38	23.356
426.73	23.002
427.09	22.405
427.44	23.118
427.79	22.039
428.15	22.330
428.50	22.168
428.85	21.867
429.21	22.977
429.56	22.695
429.92	23.061
430.27	22.105
430.62	21.903
430.98	22.824
431.33	22.766
431.68	23.443
432.04	22.918
432.39	22.305
432.74	22.850
433.10	22.529
433.45	22.282
433.80	22.577
434.16	21.717
434.51	22.796
434.86	23.345
435.22	22.434
435.57	22.707
435.92	22.575
436.28	22.063
436.63	23.046
436.98	21.495
437.34	22.263
437.69	22.600
438.04	22.678
438.39	21.564
438.75	23.012
439.10	22.807
439.45	22.459
439.81	21.651
440.16	23.337
440.51	23.045
440.86	23.202
441.22	22.229
441.57	23.124
441.92	22.718
442.27	22.007
442.63	23.929
442.98	23.205
443.33	22.426
443.68	22.440
444.03	23.795
444.39	23.119
444.74	23.634
445.09	22.773
445.44	22.678
445.79	24.033
446.15	22.467
446.50	22.407
446.85	21.626
447.20	22.211
447.55	23.158
447.91	22.391
448.26	22.994
448.61	23.431
448.96	22.433
449.31	21.445
449.66	22.242
450.02	22.191
450.37	22.525
450.72	22.910
451.07	23.101
451.42	22.472
451.77	22.664
452.12	22.368
452.47	23.052
452.83	22.968
453.18	22.454
453.53	23.135
453.88	22.769
454.23	22.741
454.58	22.607
454.93	22.165
455.28	22.540
455.63	23.063
455.98	22.730
456.34	22.861
456.69	22.745
457.04	23.314
457.39	22.904
457.74	22.430
458.09	21.895
458.44	22.352
458.79	22.409
459.14	22.483
459.49	22.269
459.84	23.068
460.19	22.998
460.54	23.716
460.89	22.841
461.24	21.863
461.59	22.209
461.94	21.258
462.29	23.040
462.64	23.920
462.99	22.275
463.34	22.323
463.69	22.973
464.04	22.337
464.39	21.528
464.74	22.393
465.09	22.208
465.44	22.851
465.79	22.109
466.14	22.520
466.49	22.484
466.84	22.546
467.19	23.404
467.54	22.861
467.89	23.057
468.24	22.810
468.59	22.921
468.94	21.524
469.29	23.279
469.64	23.172
469.99	23.616
470.34	21.433
470.68	22.222
471.03	23.779
471.38	21.184
471.73	22.199
472.08	22.795
472.43	22.081
472.78	22.207
473.13	23.401
473.48	22.606
473.83	21.918
474.17	22.733
474.52	21.315
474.87	21.939
475.22	21.293
475.57	22.530
475.92	22.106
476.27	22.875
476.61	22.512
476.96	21.138
477.31	22.066
477.66	22.416
478.01	22.459
478.36	22.277
478.70	21.860
479.05	23.297
479.40	22.417
479.75	21.585
480.10	22.376
480.45	22.050
480.79	22.961
481.14	23.258
481.49	22.759
481.84	21.911
482.19	21.469
482.53	22.302
482.88	22.387
483.23	22.265
483.58	21.840
483.92	21.442
484.27	21.741
484.62	21.874
484.97	22.305
485.31	21.785
485.66	22.595
486.01	23.041
486.36	22.968
486.70	22.757
487.05	23.163
487.40	23.035
487.75	22.789
488.09	22.559
488.44	22.524
488.79	22.936
489.13	22.636
489.48	22.146
489.83	21.839
490.17	21.528
490.52	21.801
490.87	21.981
491.22	21.777
491.56	21.822
491.91	21.797
492.26	22.752
492.60	21.881
492.95	22.479
493.30	21.739
493.64	22.299
493.99	22.271
494.34	21.505
494.68	21.095
495.03	20.925
495.37	21.541
495.72	22.009
496.07	21.756
496.41	21.321
496.76	21.419
497.11	20.820
497.45	22.053
497.80	22.351
498.14	21.659
498.49	22.296
498.84	21.856
499.18	22.289
499.53	22.718
499.87	21.352
500.22	22.305
500.56	21.886
500.91	21.637
501.26	21.750
501.60	21.840
501.95	21.931
502.29	21.792
502.64	21.573
502.98	22.102
503.33	21.566
503.67	22.795
504.02	21.848
504.36	22.959
504.71	21.465
505.06	21.490
505.40	22.183
505.75	21.186
506.09	21.541
506.44	21.766
506.78	21.990
507.13	22.079
507.47	20.679
507.82	21.100
508.16	20.919
508.51	21.878
508.85	21.821
509.19	20.383
509.54	21.716
509.88	20.712
510.23	21.947
510.57	21.219
510.92	20.203
511.26	20.840
511.61	21.122
511.95	21.205
512.30	21.341
512.64	21.870
512.98	20.213
513.33	20.761
513.67	21.262
514.02	20.995
514.36	21.486
514.70	21.154
515.05	21.093
515.39	20.661
515.74	22.216
516.08	21.279
516.42	20.966
516.77	21.475
517.11	20.890
517.46	21.903
517.80	21.335
518.14	20.269
518.49	20.493
518.83	19.806
519.17	20.315
519.52	19.834
519.86	20.288
520.20	20.352
520.55	20.013
520.89	20.640
521.23	20.773
521.58	22.461
521.92	21.346
522.26	20.560
522.61	20.974
522.95	21.126
523.29	20.521
523.64	20.839
523.98	21.776
524.32	20.232
524.66	21.319
525.01	20.714
525.35	22.618
525.69	20.404
526.04	19.643
526.38	21.141
526.72	19.882
527.06	20.623
527.41	21.372
527.75	20.442
528.09	20.731
528.43	21.067
528.78	21.584
529.12	20.516
529.46	20.338
529.80	20.836
530.15	21.386
530.49	19.461
530.83	20.862
531.17	20.416
531.51	21.204
531.86	20.326
532.20	20.459
532.54	21.171
532.88	20.465
533.22	21.169
533.57	21.625
533.91	21.084
534.25	20.573
534.59	20.783
534.93	19.887
535.27	20.749
535.62	20.739
535.96	21.005
536.30	21.438
536.64	21.433
536.98	20.070
537.32	20.697
537.66	21.178
538.01	21.049
538.35	20.527
538.69	21.372
539.03	20.369
539.37	21.063
539.71	21.132
540.05	20.434
540.39	21.676
540.73	21.130
541.07	19.820
541.42	21.505
541.76	21.542
542.10	20.785
542.44	21.126
542.78	19.339
543.12	20.742
543.46	21.905
543.80	20.611
544.14	20.227
544.48	20.653
544.82	20.232
545.16	21.516
545.50	21.095
545.84	20.467
546.18	21.348
546.52	21.485
546.86	20.129
547.20	21.030
547.54	19.717
547.88	21.535
548.22	20.579
548.56	20.515
548.90	20.216
549.24	20.455
549.58	21.016
549.92	20.944
550.26	20.073
550.60	21.784
550.94	20.612
551.28	20.479
551.62	21.846
551.96	21.955
552.30	21.053
552.64	20.451
552.98	20.605
553.32	20.257
553.66	19.521
554.00	20.146
554.34	21.787
554.68	20.133
555.02	21.577
555.36	20.419
555.69	19.853
556.03	19.843
556.37	20.071
556.71	20.361
557.05	20.507
557.39	19.851
557.73	19.490
558.07	20.664
558.41	19.755
558.75	19.953
559.08	20.410
559.42	20.476
559.76	20.416
560.10	19.801
560.44	21.072
560.78	21.119
561.12	21.086
561.45	21.715
561.79	20.728
562.13	20.369
562.47	21.007
562.81	20.677
563.15	20.099
563.48	21.287
563.82	21.414
564.16	20.474
564.50	20.203
564.84	21.553
565.17	20.456
565.51	21.311
565.85	20.782
566.19	21.088
566.52	20.777
566.86	21.979
567.20	21.108
567.54	21.046
567.88	21.617
568.21	21.606
568.55	22.011
568.89	20.996
569.23	21.281
569.56	21.760
569.90	23.467
570.24	22.144
570.57	22.509
570.91	22.307
571.25	22.164
571.59	22.361
571.92	22.459
572.26	22.313
572.60	22.450
572.93	22.247
573.27	22.257
573.61	22.912
573.95	22.747
574.28	21.822
574.62	22.426
574.96	22.388
575.29	21.984
575.63	22.104
575.97	22.066
576.30	22.154
576.64	22.358
576.98	23.063
577.31	22.733
577.65	23.050
577.98	22.633
578.32	22.294
578.66	22.394
578.99	22.602
579.33	22.183
579.67	22.508
580.00	22.405
580.34	22.363
580.67	22.057
581.01	22.671
581.35	22.653
581.68	22.338
582.02	22.683
582.35	22.414
582.69	22.633
583.02	22.196
583.36	22.475
583.70	22.741
584.03	23.269
584.37	23.207
584.70	22.500
585.04	21.710
585.37	22.678
585.71	22.562
586.04	22.567
586.38	22.219
586.72	22.898
587.05	22.704
587.39	22.589
587.72	23.100
588.06	22.391
588.39	22.558
588.73	22.802
589.06	22.864
589.40	22.710
589.73	22.088
590.07	22.659
590.40	22.601
590.73	22.446
591.07	22.137
591.40	21.327
591.74	21.719
592.07	22.263
592.41	22.173
592.74	21.705
593.08	22.249
593.41	22.142
593.75	22.375
594.08	22.554
594.41	22.525
594.75	21.908
595.08	22.247
595.42	22.230
595.75	22.906
596.09	22.439
596.42	22.158
596.75	22.558
597.09	21.731
597.42	22.403
597.75	22.721
598.09	21.593
598.42	21.661
598.76	22.265
599.09	21.715
599.42	21.751
599.76	21.407
600.09	21.682
600.42	22.555
600.76	21.805
601.09	21.870
601.42	22.092
601.76	22.271
602.09	21.782
602.42	22.283
602.76	23.048
603.09	22.218
603.42	22.742
603.76	21.774
604.09	21.588
604.42	22.335
604.76	22.474
605.09	22.349
605.42	21.535
605.75	21.716
606.09	21.868
606.42	22.352
606.75	22.381
607.09	21.802
607.42	21.799
607.75	22.247
608.08	21.024
608.42	21.882
608.75	22.024
609.08	21.674
609.41	21.929
609.75	21.623
610.08	22.017
610.41	21.401
610.74	21.307
611.07	21.860
611.41	21.796
611.74	22.655
612.07	21.949
612.40	21.389
612.73	21.412
613.07	20.641
613.40	22.046
613.73	21.321
614.06	22.259
614.39	21.884
614.72	21.176
615.06	21.006
615.39	21.015
615.72	21.206
616.05	21.397
616.38	20.741
616.71	21.529
617.05	21.001
617.38	20.427
617.71	21.132
618.04	21.778
618.37	22.762
618.70	21.848
619.03	21.528
619.36	20.622
619.69	21.304
620.03	21.476
620.36	20.386
620.69	21.556
621.02	21.254
621.35	20.083
621.68	21.088
622.01	20.417
622.34	21.309
622.67	21.451
623.00	20.980
623.33	20.579
623.66	20.045
623.99	20.802
624.32	20.760
624.65	20.150
624.99	21.445
625.32	20.773
625.65	21.210
625.98	21.193
626.31	19.701
626.64	20.884
626.97	21.291
627.30	20.928
627.63	20.884
627.96	20.845
628.29	20.722
628.62	20.846
628.95	20.341
629.28	20.363
629.61	19.541
629.94	21.799
630.26	19.763
630.59	19.563
630.92	19.590
631.25	19.282
631.58	19.934
631.91	18.969
632.24	19.954
632.57	20.341
632.90	18.980
633.23	19.882
633.56	19.521
633.89	18.866
634.22	18.889
634.55	19.314
634.88	18.902
635.20	18.974
635.53	20.800
635.86	19.376
636.19	21.087
636.52	20.791
636.85	17.618
637.18	19.748
637.51	19.497
637.83	18.791
638.16	19.918
638.49	18.529
638.82	19.474
639.15	20.896
639.48	18.432
639.81	19.526
640.13	15.873
640.46	18.076
640.79	19.146
641.12	19.055
641.45	18.919
641.77	18.074
642.10	20.063
642.43	18.489
642.76	16.997
643.09	21.002
643.41	17.152
643.74	20.758
644.07	19.869
644.40	19.088
644.73	20.665
645.05	18.456
645.38	18.871
645.71	17.908
646.04	19.569
646.36	19.504
646.69	19.245
647.02	18.147
647.35	17.537
647.67	19.378
648.00	21.082
648.33	18.601
648.66	19.153
648.98	17.755
649.31	18.017
649.64	17.739
649.96	17.666
650.29	18.739
650.62	19.145
650.94	17.778
651.27	17.877
651.60	21.261
651.92	18.357
652.25	19.361
652.58	19.833
652.90	17.667
653.23	17.479
653.56	17.766
653.88	19.759
654.21	18.914
654.54	17.997
654.86	19.694
655.19	19.298
655.52	21.285
655.84	22.479
656.17	26.211
656.49	35.607
656.82	37.385
657.15	28.159
657.47	20.697
657.80	15.397
658.13	14.987
658.45	22.857
658.78	22.852
659.10	22.278
659.43	22.459
659.75	22.595
660.08	22.690
660.41	21.859
660.73	20.028
661.06	21.664
661.38	16.438
661.71	18.275
662.03	21.030
662.36	18.242
662.68	16.150
663.01	19.432
663.33	18.329
663.66	16.512
663.98	16.744
664.31	18.763
664.63	15.899
664.96	13.478
665.28	15.011
665.61	18.398
665.93	18.478
666.26	16.486
666.58	16.107
666.91	17.647
667.23	19.811
667.56	18.483
667.88	17.506
668.21	17.661
668.53	16.076
668.86	17.217
669.18	16.981
669.50	15.496
669.83	19.302
670.15	17.483
670.48	19.139
670.80	17.051
671.13	19.016
671.45	14.155
671.77	19.099
672.10	19.010
672.42	20.599
672.75	19.893
673.07	20.572
673.39	19.083
673.72	18.146
674.04	18.333
674.37	20.763
674.69	20.985
675.01	19.333
675.34	19.369
675.66	17.593
675.98	18.847
676.31	17.661
676.63	15.202
676.95	17.727
677.28	16.941
677.60	19.277
677.92	18.349
678.25	19.475
678.57	17.965
678.89	20.168
679.22	20.134
679.54	17.871
679.86	17.694
680.18	20.194
680.51	18.750
680.83	15.706
681.15	18.000
681.48	22.336
681.80	18.802
682.12	20.161
682.44	16.946
682.77	20.088
683.09	18.307
683.41	16.364
683.73	19.585
684.06	19.248
684.38	17.419
684.70	19.172
685.02	18.257
685.34	16.206
685.67	16.886
685.99	21.519
686.31	18.584
686.63	16.883
686.96	18.251
687.28	13.939
687.60	18.631
687.92	20.606
688.24	19.556
688.56	18.996
688.89	16.964
689.21	17.556
689.53	18.329
689.85	17.442
690.17	19.866
690.49	17.258
690.82	18.447
691.14	18.810
691.46	18.692
691.78	20.721
692.10	19.140
692.42	17.532
692.74	19.231
693.06	19.820
693.39	16.063
693.71	16.742
694.03	18.476
694.35	18.224
694.67	17.424
694.99	19.060
695.31	18.277
695.63	20.250
695.95	17.677
696.27	17.098
696.59	18.333
696.91	19.608
697.23	16.710
697.56	20.792
697.88	20.000
698.20	17.540
698.52	19.059
698.84	17.225
699.16	15.500
699.48	21.303
699.80	17.370
700.12	19.407
700.44	18.768
700.76	15.698
701.08	11.515
701.40	19.578
701.72	19.136
702.04	17.822
702.36	18.060
702.68	20.721
703.00	21.515
703.32	19.648
703.64	17.797
703.96	17.391
704.28	20.552
704.60	17.778
704.91	16.404
705.23	17.276
705.55	20.495
705.87	19.134
706.19	19.630
706.51	20.619
706.83	21.543
707.15	14.330
707.47	19.608
707.79	16.927
708.11	22.000
708.43	17.500
708.74	18.605
709.06	20.282
709.38	22.018
709.70	19.231
710.02	14.650
710.34	17.957
710.66	12.500
710.98	20.530
711.29	23.934
711.61	21.017
711.93	19.218
712.25	25.086
712.57	18.681
712.89	12.687
713.20	21.799
713.52	18.118
713.84	20.819
714.16	19.588
714.48	19.677
714.80	20.833
715.11	21.277
715.43	14.107
715.75	19.667
716.07	20.930
716.39	17.785
716.70	14.022
717.02	18.702
717.34	19.838
717.66	15.929
717.97	18.261
718.29	20.502
718.61	20.472
718.93	18.992
719.24	23.954
719.56	22.892
719.88	19.931
720.20	17.803
720.51	16.475
720.83	17.761
721.15	19.748
721.46	16.129
721.78	11.462
722.10	18.959
722.42	13.693
722.73	18.776
723.05	20.408
723.37	21.610
723.68	21.171
724.00	18.376
724.32	19.556
724.63	17.273
724.95	15.721
725.27	23.041
725.58	21.610
725.90	13.889
726.22	22.394
726.53	21.017
726.85	20.599
727.16	21.509
727.48	17.814
727.80	19.028
728.11	21.610
728.43	19.608
728.74	13.710
729.06	18.000
729.38	24.436
729.69	18.327
730.01	16.923
730.32	19.030
730.64	22.968
730.96	21.887
731.27	17.667
731.59	15.932
731.90	21.019
732.22	22.713
732.53	22.591
732.85	22.340
733.16	23.569
733.48	17.266
733.80	19.203
734.11	20.678
734.43	23.024
734.74	22.424
735.06	16.938
735.37	21.148
735.69	22.222
736.00	16.376
736.32	24.497
736.63	20.775
736.95	21.843
737.26	17.794
737.58	17.450
737.89	20.513
738.21	19.173
738.52	17.695
738.83	24.454
739.15	21.834
739.46	21.260
739.78	13.187
740.09	18.954
740.41	21.377
740.72	15.748
741.04	19.838
741.35	17.021
741.66	20.853
741.98	16.837
742.29	20.792
742.61	20.419
742.92	12.796
743.23	13.426
743.55	23.529
743.86	17.225
744.18	21.531
744.49	20.745
744.80	19.565
745.12	22.460
745.43	18.049
745.74	17.708
746.06	21.951
746.37	17.801
746.68	17.062
747.00	20.213
747.31	19.403
747.62	16.019
747.94	19.617
748.25	14.356
748.56	16.393
748.88	15.183
749.19	21.809
749.50	25.123
749.82	16.981
750.13	15.596
750.44	21.429
750.75	21.269
751.07	25.547
751.38	20.307
751.69	19.216
752.01	23.256
752.32	17.928
752.63	21.344
752.94	20.259
753.26	25.941
753.57	20.814
753.88	18.142
754.19	17.917
754.51	16.116
754.82	21.862
755.13	22.917
755.44	18.952
755.75	22.266
756.07	18.288
756.38	17.358
756.69	19.157
757.00	20.333
757.31	19.935
757.63	18.598
757.94	21.389
758.25	21.644
758.56	21.543
758.87	17.847
759.18	21.184
759.50	19.636
759.81	21.405
760.12	20.323
760.43	18.182
760.74	20.988
761.05	24.308
761.36	22.443
761.67	25.152
761.99	23.810
762.30	15.273
762.61	23.320
762.92	19.457
763.23	19.820
763.54	17.290
763.85	19.915
764.16	16.183
764.47	19.758
764.78	18.681
765.10	18.182
765.41	23.659
765.72	19.365
766.03	19.173
766.34	20.803
766.65	22.311
766.96	24.747
767.27	18.085
767.58	16.667
767.89	18.440
768.20	18.750
768.51	19.231
768.82	21.675
769.13	14.286
769.44	16.738
769.75	16.438
770.06	19.397
770.37	22.115
770.68	15.736
770.99	13.575
771.30	25.490
771.61	21.719
771.92	22.414
772.23	23.153
772.54	21.505
772.85	15.432
773.16	24.719
773.47	31.373
773.78	26.144
774.09	24.551
774.39	20.000
774.70	23.567
775.01	27.586
775.32	27.143
775.63	18.182
775.94	25.954
776.25	24.409
776.56	17.500
776.87	19.231
777.18	17.094
777.48	20.690
777.79	13.043
778.10	7.619
778.41	19.820
778.72	16.667
779.03	18.797
779.34	25.532
779.65	18.493
779.95	17.808
780.26	22.069
780.57	13.821
780.88	23.622
781.19	23.276
781.50	19.380
781.80	15.976
782.11	11.321
782.42	27.692
782.73	15.108
783.04	20.000
783.34	7.639
783.65	7.692
783.96	22.131
784.27	26.207
784.57	23.577
784.88	31.250
785.19	12.000
785.50	16.000
785.81	23.276
786.11	16.379
786.42	10.680
786.73	22.727
787.04	9.184
787.34	22.321
787.65	18.095
787.96	22.124
788.26	8.182
788.57	16.239
788.88	25.000
789.19	20.635
789.49	19.130
789.80	19.388
790.11	13.131
790.41	19.091
790.72	22.826
791.03	29.545
791.33	40.000
791.64	17.500
791.95	18.605
792.25	22.340
792.56	24.719
792.87	24.658
793.17	17.391
793.48	26.667
793.79	23.750
794.09	23.750
794.40	16.981
794.70	20.388
795.01	20.325
795.32	17.949
795.62	25.714
795.93	30.392
796.23	23.585
796.54	35.417
796.85	23.529
797.15	5.634
797.46	29.167
797.76	27.273
798.07	25.581
798.37	18.421
798.68	25.758
798.99	14.815
799.29	28.571
799.60	26.087
799.90	26.667
800.21	14.754
800.51	27.692
800.82	20.339
801.12	24.638
801.43	22.951
801.73	22.222
802.04	8.000
802.34	16.418
802.65	13.462
802.95	-5.357
803.26	11.538
803.56	23.529
803.87	26.087
804.17	36.000
804.48	23.810
804.78	12.963
805.09	6.522
805.39	8.889
805.70	29.630
806.00	3.509
806.30	21.127
806.61	34.286
806.91	6.944
807.22	27.632
807.52	34.667
807.83	25.455
808.13	25.000
808.43	30.882
808.74	10.448
809.04	8.475
809.35	3.846
809.65	18.750
809.95	-16.216
810.26	4.545
810.56	19.178
810.86	33.333
811.17	38.000
811.47	16.327
811.77	-7.895
812.08	29.545
812.38	5.660
812.69	17.500
812.99	27.273
813.29	13.158
813.59	-11.429
813.90	15.909
814.20	7.692
814.50	0.000
814.81	33.962
815.11	8.511
815.41	25.424
815.72	19.048
816.02	13.725
816.32	8.333
816.62	-7.317
816.93	40.541
817.23	-5.714
817.53	25.000
817.84	4.348
818.14	23.077
818.44	-5.263
818.74	43.478
819.04	-10.000
819.35	72.973
819.65	35.294
819.95	22.222
820.25	7.143
820.56	55.000
820.86	-20.690
821.16	42.500
821.46	29.787
821.76	25.000
822.07	20.930
822.37	-10.811
822.67	12.500
822.97	23.810
823.27	-17.857
823.57	-32.000
823.88	-14.815
824.18	10.714
824.48	0.000
824.78	48.387
825.08	4.348
825.38	27.273
825.69	-4.167
825.99	2.632
826.29	30.556
826.59	6.667
826.89	-47.619
827.19	19.565
827.49	17.500
827.79	25.714
828.09	57.143
828.39	12.121
828.70	35.135
829.00	28.571
829.30	-19.048
829.60	30.000
829.90	18.750
830.20	-2.632
830.50	-18.519
830.80	34.783
831.10	9.091
831.40	57.576
831.70	41.935
832.00	23.810
832.30	-23.810
832.60	-33.333
832.90	20.690
833.20	10.000
833.50	9.091
833.80	40.741
834.10	30.769
834.40	18.750
834.70	22.222
835.00	10.526
835.30	84.615
835.60	80.000
835.90	51.613
836.20	-9.091
836.50	39.286
836.80	-11.538
837.10	21.429
837.40	-200.000
837.70	54.545
838.00	54.545
838.30	21.739
838.60	-7.692
838.90	22.727
839.19	67.857
839.49	40.000
839.79	-76.923
840.09	16.667
840.39	42.857
840.69	14.286
840.99	30.769
841.29	5.263
841.59	-40.000
841.88	54.545
842.18	50.000
842.48	25.000
842.78	6.667
843.08	11.111
843.38	-60.000
843.68	39.130
843.97	26.667
844.27	0.000
844.57	25.000
844.87	38.889
845.17	4.762
845.47	40.000
845.76	33.333
846.06	58.824
846.36	20.000
846.66	-92.857
846.96	26.667
847.25	-37.500
847.55	42.857
847.85	12.500
848.15	27.273
848.44	-433.333
848.74	15.000
849.04	51.852
849.34	45.455
849.63	-116.667
849.93	-120.000
850.23	11.111
850.53	50.000
850.82	46.154
851.12	77.778
851.42	40.000
851.71	38.462
852.01	7.143
852.31	-225.000
852.61	-27.273
852.90	0.000
853.20	21.053
853.50	-16.667
853.79	56.522
854.09	58.333
854.39	15.789
854.68	33.333
854.98	51.613
855.28	30.769
855.57	25.000
855.87	16.667
856.17	51.852
856.46	64.286
856.76	53.333
857.05	11.111
857.35	76.000
857.65	-22.222
857.94	92.308
858.24	51.724
858.53	5.556
858.83	29.630
859.13	27.273
859.42	21.739
859.72	250.000
860.01	-366.667
860.31	8.000
860.60	23.810
860.90	0.000
861.20	-33.333
861.49	-50.000
861.79	33.333
862.08	10.000
862.38	113.333
862.67	-40.000
862.97	83.333
863.26	25.000
863.56	0.000
863.85	-333.333
864.15	83.333
864.44	-20.000
864.74	71.429
865.03	25.000
865.33	-60.000
865.62	-50.000
865.92	8.333
866.21	-83.333
866.51	93.750
866.80	-36.364
867.10	-50.000
867.39	41.667
867.69	0.000
867.98	46.154
868.27	0.000
868.57	13.333
868.86	38.889
869.16	46.154
869.45	140.000
869.75	-400.000
870.04	0.000
870.33	-114.286
870.63	42.857
870.92	133.333
871.22	-180.000
871.51	-300.000
871.80	44.444
872.10	366.667
>>>>>End Processed Spectral Data<<<<<
