SpectraSuite Data File
++++++++++++++++++++++++++++++++++++
Date: Fri May 15 17:07:22 PDT 2015
User: schluterlab
Dark Spectrum Present: Yes
Reference Spectrum Present: Yes
Number of Sampled Component Spectra: 1
Spectrometers: USB2E3373
Integration Time (usec): 3000 (USB2E3373)
Spectra Averaged: 3 (USB2E3373)
Boxcar Smoothing: 0 (USB2E3373)
Correct for Electrical Dark: No (USB2E3373)
Strobe/Lamp Enabled: No (USB2E3373)
Correct for Detector Non-linearity: No (USB2E3373)
Correct for Stray Light: No (USB2E3373)
Number of Pixels in Processed Spectrum: 2048
>>>>>Begin Processed Spectral Data<<<<<
178.53	0.000
178.91	0.000
179.29	225.000
179.67	200.000
180.04	-57.143
180.42	275.000
180.80	100.000
181.18	-500.000
181.56	200.000
181.94	450.000
182.31	-600.000
182.69	80.000
183.07	-133.333
183.45	20.000
183.83	-0.000
184.20	118.182
184.58	22.222
184.96	75.000
185.34	100.000
185.72	-150.000
186.09	38.462
186.47	300.000
186.85	50.000
187.23	33.333
187.61	-0.000
187.98	200.000
188.36	44.444
188.74	-366.667
189.12	47.059
189.49	72.222
189.87	0.000
190.25	85.714
190.63	650.000
191.00	66.667
191.38	5.263
191.76	850.000
192.14	75.000
192.51	450.000
192.89	11.111
193.27	85.714
193.65	166.667
194.02	118.182
194.40	140.000
194.78	-25.000
195.15	58.333
195.53	-87.500
195.91	25.000
196.29	225.000
196.66	7.692
197.04	-28.571
197.42	88.889
197.79	-233.333
198.17	-53.846
198.55	300.000
198.92	0.000
199.30	500.000
199.68	80.000
200.05	0.000
200.43	0.000
200.81	233.333
201.18	300.000
201.56	800.000
201.94	50.000
202.31	-266.667
202.69	-60.000
203.07	-50.000
203.44	1300.000
203.82	0.000
204.19	107.143
204.57	-66.667
204.95	-62.500
205.32	90.000
205.70	242.857
206.08	275.000
206.45	255.556
206.83	135.714
207.20	85.714
207.58	-400.000
207.96	33.333
208.33	-10.000
208.71	525.000
209.08	-16.667
209.46	1000.000
209.84	240.000
210.21	-1200.000
210.59	171.429
210.96	216.667
211.34	300.000
211.71	53.333
212.09	57.143
212.46	500.000
212.84	0.000
213.22	70.000
213.59	900.000
213.97	53.846
214.34	81.818
214.72	233.333
215.09	250.000
215.47	76.923
215.84	36.364
216.22	333.333
216.59	137.500
216.97	550.000
217.34	-50.000
217.72	60.000
218.09	125.000
218.47	112.500
218.84	900.000
219.22	88.889
219.59	80.000
219.97	166.667
220.34	175.000
220.72	71.429
221.09	125.000
221.47	50.000
221.84	-200.000
222.22	-550.000
222.59	109.091
222.97	50.000
223.34	-166.667
223.72	114.286
224.09	33.333
224.46	17.857
224.84	166.667
225.21	-50.000
225.59	66.667
225.96	250.000
226.34	-175.000
226.71	100.000
227.08	83.333
227.46	37.500
227.83	400.000
228.21	-11.111
228.58	54.545
228.95	25.000
229.33	-20.000
229.70	37.500
230.08	-37.500
230.45	-28.571
230.82	57.143
231.20	13.333
231.57	14.286
231.95	114.286
232.32	30.000
232.69	78.571
233.07	333.333
233.44	260.000
233.81	100.000
234.19	77.778
234.56	76.471
234.93	-0.000
235.31	200.000
235.68	20.000
236.05	-23.077
236.43	55.000
236.80	82.353
237.17	68.750
237.55	85.000
237.92	25.926
238.29	41.667
238.67	40.000
239.04	38.235
239.41	26.829
239.79	23.333
240.16	53.659
240.53	15.789
240.91	23.913
241.28	38.095
241.65	39.286
242.02	38.356
242.40	38.333
242.77	55.932
243.14	39.394
243.51	27.500
243.89	31.034
244.26	27.586
244.63	42.857
245.00	30.928
245.38	32.990
245.75	32.584
246.12	27.586
246.49	38.017
246.87	34.615
247.24	31.933
247.61	27.193
247.98	27.642
248.36	31.250
248.73	28.289
249.10	25.974
249.47	37.342
249.84	28.758
250.22	25.294
250.59	28.758
250.96	29.108
251.33	29.651
251.70	31.765
252.08	27.411
252.45	31.683
252.82	37.186
253.19	33.641
253.56	24.766
253.94	28.378
254.31	30.000
254.68	35.088
255.05	32.677
255.42	29.694
255.79	35.907
256.16	29.572
256.54	27.985
256.91	26.236
257.28	28.996
257.65	29.213
258.02	23.404
258.39	31.313
258.76	33.700
259.14	33.223
259.51	28.155
259.88	27.148
260.25	31.373
260.62	31.944
260.99	27.119
261.36	27.740
261.73	27.532
262.10	26.140
262.47	28.834
262.85	27.900
263.22	27.385
263.59	29.595
263.96	29.814
264.33	29.091
264.70	27.976
265.07	27.381
265.44	32.295
265.81	31.073
266.18	27.322
266.55	30.334
266.92	30.570
267.29	29.243
267.66	29.412
268.03	30.366
268.40	25.065
268.77	30.214
269.14	28.058
269.51	28.792
269.88	28.678
270.25	27.041
270.62	24.634
270.99	26.598
271.36	25.917
271.73	31.455
272.10	27.981
272.47	27.660
272.84	27.475
273.21	29.698
273.58	28.916
273.95	30.664
274.32	27.945
274.69	23.529
275.06	30.804
275.43	29.025
275.80	26.711
276.17	29.425
276.54	25.910
276.91	27.851
277.28	26.638
277.65	28.719
278.02	26.170
278.39	26.039
278.76	26.625
279.13	23.859
279.50	27.941
279.87	27.214
280.23	26.022
280.60	28.850
280.97	26.263
281.34	26.538
281.71	28.337
282.08	28.834
282.45	25.832
282.82	27.027
283.19	27.853
283.56	25.819
283.92	26.376
284.29	25.192
284.66	24.225
285.03	25.147
285.40	25.520
285.77	23.902
286.14	24.910
286.51	26.753
286.87	24.497
287.24	25.967
287.61	23.810
287.98	28.596
288.35	25.823
288.72	24.518
289.08	23.958
289.45	25.659
289.82	25.350
290.19	22.014
290.56	25.557
290.93	24.579
291.29	20.647
291.66	25.197
292.03	21.531
292.40	23.548
292.77	23.445
293.13	20.617
293.50	22.155
293.87	22.901
294.24	22.875
294.60	22.206
294.97	20.387
295.34	22.086
295.71	21.162
296.08	22.123
296.44	18.634
296.81	20.278
297.18	21.304
297.55	21.951
297.91	20.137
298.28	22.691
298.65	19.810
299.02	20.350
299.38	18.057
299.75	20.414
300.12	18.979
300.48	18.445
300.85	18.631
301.22	19.610
301.59	19.737
301.95	22.025
302.32	21.141
302.69	19.030
303.05	18.812
303.42	18.555
303.79	20.210
304.15	18.877
304.52	17.360
304.89	18.830
305.25	19.976
305.62	17.503
305.99	17.895
306.35	18.728
306.72	18.335
307.09	18.814
307.45	18.485
307.82	17.940
308.19	18.583
308.55	17.993
308.92	18.083
309.29	16.425
309.65	18.192
310.02	18.262
310.38	18.551
310.75	18.579
311.12	18.084
311.48	18.558
311.85	16.335
312.22	16.772
312.58	17.197
312.95	17.396
313.31	16.563
313.68	17.487
314.05	16.531
314.41	19.278
314.78	17.732
315.14	19.836
315.51	18.841
315.87	17.008
316.24	18.605
316.61	17.323
316.97	19.048
317.34	16.992
317.70	18.069
318.07	18.462
318.43	19.706
318.80	18.845
319.16	19.727
319.53	18.993
319.89	19.094
320.26	19.737
320.62	19.157
320.99	17.745
321.35	20.349
321.72	19.315
322.08	18.832
322.45	19.086
322.81	20.236
323.18	19.136
323.54	18.726
323.91	18.695
324.27	20.508
324.64	20.787
325.00	21.077
325.37	20.478
325.73	18.767
326.10	21.617
326.46	21.076
326.83	20.122
327.19	21.796
327.56	21.894
327.92	21.303
328.29	21.339
328.65	22.547
329.01	21.232
329.38	22.765
329.74	21.152
330.11	23.170
330.47	21.892
330.84	21.731
331.20	24.905
331.56	21.574
331.93	22.740
332.29	24.565
332.66	22.805
333.02	23.048
333.38	21.723
333.75	23.168
334.11	22.113
334.48	23.663
334.84	24.267
335.20	22.598
335.57	21.850
335.93	24.119
336.29	23.665
336.66	22.797
337.02	22.862
337.38	24.259
337.75	23.000
338.11	23.715
338.47	24.726
338.84	24.122
339.20	24.040
339.56	24.771
339.93	23.277
340.29	25.505
340.65	24.552
341.02	23.227
341.38	23.628
341.74	24.293
342.11	22.964
342.47	24.199
342.83	22.491
343.20	23.955
343.56	24.435
343.92	24.358
344.28	23.911
344.65	22.539
345.01	23.163
345.37	23.213
345.73	24.519
346.10	24.072
346.46	24.138
346.82	22.668
347.19	23.192
347.55	23.726
347.91	23.786
348.27	23.848
348.63	24.361
349.00	23.462
349.36	24.605
349.72	24.461
350.08	24.262
350.45	24.262
350.81	23.671
351.17	24.756
351.53	23.755
351.89	24.277
352.26	23.440
352.62	24.355
352.98	23.775
353.34	23.027
353.70	24.595
354.07	23.468
354.43	24.099
354.79	24.277
355.15	25.159
355.51	25.000
355.87	23.867
356.24	23.491
356.60	24.899
356.96	25.397
357.32	24.361
357.68	24.550
358.04	25.202
358.40	24.759
358.77	25.279
359.13	25.861
359.49	24.422
359.85	24.337
360.21	24.482
360.57	25.172
360.93	25.113
361.29	24.169
361.66	25.940
362.02	25.758
362.38	25.209
362.74	25.738
363.10	25.658
363.46	25.797
363.82	26.446
364.18	26.568
364.54	24.632
364.90	26.237
365.26	24.891
365.62	27.372
365.98	25.147
366.35	27.167
366.71	27.347
367.07	26.560
367.43	25.881
367.79	25.371
368.15	26.274
368.51	25.492
368.87	25.915
369.23	25.921
369.59	27.041
369.95	26.686
370.31	26.734
370.67	26.716
371.03	26.960
371.39	26.258
371.75	27.106
372.11	26.320
372.47	27.293
372.83	28.531
373.19	26.605
373.55	27.798
373.91	27.574
374.27	27.569
374.63	27.710
374.99	27.376
375.35	26.741
375.71	28.182
376.07	28.020
376.42	27.075
376.78	28.591
377.14	28.165
377.50	27.888
377.86	29.050
378.22	29.419
378.58	29.359
378.94	28.922
379.30	29.070
379.66	29.969
380.02	28.204
380.38	28.545
380.74	29.084
381.09	28.957
381.45	28.991
381.81	29.735
382.17	28.934
382.53	30.481
382.89	29.692
383.25	29.807
383.61	30.305
383.97	29.778
384.32	30.957
384.68	30.031
385.04	29.167
385.40	29.434
385.76	31.698
386.12	31.565
386.48	32.312
386.83	31.198
387.19	30.769
387.55	30.928
387.91	30.501
388.27	31.868
388.62	32.410
388.98	30.325
389.34	32.417
389.70	32.567
390.06	32.033
390.42	31.218
390.77	32.701
391.13	31.841
391.49	31.953
391.85	32.229
392.20	32.643
392.56	32.359
392.92	32.355
393.28	31.958
393.64	31.892
393.99	33.166
394.35	32.511
394.71	33.908
395.07	32.558
395.42	32.726
395.78	32.508
396.14	32.598
396.50	33.101
396.85	33.226
397.21	33.709
397.57	32.915
397.92	33.313
398.28	33.506
398.64	32.410
399.00	34.029
399.35	32.449
399.71	32.740
400.07	33.978
400.42	33.476
400.78	34.231
401.14	34.059
401.49	34.008
401.85	33.333
402.21	34.036
402.57	34.062
402.92	31.619
403.28	34.649
403.63	35.057
403.99	33.801
404.35	34.478
404.70	34.107
405.06	34.489
405.42	34.493
405.77	33.236
406.13	33.236
406.49	33.097
406.84	34.719
407.20	35.160
407.55	34.256
407.91	34.559
408.27	34.799
408.62	34.462
408.98	34.750
409.34	34.696
409.69	34.819
410.05	34.298
410.40	34.568
410.76	34.318
411.11	34.250
411.47	34.714
411.83	34.087
412.18	35.779
412.54	34.082
412.89	33.436
413.25	36.221
413.60	34.783
413.96	32.883
414.31	34.207
414.67	34.573
415.03	35.286
415.38	34.661
415.74	36.221
416.09	35.336
416.45	35.449
416.80	34.699
417.16	36.395
417.51	36.309
417.87	36.180
418.22	35.816
418.58	35.251
418.93	35.047
419.29	34.635
419.64	36.293
420.00	36.839
420.35	35.045
420.71	37.120
421.06	36.157
421.42	37.139
421.77	35.838
422.12	35.982
422.48	35.950
422.83	35.963
423.19	35.892
423.54	36.802
423.90	37.397
424.25	36.739
424.61	37.148
424.96	36.295
425.31	37.262
425.67	37.031
426.02	37.986
426.38	37.570
426.73	38.317
427.09	38.418
427.44	39.000
427.79	38.480
428.15	37.379
428.50	38.462
428.85	36.978
429.21	38.144
429.56	38.652
429.92	37.185
430.27	37.494
430.62	36.696
430.98	36.996
431.33	38.170
431.68	37.363
432.04	38.569
432.39	36.509
432.74	36.861
433.10	38.218
433.45	38.351
433.80	38.479
434.16	37.175
434.51	38.925
434.86	38.269
435.22	37.633
435.57	39.488
435.92	38.383
436.28	37.448
436.63	37.821
436.98	37.022
437.34	38.536
437.69	38.163
438.04	38.234
438.39	38.424
438.75	39.223
439.10	38.993
439.45	38.892
439.81	38.165
440.16	38.895
440.51	39.224
440.86	40.967
441.22	38.179
441.57	39.514
441.92	39.927
442.27	39.856
442.63	39.615
442.98	39.288
443.33	38.564
443.68	39.469
444.03	39.593
444.39	38.760
444.74	40.357
445.09	40.089
445.44	39.430
445.79	40.433
446.15	39.427
446.50	39.268
446.85	39.479
447.20	39.520
447.55	39.621
447.91	38.522
448.26	40.239
448.61	39.954
448.96	41.193
449.31	39.480
449.66	39.895
450.02	39.989
450.37	39.478
450.72	39.691
451.07	40.127
451.42	39.825
451.77	40.446
452.12	39.773
452.47	39.730
452.83	39.635
453.18	40.417
453.53	40.582
453.88	40.437
454.23	40.012
454.58	39.987
454.93	40.142
455.28	39.238
455.63	40.236
455.98	40.649
456.34	39.144
456.69	40.978
457.04	40.769
457.39	40.887
457.74	40.206
458.09	39.023
458.44	39.965
458.79	39.160
459.14	40.046
459.49	40.299
459.84	40.553
460.19	39.806
460.54	40.220
460.89	40.341
461.24	40.373
461.59	40.439
461.94	40.881
462.29	41.496
462.64	41.462
462.99	39.675
463.34	40.334
463.69	39.833
464.04	39.407
464.39	39.964
464.74	39.448
465.09	40.799
465.44	40.104
465.79	40.986
466.14	39.852
466.49	39.275
466.84	40.809
467.19	39.549
467.54	40.549
467.89	40.493
468.24	40.328
468.59	40.889
468.94	40.381
469.29	39.475
469.64	40.670
469.99	40.925
470.34	39.795
470.68	41.014
471.03	40.906
471.38	41.155
471.73	40.266
472.08	40.434
472.43	41.342
472.78	40.850
473.13	41.905
473.48	40.065
473.83	41.034
474.17	40.544
474.52	40.651
474.87	41.030
475.22	40.329
475.57	40.711
475.92	41.690
476.27	40.861
476.61	42.130
476.96	40.045
477.31	41.590
477.66	40.730
478.01	40.539
478.36	41.176
478.70	41.001
479.05	41.209
479.40	41.600
479.75	40.511
480.10	40.553
480.45	41.150
480.79	41.641
481.14	40.984
481.49	40.049
481.84	40.734
482.19	39.289
482.53	40.959
482.88	40.573
483.23	40.019
483.58	40.613
483.92	40.513
484.27	40.018
484.62	41.372
484.97	39.718
485.31	40.210
485.66	38.474
486.01	38.578
486.36	38.074
486.70	38.036
487.05	38.017
487.40	38.883
487.75	39.268
488.09	38.782
488.44	39.546
488.79	40.344
489.13	40.865
489.48	41.300
489.83	40.135
490.17	40.629
490.52	41.709
490.87	41.046
491.22	41.452
491.56	41.556
491.91	41.252
492.26	41.711
492.60	40.259
492.95	42.597
493.30	41.280
493.64	42.043
493.99	41.063
494.34	40.825
494.68	41.857
495.03	41.314
495.37	41.217
495.72	41.848
496.07	41.610
496.41	41.132
496.76	40.028
497.11	40.009
497.45	41.862
497.80	40.868
498.14	41.282
498.49	41.747
498.84	41.367
499.18	42.068
499.53	41.915
499.87	40.905
500.22	42.186
500.56	42.360
500.91	41.717
501.26	40.633
501.60	41.712
501.95	42.358
502.29	42.131
502.64	41.747
502.98	41.441
503.33	40.538
503.67	40.867
504.02	41.887
504.36	41.860
504.71	41.566
505.06	41.319
505.40	42.081
505.75	41.237
506.09	41.561
506.44	43.121
506.78	42.704
507.13	42.503
507.47	41.305
507.82	42.468
508.16	41.891
508.51	42.183
508.85	42.125
509.19	42.203
509.54	41.769
509.88	42.071
510.23	43.303
510.57	43.025
510.92	41.471
511.26	43.808
511.61	43.894
511.95	42.740
512.30	43.459
512.64	42.849
512.98	42.841
513.33	43.593
513.67	43.604
514.02	44.108
514.36	44.114
514.70	44.231
515.05	45.828
515.39	43.684
515.74	45.269
516.08	44.411
516.42	44.523
516.77	44.236
517.11	44.807
517.46	44.225
517.80	45.411
518.14	44.029
518.49	45.192
518.83	44.654
519.17	43.602
519.52	45.056
519.86	44.958
520.20	44.714
520.55	44.465
520.89	45.232
521.23	45.408
521.58	46.183
521.92	45.256
522.26	44.112
522.61	46.039
522.95	47.682
523.29	45.172
523.64	46.506
523.98	46.533
524.32	44.845
524.66	45.583
525.01	46.104
525.35	46.468
525.69	45.993
526.04	45.569
526.38	46.304
526.72	45.716
527.06	44.942
527.41	46.702
527.75	46.247
528.09	45.449
528.43	46.995
528.78	46.337
529.12	46.452
529.46	45.679
529.80	45.598
530.15	47.591
530.49	46.330
530.83	47.674
531.17	46.743
531.51	46.580
531.86	46.431
532.20	46.068
532.54	45.473
532.88	47.433
533.22	45.632
533.57	46.789
533.91	45.888
534.25	46.615
534.59	44.836
534.93	45.312
535.27	45.495
535.62	45.820
535.96	45.466
536.30	46.240
536.64	46.795
536.98	46.202
537.32	47.368
537.66	47.546
538.01	46.573
538.35	46.533
538.69	46.738
539.03	45.728
539.37	47.241
539.71	46.285
540.05	46.300
540.39	46.537
540.73	47.490
541.07	47.099
541.42	46.909
541.76	47.075
542.10	46.456
542.44	46.074
542.78	45.561
543.12	47.115
543.46	47.010
543.80	46.634
544.14	45.928
544.48	46.835
544.82	45.455
545.16	46.175
545.50	45.794
545.84	48.088
546.18	47.163
546.52	47.513
546.86	45.866
547.20	47.568
547.54	46.714
547.88	46.671
548.22	46.154
548.56	45.119
548.90	45.822
549.24	45.730
549.58	46.827
549.92	45.533
550.26	48.059
550.60	47.658
550.94	47.797
551.28	47.682
551.62	48.308
551.96	47.669
552.30	47.368
552.64	46.827
552.98	47.539
553.32	47.076
553.66	46.444
554.00	46.934
554.34	48.523
554.68	47.714
555.02	48.065
555.36	47.120
555.69	46.447
556.03	47.395
556.37	46.833
556.71	48.014
557.05	47.949
557.39	47.732
557.73	47.676
558.07	49.095
558.41	48.315
558.75	49.260
559.08	49.645
559.42	48.730
559.76	49.079
560.10	47.706
560.44	47.952
560.78	46.853
561.12	48.660
561.45	48.559
561.79	48.880
562.13	48.119
562.47	47.842
562.81	48.055
563.15	47.884
563.48	48.656
563.82	46.946
564.16	48.538
564.50	46.149
564.84	48.260
565.17	45.741
565.51	48.292
565.85	47.942
566.19	47.878
566.52	47.788
566.86	48.201
567.20	46.887
567.54	47.263
567.88	47.510
568.21	47.059
568.55	45.489
568.89	46.920
569.23	45.498
569.56	45.447
569.90	44.539
570.24	44.659
570.57	45.164
570.91	45.382
571.25	43.473
571.59	43.912
571.92	42.637
572.26	43.780
572.60	43.194
572.93	43.960
573.27	43.511
573.61	43.884
573.95	43.501
574.28	42.956
574.62	42.512
574.96	42.234
575.29	42.504
575.63	41.487
575.97	42.288
576.30	43.239
576.64	42.437
576.98	43.012
577.31	42.615
577.65	43.142
577.98	42.540
578.32	41.773
578.66	41.994
578.99	41.741
579.33	41.394
579.67	41.559
580.00	42.354
580.34	43.085
580.67	42.631
581.01	42.531
581.35	42.743
581.68	42.157
582.02	41.696
582.35	41.746
582.69	42.715
583.02	41.700
583.36	43.175
583.70	43.094
584.03	44.231
584.37	44.269
584.70	43.736
585.04	42.617
585.37	42.580
585.71	42.829
586.04	42.486
586.38	42.705
586.72	44.017
587.05	43.876
587.39	43.780
587.72	44.833
588.06	43.842
588.39	43.008
588.73	43.834
589.06	44.879
589.40	44.625
589.73	45.235
590.07	45.959
590.40	45.279
590.73	46.705
591.07	46.056
591.40	45.325
591.74	46.425
592.07	46.382
592.41	46.908
592.74	44.723
593.08	44.638
593.41	44.942
593.75	43.867
594.08	43.872
594.41	44.541
594.75	45.305
595.08	46.084
595.42	45.123
595.75	45.926
596.09	45.700
596.42	45.804
596.75	46.048
597.09	46.879
597.42	46.206
597.75	47.045
598.09	45.994
598.42	45.352
598.76	45.131
599.09	44.712
599.42	44.714
599.76	44.432
600.09	44.532
600.42	44.731
600.76	44.205
601.09	44.733
601.42	44.458
601.76	45.296
602.09	46.081
602.42	47.683
602.76	45.798
603.09	45.889
603.42	47.032
603.76	45.444
604.09	44.714
604.42	45.728
604.76	47.085
605.09	46.618
605.42	46.998
605.75	46.103
606.09	46.115
606.42	46.289
606.75	45.628
607.09	46.374
607.42	46.035
607.75	45.826
608.08	45.867
608.42	46.003
608.75	47.373
609.08	48.281
609.41	47.208
609.75	48.639
610.08	46.480
610.41	46.135
610.74	47.099
611.07	48.630
611.41	47.898
611.74	47.921
612.07	46.842
612.40	47.265
612.73	47.740
613.07	48.538
613.40	47.757
613.73	48.461
614.06	48.024
614.39	47.659
614.72	47.227
615.06	48.212
615.39	46.288
615.72	47.363
616.05	48.547
616.38	46.724
616.71	47.584
617.05	48.610
617.38	49.654
617.71	48.994
618.04	49.524
618.37	48.991
618.70	49.043
619.03	50.764
619.36	50.145
619.69	51.251
620.03	50.840
620.36	49.928
620.69	49.536
621.02	50.994
621.35	52.199
621.68	52.041
622.01	50.167
622.34	52.354
622.67	50.789
623.00	50.766
623.33	51.677
623.66	49.663
623.99	50.076
624.32	50.266
624.65	48.872
624.99	51.543
625.32	50.190
625.65	51.375
625.98	52.055
626.31	51.704
626.64	52.946
626.97	52.269
627.30	51.226
627.63	52.253
627.96	52.022
628.29	51.896
628.62	54.474
628.95	53.106
629.28	55.242
629.61	53.141
629.94	52.688
630.26	54.150
630.59	54.006
630.92	53.641
631.25	51.385
631.58	56.057
631.91	54.825
632.24	55.161
632.57	54.205
632.90	54.567
633.23	55.765
633.56	56.549
633.89	57.707
634.22	57.037
634.55	57.306
634.88	57.599
635.20	53.718
635.53	56.533
635.86	56.567
636.19	60.931
636.52	54.719
636.85	54.342
637.18	56.604
637.51	56.981
637.83	57.293
638.16	57.435
638.49	56.131
638.82	56.579
639.15	56.581
639.48	58.322
639.81	57.880
640.13	59.307
640.46	59.475
640.79	57.879
641.12	57.459
641.45	56.757
641.77	58.667
642.10	58.294
642.43	58.039
642.76	59.571
643.09	60.420
643.41	57.443
643.74	58.814
644.07	58.621
644.40	61.149
644.73	61.646
645.05	58.893
645.38	59.612
645.71	59.043
646.04	62.478
646.36	60.816
646.69	62.410
647.02	63.327
647.35	61.940
647.67	61.609
648.00	64.552
648.33	59.044
648.66	59.492
648.98	57.454
649.31	58.512
649.64	57.771
649.96	57.212
650.29	58.603
650.62	58.803
650.94	62.593
651.27	59.777
651.60	61.802
651.92	59.615
652.25	59.325
652.58	58.333
652.90	62.264
653.23	58.824
653.56	57.868
653.88	58.935
654.21	57.443
654.54	57.725
654.86	60.781
655.19	55.409
655.52	53.096
655.84	44.311
656.17	48.412
656.49	65.194
656.82	68.126
657.15	52.492
657.47	39.503
657.80	30.147
658.13	29.689
658.45	46.608
658.78	47.260
659.10	48.260
659.43	50.524
659.75	52.886
660.08	55.103
660.41	56.078
660.73	56.492
661.06	59.792
661.38	60.078
661.71	58.316
662.03	63.948
662.36	61.758
662.68	62.168
663.01	65.066
663.33	64.269
663.66	64.651
663.98	60.233
664.31	60.554
664.63	62.212
664.96	59.783
665.28	60.044
665.61	60.173
665.93	61.739
666.26	63.557
666.58	60.403
666.91	63.059
667.23	65.802
667.56	63.981
667.88	66.187
668.21	66.348
668.53	66.667
668.86	66.745
669.18	61.085
669.50	61.017
669.83	63.721
670.15	65.501
670.48	60.526
670.80	62.212
671.13	60.179
671.45	61.187
671.77	62.232
672.10	63.366
672.42	57.678
672.75	58.082
673.07	60.465
673.39	58.349
673.72	59.763
674.04	59.375
674.37	58.475
674.69	58.672
675.01	61.111
675.34	62.162
675.66	66.204
675.98	62.306
676.31	61.927
676.63	62.708
676.95	61.591
677.28	67.765
677.60	67.711
677.92	62.385
678.25	61.269
678.57	59.307
678.89	57.773
679.22	63.535
679.54	57.631
679.86	56.660
680.18	59.806
680.51	58.333
680.83	58.847
681.15	57.800
681.48	61.270
681.80	60.124
682.12	59.073
682.44	58.159
682.77	61.810
683.09	60.183
683.41	58.636
683.73	59.217
684.06	63.496
684.38	59.140
684.70	62.309
685.02	60.996
685.34	56.324
685.67	58.724
685.99	58.590
686.31	56.106
686.63	58.442
686.96	58.175
687.28	56.970
687.60	55.513
687.92	63.232
688.24	60.484
688.56	59.825
688.89	62.054
689.21	61.333
689.53	60.093
689.85	62.791
690.17	58.482
690.49	59.574
690.82	61.893
691.14	60.000
691.46	60.748
691.78	61.261
692.10	61.720
692.42	57.576
692.74	56.197
693.06	59.234
693.39	59.729
693.71	57.692
694.03	58.891
694.35	59.813
694.67	60.606
694.99	61.358
695.31	61.880
695.63	59.500
695.95	58.586
696.27	61.399
696.59	66.389
696.91	57.143
697.23	57.069
697.56	57.673
697.88	59.570
698.20	61.959
698.52	62.353
698.84	59.569
699.16	60.750
699.48	59.900
699.80	57.816
700.12	57.682
700.44	62.465
700.76	60.465
701.08	61.212
701.40	60.542
701.72	67.901
702.04	63.696
702.36	68.227
702.68	63.063
703.00	65.758
703.32	61.877
703.64	61.017
703.96	61.739
704.28	64.724
704.60	64.762
704.91	61.514
705.23	61.794
705.55	67.845
705.87	64.621
706.19	65.556
706.51	60.137
706.83	66.559
707.15	59.502
707.47	61.625
707.79	55.990
708.11	56.750
708.43	59.250
708.74	61.757
709.06	63.380
709.38	66.667
709.70	62.130
710.02	58.917
710.34	60.991
710.66	59.615
710.98	60.265
711.29	60.656
711.61	65.085
711.93	62.866
712.25	71.821
712.57	64.835
712.89	66.791
713.20	61.592
713.52	64.111
713.84	62.799
714.16	60.825
714.48	64.194
714.80	63.782
715.11	58.663
715.43	60.188
715.75	62.000
716.07	55.150
716.39	62.416
716.70	60.148
717.02	68.702
717.34	61.943
717.66	70.354
717.97	65.652
718.29	66.946
718.61	61.024
718.93	69.380
719.24	67.300
719.56	65.462
719.88	61.168
720.20	64.394
720.51	61.303
720.83	59.459
721.15	68.908
721.46	68.548
721.78	61.265
722.10	61.710
722.42	61.411
722.73	61.633
723.05	64.490
723.37	71.186
723.68	72.072
724.00	65.812
724.32	68.000
724.63	66.818
724.95	65.939
725.27	66.820
725.58	63.983
725.90	63.095
726.22	62.162
726.53	58.983
726.85	64.045
727.16	64.906
727.48	62.753
727.80	61.943
728.11	61.017
728.43	58.039
728.74	59.274
729.06	61.200
729.38	69.549
729.69	61.355
730.01	58.462
730.32	65.299
730.64	61.131
730.96	64.906
731.27	61.667
731.59	58.644
731.90	57.325
732.22	61.199
732.53	62.458
732.85	62.057
733.16	64.646
733.48	61.511
733.80	61.232
734.11	60.000
734.43	63.918
734.74	60.303
735.06	61.564
735.37	59.517
735.69	60.606
736.00	64.460
736.32	56.711
736.63	60.211
736.95	58.703
737.26	58.719
737.58	56.040
737.89	58.608
738.21	62.782
738.52	65.021
738.83	62.009
739.15	63.755
739.46	60.236
739.78	60.073
740.09	58.170
740.41	60.870
740.72	64.173
741.04	65.992
741.35	63.830
741.66	65.403
741.98	63.776
742.29	58.911
742.61	71.728
742.92	55.450
743.23	62.037
743.55	70.588
743.86	63.158
744.18	65.550
744.49	62.234
744.80	67.391
745.12	74.866
745.43	62.439
745.74	68.750
746.06	66.341
746.37	63.874
746.68	63.507
747.00	65.957
747.31	75.622
747.62	64.563
747.94	64.115
748.25	62.871
748.56	78.142
748.88	62.827
749.19	71.809
749.50	58.128
749.82	57.547
750.13	64.679
750.44	63.534
750.75	62.313
751.07	63.139
751.38	65.134
751.69	60.392
752.01	66.279
752.32	62.948
752.63	62.451
752.94	62.931
753.26	69.874
753.57	65.158
753.88	62.389
754.19	65.000
754.51	62.397
754.82	63.968
755.13	63.333
755.44	64.516
755.75	62.500
756.07	63.813
756.38	63.019
756.69	61.303
757.00	57.667
757.31	59.150
757.63	55.488
757.94	53.611
758.25	55.890
758.56	55.851
758.87	56.941
759.18	55.763
759.50	62.545
759.81	63.211
760.12	61.935
760.43	56.970
760.74	61.728
761.05	58.154
761.36	58.523
761.67	56.970
761.99	61.224
762.30	58.909
762.61	61.265
762.92	67.421
763.23	61.712
763.54	61.682
763.85	64.407
764.16	60.166
764.47	58.468
764.78	55.678
765.10	61.616
765.41	58.044
765.72	58.095
766.03	59.023
766.34	62.044
766.65	63.745
766.96	67.172
767.27	65.957
767.58	64.368
767.89	68.085
768.20	64.205
768.51	60.989
768.82	61.576
769.13	61.751
769.44	56.652
769.75	57.078
770.06	64.224
770.37	62.019
770.68	63.452
770.99	57.919
771.30	67.647
771.61	61.538
771.92	60.776
772.23	64.039
772.54	59.677
772.85	69.136
773.16	60.674
773.47	71.242
773.78	69.281
774.09	62.275
774.39	71.333
774.70	66.879
775.01	71.724
775.32	60.714
775.63	69.421
775.94	74.809
776.25	74.016
776.56	68.333
776.87	65.385
777.18	62.393
777.48	72.414
777.79	67.826
778.10	56.190
778.41	64.865
778.72	61.111
779.03	66.917
779.34	65.957
779.65	58.904
779.95	56.849
780.26	66.207
780.57	63.415
780.88	70.866
781.19	68.966
781.50	71.318
781.80	61.538
782.11	59.748
782.42	77.692
782.73	66.187
783.04	79.259
783.34	56.250
783.65	59.829
783.96	62.295
784.27	61.379
784.57	60.976
784.88	58.594
785.19	65.000
785.50	75.000
785.81	70.690
786.11	57.759
786.42	74.757
786.73	76.364
787.04	71.429
787.34	64.286
787.65	65.714
787.96	57.522
788.26	68.182
788.57	68.376
788.88	67.969
789.19	62.698
789.49	62.609
789.80	78.571
790.11	73.737
790.41	53.636
790.72	73.913
791.03	63.636
791.33	78.750
791.64	66.250
791.95	53.488
792.25	63.830
792.56	71.910
792.87	64.384
793.17	76.812
793.48	52.000
793.79	66.250
794.09	78.750
794.40	71.698
794.70	64.078
795.01	53.659
795.32	62.393
795.62	70.476
795.93	75.490
796.23	69.811
796.54	64.583
796.85	77.941
797.15	69.014
797.46	76.389
797.76	69.697
798.07	62.791
798.37	55.263
798.68	56.061
798.99	51.852
799.29	75.714
799.60	79.710
799.90	73.333
800.21	65.574
800.51	73.846
800.82	62.712
801.12	69.565
801.43	75.410
801.73	77.778
802.04	96.000
802.34	55.224
802.65	71.154
802.95	82.143
803.26	82.692
803.56	74.510
803.87	67.391
804.17	72.000
804.48	71.429
804.78	46.296
805.09	82.609
805.39	80.000
805.70	96.296
806.00	50.877
806.30	46.479
806.61	57.143
806.91	54.167
807.22	60.526
807.52	74.667
807.83	47.273
808.13	70.833
808.43	75.000
808.74	56.716
809.04	67.797
809.35	59.615
809.65	68.750
809.95	70.270
810.26	77.273
810.56	54.795
810.86	73.810
811.17	78.000
811.47	61.224
811.77	57.895
812.08	70.455
812.38	69.811
812.69	45.000
812.99	90.909
813.29	73.684
813.59	62.857
813.90	68.182
814.20	48.718
814.50	71.154
814.81	77.358
815.11	57.447
815.41	67.797
815.72	78.571
816.02	78.431
816.32	72.917
816.62	60.976
816.93	56.757
817.23	74.286
817.53	104.167
817.84	60.870
818.14	71.154
818.44	52.632
818.74	69.565
819.04	47.500
819.35	75.676
819.65	76.471
819.95	44.444
820.25	54.762
820.56	80.000
820.86	41.379
821.16	110.000
821.46	76.596
821.76	97.500
822.07	83.721
822.37	29.730
822.67	84.375
822.97	95.238
823.27	53.571
823.57	76.000
823.88	81.481
824.18	100.000
824.48	73.529
824.78	61.290
825.08	82.609
825.38	81.818
825.69	75.000
825.99	63.158
826.29	47.222
826.59	146.667
826.89	66.667
827.19	78.261
827.49	40.000
827.79	74.286
828.09	114.286
828.39	78.788
828.70	113.514
829.00	92.857
829.30	114.286
829.60	70.000
829.90	96.875
830.20	47.368
830.50	62.963
830.80	104.348
831.10	90.909
831.40	109.091
831.70	93.548
832.00	76.190
832.30	104.762
832.60	175.000
832.90	100.000
833.20	75.000
833.50	96.970
833.80	88.889
834.10	88.462
834.40	90.625
834.70	211.111
835.00	126.316
835.30	130.769
835.60	226.667
835.90	51.613
836.20	95.455
836.50	100.000
836.80	50.000
837.10	103.571
837.40	400.000
837.70	86.364
838.00	100.000
838.30	113.043
838.60	92.308
838.90	68.182
839.19	67.857
839.49	66.667
839.79	92.308
840.09	108.333
840.39	100.000
840.69	82.143
840.99	76.923
841.29	42.105
841.59	110.000
841.88	154.545
842.18	100.000
842.48	68.750
842.78	80.000
843.08	81.481
843.38	20.000
843.68	117.391
843.97	106.667
844.27	93.333
844.57	80.000
844.87	83.333
845.17	61.905
845.47	53.333
845.76	80.952
846.06	158.824
846.36	60.000
846.66	64.286
846.96	120.000
847.25	-12.500
847.55	164.286
847.85	212.500
848.15	59.091
848.44	266.667
848.74	85.000
849.04	111.111
849.34	109.091
849.63	33.333
849.93	140.000
850.23	77.778
850.53	190.000
850.82	53.846
851.12	155.556
851.42	146.667
851.71	38.462
852.01	57.143
852.31	100.000
852.61	145.455
852.90	65.000
853.20	89.474
853.50	108.333
853.79	73.913
854.09	141.667
854.39	163.158
854.68	112.500
854.98	74.194
855.28	111.538
855.57	65.000
855.87	138.889
856.17	92.593
856.46	128.571
856.76	113.333
857.05	166.667
857.35	64.000
857.65	122.222
857.94	76.923
858.24	41.379
858.53	116.667
858.83	77.778
859.13	63.636
859.42	47.826
859.72	375.000
860.01	266.667
860.31	32.000
860.60	85.714
860.90	166.667
861.20	6.667
861.49	500.000
861.79	40.000
862.08	15.000
862.38	140.000
862.67	0.000
862.97	100.000
863.26	116.667
863.56	111.111
863.85	100.000
864.15	83.333
864.44	40.000
864.74	121.429
865.03	-225.000
865.33	-80.000
865.62	133.333
865.92	191.667
866.21	0.000
866.51	68.750
866.80	45.455
867.10	1000.000
867.39	141.667
867.69	0.000
867.98	100.000
868.27	500.000
868.57	86.667
868.86	66.667
869.16	69.231
869.45	133.333
869.75	-200.000
870.04	0.000
870.33	100.000
870.63	128.571
870.92	-0.000
871.22	280.000
871.51	400.000
871.80	211.111
872.10	166.667
>>>>>End Processed Spectral Data<<<<<
