SpectraSuite Data File
++++++++++++++++++++++++++++++++++++
Date: Fri May 15 17:16:17 PDT 2015
User: schluterlab
Dark Spectrum Present: Yes
Reference Spectrum Present: Yes
Number of Sampled Component Spectra: 1
Spectrometers: USB2E3373
Integration Time (usec): 3000 (USB2E3373)
Spectra Averaged: 3 (USB2E3373)
Boxcar Smoothing: 0 (USB2E3373)
Correct for Electrical Dark: No (USB2E3373)
Strobe/Lamp Enabled: No (USB2E3373)
Correct for Detector Non-linearity: No (USB2E3373)
Correct for Stray Light: No (USB2E3373)
Number of Pixels in Processed Spectrum: 2048
>>>>>Begin Processed Spectral Data<<<<<
178.53	0.000
178.91	0.000
179.29	200.000
179.67	-200.000
180.04	-28.571
180.42	175.000
180.80	-300.000
181.18	66.667
181.56	150.000
181.94	400.000
182.31	-900.000
182.69	260.000
183.07	-133.333
183.45	0.000
183.83	-33.333
184.20	72.727
184.58	111.111
184.96	-100.000
185.34	-33.333
185.72	400.000
186.09	-7.692
186.47	0.000
186.85	50.000
187.23	-0.000
187.61	-1700.000
187.98	-200.000
188.36	88.889
188.74	-33.333
189.12	94.118
189.49	94.444
189.87	0.000
190.25	78.571
190.63	700.000
191.00	-66.667
191.38	21.053
191.76	400.000
192.14	-225.000
192.51	300.000
192.89	44.444
193.27	71.429
193.65	116.667
194.02	-18.182
194.40	70.000
194.78	50.000
195.15	-41.667
195.53	25.000
195.91	125.000
196.29	100.000
196.66	84.615
197.04	-85.714
197.42	22.222
197.79	-166.667
198.17	-23.077
198.55	100.000
198.92	-66.667
199.30	1300.000
199.68	100.000
200.05	166.667
200.43	0.000
200.81	66.667
201.18	133.333
201.56	800.000
201.94	250.000
202.31	-100.000
202.69	-140.000
203.07	50.000
203.44	1200.000
203.82	0.000
204.19	21.429
204.57	-133.333
204.95	12.500
205.32	120.000
205.70	14.286
206.08	-100.000
206.45	222.222
206.83	57.143
207.20	100.000
207.58	-100.000
207.96	33.333
208.33	-50.000
208.71	-50.000
209.08	116.667
209.46	0.000
209.84	140.000
210.21	200.000
210.59	42.857
210.96	283.333
211.34	50.000
211.71	80.000
212.09	28.571
212.46	-1100.000
212.84	0.000
213.22	100.000
213.59	250.000
213.97	138.462
214.34	163.636
214.72	-66.667
215.09	150.000
215.47	46.154
215.84	81.818
216.22	133.333
216.59	87.500
216.97	0.000
217.34	150.000
217.72	20.000
218.09	37.500
218.47	62.500
218.84	400.000
219.22	77.778
219.59	-160.000
219.97	66.667
220.34	-0.000
220.72	128.571
221.09	150.000
221.47	300.000
221.84	-150.000
222.22	-50.000
222.59	0.000
222.97	41.667
223.34	-100.000
223.72	64.286
224.09	0.000
224.46	10.714
224.84	100.000
225.21	140.000
225.59	86.667
225.96	300.000
226.34	150.000
226.71	0.000
227.08	-33.333
227.46	-62.500
227.83	-150.000
228.21	133.333
228.58	9.091
228.95	37.500
229.33	-30.000
229.70	68.750
230.08	37.500
230.45	114.286
230.82	142.857
231.20	-6.667
231.57	35.714
231.95	142.857
232.32	120.000
232.69	71.429
233.07	233.333
233.44	20.000
233.81	20.000
234.19	11.111
234.56	35.294
234.93	200.000
235.31	325.000
235.68	-180.000
236.05	38.462
236.43	25.000
236.80	29.412
237.17	9.375
237.55	80.000
237.92	37.037
238.29	41.667
238.67	66.667
239.04	76.471
239.41	17.073
239.79	43.333
240.16	43.902
240.53	47.368
240.91	34.783
241.28	44.444
241.65	28.571
242.02	34.247
242.40	18.333
242.77	20.339
243.14	34.848
243.51	45.000
243.89	41.379
244.26	40.230
244.63	28.571
245.00	37.113
245.38	41.237
245.75	23.596
246.12	25.862
246.49	41.322
246.87	36.538
247.24	31.092
247.61	29.825
247.98	34.146
248.36	33.750
248.73	36.842
249.10	29.221
249.47	39.241
249.84	31.373
250.22	34.118
250.59	40.523
250.96	32.864
251.33	34.302
251.70	37.059
252.08	32.995
252.45	36.139
252.82	29.648
253.19	35.945
253.56	28.505
253.94	34.685
254.31	38.261
254.68	36.842
255.05	34.646
255.42	36.681
255.79	35.907
256.16	33.852
256.54	33.582
256.91	31.559
257.28	34.944
257.65	33.708
258.02	33.688
258.39	30.976
258.76	33.700
259.14	33.887
259.51	34.304
259.88	31.959
260.25	33.987
260.62	35.417
260.99	32.881
261.36	36.644
261.73	35.759
262.10	32.827
262.47	33.436
262.85	36.364
263.22	32.000
263.59	35.514
263.96	35.714
264.33	31.818
264.70	31.548
265.07	35.119
265.44	35.411
265.81	38.701
266.18	34.699
266.55	32.134
266.92	34.715
267.29	31.332
267.66	34.271
268.03	33.246
268.40	31.854
268.77	38.770
269.14	32.614
269.51	34.190
269.88	33.666
270.25	29.337
270.62	31.951
270.99	33.760
271.36	33.741
271.73	34.742
272.10	32.603
272.47	33.570
272.84	34.158
273.21	34.107
273.58	34.458
273.95	32.494
274.32	30.023
274.69	32.579
275.06	32.813
275.43	32.653
275.80	33.554
276.17	34.023
276.54	32.334
276.91	33.333
277.28	31.878
277.65	32.025
278.02	31.489
278.39	31.947
278.76	33.333
279.13	26.556
279.50	31.933
279.87	32.397
280.23	29.247
280.60	33.723
280.97	34.141
281.34	30.000
281.71	34.086
282.08	29.652
282.45	30.137
282.82	29.730
283.19	30.174
283.56	31.792
283.92	30.171
284.29	29.423
284.66	29.070
285.03	31.238
285.40	30.057
285.77	28.998
286.14	30.686
286.51	31.181
286.87	29.616
287.24	31.123
287.61	28.571
287.98	28.421
288.35	28.250
288.72	29.772
289.08	27.604
289.45	27.768
289.82	28.846
290.19	28.840
290.56	29.503
290.93	28.114
291.29	24.653
291.66	28.031
292.03	27.751
292.40	26.452
292.77	26.156
293.13	25.162
293.50	26.707
293.87	25.191
294.24	25.348
294.60	26.230
294.97	24.554
295.34	24.540
295.71	24.888
296.08	24.813
296.44	23.329
296.81	22.917
297.18	22.899
297.55	24.390
297.91	23.288
298.28	23.747
298.65	22.795
299.02	21.698
299.38	19.425
299.75	21.931
300.12	23.037
300.48	21.607
300.85	22.814
301.22	20.909
301.59	21.184
301.95	24.557
302.32	23.606
302.69	21.517
303.05	20.792
303.42	23.163
303.79	22.664
304.15	23.536
304.52	20.809
304.89	21.053
305.25	20.460
305.62	18.670
305.99	21.287
306.35	20.462
306.72	20.022
307.09	19.726
307.45	22.044
307.82	19.444
308.19	21.951
308.55	19.956
308.92	22.549
309.29	21.564
309.65	19.160
310.02	20.462
310.38	20.527
310.75	20.546
311.12	20.344
311.48	20.467
311.85	19.372
312.22	19.726
312.58	20.170
312.95	20.171
313.31	19.772
313.68	20.419
314.05	20.102
314.41	20.000
314.78	21.340
315.14	20.761
315.51	22.981
315.87	20.799
316.24	21.840
316.61	21.260
316.97	21.329
317.34	22.168
317.70	21.989
318.07	21.635
318.43	23.922
318.80	22.822
319.16	23.633
319.53	23.742
319.89	23.622
320.26	24.190
320.62	26.279
320.99	24.948
321.35	26.413
321.72	26.895
322.08	25.277
322.45	26.904
322.81	27.308
323.18	27.380
323.54	27.606
323.91	28.724
324.27	30.957
324.64	30.243
325.00	32.391
325.37	32.782
325.73	32.910
326.10	33.697
326.46	35.426
326.83	36.658
327.19	36.617
327.56	38.575
327.92	38.644
328.29	39.286
328.65	40.755
329.01	41.360
329.38	42.765
329.74	41.643
330.11	45.134
330.47	45.083
330.84	44.904
331.20	47.433
331.56	44.537
331.93	46.758
332.29	47.754
332.66	48.054
333.02	48.141
333.38	48.121
333.75	49.267
334.11	48.612
334.48	50.680
334.84	51.282
335.20	51.144
335.57	49.139
335.93	50.407
336.29	50.276
336.66	51.045
337.02	51.859
337.38	50.185
337.75	51.182
338.11	51.217
338.47	52.190
338.84	51.664
339.20	51.463
339.56	53.578
339.93	52.999
340.29	52.202
340.65	52.778
341.02	51.596
341.38	52.743
341.74	52.827
342.11	51.213
342.47	52.936
342.83	53.374
343.20	52.526
343.56	52.957
343.92	52.879
344.28	54.227
344.65	54.491
345.01	52.290
345.37	52.481
345.73	54.059
346.10	53.840
346.46	54.500
346.82	52.782
347.19	52.120
347.55	52.297
347.91	53.317
348.27	52.789
348.63	52.726
349.00	53.979
349.36	54.697
349.72	54.478
350.08	52.787
350.45	52.993
350.81	52.907
351.17	53.339
351.53	53.224
351.89	53.592
352.26	54.480
352.62	54.758
352.98	52.450
353.34	51.852
353.70	53.722
354.07	53.145
354.43	54.123
354.79	54.170
355.15	54.365
355.51	54.114
355.87	54.693
356.24	54.486
356.60	53.274
356.96	54.286
357.32	53.674
357.68	54.027
358.04	54.847
358.40	54.823
358.77	55.263
359.13	55.885
359.49	54.083
359.85	54.524
360.21	55.024
360.57	55.777
360.93	54.766
361.29	54.758
361.66	56.270
362.02	56.667
362.38	55.826
362.74	56.548
363.10	57.186
363.46	56.635
363.82	57.175
364.18	56.015
364.54	56.103
364.90	57.348
365.26	57.569
365.62	57.737
365.98	57.845
366.35	58.048
366.71	58.684
367.07	57.983
367.43	58.807
367.79	57.385
368.15	58.004
368.51	58.704
368.87	59.225
369.23	58.339
369.59	59.548
369.95	59.971
370.31	59.754
370.67	60.448
371.03	60.194
371.39	60.904
371.75	58.755
372.11	60.414
372.47	61.095
372.83	61.107
373.19	60.342
373.55	60.217
373.91	60.187
374.27	62.013
374.63	62.886
374.99	62.340
375.35	62.674
375.71	63.007
376.07	62.711
376.42	62.993
376.78	63.289
377.14	63.372
377.50	64.343
377.86	62.784
378.22	63.944
378.58	64.679
378.94	63.642
379.30	63.943
379.66	65.517
380.02	63.765
380.38	64.699
380.74	64.512
381.09	65.951
381.45	65.443
381.81	65.947
382.17	66.244
382.53	67.708
382.89	68.550
383.25	67.019
383.61	67.866
383.97	68.444
384.32	67.542
384.68	69.536
385.04	69.056
385.40	68.699
385.76	70.755
386.12	69.793
386.48	69.413
386.83	69.309
387.19	69.597
387.55	71.205
387.91	69.438
388.27	70.513
388.62	72.750
388.98	69.736
389.34	70.394
389.70	72.032
390.06	69.918
390.42	71.114
390.77	72.008
391.13	71.816
391.49	72.898
391.85	73.879
392.20	72.191
392.56	72.409
392.92	73.224
393.28	73.054
393.64	73.453
393.99	74.984
394.35	74.067
394.71	75.415
395.07	71.967
395.42	72.131
395.78	74.137
396.14	73.644
396.50	74.572
396.85	74.694
397.21	74.687
397.57	74.734
397.92	74.476
398.28	75.230
398.64	73.313
399.00	75.282
399.35	74.605
399.71	74.038
400.07	73.700
400.42	73.745
400.78	75.689
401.14	75.015
401.49	75.998
401.85	74.589
402.21	75.723
402.57	77.188
402.92	74.028
403.28	75.627
403.63	75.599
403.99	75.319
404.35	77.826
404.70	74.345
405.06	74.266
405.42	74.083
405.77	74.840
406.13	74.971
406.49	75.370
406.84	75.672
407.20	75.738
407.55	73.471
407.91	75.936
408.27	74.124
408.62	76.738
408.98	77.018
409.34	76.828
409.69	74.806
410.05	76.416
410.40	76.543
410.76	76.478
411.11	77.000
411.47	76.266
411.83	76.083
412.18	77.799
412.54	75.593
412.89	75.185
413.25	76.354
413.60	76.522
413.96	75.031
414.31	76.707
414.67	75.497
415.03	74.967
415.38	75.718
415.74	76.808
416.09	77.335
416.45	77.988
416.80	74.554
417.16	78.384
417.51	78.215
417.87	76.402
418.22	78.562
418.58	76.990
418.93	78.558
419.29	76.761
419.64	78.678
420.00	80.793
420.35	77.672
420.71	79.526
421.06	78.146
421.42	79.868
421.77	79.480
422.12	79.852
422.48	79.426
422.83	78.596
423.19	78.668
423.54	78.777
423.90	80.683
424.25	80.367
424.61	81.273
424.96	80.488
425.31	81.225
425.67	80.692
426.02	81.095
426.38	82.342
426.73	82.324
427.09	83.797
427.44	80.765
427.79	81.438
428.15	82.706
428.50	81.526
428.85	81.511
429.21	82.343
429.56	84.205
429.92	82.435
430.27	81.654
430.62	82.018
430.98	83.015
431.33	81.651
431.68	81.737
432.04	82.225
432.39	83.115
432.74	82.441
433.10	82.529
433.45	82.796
433.80	84.910
434.16	83.712
434.51	84.570
434.86	83.856
435.22	84.184
435.57	84.030
435.92	84.790
436.28	83.244
436.63	84.541
436.98	83.546
437.34	85.420
437.69	87.358
438.04	84.501
438.39	86.316
438.75	87.432
439.10	86.078
439.45	87.401
439.81	86.606
440.16	88.361
440.51	87.701
440.86	88.882
441.22	86.652
441.57	89.073
441.92	90.084
442.27	89.412
442.63	88.597
442.98	86.962
443.33	88.870
443.68	88.329
444.03	89.121
444.39	88.392
444.74	90.357
445.09	89.922
445.44	89.687
445.79	91.026
446.15	89.593
446.50	88.963
446.85	91.498
447.20	90.563
447.55	90.290
447.91	90.581
448.26	89.585
448.61	91.192
448.96	91.853
449.31	90.578
449.66	91.696
450.02	89.618
450.37	92.768
450.72	90.321
451.07	90.886
451.42	91.011
451.77	90.958
452.12	89.952
452.47	89.440
452.83	89.870
453.18	91.714
453.53	91.214
453.88	92.168
454.23	89.859
454.58	91.877
454.93	90.979
455.28	89.905
455.63	91.135
455.98	91.161
456.34	90.549
456.69	91.487
457.04	92.250
457.39	93.013
457.74	91.415
458.09	91.171
458.44	92.686
458.79	91.204
459.14	92.677
459.49	91.940
459.84	89.791
460.19	91.687
460.54	93.276
460.89	92.784
461.24	90.683
461.59	91.865
461.94	91.258
462.29	90.651
462.64	92.558
462.99	89.777
463.34	90.056
463.69	89.511
464.04	92.736
464.39	90.176
464.74	90.368
465.09	91.017
465.44	91.518
465.79	88.549
466.14	90.764
466.49	89.362
466.84	90.541
467.19	89.424
467.54	89.400
467.89	90.272
468.24	88.869
468.59	90.222
468.94	90.603
469.29	89.311
469.64	88.790
469.99	90.680
470.34	88.396
470.68	89.933
471.03	88.747
471.38	89.230
471.73	88.235
472.08	88.535
472.43	90.738
472.78	88.074
473.13	90.544
473.48	87.818
473.83	89.290
474.17	89.896
474.52	88.513
474.87	87.939
475.22	89.811
475.57	89.328
475.92	89.468
476.27	88.184
476.61	90.046
476.96	86.949
477.31	88.480
477.66	87.865
478.01	89.163
478.36	87.527
478.70	89.125
479.05	87.747
479.40	88.659
479.75	85.766
480.10	86.431
480.45	87.450
480.79	89.225
481.14	90.113
481.49	86.650
481.84	89.431
482.19	87.886
482.53	87.722
482.88	86.396
483.23	86.756
483.58	86.462
483.92	86.689
484.27	86.098
484.62	86.508
484.97	86.401
485.31	88.150
485.66	90.005
486.01	90.179
486.36	89.801
486.70	88.775
487.05	89.078
487.40	88.004
487.75	87.211
488.09	85.260
488.44	86.589
488.79	85.656
489.13	86.779
489.48	86.789
489.83	85.874
490.17	84.944
490.52	84.850
490.87	84.544
491.22	85.673
491.56	85.247
491.91	82.983
492.26	86.193
492.60	83.829
492.95	86.670
493.30	83.732
493.64	85.167
493.99	85.072
494.34	84.757
494.68	84.857
495.03	83.552
495.37	84.102
495.72	84.907
496.07	85.220
496.41	84.292
496.76	85.352
497.11	84.537
497.45	85.060
497.80	85.267
498.14	82.563
498.49	84.510
498.84	84.431
499.18	84.839
499.53	84.524
499.87	84.387
500.22	83.976
500.56	84.014
500.91	83.183
501.26	82.551
501.60	83.079
501.95	82.824
502.29	82.809
502.64	83.687
502.98	84.558
503.33	83.381
503.67	83.566
504.02	84.751
504.36	83.869
504.71	83.333
505.06	82.738
505.40	82.640
505.75	83.299
506.09	81.855
506.44	83.676
506.78	83.163
507.13	83.092
507.47	81.253
507.82	81.410
508.16	81.458
508.51	81.899
508.85	83.046
509.19	81.852
509.54	81.072
509.88	82.416
510.23	81.926
510.57	82.202
510.92	80.650
511.26	81.779
511.61	82.563
511.95	82.411
512.30	81.929
512.64	81.692
512.98	81.134
513.33	82.037
513.67	82.945
514.02	82.551
514.36	82.743
514.70	81.527
515.05	83.314
515.39	81.051
515.74	81.437
516.08	81.351
516.42	81.979
516.77	81.100
517.11	81.958
517.46	81.508
517.80	80.334
518.14	81.874
518.49	80.529
518.83	81.288
519.17	80.170
519.52	78.922
519.86	80.372
520.20	79.344
520.55	80.113
520.89	79.423
521.23	79.671
521.58	80.757
521.92	79.615
522.26	79.831
522.61	80.130
522.95	80.927
523.29	79.797
523.64	81.576
523.98	81.789
524.32	80.992
524.66	80.090
525.01	80.455
525.35	80.622
525.69	81.010
526.04	78.770
526.38	80.610
526.72	77.959
527.06	80.156
527.41	78.496
527.75	78.418
528.09	78.937
528.43	80.959
528.78	80.396
529.12	82.065
529.46	80.702
529.80	79.797
530.15	81.188
530.49	79.865
530.83	80.096
531.17	78.912
531.51	81.943
531.86	78.382
532.20	79.610
532.54	78.489
532.88	81.040
533.22	79.368
533.57	79.489
533.91	81.332
534.25	81.380
534.59	79.795
534.93	78.603
535.27	78.363
535.62	80.298
535.96	79.909
536.30	79.156
536.64	78.980
536.98	77.770
537.32	81.935
537.66	79.523
538.01	79.650
538.35	80.513
538.69	78.828
539.03	78.811
539.37	80.619
539.71	79.346
540.05	78.276
540.39	79.432
540.73	80.614
541.07	81.008
541.42	79.435
541.76	80.523
542.10	78.871
542.44	80.125
542.78	77.357
543.12	79.945
543.46	78.860
543.80	78.695
544.14	78.772
544.48	79.947
544.82	79.084
545.16	80.260
545.50	78.037
545.84	80.170
546.18	80.142
546.52	77.361
546.86	79.152
547.20	79.828
547.54	78.445
547.88	80.367
548.22	80.802
548.56	78.826
548.90	79.784
549.24	77.204
549.58	78.702
549.92	78.485
550.26	78.168
550.60	79.182
550.94	79.089
551.28	79.675
551.62	79.769
551.96	77.594
552.30	79.898
552.64	77.433
552.98	78.481
553.32	79.387
553.66	78.374
554.00	79.635
554.34	81.019
554.68	77.876
555.02	78.869
555.36	78.160
555.69	78.974
556.03	79.015
556.37	79.004
556.71	79.061
557.05	79.195
557.39	77.175
557.73	79.760
558.07	81.674
558.41	79.939
558.75	78.956
559.08	77.541
559.42	79.048
559.76	80.624
560.10	78.823
560.44	80.343
560.78	79.580
561.12	80.042
561.45	81.448
561.79	80.532
562.13	81.618
562.47	79.712
562.81	80.259
563.15	79.055
563.48	80.057
563.82	80.233
564.16	80.571
564.50	78.581
564.84	81.191
565.17	79.209
565.51	81.899
565.85	80.727
566.19	79.642
566.52	80.898
566.86	80.591
567.20	82.067
567.54	82.482
567.88	83.304
568.21	83.088
568.55	84.185
568.89	82.444
569.23	83.052
569.56	83.757
569.90	85.911
570.24	83.885
570.57	84.436
570.91	85.430
571.25	84.643
571.59	83.525
571.92	83.230
572.26	83.545
572.60	83.411
572.93	82.209
573.27	83.762
573.61	84.875
573.95	84.981
574.28	84.322
574.62	83.880
574.96	83.495
575.29	82.635
575.63	82.172
575.97	83.139
576.30	82.823
576.64	82.702
576.98	83.861
577.31	85.426
577.65	85.138
577.98	85.334
578.32	85.422
578.66	84.139
578.99	83.411
579.33	83.612
579.67	82.867
580.00	83.823
580.34	84.677
580.67	84.026
581.01	84.006
581.35	85.314
581.68	86.125
582.02	85.373
582.35	85.682
582.69	85.742
583.02	84.725
583.36	84.741
583.70	84.424
584.03	85.377
584.37	85.630
584.70	84.945
585.04	82.798
585.37	84.742
585.71	85.288
586.04	85.502
586.38	84.929
586.72	85.681
587.05	86.626
587.39	85.463
587.72	86.331
588.06	86.355
588.39	84.990
588.73	84.493
589.06	86.171
589.40	84.100
589.73	85.652
590.07	84.403
590.40	84.791
590.73	86.038
591.07	85.115
591.40	85.129
591.74	85.566
592.07	85.807
592.41	86.131
592.74	87.296
593.08	84.911
593.41	86.886
593.75	85.411
594.08	84.895
594.41	84.971
594.75	85.649
595.08	85.320
595.42	86.088
595.75	86.819
596.09	85.848
596.42	85.490
596.75	85.391
597.09	84.738
597.42	85.727
597.75	85.937
598.09	83.115
598.42	83.845
598.76	84.427
599.09	85.657
599.42	84.843
599.76	85.214
600.09	84.012
600.42	85.254
600.76	84.027
601.09	84.504
601.42	84.685
601.76	85.193
602.09	84.653
602.42	85.889
602.76	85.484
603.09	86.088
603.42	88.085
603.76	86.129
604.09	86.796
604.42	86.844
604.76	85.714
605.09	85.603
605.42	85.192
605.75	84.764
606.09	85.223
606.42	84.612
606.75	85.152
607.09	84.264
607.42	85.335
607.75	85.036
608.08	83.872
608.42	82.686
608.75	85.783
609.08	85.401
609.41	84.670
609.75	83.720
610.08	85.671
610.41	84.541
610.74	85.129
611.07	85.995
611.41	85.054
611.74	85.608
612.07	84.261
612.40	85.339
612.73	85.311
613.07	85.489
613.40	82.659
613.73	86.178
614.06	83.027
614.39	85.166
614.72	83.754
615.06	84.022
615.39	83.570
615.72	84.392
616.05	83.520
616.38	81.766
616.71	83.058
617.05	83.817
617.38	83.344
617.71	84.340
618.04	86.286
618.37	85.183
618.70	83.432
619.03	84.653
619.36	83.936
619.69	87.036
620.03	85.975
620.36	84.907
620.69	85.796
621.02	83.333
621.35	83.568
621.68	84.354
622.01	83.583
622.34	84.836
622.67	83.912
623.00	83.844
623.33	84.223
623.66	84.817
623.99	84.947
624.32	84.639
624.65	84.060
624.99	85.779
625.32	84.079
625.65	85.232
625.98	82.595
626.31	83.209
626.64	84.835
626.97	82.461
627.30	83.450
627.63	83.449
627.96	83.558
628.29	83.441
628.62	83.284
628.95	82.064
629.28	84.980
629.61	83.549
629.94	83.382
630.26	82.213
630.59	85.536
630.92	83.077
631.25	79.385
631.58	83.370
631.91	82.127
632.24	84.174
632.57	82.614
632.90	83.393
633.23	81.529
633.56	84.761
633.89	80.271
634.22	83.580
634.55	81.194
634.88	81.865
635.20	80.256
635.53	81.733
635.86	80.754
636.19	84.217
636.52	80.230
636.85	80.397
637.18	81.132
637.51	82.390
637.83	80.683
638.16	83.220
638.49	81.744
638.82	81.579
639.15	81.954
639.48	85.144
639.81	80.474
640.13	83.117
640.46	80.904
640.79	81.443
641.12	78.730
641.45	82.132
641.77	78.074
642.10	80.885
642.43	79.582
642.76	80.033
643.09	79.806
643.41	77.023
643.74	81.878
644.07	81.445
644.40	79.392
644.73	81.436
645.05	76.510
645.38	83.069
645.71	81.915
646.04	84.201
646.36	80.319
646.69	81.655
647.02	82.798
647.35	80.597
647.67	80.439
648.00	80.410
648.33	80.034
648.66	84.237
648.98	82.077
649.31	82.314
649.64	83.203
649.96	81.037
650.29	84.668
650.62	81.026
650.94	82.222
651.27	81.564
651.60	78.198
651.92	81.818
652.25	83.304
652.58	82.167
652.90	84.048
653.23	83.866
653.56	82.572
653.88	81.443
654.21	80.035
654.54	81.494
654.86	81.664
655.19	82.456
655.52	90.248
655.84	94.888
656.17	100.000
656.49	100.000
656.82	100.000
657.15	100.000
657.47	100.000
657.80	100.000
658.13	72.465
658.45	89.238
658.78	86.647
659.10	86.083
659.43	85.389
659.75	87.025
660.08	83.931
660.41	87.845
660.73	82.735
661.06	82.842
661.38	81.996
661.71	78.029
662.03	80.687
662.36	76.703
662.68	79.867
663.01	80.568
663.33	83.063
663.66	81.163
663.98	79.070
664.31	81.023
664.63	81.797
664.96	76.522
665.28	79.691
665.61	80.087
665.93	83.478
666.26	81.128
666.58	79.418
666.91	83.294
667.23	82.547
667.56	80.806
667.88	83.453
668.21	83.532
668.53	80.615
668.86	81.132
669.18	77.594
669.50	79.177
669.83	80.000
670.15	78.555
670.48	82.297
670.80	82.258
671.13	82.103
671.45	78.311
671.77	81.545
672.10	82.178
672.42	82.397
672.75	82.948
673.07	85.868
673.39	82.569
673.72	82.051
674.04	80.833
674.37	80.508
674.69	79.872
675.01	82.667
675.34	78.604
675.66	82.870
675.98	80.488
676.31	83.028
676.63	84.561
676.95	78.409
677.28	86.118
677.60	81.928
677.92	83.028
678.25	80.963
678.57	88.312
678.89	86.975
679.22	87.025
679.54	79.518
679.86	84.095
680.18	82.330
680.51	82.576
680.83	83.897
681.15	83.400
681.48	83.607
681.80	85.331
682.12	84.677
682.44	81.590
682.77	87.417
683.09	81.007
683.41	78.182
683.73	81.106
684.06	83.407
684.38	84.731
684.70	89.760
685.02	88.589
685.34	84.980
685.67	86.679
685.99	84.991
686.31	85.664
686.63	87.199
686.96	84.601
687.28	83.434
687.60	83.840
687.92	87.273
688.24	81.048
688.56	86.681
688.89	82.589
689.21	84.889
689.53	84.223
689.85	83.721
690.17	86.161
690.49	84.634
690.82	87.864
691.14	84.048
691.46	86.215
691.78	84.459
692.10	87.097
692.42	86.580
692.74	85.043
693.06	84.234
693.39	83.258
693.71	84.163
694.03	85.912
694.35	86.215
694.67	83.081
694.99	81.201
695.31	85.901
695.63	84.750
695.95	84.848
696.27	84.715
696.59	82.222
696.91	81.793
697.23	80.206
697.56	87.129
697.88	86.022
698.20	88.155
698.52	84.706
698.84	81.818
699.16	86.000
699.48	85.464
699.80	82.134
700.12	87.332
700.44	85.434
700.76	83.721
701.08	83.636
701.40	85.241
701.72	84.568
702.04	87.789
702.36	93.645
702.68	82.282
703.00	86.970
703.32	84.164
703.64	81.638
703.96	84.638
704.28	86.196
704.60	88.889
704.91	80.442
705.23	85.714
705.55	89.399
705.87	85.560
706.19	84.444
706.51	83.849
706.83	85.209
707.15	89.720
707.47	90.756
707.79	89.062
708.11	85.500
708.43	82.750
708.74	85.788
709.06	89.296
709.38	88.073
709.70	87.278
710.02	87.261
710.34	81.115
710.66	82.692
710.98	89.404
711.29	90.164
711.61	90.847
711.93	85.993
712.25	91.409
712.57	87.912
712.89	85.448
713.20	83.737
713.52	88.153
713.84	85.666
714.16	90.722
714.48	90.000
714.80	92.628
715.11	82.979
715.43	83.699
715.75	92.667
716.07	92.691
716.39	87.919
716.70	83.026
717.02	85.115
717.34	90.283
717.66	93.363
717.97	86.957
718.29	90.795
718.61	84.646
718.93	84.884
719.24	92.015
719.56	90.763
719.88	84.536
720.20	84.848
720.51	83.525
720.83	89.575
721.15	96.639
721.46	89.919
721.78	86.957
722.10	86.245
722.42	88.797
722.73	85.306
723.05	87.347
723.37	90.254
723.68	92.342
724.00	88.889
724.32	91.556
724.63	89.545
724.95	87.773
725.27	93.088
725.58	90.254
725.90	90.079
726.22	88.417
726.53	87.119
726.85	91.386
727.16	93.585
727.48	87.045
727.80	85.020
728.11	89.831
728.43	85.882
728.74	84.274
729.06	95.600
729.38	94.361
729.69	93.625
730.01	88.846
730.32	89.179
730.64	87.986
730.96	97.736
731.27	84.667
731.59	96.610
731.90	92.038
732.22	89.590
732.53	95.681
732.85	92.553
733.16	91.246
733.48	92.806
733.80	95.652
734.11	86.780
734.43	93.471
734.74	92.727
735.06	96.417
735.37	93.656
735.69	92.593
736.00	94.774
736.32	91.611
736.63	94.014
736.95	96.246
737.26	91.103
737.58	91.946
737.89	97.802
738.21	93.609
738.52	96.296
738.83	98.690
739.15	97.380
739.46	96.850
739.78	95.604
740.09	88.889
740.41	95.290
740.72	96.850
741.04	97.166
741.35	83.404
741.66	94.787
741.98	90.816
742.29	87.624
742.61	95.812
742.92	90.047
743.23	88.889
743.55	95.928
743.86	100.957
744.18	86.603
744.49	95.213
744.80	94.022
745.12	98.930
745.43	89.268
745.74	100.521
746.06	91.220
746.37	92.147
746.68	91.943
747.00	94.149
747.31	91.045
747.62	95.146
747.94	95.215
748.25	99.505
748.56	101.639
748.88	91.623
749.19	103.191
749.50	90.640
749.82	86.321
750.13	99.083
750.44	98.496
750.75	96.642
751.07	99.270
751.38	96.169
751.69	98.824
752.01	94.574
752.32	96.813
752.63	94.862
752.94	98.276
753.26	97.071
753.57	92.308
753.88	94.690
754.19	99.583
754.51	96.694
754.82	95.547
755.13	104.583
755.44	94.355
755.75	99.609
756.07	98.444
756.38	96.226
756.69	101.149
757.00	95.333
757.31	96.078
757.63	94.817
757.94	94.167
758.25	96.438
758.56	93.883
758.87	94.334
759.18	90.031
759.50	96.727
759.81	96.656
760.12	95.806
760.43	95.455
760.74	102.469
761.05	104.923
761.36	97.727
761.67	99.091
761.99	99.320
762.30	97.455
762.61	93.676
762.92	97.285
763.23	98.649
763.54	93.458
763.85	96.186
764.16	95.851
764.47	99.597
764.78	93.773
765.10	100.000
765.41	96.215
765.72	94.286
766.03	103.759
766.34	94.526
766.65	96.016
766.96	93.939
767.27	98.404
767.58	90.230
767.89	101.418
768.20	82.955
768.51	94.505
768.82	98.522
769.13	92.166
769.44	94.421
769.75	99.087
770.06	92.672
770.37	93.269
770.68	96.954
770.99	84.163
771.30	106.863
771.61	100.452
771.92	98.276
772.23	104.926
772.54	93.011
772.85	101.235
773.16	92.697
773.47	112.418
773.78	107.843
774.09	85.030
774.39	98.667
774.70	88.535
775.01	95.172
775.32	96.429
775.63	97.521
775.94	87.786
776.25	96.063
776.56	93.333
776.87	101.923
777.18	90.598
777.48	90.517
777.79	103.478
778.10	86.667
778.41	91.892
778.72	91.270
779.03	93.233
779.34	93.617
779.65	97.260
779.95	93.151
780.26	95.172
780.57	101.626
780.88	81.890
781.19	98.276
781.50	111.628
781.80	85.799
782.11	91.824
782.42	112.308
782.73	102.878
783.04	90.370
783.34	92.361
783.65	94.017
783.96	104.918
784.27	100.690
784.57	104.065
784.88	92.969
785.19	95.000
785.50	102.000
785.81	85.345
786.11	99.138
786.42	98.058
786.73	111.818
787.04	96.939
787.34	93.750
787.65	99.048
787.96	93.805
788.26	100.909
788.57	86.325
788.88	93.750
789.19	90.476
789.49	104.348
789.80	122.449
790.11	108.081
790.41	81.818
790.72	106.522
791.03	101.136
791.33	106.250
791.64	95.000
791.95	95.349
792.25	84.043
792.56	101.124
792.87	82.192
793.17	97.101
793.48	82.667
793.79	78.750
794.09	112.500
794.40	91.509
794.70	89.320
795.01	93.496
795.32	86.325
795.62	85.714
795.93	87.255
796.23	97.170
796.54	92.708
796.85	105.882
797.15	78.873
797.46	83.333
797.76	109.091
798.07	72.093
798.37	82.895
798.68	86.364
798.99	82.716
799.29	92.857
799.60	88.406
799.90	105.333
800.21	100.000
800.51	93.846
800.82	103.390
801.12	95.652
801.43	85.246
801.73	101.587
802.04	94.000
802.34	70.149
802.65	105.769
802.95	76.786
803.26	92.308
803.56	107.843
803.87	82.609
804.17	58.667
804.48	101.587
804.78	90.741
805.09	89.130
805.39	97.778
805.70	101.852
806.00	78.947
806.30	101.408
806.61	100.000
806.91	102.778
807.22	105.263
807.52	101.333
807.83	103.636
808.13	91.667
808.43	86.765
808.74	82.090
809.04	98.305
809.35	88.462
809.65	87.500
809.95	91.892
810.26	79.545
810.56	79.452
810.86	97.619
811.17	74.000
811.47	110.204
811.77	94.737
812.08	109.091
812.38	79.245
812.69	80.000
812.99	84.848
813.29	89.474
813.59	80.000
813.90	106.818
814.20	94.872
814.50	98.077
814.81	132.075
815.11	85.106
815.41	84.746
815.72	92.857
816.02	80.392
816.32	70.833
816.62	104.878
816.93	81.081
817.23	94.286
817.53	95.833
817.84	71.739
818.14	90.385
818.44	68.421
818.74	102.174
819.04	50.000
819.35	75.676
819.65	67.647
819.95	88.889
820.25	61.905
820.56	95.000
820.86	100.000
821.16	140.000
821.46	93.617
821.76	92.500
822.07	86.047
822.37	83.784
822.67	112.500
822.97	114.286
823.27	125.000
823.57	108.000
823.88	55.556
824.18	117.857
824.48	85.294
824.78	80.645
825.08	108.696
825.38	75.758
825.69	25.000
825.99	89.474
826.29	83.333
826.59	153.333
826.89	104.762
827.19	78.261
827.49	62.500
827.79	111.429
828.09	78.571
828.39	100.000
828.70	78.378
829.00	75.000
829.30	80.952
829.60	86.667
829.90	100.000
830.20	81.579
830.50	107.407
830.80	95.652
831.10	145.455
831.40	93.939
831.70	80.645
832.00	128.571
832.30	52.381
832.60	41.667
832.90	96.552
833.20	30.000
833.50	87.879
833.80	81.481
834.10	96.154
834.40	81.250
834.70	177.778
835.00	142.105
835.30	107.692
835.60	206.667
835.90	64.516
836.20	127.273
836.50	89.286
836.80	42.308
837.10	85.714
837.40	366.667
837.70	81.818
838.00	127.273
838.30	73.913
838.60	130.769
838.90	50.000
839.19	67.857
839.49	83.333
839.79	92.308
840.09	8.333
840.39	96.429
840.69	92.857
840.99	11.538
841.29	68.421
841.59	20.000
841.88	136.364
842.18	130.000
842.48	106.250
842.78	53.333
843.08	70.370
843.38	50.000
843.68	108.696
843.97	120.000
844.27	126.667
844.57	65.000
844.87	105.556
845.17	61.905
845.47	120.000
845.76	71.429
846.06	88.235
846.36	120.000
846.66	100.000
846.96	20.000
847.25	12.500
847.55	135.714
847.85	100.000
848.15	95.455
848.44	400.000
848.74	70.000
849.04	66.667
849.34	109.091
849.63	250.000
849.93	-60.000
850.23	77.778
850.53	190.000
850.82	69.231
851.12	200.000
851.42	120.000
851.71	50.000
852.01	114.286
852.31	125.000
852.61	81.818
852.90	70.000
853.20	115.789
853.50	116.667
853.79	108.696
854.09	137.500
854.39	105.263
854.68	62.500
854.98	67.742
855.28	107.692
855.57	110.000
855.87	122.222
856.17	100.000
856.46	64.286
856.76	60.000
857.05	222.222
857.35	48.000
857.65	122.222
857.94	169.231
858.24	65.517
858.53	122.222
858.83	59.259
859.13	59.091
859.42	73.913
859.72	400.000
860.01	133.333
860.31	80.000
860.60	66.667
860.90	333.333
861.20	-20.000
861.49	-400.000
861.79	93.333
862.08	90.000
862.38	166.667
862.67	40.000
862.97	116.667
863.26	141.667
863.56	77.778
863.85	-33.333
864.15	38.889
864.44	100.000
864.74	92.857
865.03	-50.000
865.33	100.000
865.62	400.000
865.92	58.333
866.21	33.333
866.51	131.250
866.80	72.727
867.10	-150.000
867.39	208.333
867.69	0.000
867.98	76.923
868.27	200.000
868.57	86.667
868.86	94.444
869.16	-30.769
869.45	120.000
869.75	0.000
870.04	0.000
870.33	-42.857
870.63	76.190
870.92	166.667
871.22	100.000
871.51	600.000
871.80	222.222
872.10	-33.333
>>>>>End Processed Spectral Data<<<<<
