SpectraSuite Data File
++++++++++++++++++++++++++++++++++++
Date: Fri May 15 20:13:21 PDT 2015
User: schluterlab
Dark Spectrum Present: Yes
Reference Spectrum Present: Yes
Number of Sampled Component Spectra: 1
Spectrometers: USB2E3373
Integration Time (usec): 3000 (USB2E3373)
Spectra Averaged: 3 (USB2E3373)
Boxcar Smoothing: 0 (USB2E3373)
Correct for Electrical Dark: No (USB2E3373)
Strobe/Lamp Enabled: No (USB2E3373)
Correct for Detector Non-linearity: No (USB2E3373)
Correct for Stray Light: No (USB2E3373)
Number of Pixels in Processed Spectrum: 2048
>>>>>Begin Processed Spectral Data<<<<<
178.53	0.000
178.91	0.000
179.29	62.500
179.67	-500.000
180.04	-42.857
180.42	75.000
180.80	-600.000
181.18	33.333
181.56	300.000
181.94	250.000
182.31	-400.000
182.69	80.000
183.07	-166.667
183.45	0.000
183.83	183.333
184.20	9.091
184.58	77.778
184.96	-350.000
185.34	-166.667
185.72	-250.000
186.09	123.077
186.47	-100.000
186.85	183.333
187.23	144.444
187.61	-500.000
187.98	100.000
188.36	33.333
188.74	33.333
189.12	58.824
189.49	44.444
189.87	0.000
190.25	121.429
190.63	-250.000
191.00	-66.667
191.38	0.000
191.76	300.000
192.14	100.000
192.51	150.000
192.89	-22.222
193.27	14.286
193.65	16.667
194.02	118.182
194.40	120.000
194.78	-75.000
195.15	0.000
195.53	-62.500
195.91	100.000
196.29	-200.000
196.66	53.846
197.04	28.571
197.42	-66.667
197.79	-233.333
198.17	-15.385
198.55	1300.000
198.92	133.333
199.30	-100.000
199.68	40.000
200.05	-200.000
200.43	0.000
200.81	200.000
201.18	166.667
201.56	300.000
201.94	50.000
202.31	-333.333
202.69	-20.000
203.07	-175.000
203.44	700.000
203.82	0.000
204.19	-7.143
204.57	-133.333
204.95	200.000
205.32	50.000
205.70	-42.857
206.08	175.000
206.45	155.556
206.83	128.571
207.20	-71.429
207.58	100.000
207.96	-166.667
208.33	20.000
208.71	-125.000
209.08	50.000
209.46	200.000
209.84	-20.000
210.21	-300.000
210.59	171.429
210.96	83.333
211.34	100.000
211.71	100.000
212.09	-28.571
212.46	-500.000
212.84	0.000
213.22	-20.000
213.59	550.000
213.97	46.154
214.34	45.455
214.72	66.667
215.09	250.000
215.47	7.692
215.84	-9.091
216.22	0.000
216.59	-25.000
216.97	700.000
217.34	100.000
217.72	0.000
218.09	-12.500
218.47	150.000
218.84	-100.000
219.22	-22.222
219.59	160.000
219.97	33.333
220.34	50.000
220.72	57.143
221.09	-25.000
221.47	100.000
221.84	-400.000
222.22	-300.000
222.59	127.273
222.97	75.000
223.34	166.667
223.72	14.286
224.09	66.667
224.46	14.286
224.84	266.667
225.21	10.000
225.59	46.667
225.96	-600.000
226.34	-25.000
226.71	100.000
227.08	-66.667
227.46	87.500
227.83	-500.000
228.21	133.333
228.58	45.455
228.95	37.500
229.33	-20.000
229.70	6.250
230.08	100.000
230.45	-42.857
230.82	14.286
231.20	20.000
231.57	92.857
231.95	85.714
232.32	10.000
232.69	64.286
233.07	366.667
233.44	60.000
233.81	0.000
234.19	144.444
234.56	58.824
234.93	-750.000
235.31	375.000
235.68	-100.000
236.05	38.462
236.43	30.000
236.80	141.176
237.17	53.125
237.55	45.000
237.92	37.037
238.29	44.444
238.67	110.000
239.04	41.176
239.41	34.146
239.79	66.667
240.16	68.293
240.53	68.421
240.91	67.391
241.28	73.016
241.65	66.071
242.02	52.055
242.40	56.667
242.77	66.102
243.14	68.182
243.51	65.000
243.89	86.207
244.26	65.517
244.63	73.810
245.00	65.979
245.38	78.351
245.75	77.528
246.12	56.034
246.49	69.421
246.87	69.231
247.24	60.504
247.61	71.930
247.98	65.041
248.36	63.750
248.73	71.053
249.10	64.935
249.47	72.152
249.84	72.549
250.22	67.059
250.59	80.392
250.96	68.075
251.33	68.023
251.70	72.941
252.08	68.020
252.45	67.822
252.82	70.352
253.19	67.742
253.56	66.355
253.94	64.865
254.31	70.435
254.68	75.439
255.05	66.142
255.42	71.179
255.79	67.181
256.16	65.759
256.54	70.896
256.91	71.863
257.28	63.197
257.65	67.416
258.02	65.957
258.39	69.697
258.76	67.766
259.14	68.771
259.51	67.314
259.88	72.509
260.25	67.647
260.62	69.097
260.99	68.475
261.36	69.521
261.73	71.203
262.10	69.605
262.47	71.779
262.85	71.787
263.22	68.615
263.59	67.290
263.96	67.391
264.33	70.606
264.70	72.321
265.07	69.940
265.44	71.955
265.81	71.751
266.18	72.131
266.55	69.152
266.92	68.135
267.29	67.102
267.66	68.798
268.03	71.466
268.40	67.885
268.77	76.471
269.14	67.386
269.51	69.152
269.88	69.077
270.25	69.133
270.62	67.073
270.99	67.775
271.36	62.592
271.73	69.249
272.10	71.776
272.47	67.139
272.84	65.594
273.21	65.661
273.58	68.675
273.95	67.277
274.32	65.820
274.69	61.312
275.06	66.741
275.43	63.719
275.80	67.550
276.17	65.977
276.54	65.953
276.91	68.860
277.28	64.847
277.65	62.190
278.02	64.894
278.39	65.864
278.76	65.409
279.13	62.241
279.50	66.807
279.87	65.011
280.23	65.591
280.60	63.743
280.97	65.253
281.34	62.885
281.71	67.146
282.08	62.372
282.45	63.992
282.82	63.707
283.19	63.830
283.56	62.235
283.92	63.188
284.29	62.308
284.66	62.403
285.03	62.083
285.40	62.760
285.77	59.051
286.14	59.025
286.51	63.284
286.87	58.867
287.24	61.510
287.61	60.317
287.98	59.123
288.35	58.579
288.72	61.471
289.08	59.375
289.45	59.578
289.82	57.692
290.19	57.338
290.56	57.290
290.93	56.229
291.29	52.080
291.66	53.701
292.03	53.907
292.40	51.774
292.77	55.024
293.13	50.812
293.50	50.683
293.87	52.672
294.24	49.923
294.60	51.714
294.97	50.893
295.34	50.613
295.71	51.416
296.08	50.374
296.44	46.799
296.81	47.639
297.18	47.246
297.55	48.238
297.91	47.534
298.28	48.021
298.65	43.826
299.02	47.170
299.38	43.776
299.75	45.241
300.12	46.597
300.48	45.191
300.85	44.106
301.22	44.156
301.59	44.342
301.95	44.430
302.32	45.266
302.69	44.279
303.05	45.173
303.42	42.839
303.79	43.458
304.15	44.086
304.52	42.925
304.89	41.053
305.25	41.768
305.62	40.723
305.99	42.456
306.35	42.081
306.72	39.483
307.09	42.075
307.45	40.299
307.82	41.898
308.19	42.625
308.55	41.003
308.92	43.137
309.29	41.117
309.65	41.335
310.02	40.704
310.38	41.493
310.75	41.967
311.12	40.151
311.48	40.615
311.85	40.628
312.22	40.717
312.58	41.614
312.95	39.274
313.31	39.130
313.68	40.209
314.05	40.408
314.41	40.412
314.78	40.515
315.14	41.932
315.51	39.545
315.87	40.574
316.24	40.950
316.61	40.846
316.97	39.683
317.34	40.527
317.70	40.249
318.07	40.192
318.43	41.569
318.80	40.341
319.16	42.285
319.53	42.640
319.89	41.240
320.26	42.611
320.62	43.330
320.99	41.649
321.35	43.268
321.72	42.991
322.08	43.303
322.45	42.843
322.81	42.927
323.18	42.493
323.54	43.243
323.91	43.622
324.27	44.922
324.64	44.569
325.00	46.350
325.37	46.648
325.73	46.963
326.10	47.775
326.46	48.610
326.83	49.606
327.19	49.782
327.56	50.652
327.92	51.849
328.29	50.268
328.65	53.868
329.01	53.768
329.38	53.641
329.74	55.619
330.11	54.032
330.47	53.803
330.84	55.481
331.20	57.700
331.56	55.370
331.93	56.164
332.29	57.745
332.66	57.557
333.02	57.156
333.38	57.654
333.75	59.524
334.11	56.312
334.48	57.933
334.84	58.242
335.20	60.018
335.57	58.568
335.93	59.350
336.29	60.589
336.66	59.219
337.02	59.665
337.38	58.056
337.75	60.545
338.11	60.234
338.47	61.405
338.84	60.628
339.20	61.883
339.56	61.560
339.93	60.161
340.29	61.284
340.65	60.036
341.02	59.840
341.38	59.912
341.74	59.629
342.11	60.659
342.47	60.409
342.83	61.505
343.20	60.017
343.56	60.435
343.92	62.090
344.28	61.571
344.65	61.313
345.01	59.983
345.37	60.050
345.73	60.502
346.10	61.346
346.46	59.798
346.82	60.065
347.19	60.100
347.55	61.320
347.91	60.032
348.27	60.711
348.63	61.329
349.00	59.639
349.36	60.599
349.72	63.267
350.08	60.738
350.45	59.936
350.81	61.130
351.17	60.831
351.53	61.878
351.89	61.189
352.26	59.120
352.62	61.613
352.98	61.928
353.34	59.259
353.70	61.003
354.07	60.968
354.43	60.048
354.79	61.024
355.15	61.032
355.51	60.918
355.87	61.731
356.24	60.848
356.60	61.277
356.96	59.603
357.32	59.505
357.68	60.672
358.04	61.955
358.40	60.129
358.77	62.839
359.13	59.808
359.49	59.014
359.85	59.750
360.21	61.722
360.57	61.285
360.93	60.968
361.29	60.725
361.66	62.382
362.02	61.515
362.38	62.224
362.74	62.074
363.10	63.732
363.46	62.046
363.82	62.960
364.18	62.952
364.54	60.588
364.90	62.079
365.26	61.572
365.62	63.723
365.98	62.610
366.35	63.074
366.71	64.449
367.07	62.264
367.43	62.473
367.79	62.049
368.15	64.106
368.51	63.365
368.87	62.312
369.23	62.022
369.59	63.994
369.95	62.903
370.31	62.789
370.67	62.164
371.03	62.957
371.39	63.311
371.75	63.370
372.11	61.983
372.47	64.645
372.83	64.372
373.19	62.910
373.55	62.744
373.91	64.363
374.27	63.643
374.63	64.322
374.99	63.972
375.35	63.858
375.71	64.196
376.07	66.433
376.42	63.946
376.78	65.235
377.14	64.590
377.50	63.347
377.86	64.993
378.22	63.689
378.58	64.679
378.94	64.650
379.30	65.565
379.66	64.702
380.02	64.684
380.38	65.125
380.74	66.128
381.09	67.362
381.45	65.566
381.81	65.453
382.17	65.863
382.53	64.460
382.89	68.110
383.25	67.268
383.61	67.317
383.97	67.810
384.32	66.854
384.68	66.563
385.04	65.870
385.40	66.148
385.76	68.302
386.12	68.241
386.48	67.880
386.83	68.041
387.19	67.888
387.55	67.566
387.91	67.237
388.27	67.338
388.62	68.345
388.98	66.789
389.34	67.458
389.70	68.925
390.06	67.590
390.42	68.653
390.77	68.738
391.13	67.024
391.49	69.405
391.85	69.916
392.20	67.106
392.56	68.277
392.92	69.759
393.28	68.514
393.64	67.868
393.99	69.843
394.35	68.817
394.71	68.902
395.07	69.516
395.42	68.852
395.78	68.534
396.14	67.654
396.50	69.182
396.85	69.800
397.21	68.860
397.57	68.777
397.92	68.304
398.28	69.080
398.64	67.711
399.00	69.074
399.35	67.607
399.71	67.892
400.07	69.891
400.42	67.625
400.78	68.769
401.14	68.482
401.49	69.327
401.85	68.373
402.21	66.747
402.57	69.000
402.92	67.942
403.28	69.110
403.63	69.735
403.99	69.324
404.35	69.144
404.70	67.083
405.06	67.333
405.42	67.993
405.77	67.926
406.13	69.616
406.49	68.917
406.84	68.643
407.20	69.416
407.55	67.869
407.91	67.112
408.27	68.005
408.62	68.738
408.98	68.762
409.34	67.596
409.69	67.506
410.05	66.995
410.40	67.469
410.76	67.973
411.11	68.312
411.47	67.784
411.83	66.416
412.18	69.820
412.54	66.542
412.89	66.995
413.25	68.652
413.60	67.888
413.96	67.301
414.31	66.951
414.67	65.747
415.03	67.443
415.38	66.449
415.74	68.404
416.09	66.950
416.45	67.792
416.80	65.565
417.16	69.061
417.51	67.355
417.87	67.210
418.22	67.422
418.58	68.896
418.93	68.715
419.29	66.005
419.64	67.725
420.00	67.758
420.35	68.119
420.71	68.348
421.06	67.833
421.42	69.050
421.77	67.168
422.12	68.218
422.48	68.110
422.83	66.415
423.19	67.664
423.54	67.313
423.90	68.551
424.25	66.648
424.61	68.421
424.96	66.202
425.31	68.920
425.67	67.840
426.02	68.551
426.38	69.317
426.73	68.341
427.09	68.924
427.44	68.294
427.79	67.708
428.15	68.386
428.50	68.867
428.85	67.383
429.21	68.025
429.56	69.488
429.92	67.694
430.27	67.168
430.62	68.531
430.98	68.684
431.33	67.140
431.68	66.771
432.04	68.865
432.39	67.370
432.74	66.266
433.10	67.701
433.45	68.041
433.80	68.369
434.16	67.535
434.51	67.634
434.86	68.931
435.22	68.592
435.57	68.185
435.92	68.383
436.28	66.667
436.63	68.112
436.98	67.439
437.34	68.603
437.69	69.469
438.04	68.034
438.39	67.746
438.75	70.370
439.10	68.308
439.45	69.264
439.81	68.991
440.16	69.181
440.51	68.060
440.86	70.514
441.22	66.855
441.57	67.605
441.92	68.206
442.27	70.067
442.63	68.255
442.98	67.490
443.33	67.446
443.68	67.798
444.03	69.101
444.39	68.618
444.74	69.565
445.09	69.154
445.44	69.117
445.79	69.366
446.15	67.346
446.50	68.386
446.85	69.022
447.20	68.040
447.55	68.136
447.91	69.036
448.26	69.493
448.61	67.991
448.96	69.306
449.31	68.555
449.66	67.944
450.02	68.112
450.37	69.650
450.72	69.645
451.07	67.722
451.42	67.790
451.77	67.149
452.12	67.703
452.47	67.354
452.83	68.551
453.18	68.438
453.53	69.027
453.88	68.549
454.23	67.240
454.58	69.521
454.93	68.557
455.28	66.857
455.63	67.762
455.98	68.671
456.34	67.561
456.69	67.344
457.04	68.746
457.39	67.740
457.74	68.380
458.09	67.628
458.44	67.466
458.79	67.171
459.14	66.648
459.49	67.881
459.84	67.061
460.19	68.507
460.54	68.826
460.89	68.580
461.24	69.193
461.59	66.568
461.94	66.855
462.29	68.456
462.64	69.037
462.99	66.960
463.34	66.829
463.69	66.988
464.04	67.554
464.39	65.737
464.74	65.890
465.09	67.498
465.44	67.859
465.79	65.760
466.14	67.617
466.49	66.705
466.84	66.330
467.19	67.334
467.54	66.475
467.89	66.961
468.24	67.153
468.59	66.159
468.94	66.857
469.29	67.344
469.64	65.482
469.99	67.414
470.34	66.143
470.68	66.070
471.03	66.525
471.38	65.763
471.73	66.317
472.08	65.197
472.43	67.450
472.78	65.730
473.13	66.395
473.48	66.384
473.83	64.384
474.17	66.710
474.52	64.454
474.87	65.818
475.22	66.199
475.57	66.121
475.92	66.703
476.27	65.367
476.61	66.551
476.96	64.027
477.31	65.387
477.66	64.775
478.01	65.525
478.36	66.122
478.70	66.449
479.05	64.505
479.40	65.289
479.75	65.328
480.10	63.902
480.45	65.000
480.79	66.818
481.14	66.547
481.49	64.581
481.84	65.685
482.19	65.154
482.53	65.947
482.88	64.153
483.23	63.676
483.58	64.528
483.92	63.359
484.27	62.489
484.62	64.142
484.97	64.345
485.31	64.270
485.66	64.078
486.01	66.117
486.36	65.532
486.70	66.180
487.05	65.513
487.40	64.866
487.75	64.535
488.09	63.350
488.44	63.102
488.79	64.064
489.13	63.381
489.48	63.702
489.83	63.946
490.17	62.607
490.52	63.418
490.87	63.119
491.22	65.282
491.56	63.283
491.91	62.380
492.26	64.949
492.60	63.916
492.95	63.994
493.30	63.019
493.64	64.145
493.99	63.430
494.34	63.058
494.68	63.619
495.03	63.552
495.37	63.690
495.72	64.311
496.07	64.244
496.41	62.123
496.76	63.381
497.11	62.646
497.45	63.723
497.80	64.228
498.14	63.239
498.49	64.500
498.84	62.076
499.18	63.504
499.53	64.187
499.87	62.695
500.22	63.798
500.56	63.439
500.91	63.303
501.26	62.729
501.60	63.060
501.95	63.707
502.29	63.971
502.64	63.562
502.98	64.332
503.33	62.680
503.67	62.361
504.02	63.245
504.36	63.236
504.71	62.374
505.06	62.204
505.40	63.756
505.75	63.918
506.09	61.987
506.44	63.758
506.78	62.755
507.13	63.495
507.47	60.574
507.82	62.286
508.16	62.546
508.51	63.694
508.85	62.533
509.19	61.788
509.54	62.681
509.88	62.999
510.23	64.067
510.57	62.801
510.92	61.567
511.26	63.557
511.61	62.761
511.95	63.452
512.30	63.248
512.64	62.326
512.98	61.538
513.33	62.675
513.67	62.251
514.02	63.158
514.36	64.400
514.70	62.587
515.05	63.337
515.39	62.810
515.74	63.713
516.08	62.762
516.42	63.369
516.77	63.546
517.11	61.721
517.46	61.759
517.80	63.766
518.14	62.400
518.49	62.320
518.83	62.151
519.17	61.128
519.52	61.634
519.86	63.025
520.20	60.996
520.55	62.477
520.89	62.296
521.23	61.811
521.58	62.461
521.92	62.051
522.26	60.638
522.61	61.883
522.95	63.377
523.29	62.389
523.64	61.055
523.98	63.642
524.32	62.242
524.66	63.252
525.01	62.597
525.35	63.059
525.69	62.896
526.04	62.632
526.38	63.813
526.72	61.674
527.06	61.414
527.41	61.478
527.75	63.003
528.09	62.326
528.43	63.741
528.78	61.386
529.12	61.935
529.46	61.923
529.80	62.508
530.15	62.838
530.49	63.434
530.83	62.654
531.17	61.921
531.51	62.517
531.86	62.135
532.20	61.030
532.54	62.628
532.88	62.286
533.22	62.567
533.57	62.254
533.91	61.031
534.25	63.542
534.59	62.797
534.93	60.352
535.27	60.787
535.62	61.115
535.96	62.361
536.30	61.478
536.64	63.405
536.98	62.021
537.32	62.020
537.66	62.272
538.01	63.147
538.35	62.691
538.69	61.318
539.03	61.654
539.37	61.373
539.71	60.941
540.05	61.847
540.39	62.742
540.73	62.622
541.07	61.533
541.42	61.022
541.76	62.491
542.10	62.491
542.44	61.779
542.78	60.358
543.12	61.401
543.46	60.987
543.80	62.110
544.14	59.413
544.48	61.292
544.82	62.269
545.16	61.544
545.50	61.615
545.84	61.898
546.18	61.844
546.52	62.437
546.86	60.388
547.20	62.876
547.54	60.989
547.88	61.821
548.22	60.158
548.56	61.478
548.90	61.927
549.24	61.777
549.58	59.873
549.92	59.042
550.26	59.853
550.60	62.230
550.94	61.688
551.28	61.360
551.62	62.692
551.96	62.256
552.30	62.427
552.64	61.354
552.98	61.955
553.32	61.626
553.66	61.393
554.00	62.701
554.34	60.709
554.68	60.546
555.02	61.607
555.36	61.855
555.69	60.952
556.03	59.529
556.37	61.210
556.71	60.650
557.05	61.521
557.39	60.372
557.73	60.945
558.07	60.709
558.41	61.715
558.75	62.120
559.08	61.387
559.42	61.190
559.76	62.370
560.10	61.468
560.44	61.802
560.78	61.958
561.12	61.707
561.45	63.106
561.79	61.345
562.13	62.030
562.47	60.935
562.81	61.744
563.15	60.931
563.48	61.103
563.82	61.496
564.16	62.465
564.50	59.324
564.84	61.245
565.17	61.301
565.51	63.934
565.85	62.483
566.19	62.931
566.52	62.668
566.86	62.018
567.20	61.955
567.54	61.618
567.88	64.323
568.21	63.575
568.55	62.554
568.89	61.756
569.23	62.783
569.56	63.004
569.90	64.190
570.24	61.556
570.57	63.673
570.91	64.622
571.25	62.414
571.59	62.255
571.92	61.422
572.26	62.591
572.60	62.140
572.93	62.222
573.27	61.536
573.61	62.321
573.95	62.780
574.28	62.209
574.62	61.302
574.96	61.381
575.29	61.610
575.63	61.052
575.97	60.829
576.30	61.766
576.64	61.430
576.98	62.471
577.31	61.883
577.65	62.339
577.98	62.574
578.32	62.127
578.66	61.100
578.99	61.371
579.33	61.154
579.67	60.686
580.00	62.633
580.34	61.443
580.67	61.474
581.01	62.536
581.35	61.477
581.68	62.468
582.02	62.452
582.35	62.210
582.69	62.466
583.02	61.504
583.36	61.959
583.70	63.214
584.03	63.192
584.37	62.931
584.70	62.060
585.04	61.399
585.37	61.278
585.71	62.355
586.04	61.725
586.38	61.510
586.72	61.980
587.05	62.449
587.39	62.371
587.72	62.931
588.06	62.773
588.39	61.891
588.73	62.454
589.06	62.329
589.40	61.078
589.73	62.760
590.07	62.576
590.40	63.545
590.73	63.344
591.07	62.850
591.40	61.398
591.74	62.489
592.07	62.523
592.41	61.749
592.74	61.888
593.08	61.125
593.41	62.273
593.75	61.760
594.08	61.140
594.41	61.863
594.75	62.481
595.08	62.467
595.42	62.422
595.75	63.312
596.09	62.979
596.42	62.547
596.75	61.634
597.09	62.096
597.42	62.692
597.75	62.803
598.09	61.431
598.42	61.327
598.76	61.261
599.09	61.859
599.42	60.629
599.76	61.926
600.09	61.765
600.42	61.221
600.76	60.736
601.09	61.794
601.42	61.144
601.76	61.016
602.09	61.922
602.42	62.553
602.76	62.012
603.09	62.666
603.42	62.918
603.76	63.145
604.09	61.239
604.42	62.183
604.76	62.261
605.09	62.294
605.42	62.844
605.75	62.347
606.09	62.930
606.42	62.010
606.75	62.078
607.09	61.099
607.42	61.498
607.75	61.368
608.08	61.680
608.42	60.758
608.75	63.952
609.08	63.428
609.41	62.690
609.75	62.097
610.08	63.055
610.41	61.449
610.74	61.433
611.07	63.152
611.41	63.985
611.74	62.846
612.07	61.188
612.40	62.801
612.73	63.955
613.07	62.148
613.40	62.309
613.73	61.835
614.06	62.270
614.39	62.888
614.72	62.969
615.06	61.397
615.39	61.026
615.72	60.172
616.05	62.011
616.38	61.254
616.71	62.936
617.05	63.620
617.38	61.974
617.71	62.830
618.04	64.127
618.37	63.052
618.70	62.442
619.03	62.500
619.36	61.650
619.69	63.457
620.03	65.011
620.36	62.089
620.69	61.956
621.02	64.679
621.35	63.320
621.68	63.095
622.01	63.083
622.34	62.490
622.67	62.303
623.00	60.413
623.33	62.348
623.66	62.528
623.99	60.893
624.32	64.106
624.65	62.105
624.99	63.055
625.32	60.804
625.65	63.001
625.98	62.450
626.31	62.095
626.64	63.432
626.97	62.914
627.30	63.748
627.63	63.258
627.96	63.702
628.29	62.812
628.62	62.340
628.95	62.926
629.28	63.609
629.61	63.709
629.94	64.027
630.26	61.660
630.59	63.684
630.92	63.487
631.25	61.538
631.58	62.335
631.91	62.061
632.24	65.023
632.57	62.841
632.90	62.752
633.23	62.941
633.56	64.861
633.89	62.639
634.22	64.198
634.55	63.914
634.88	62.324
635.20	62.308
635.53	66.400
635.86	60.338
636.19	62.484
636.52	64.541
636.85	62.283
637.18	62.390
637.51	62.893
637.83	62.286
638.16	64.120
638.49	60.627
638.82	63.289
639.15	62.822
639.48	62.861
639.81	61.925
640.13	63.492
640.46	61.808
640.79	64.948
641.12	63.072
641.45	62.913
641.77	62.815
642.10	66.193
642.43	64.309
642.76	66.997
643.09	60.905
643.41	61.003
643.74	60.791
644.07	65.353
644.40	62.331
644.73	65.849
645.05	61.913
645.38	64.374
645.71	63.652
646.04	65.889
646.36	62.234
646.69	64.748
647.02	68.053
647.35	65.299
647.67	63.071
648.00	66.418
648.33	63.652
648.66	63.390
648.98	63.819
649.31	65.785
649.64	63.736
649.96	64.182
650.29	64.906
650.62	62.393
650.94	62.222
651.27	64.991
651.60	61.081
651.92	62.587
652.25	62.877
652.58	61.500
652.90	62.950
653.23	65.714
653.56	63.959
653.88	64.433
654.21	64.098
654.54	60.611
654.86	67.402
655.19	63.012
655.52	68.111
655.84	64.773
656.17	71.421
656.49	95.728
656.82	98.484
657.15	75.999
657.47	56.154
657.80	41.488
658.13	41.170
658.45	63.517
658.78	62.494
659.10	60.915
659.43	60.145
659.75	61.519
660.08	58.345
660.41	59.959
660.73	58.840
661.06	60.659
661.38	62.035
661.71	59.754
662.03	63.305
662.36	63.956
662.68	63.938
663.01	64.629
663.33	64.501
663.66	64.651
663.98	64.651
664.31	61.834
664.63	61.751
664.96	62.174
665.28	63.355
665.61	61.472
665.93	64.130
666.26	66.161
666.58	60.403
666.91	62.353
667.23	65.094
667.56	61.374
667.88	66.187
668.21	63.246
668.53	64.066
668.86	62.028
669.18	65.094
669.50	60.291
669.83	60.930
670.15	64.103
670.48	65.311
670.80	63.364
671.13	61.074
671.45	60.959
671.77	62.232
672.10	60.792
672.42	60.674
672.75	62.877
673.07	63.148
673.39	62.385
673.72	62.130
674.04	61.250
674.37	65.254
674.69	62.741
675.01	60.000
675.34	61.261
675.66	65.046
675.98	64.302
676.31	61.927
676.63	64.371
676.95	62.955
677.28	64.235
677.60	63.855
677.92	59.174
678.25	62.801
678.57	61.688
678.89	62.395
679.22	64.430
679.54	61.647
679.86	61.431
680.18	65.049
680.51	63.447
680.83	60.636
681.15	62.000
681.48	63.730
681.80	61.570
682.12	64.315
682.44	62.971
682.77	67.108
683.09	63.616
683.41	62.273
683.73	62.442
684.06	61.726
684.38	59.785
684.70	63.399
685.02	65.145
685.34	61.462
685.67	62.101
685.99	60.940
686.31	63.363
686.63	61.967
686.96	60.456
687.28	62.020
687.60	58.555
687.92	64.040
688.24	61.290
688.56	63.537
688.89	63.393
689.21	61.778
689.53	61.717
689.85	61.395
690.17	61.161
690.49	60.757
690.82	61.650
691.14	61.190
691.46	65.187
691.78	61.036
692.10	64.731
692.42	60.823
692.74	60.256
693.06	61.486
693.39	60.181
693.71	60.181
694.03	65.589
694.35	61.682
694.67	60.606
694.99	60.313
695.31	61.880
695.63	60.750
695.95	62.121
696.27	61.399
696.59	64.444
696.91	59.944
697.23	61.183
697.56	62.871
697.88	61.290
698.20	64.009
698.52	61.412
698.84	61.005
699.16	63.000
699.48	62.406
699.80	62.283
700.12	64.420
700.44	61.905
700.76	60.756
701.08	60.000
701.40	61.145
701.72	65.432
702.04	66.007
702.36	66.890
702.68	60.661
703.00	65.455
703.32	59.238
703.64	59.605
703.96	59.130
704.28	64.110
704.60	60.317
704.91	56.467
705.23	62.126
705.55	62.898
705.87	65.343
706.19	59.259
706.51	58.419
706.83	63.023
707.15	58.567
707.47	63.025
707.79	62.760
708.11	61.250
708.43	59.500
708.74	63.307
709.06	67.324
709.38	67.584
709.70	60.355
710.02	58.599
710.34	60.681
710.66	59.295
710.98	59.272
711.29	64.262
711.61	64.407
711.93	61.564
712.25	61.168
712.57	61.905
712.89	64.925
713.20	59.516
713.52	59.582
713.84	59.044
714.16	60.137
714.48	61.935
714.80	62.500
715.11	61.702
715.43	59.875
715.75	56.000
716.07	57.143
716.39	59.396
716.70	61.993
717.02	56.870
717.34	63.968
717.66	67.699
717.97	64.348
718.29	59.833
718.61	60.630
718.93	58.915
719.24	59.316
719.56	64.659
719.88	58.763
720.20	59.848
720.51	59.004
720.83	62.162
721.15	57.983
721.46	60.887
721.78	59.684
722.10	60.223
722.42	64.315
722.73	62.449
723.05	67.755
723.37	60.169
723.68	68.468
724.00	63.675
724.32	58.222
724.63	62.727
724.95	60.262
725.27	65.438
725.58	62.712
725.90	61.111
726.22	64.865
726.53	62.373
726.85	62.172
727.16	68.302
727.48	61.134
727.80	62.348
728.11	61.864
728.43	60.784
728.74	56.048
729.06	62.000
729.38	63.534
729.69	62.151
730.01	56.923
730.32	63.060
730.64	62.898
730.96	64.151
731.27	56.667
731.59	60.000
731.90	59.236
732.22	59.306
732.53	60.797
732.85	62.057
733.16	60.943
733.48	57.554
733.80	68.116
734.11	58.644
734.43	62.887
734.74	61.818
735.06	58.958
735.37	60.423
735.69	67.340
736.00	61.672
736.32	54.027
736.63	61.268
736.95	60.410
737.26	64.057
737.58	56.711
737.89	64.469
738.21	65.038
738.52	65.432
738.83	68.559
739.15	61.572
739.46	59.055
739.78	57.875
740.09	58.824
740.41	64.130
740.72	59.055
741.04	62.348
741.35	61.277
741.66	63.507
741.98	59.694
742.29	60.891
742.61	67.539
742.92	54.502
743.23	53.241
743.55	61.991
743.86	58.852
744.18	53.110
744.49	57.979
744.80	59.783
745.12	72.193
745.43	59.024
745.74	62.500
746.06	62.439
746.37	60.733
746.68	65.403
747.00	66.489
747.31	60.697
747.62	66.505
747.94	63.158
748.25	58.911
748.56	66.667
748.88	57.592
749.19	70.213
749.50	64.532
749.82	56.132
750.13	65.596
750.44	64.286
750.75	62.687
751.07	67.518
751.38	60.153
751.69	57.647
752.01	65.504
752.32	61.355
752.63	63.636
752.94	63.362
753.26	65.272
753.57	61.086
753.88	62.832
754.19	59.583
754.51	64.463
754.82	57.490
755.13	61.250
755.44	60.081
755.75	64.844
756.07	61.479
756.38	56.604
756.69	61.303
757.00	59.667
757.31	59.477
757.63	56.707
757.94	57.222
758.25	56.986
758.56	55.319
758.87	53.541
759.18	55.452
759.50	60.364
759.81	58.194
760.12	59.032
760.43	60.909
760.74	62.037
761.05	58.462
761.36	57.102
761.67	61.515
761.99	64.626
762.30	59.636
762.61	56.522
762.92	53.394
763.23	57.658
763.54	61.215
763.85	60.593
764.16	56.846
764.47	60.484
764.78	55.311
765.10	62.963
765.41	58.991
765.72	59.365
766.03	57.895
766.34	60.219
766.65	57.769
766.96	60.101
767.27	56.915
767.58	56.322
767.89	59.574
768.20	53.977
768.51	62.088
768.82	57.635
769.13	52.535
769.44	58.798
769.75	60.731
770.06	53.879
770.37	60.096
770.68	60.914
770.99	58.824
771.30	68.627
771.61	58.371
771.92	57.328
772.23	63.547
772.54	54.839
772.85	61.111
773.16	54.494
773.47	69.935
773.78	65.359
774.09	55.090
774.39	59.333
774.70	53.503
775.01	61.379
775.32	56.429
775.63	50.413
775.94	55.725
776.25	55.118
776.56	60.000
776.87	65.385
777.18	56.410
777.48	58.621
777.79	57.391
778.10	49.524
778.41	62.162
778.72	57.937
779.03	55.639
779.34	57.447
779.65	63.014
779.95	53.425
780.26	57.931
780.57	55.285
780.88	51.969
781.19	62.069
781.50	72.868
781.80	54.438
782.11	54.717
782.42	60.000
782.73	48.921
783.04	52.593
783.34	56.250
783.65	61.538
783.96	62.295
784.27	55.172
784.57	52.033
784.88	51.562
785.19	62.000
785.50	69.000
785.81	60.345
786.11	54.310
786.42	55.340
786.73	63.636
787.04	50.000
787.34	46.429
787.65	58.095
787.96	53.097
788.26	68.182
788.57	49.573
788.88	64.844
789.19	42.857
789.49	54.783
789.80	57.143
790.11	42.424
790.41	41.818
790.72	64.130
791.03	57.955
791.33	66.250
791.64	51.250
791.95	56.977
792.25	57.447
792.56	65.169
792.87	60.274
793.17	71.014
793.48	42.667
793.79	63.750
794.09	76.250
794.40	47.170
794.70	57.282
795.01	56.098
795.32	54.701
795.62	55.238
795.93	60.784
796.23	55.660
796.54	54.167
796.85	61.765
797.15	47.887
797.46	58.333
797.76	66.667
798.07	56.977
798.37	55.263
798.68	62.121
798.99	53.086
799.29	61.429
799.60	52.174
799.90	49.333
800.21	55.738
800.51	47.692
800.82	57.627
801.12	56.522
801.43	73.770
801.73	69.841
802.04	52.000
802.34	40.299
802.65	63.462
802.95	58.929
803.26	46.154
803.56	72.549
803.87	47.826
804.17	48.000
804.48	58.730
804.78	37.037
805.09	52.174
805.39	51.111
805.70	46.296
806.00	35.088
806.30	53.521
806.61	58.571
806.91	22.222
807.22	64.474
807.52	50.667
807.83	56.364
808.13	51.389
808.43	67.647
808.74	50.746
809.04	72.881
809.35	48.077
809.65	54.688
809.95	45.946
810.26	43.182
810.56	32.877
810.86	40.476
811.17	50.000
811.47	57.143
811.77	50.000
812.08	34.091
812.38	49.057
812.69	32.500
812.99	66.667
813.29	39.474
813.59	40.000
813.90	52.273
814.20	53.846
814.50	63.462
814.81	41.509
815.11	40.426
815.41	66.102
815.72	33.333
816.02	56.863
816.32	54.167
816.62	41.463
816.93	48.649
817.23	25.714
817.53	45.833
817.84	47.826
818.14	44.231
818.44	42.105
818.74	45.652
819.04	7.500
819.35	64.865
819.65	52.941
819.95	58.333
820.25	42.857
820.56	62.500
820.86	27.586
821.16	60.000
821.46	59.574
821.76	57.500
822.07	37.209
822.37	21.622
822.67	15.625
822.97	47.619
823.27	64.286
823.57	48.000
823.88	22.222
824.18	67.857
824.48	64.706
824.78	70.968
825.08	65.217
825.38	39.394
825.69	20.833
825.99	31.579
826.29	66.667
826.59	73.333
826.89	28.571
827.19	32.609
827.49	37.500
827.79	74.286
828.09	82.143
828.39	72.727
828.70	81.081
829.00	57.143
829.30	4.762
829.60	53.333
829.90	21.875
830.20	50.000
830.50	18.519
830.80	39.130
831.10	27.273
831.40	84.848
831.70	51.613
832.00	85.714
832.30	0.000
832.60	50.000
832.90	48.276
833.20	45.000
833.50	60.606
833.80	66.667
834.10	19.231
834.40	53.125
834.70	-22.222
835.00	47.368
835.30	80.769
835.60	93.333
835.90	45.161
836.20	68.182
836.50	35.714
836.80	7.692
837.10	3.571
837.40	233.333
837.70	86.364
838.00	27.273
838.30	47.826
838.60	69.231
838.90	27.273
839.19	75.000
839.49	-6.667
839.79	61.538
840.09	91.667
840.39	67.857
840.69	-17.857
840.99	42.308
841.29	0.000
841.59	-10.000
841.88	90.909
842.18	30.000
842.48	93.750
842.78	46.667
843.08	14.815
843.38	20.000
843.68	30.435
843.97	33.333
844.27	-13.333
844.57	50.000
844.87	38.889
845.17	-4.762
845.47	120.000
845.76	23.810
846.06	41.176
846.36	80.000
846.66	-35.714
846.96	66.667
847.25	0.000
847.55	50.000
847.85	112.500
848.15	36.364
848.44	-100.000
848.74	55.000
849.04	59.259
849.34	109.091
849.63	-33.333
849.93	-80.000
850.23	22.222
850.53	120.000
850.82	46.154
851.12	44.444
851.42	60.000
851.71	53.846
852.01	14.286
852.31	-125.000
852.61	-27.273
852.90	0.000
853.20	84.211
853.50	16.667
853.79	34.783
854.09	33.333
854.39	42.105
854.68	50.000
854.98	51.613
855.28	57.692
855.57	55.000
855.87	61.111
856.17	51.852
856.46	107.143
856.76	80.000
857.05	111.111
857.35	100.000
857.65	88.889
857.94	46.154
858.24	58.621
858.53	44.444
858.83	33.333
859.13	68.182
859.42	13.043
859.72	275.000
860.01	-66.667
860.31	72.000
860.60	-4.762
860.90	66.667
861.20	-33.333
861.49	-150.000
861.79	-33.333
862.08	50.000
862.38	93.333
862.67	-60.000
862.97	33.333
863.26	125.000
863.56	33.333
863.85	33.333
864.15	94.444
864.44	10.000
864.74	28.571
865.03	125.000
865.33	-80.000
865.62	83.333
865.92	33.333
866.21	-33.333
866.51	68.750
866.80	127.273
867.10	50.000
867.39	75.000
867.69	0.000
867.98	-30.769
868.27	-166.667
868.57	20.000
868.86	66.667
869.16	30.769
869.45	40.000
869.75	-900.000
870.04	0.000
870.33	-114.286
870.63	28.571
870.92	233.333
871.22	-80.000
871.51	-100.000
871.80	44.444
872.10	233.333
>>>>>End Processed Spectral Data<<<<<
