SpectraSuite Data File
++++++++++++++++++++++++++++++++++++
Date: Fri May 15 17:08:26 PDT 2015
User: schluterlab
Dark Spectrum Present: Yes
Reference Spectrum Present: Yes
Number of Sampled Component Spectra: 1
Spectrometers: USB2E3373
Integration Time (usec): 3000 (USB2E3373)
Spectra Averaged: 3 (USB2E3373)
Boxcar Smoothing: 0 (USB2E3373)
Correct for Electrical Dark: No (USB2E3373)
Strobe/Lamp Enabled: No (USB2E3373)
Correct for Detector Non-linearity: No (USB2E3373)
Correct for Stray Light: No (USB2E3373)
Number of Pixels in Processed Spectrum: 2048
>>>>>Begin Processed Spectral Data<<<<<
178.53	0.000
178.91	0.000
179.29	125.000
179.67	-250.000
180.04	-142.857
180.42	275.000
180.80	100.000
181.18	-200.000
181.56	-50.000
181.94	150.000
182.31	-0.000
182.69	-140.000
183.07	-133.333
183.45	100.000
183.83	-66.667
184.20	136.364
184.58	-33.333
184.96	-100.000
185.34	-433.333
185.72	-450.000
186.09	-7.692
186.47	-400.000
186.85	50.000
187.23	-22.222
187.61	-500.000
187.98	133.333
188.36	77.778
188.74	66.667
189.12	76.471
189.49	88.889
189.87	0.000
190.25	92.857
190.63	350.000
191.00	66.667
191.38	-26.316
191.76	700.000
192.14	-0.000
192.51	200.000
192.89	33.333
193.27	42.857
193.65	50.000
194.02	100.000
194.40	80.000
194.78	112.500
195.15	50.000
195.53	-37.500
195.91	125.000
196.29	125.000
196.66	30.769
197.04	128.571
197.42	0.000
197.79	0.000
198.17	15.385
198.55	900.000
198.92	-200.000
199.30	300.000
199.68	20.000
200.05	-233.333
200.43	0.000
200.81	-200.000
201.18	133.333
201.56	-0.000
201.94	100.000
202.31	-100.000
202.69	-180.000
203.07	-175.000
203.44	1200.000
203.82	0.000
204.19	50.000
204.57	-66.667
204.95	-25.000
205.32	80.000
205.70	71.429
206.08	125.000
206.45	111.111
206.83	100.000
207.20	28.571
207.58	-400.000
207.96	-66.667
208.33	-100.000
208.71	200.000
209.08	-100.000
209.46	200.000
209.84	-20.000
210.21	0.000
210.59	142.857
210.96	-50.000
211.34	-250.000
211.71	0.000
212.09	14.286
212.46	-900.000
212.84	0.000
213.22	140.000
213.59	-250.000
213.97	84.615
214.34	100.000
214.72	216.667
215.09	250.000
215.47	76.923
215.84	45.455
216.22	-66.667
216.59	12.500
216.97	400.000
217.34	200.000
217.72	20.000
218.09	137.500
218.47	87.500
218.84	900.000
219.22	66.667
219.59	-40.000
219.97	100.000
220.34	25.000
220.72	85.714
221.09	25.000
221.47	0.000
221.84	150.000
222.22	-250.000
222.59	72.727
222.97	125.000
223.34	-233.333
223.72	21.429
224.09	0.000
224.46	46.429
224.84	166.667
225.21	80.000
225.59	86.667
225.96	-250.000
226.34	175.000
226.71	57.143
227.08	133.333
227.46	50.000
227.83	-200.000
228.21	122.222
228.58	90.909
228.95	12.500
229.33	40.000
229.70	31.250
230.08	50.000
230.45	14.286
230.82	200.000
231.20	40.000
231.57	114.286
231.95	185.714
232.32	-50.000
232.69	42.857
233.07	500.000
233.44	100.000
233.81	40.000
234.19	55.556
234.56	23.529
234.93	-100.000
235.31	325.000
235.68	40.000
236.05	7.692
236.43	-20.000
236.80	47.059
237.17	50.000
237.55	35.000
237.92	48.148
238.29	22.222
238.67	40.000
239.04	38.235
239.41	7.317
239.79	30.000
240.16	14.634
240.53	10.526
240.91	2.174
241.28	31.746
241.65	41.071
242.02	34.247
242.40	31.667
242.77	47.458
243.14	31.818
243.51	38.750
243.89	32.184
244.26	26.437
244.63	20.238
245.00	23.711
245.38	27.835
245.75	35.955
246.12	26.724
246.49	26.446
246.87	33.654
247.24	18.487
247.61	28.947
247.98	25.203
248.36	25.625
248.73	34.211
249.10	24.026
249.47	34.177
249.84	28.105
250.22	29.412
250.59	26.797
250.96	37.089
251.33	26.744
251.70	30.000
252.08	28.934
252.45	27.228
252.82	31.658
253.19	27.189
253.56	27.570
253.94	33.784
254.31	29.130
254.68	28.947
255.05	24.803
255.42	27.948
255.79	30.502
256.16	30.350
256.54	29.104
256.91	30.418
257.28	26.766
257.65	26.217
258.02	25.887
258.39	29.293
258.76	30.403
259.14	28.904
259.51	27.184
259.88	28.866
260.25	24.183
260.62	30.556
260.99	25.424
261.36	25.000
261.73	25.633
262.10	29.483
262.47	29.141
262.85	23.824
263.22	29.846
263.59	33.022
263.96	29.193
264.33	30.303
264.70	28.571
265.07	25.893
265.44	27.479
265.81	29.379
266.18	27.322
266.55	26.735
266.92	27.979
267.29	27.415
267.66	28.645
268.03	27.749
268.40	27.154
268.77	29.947
269.14	26.139
269.51	28.278
269.88	26.933
270.25	27.551
270.62	22.683
270.99	25.831
271.36	26.161
271.73	26.761
272.10	26.277
272.47	26.950
272.84	27.723
273.21	28.306
273.58	26.747
273.95	29.062
274.32	24.249
274.69	26.471
275.06	27.232
275.43	22.676
275.80	25.607
276.17	26.897
276.54	24.839
276.91	26.096
277.28	26.638
277.65	25.413
278.02	25.957
278.39	25.821
278.76	26.625
279.13	23.444
279.50	26.681
279.87	26.782
280.23	26.022
280.60	27.290
280.97	26.869
281.34	23.654
281.71	27.926
282.08	23.722
282.45	22.896
282.82	24.903
283.19	24.758
283.56	26.782
283.92	23.150
284.29	25.192
284.66	24.225
285.03	22.397
285.40	24.575
285.77	22.847
286.14	25.632
286.51	25.092
286.87	23.218
287.24	27.072
287.61	22.575
287.98	25.789
288.35	25.130
288.72	25.569
289.08	21.181
289.45	24.956
289.82	23.252
290.19	22.184
290.56	21.784
290.93	22.727
291.29	20.031
291.66	21.890
292.03	23.445
292.40	22.581
292.77	19.617
293.13	18.019
293.50	19.575
293.87	20.916
294.24	20.402
294.60	19.970
294.97	18.601
295.34	20.859
295.71	19.076
296.08	18.834
296.44	17.212
296.81	20.139
297.18	19.855
297.55	19.377
297.91	18.356
298.28	21.372
298.65	17.368
299.02	20.350
299.38	16.142
299.75	18.621
300.12	18.194
300.48	17.655
300.85	17.364
301.22	18.182
301.59	17.500
301.95	17.215
302.32	18.029
302.69	17.910
303.05	17.327
303.42	17.933
303.79	18.692
304.15	17.324
304.52	16.647
304.89	16.959
305.25	16.828
305.62	16.453
305.99	16.842
306.35	16.069
306.72	15.748
307.09	16.990
307.45	18.599
307.82	16.204
308.19	17.073
308.55	16.794
308.92	17.865
309.29	15.754
309.65	15.070
310.02	17.052
310.38	16.575
310.75	18.033
311.12	16.362
311.48	14.846
311.85	15.602
312.22	16.350
312.58	16.242
312.95	15.155
313.31	15.631
313.68	15.602
314.05	14.490
314.41	15.464
314.78	16.082
315.14	16.238
315.51	15.942
315.87	17.213
316.24	15.875
316.61	17.618
316.97	16.369
317.34	15.723
317.70	15.392
318.07	16.538
318.43	17.157
318.80	16.004
319.16	16.602
319.53	16.904
319.89	14.961
320.26	15.081
320.62	15.446
320.99	15.240
321.35	15.005
321.72	16.511
322.08	15.509
322.45	14.619
322.81	15.029
323.18	13.739
323.54	15.830
323.91	14.995
324.27	15.625
324.64	15.730
325.00	15.602
325.37	16.896
325.73	14.687
326.10	15.804
326.46	15.785
326.83	16.448
327.19	15.519
327.56	15.899
327.92	16.461
328.29	16.607
328.65	14.906
329.01	15.257
329.38	16.221
329.74	14.164
330.11	15.477
330.47	14.657
330.84	13.942
331.20	16.350
331.56	14.907
331.93	15.982
332.29	16.774
332.66	15.113
333.02	14.498
333.38	13.749
333.75	16.392
334.11	14.951
334.48	15.866
334.84	15.110
335.20	14.822
335.57	14.687
335.93	15.086
336.29	14.917
336.66	14.714
337.02	14.405
337.38	14.537
337.75	15.000
338.11	16.141
338.47	15.511
338.84	15.250
339.20	14.717
339.56	15.138
339.93	16.204
340.29	14.862
340.65	16.039
341.02	14.450
341.38	15.487
341.74	15.018
342.11	14.211
342.47	14.235
342.83	14.187
343.20	14.286
343.56	13.913
343.92	14.792
344.28	15.713
344.65	14.508
345.01	13.570
345.37	14.298
345.73	15.732
346.10	15.272
346.46	13.961
346.82	14.648
347.19	13.217
347.55	14.453
347.91	14.644
348.27	13.258
348.63	16.099
349.00	13.700
349.36	13.965
349.72	15.008
350.08	15.164
350.45	14.685
350.81	13.870
351.17	13.681
351.53	15.184
351.89	13.295
352.26	14.640
352.62	14.113
352.98	14.618
353.34	13.285
353.70	15.210
354.07	13.548
354.43	15.292
354.79	14.038
355.15	14.127
355.51	14.399
355.87	14.239
356.24	14.111
356.60	14.551
356.96	14.286
357.32	14.297
357.68	14.308
358.04	13.732
358.40	13.344
358.77	13.796
359.13	12.970
359.49	14.330
359.85	13.417
360.21	12.440
360.57	14.308
360.93	14.297
361.29	12.462
361.66	13.636
362.02	13.409
362.38	13.861
362.74	13.626
363.10	13.845
363.46	14.085
363.82	14.876
364.18	13.875
364.54	14.118
364.90	13.405
365.26	13.901
365.62	14.599
365.98	13.783
366.35	14.202
366.71	13.821
367.07	14.006
367.43	13.587
367.79	13.074
368.15	13.352
368.51	13.547
368.87	13.711
369.23	12.491
369.59	12.464
369.95	14.589
370.31	12.861
370.67	14.104
371.03	13.069
371.39	13.275
371.75	13.846
372.11	13.766
372.47	14.349
372.83	13.414
373.19	13.837
373.55	12.708
373.91	13.175
374.27	13.607
374.63	13.783
374.99	13.050
375.35	13.301
375.71	13.776
376.07	13.624
376.42	13.469
376.78	13.221
377.14	13.609
377.50	13.015
377.86	13.387
378.22	13.593
378.58	13.462
378.94	13.043
379.30	12.913
379.66	14.295
380.02	12.508
380.38	12.842
380.74	12.687
381.09	14.540
381.45	12.599
381.81	12.955
382.17	13.008
382.53	13.929
382.89	13.434
383.25	13.317
383.61	14.268
383.97	12.952
384.32	14.447
384.68	12.879
385.04	13.235
385.40	12.757
385.76	13.585
386.12	14.295
386.48	13.410
386.83	13.063
387.19	14.042
387.55	14.555
387.91	14.059
388.27	13.431
388.62	13.593
388.98	12.769
389.34	13.741
389.70	13.487
390.06	12.649
390.42	13.925
390.77	13.146
391.13	13.304
391.49	12.872
391.85	12.995
392.20	13.183
392.56	13.732
392.92	14.386
393.28	13.149
393.64	13.754
393.99	13.730
394.35	13.030
394.71	14.049
395.07	13.891
395.42	13.783
395.78	13.290
396.14	14.124
396.50	13.507
396.85	13.329
397.21	13.596
397.57	13.730
397.92	14.140
398.28	14.310
398.64	13.675
399.00	14.052
399.35	13.488
399.71	13.268
400.07	13.966
400.42	14.076
400.78	14.391
401.14	13.733
401.49	14.175
401.85	13.772
402.21	13.494
402.57	14.438
402.92	14.115
403.28	13.722
403.63	13.871
403.99	14.222
404.35	13.741
404.70	14.524
405.06	14.042
405.42	14.295
405.77	13.306
406.13	13.388
406.49	12.907
406.84	14.914
407.20	14.088
407.55	13.587
407.91	13.971
408.27	14.085
408.62	13.908
408.98	13.863
409.34	14.498
409.69	14.599
410.05	13.239
410.40	13.642
410.76	14.656
411.11	13.250
411.47	13.609
411.83	13.810
412.18	13.771
412.54	14.544
412.89	13.916
413.25	14.380
413.60	14.410
413.96	14.172
414.31	14.329
414.67	14.432
415.03	13.715
415.38	14.230
415.74	14.202
416.09	15.807
416.45	14.855
416.80	14.210
417.16	13.743
417.51	14.524
417.87	14.276
418.22	14.443
418.58	13.579
418.93	14.922
419.29	13.380
419.64	13.934
420.00	15.428
420.35	14.209
420.71	15.310
421.06	14.672
421.42	14.123
421.77	14.682
422.12	14.472
422.48	15.051
422.83	14.269
423.19	14.616
423.54	13.874
423.90	14.664
424.25	14.064
424.61	14.137
424.96	14.634
425.31	15.020
425.67	14.613
426.02	14.488
426.38	14.527
426.73	15.436
427.09	15.380
427.44	15.471
427.79	14.260
428.15	15.777
428.50	15.082
428.85	14.373
429.21	14.205
429.56	14.879
429.92	15.357
430.27	15.439
430.62	14.219
430.98	14.862
431.33	15.352
431.68	14.181
432.04	14.477
432.39	15.117
432.74	14.372
433.10	16.437
433.45	15.114
433.80	15.032
434.16	14.737
434.51	15.323
434.86	15.331
435.22	15.480
435.57	15.533
435.92	15.988
436.28	15.146
436.63	15.402
436.98	14.948
437.34	14.580
437.69	15.683
438.04	15.613
438.39	15.455
438.75	15.543
439.10	15.337
439.45	15.033
439.81	15.657
440.16	15.796
440.51	16.000
440.86	16.495
441.22	14.989
441.57	15.342
441.92	16.002
442.27	15.798
442.63	16.221
442.98	15.738
443.33	16.082
443.68	15.066
444.03	16.294
444.39	15.789
444.74	16.555
445.09	15.535
445.44	16.296
445.79	15.936
446.15	16.355
446.50	15.308
446.85	16.047
447.20	15.954
447.55	16.629
447.91	16.074
448.26	16.619
448.61	16.235
448.96	16.236
449.31	16.358
449.66	15.796
450.02	16.030
450.37	15.945
450.72	16.208
451.07	16.709
451.42	15.855
451.77	16.516
452.12	16.029
452.47	16.613
452.83	16.196
453.18	16.635
453.53	16.814
453.88	16.333
454.23	16.656
454.58	16.814
454.93	16.688
455.28	15.810
455.63	17.545
455.98	16.897
456.34	16.794
456.69	16.645
457.04	16.824
457.39	17.011
457.74	16.203
458.09	15.421
458.44	15.799
458.79	16.695
459.14	17.449
459.49	17.254
459.84	17.484
460.19	16.869
460.54	17.054
460.89	16.818
461.24	16.398
461.59	16.805
461.94	15.723
462.29	17.491
462.64	17.276
462.99	17.129
463.34	17.038
463.69	16.281
464.04	18.039
464.39	17.162
464.74	17.546
465.09	17.342
465.44	17.311
465.79	17.120
466.14	16.933
466.49	17.021
466.84	18.084
467.19	17.146
467.54	16.539
467.89	15.919
468.24	16.727
468.59	17.524
468.94	17.778
469.29	18.492
469.64	17.293
469.99	18.010
470.34	17.065
470.68	17.823
471.03	18.259
471.38	17.689
471.73	18.557
472.08	17.843
472.43	17.718
472.78	16.724
473.13	17.551
473.48	17.850
473.83	17.248
474.17	18.135
474.52	16.465
474.87	17.394
475.22	17.206
475.57	17.335
475.92	17.828
476.27	18.626
476.61	17.766
476.96	17.345
477.31	17.415
477.66	17.472
478.01	17.687
478.36	18.355
478.70	17.836
479.05	18.681
479.40	17.965
479.75	17.675
480.10	17.716
480.45	17.550
480.79	18.933
481.14	18.391
481.49	17.192
481.84	17.423
482.19	17.072
482.53	17.746
482.88	17.518
483.23	17.754
483.58	17.406
483.92	17.425
484.27	17.046
484.62	17.615
484.97	16.998
485.31	17.233
485.66	16.711
486.01	17.187
486.36	16.391
486.70	16.108
487.05	16.038
487.40	16.675
487.75	16.394
488.09	16.007
488.44	16.678
488.79	16.436
489.13	17.107
489.48	17.358
489.83	17.489
490.17	17.753
490.52	17.598
490.87	17.770
491.22	17.622
491.56	17.647
491.91	17.447
492.26	18.133
492.60	17.994
492.95	18.987
493.30	18.026
493.64	18.320
493.99	18.309
494.34	17.573
494.68	18.143
495.03	17.421
495.37	17.419
495.72	18.526
496.07	17.951
496.41	17.925
496.76	18.056
497.11	17.979
497.45	18.616
497.80	18.718
498.14	17.884
498.49	17.725
498.84	17.615
499.18	18.273
499.53	18.651
499.87	17.996
500.22	18.002
500.56	18.558
500.91	17.821
501.26	18.141
501.60	17.757
501.95	17.952
502.29	18.111
502.64	18.871
502.98	17.612
503.33	16.907
503.67	17.928
504.02	17.889
504.36	18.258
504.71	17.374
505.06	17.866
505.40	18.325
505.75	18.196
506.09	18.449
506.44	18.121
506.78	18.622
507.13	18.046
507.47	18.016
507.82	18.216
508.16	18.489
508.51	18.206
508.85	18.472
509.19	18.042
509.54	18.606
509.88	18.662
510.23	18.720
510.57	18.760
510.92	17.804
511.26	19.149
511.61	19.142
511.95	18.521
512.30	19.013
512.64	18.587
512.98	18.754
513.33	18.747
513.67	18.363
514.02	19.680
514.36	19.600
514.70	18.765
515.05	19.624
515.39	19.126
515.74	19.820
516.08	19.546
516.42	19.847
516.77	20.070
517.11	19.703
517.46	19.330
517.80	19.070
518.14	18.922
518.49	19.111
518.83	20.049
519.17	18.921
519.52	19.242
519.86	18.788
520.20	19.016
520.55	19.387
520.89	19.887
521.23	19.379
521.58	20.568
521.92	19.359
522.26	18.998
522.61	20.325
522.95	20.530
523.29	19.568
523.64	19.504
523.98	20.350
524.32	18.686
524.66	19.398
525.01	19.610
525.35	19.767
525.69	18.788
526.04	19.907
526.38	20.882
526.72	19.228
527.06	19.974
527.41	20.712
527.75	19.370
528.09	20.000
528.43	20.594
528.78	20.066
529.12	20.839
529.46	18.973
529.80	19.823
530.15	20.198
530.49	19.798
530.83	19.631
531.17	19.409
531.51	20.930
531.86	20.258
532.20	18.998
532.54	19.401
532.88	20.602
533.22	20.094
533.57	20.052
533.91	19.386
534.25	20.313
534.59	19.564
534.93	19.194
535.27	19.416
535.62	19.702
535.96	20.287
536.30	20.053
536.64	20.400
536.98	19.443
537.32	20.555
537.66	21.178
538.01	20.000
538.35	19.279
538.69	20.173
539.03	19.481
539.37	20.727
539.71	19.973
540.05	20.299
540.39	20.014
540.73	20.502
541.07	20.718
541.42	20.497
541.76	19.959
542.10	19.890
542.44	20.431
542.78	18.376
543.12	19.505
543.46	20.236
543.80	20.264
544.14	19.559
544.48	20.120
544.82	19.344
545.16	20.560
545.50	20.761
545.84	19.972
546.18	20.213
546.52	20.187
546.86	19.267
547.20	20.386
547.54	19.152
547.88	20.041
548.22	19.132
548.56	19.459
548.90	19.677
549.24	19.766
549.58	19.535
549.92	19.157
550.26	20.220
550.60	20.818
550.94	20.762
551.28	19.320
551.62	19.769
551.96	19.098
552.30	19.444
552.64	20.240
552.98	20.323
553.32	20.043
553.66	19.303
554.00	19.197
554.34	20.827
554.68	20.354
555.02	20.089
555.36	20.419
555.69	19.707
556.03	20.057
556.37	19.146
556.71	19.567
557.05	19.612
557.39	19.331
557.73	20.240
558.07	21.192
558.41	20.061
558.75	19.797
559.08	20.410
559.42	19.524
559.76	20.817
560.10	21.177
560.44	19.732
560.78	20.909
561.12	19.817
561.45	21.082
561.79	19.468
562.13	20.795
562.47	20.144
562.81	19.813
563.15	20.451
563.48	19.590
563.82	21.208
564.16	20.195
564.50	19.662
564.84	20.013
565.17	19.920
565.51	20.082
565.85	20.302
566.19	20.093
566.52	20.509
566.86	20.437
567.20	18.431
567.54	20.073
567.88	19.098
568.21	19.740
568.55	19.076
568.89	19.199
569.23	18.536
569.56	17.426
569.90	18.473
570.24	17.789
570.57	18.327
570.91	18.404
571.25	17.198
571.59	17.689
571.92	16.889
572.26	16.787
572.60	17.147
572.93	17.132
573.27	16.928
573.61	17.452
573.95	17.586
574.28	16.790
574.62	16.730
574.96	17.003
575.29	16.860
575.63	16.066
575.97	16.129
576.30	16.756
576.64	17.060
576.98	17.297
577.31	16.687
577.65	16.950
577.98	16.991
578.32	16.434
578.66	16.248
578.99	16.963
579.33	16.188
579.67	16.376
580.00	16.557
580.34	16.343
580.67	16.147
581.01	16.835
581.35	16.365
581.68	16.512
582.02	16.278
582.35	16.435
582.69	16.459
583.02	16.279
583.36	16.489
583.70	15.888
584.03	16.708
584.37	16.629
584.70	16.703
585.04	16.451
585.37	16.830
585.71	16.564
586.04	16.591
586.38	16.164
586.72	17.073
587.05	17.187
587.39	17.109
587.72	17.332
588.06	17.299
588.39	16.690
588.73	16.972
589.06	16.993
589.40	17.732
589.73	18.036
590.07	17.863
590.40	17.454
590.73	17.875
591.07	17.981
591.40	17.231
591.74	18.507
592.07	18.878
592.41	18.286
592.74	18.678
593.08	17.115
593.41	17.759
593.75	17.632
594.08	17.130
594.41	17.285
594.75	17.023
595.08	17.745
595.42	17.372
595.75	18.025
596.09	17.670
596.42	18.189
596.75	18.073
597.09	17.904
597.42	18.654
597.75	17.636
598.09	18.244
598.42	17.644
598.76	18.275
599.09	18.349
599.42	17.431
599.76	17.419
600.09	17.685
600.42	18.234
600.76	17.199
601.09	17.252
601.42	16.647
601.76	18.420
602.09	17.368
602.42	17.902
602.76	17.572
603.09	18.272
603.42	18.729
603.76	17.621
604.09	17.537
604.42	18.316
604.76	17.980
605.09	18.373
605.42	18.014
605.75	17.119
606.09	17.877
606.42	17.932
606.75	17.922
607.09	17.978
607.42	17.457
607.75	17.984
608.08	17.341
608.42	17.953
608.75	18.217
609.08	19.233
609.41	18.274
609.75	18.498
610.08	18.872
610.41	17.681
610.74	18.625
611.07	18.295
611.41	18.267
611.74	18.870
612.07	17.987
612.40	18.490
612.73	18.136
613.07	18.616
613.40	18.873
613.73	18.075
614.06	19.421
614.39	18.274
614.72	17.927
615.06	18.827
615.39	18.832
615.72	18.084
616.05	18.436
616.38	18.575
616.71	18.349
617.05	18.777
617.38	19.107
617.71	19.308
618.04	19.302
618.37	20.050
618.70	19.472
619.03	20.903
619.36	18.886
619.69	20.243
620.03	20.672
620.36	19.957
620.69	19.486
621.02	19.725
621.35	20.332
621.68	20.493
622.01	20.417
622.34	19.633
622.67	19.637
623.00	20.750
623.33	20.046
623.66	19.970
623.99	20.575
624.32	19.316
624.65	20.602
624.99	20.241
625.32	19.333
625.65	20.346
625.98	20.870
626.31	18.953
626.64	20.191
626.97	21.204
627.30	20.140
627.63	20.364
627.96	21.473
628.29	19.796
628.62	21.534
628.95	21.242
629.28	20.464
629.61	21.137
629.94	22.190
630.26	21.146
630.59	22.373
630.92	21.538
631.25	20.513
631.58	23.128
631.91	21.820
632.24	20.872
632.57	21.932
632.90	22.064
633.23	22.706
633.56	22.670
633.89	22.195
634.22	23.827
634.55	23.634
634.88	21.201
635.20	21.923
635.53	24.000
635.86	21.977
636.19	23.157
636.52	21.811
636.85	21.588
637.18	21.887
637.51	22.390
637.83	22.996
638.16	23.602
638.49	22.071
638.82	23.816
639.15	23.066
639.48	25.034
639.81	23.710
640.13	21.789
640.46	23.615
640.79	21.944
641.12	23.486
641.45	24.024
641.77	22.963
642.10	25.276
642.43	23.151
642.76	25.578
643.09	23.102
643.41	22.492
643.74	23.558
644.07	24.302
644.40	25.000
644.73	22.767
645.05	25.336
645.38	24.868
645.71	21.454
646.04	25.673
646.36	22.518
646.69	25.360
647.02	25.331
647.35	23.881
647.67	25.960
648.00	24.627
648.33	23.549
648.66	24.576
648.98	23.116
649.31	21.157
649.64	21.193
649.96	22.204
650.29	22.658
650.62	25.128
650.94	25.741
651.27	24.022
651.60	23.784
651.92	23.951
652.25	22.735
652.58	23.833
652.90	24.871
653.23	23.529
653.56	22.673
653.88	25.773
654.21	22.417
654.54	24.109
654.86	24.278
655.19	21.784
655.52	20.356
655.84	17.182
656.17	19.254
656.49	25.196
656.82	25.647
657.15	18.710
657.47	13.508
657.80	10.106
658.13	9.875
658.45	14.900
658.78	14.027
659.10	14.254
659.43	14.394
659.75	15.491
660.08	17.241
660.41	18.693
660.73	20.580
661.06	25.303
661.38	24.070
661.71	23.614
662.03	24.249
662.36	25.495
662.68	23.894
663.01	28.166
663.33	25.986
663.66	24.651
663.98	25.349
664.31	27.292
664.63	22.581
664.96	23.913
665.28	23.620
665.61	23.593
665.93	25.217
666.26	26.898
666.58	23.490
666.91	25.176
667.23	29.481
667.56	25.118
667.88	23.022
668.21	25.298
668.53	26.005
668.86	26.179
669.18	24.057
669.50	24.455
669.83	24.884
670.15	24.709
670.48	22.249
670.80	26.728
671.13	24.385
671.45	23.744
671.77	26.609
672.10	25.149
672.42	23.221
672.75	22.558
673.07	24.687
673.39	24.587
673.72	23.274
674.04	21.458
674.37	24.788
674.69	20.771
675.01	24.222
675.34	25.000
675.66	24.074
675.98	24.612
676.31	27.523
676.63	24.941
676.95	23.409
677.28	27.059
677.60	25.060
677.92	24.312
678.25	25.164
678.57	25.325
678.89	23.739
679.22	22.371
679.54	21.486
679.86	22.664
680.18	25.825
680.51	25.000
680.83	22.863
681.15	24.400
681.48	24.590
681.80	27.066
682.12	22.177
682.44	21.130
682.77	24.503
683.09	23.112
683.41	23.409
683.73	23.963
684.06	23.451
684.38	21.720
684.70	24.619
685.02	20.747
685.34	23.913
685.67	22.702
685.99	22.061
686.31	22.301
686.63	23.748
686.96	23.384
687.28	20.000
687.60	21.483
687.92	25.051
688.24	22.782
688.56	22.926
688.89	25.000
689.21	25.333
689.53	21.810
689.85	23.023
690.17	21.205
690.49	22.931
690.82	23.544
691.14	21.905
691.46	22.196
691.78	22.973
692.10	24.516
692.42	21.861
692.74	23.291
693.06	23.423
693.39	18.326
693.71	21.719
694.03	23.557
694.35	23.131
694.67	23.737
694.99	23.499
695.31	23.760
695.63	24.000
695.95	22.475
696.27	25.389
696.59	25.000
696.91	26.611
697.23	25.964
697.56	23.020
697.88	24.731
698.20	23.918
698.52	24.471
698.84	22.488
699.16	23.500
699.48	22.556
699.80	22.333
700.12	25.876
700.44	23.810
700.76	25.000
701.08	29.091
701.40	24.398
701.72	24.074
702.04	26.073
702.36	26.756
702.68	25.826
703.00	25.758
703.32	25.806
703.64	23.164
703.96	25.507
704.28	21.779
704.60	26.984
704.91	22.713
705.23	25.581
705.55	28.622
705.87	25.993
706.19	28.519
706.51	26.460
706.83	26.688
707.15	24.299
707.47	24.930
707.79	21.094
708.11	24.750
708.43	22.000
708.74	25.323
709.06	26.761
709.38	23.547
709.70	25.148
710.02	26.433
710.34	23.839
710.66	22.756
710.98	23.510
711.29	24.590
711.61	25.763
711.93	24.756
712.25	26.460
712.57	24.542
712.89	22.388
713.20	29.412
713.52	26.481
713.84	24.915
714.16	23.711
714.48	23.871
714.80	22.115
715.11	24.316
715.43	19.749
715.75	23.333
716.07	23.920
716.39	24.497
716.70	26.199
717.02	25.573
717.34	24.696
717.66	23.894
717.97	26.957
718.29	24.686
718.61	24.016
718.93	26.744
719.24	26.616
719.56	26.104
719.88	28.179
720.20	21.970
720.51	24.904
720.83	23.938
721.15	27.731
721.46	26.210
721.78	24.111
722.10	24.535
722.42	21.162
722.73	26.939
723.05	28.980
723.37	33.475
723.68	30.180
724.00	26.068
724.32	26.222
724.63	26.818
724.95	32.314
725.27	31.336
725.58	32.627
725.90	23.810
726.22	28.958
726.53	29.831
726.85	30.712
727.16	27.170
727.48	20.243
727.80	25.911
728.11	25.000
728.43	26.275
728.74	20.565
729.06	24.800
729.38	30.075
729.69	22.709
730.01	23.077
730.32	28.731
730.64	26.148
730.96	24.151
731.27	26.000
731.59	21.695
731.90	17.834
732.22	27.445
732.53	27.907
732.85	29.078
733.16	27.946
733.48	17.986
733.80	23.913
734.11	21.356
734.43	20.619
734.74	23.939
735.06	23.453
735.37	24.169
735.69	23.906
736.00	23.345
736.32	20.805
736.63	27.113
736.95	26.621
737.26	24.555
737.58	21.141
737.89	20.513
738.21	26.692
738.52	28.807
738.83	24.017
739.15	27.074
739.46	25.197
739.78	20.147
740.09	22.876
740.41	23.188
740.72	20.472
741.04	26.316
741.35	20.851
741.66	26.066
741.98	26.531
742.29	28.218
742.61	29.843
742.92	23.697
743.23	20.370
743.55	27.149
743.86	24.880
744.18	28.708
744.49	24.468
744.80	23.913
745.12	35.294
745.43	20.976
745.74	30.208
746.06	24.390
746.37	31.414
746.68	22.749
747.00	27.128
747.31	22.388
747.62	18.932
747.94	24.880
748.25	23.762
748.56	28.962
748.88	23.560
749.19	28.191
749.50	26.108
749.82	23.113
750.13	25.229
750.44	28.195
750.75	25.746
751.07	26.277
751.38	23.755
751.69	24.314
752.01	26.744
752.32	23.506
752.63	22.134
752.94	21.552
753.26	30.544
753.57	35.294
753.88	23.009
754.19	25.000
754.51	25.207
754.82	21.862
755.13	26.667
755.44	25.403
755.75	26.172
756.07	25.681
756.38	20.000
756.69	20.690
757.00	24.667
757.31	20.261
757.63	21.951
757.94	20.278
758.25	21.644
758.56	20.745
758.87	15.581
759.18	21.495
759.50	22.545
759.81	22.074
760.12	27.419
760.43	20.909
760.74	22.222
761.05	18.769
761.36	22.727
761.67	25.152
761.99	25.850
762.30	20.000
762.61	28.063
762.92	25.792
763.23	26.126
763.54	19.626
763.85	23.729
764.16	27.801
764.47	23.387
764.78	20.879
765.10	24.579
765.41	25.237
765.72	22.222
766.03	17.669
766.34	24.818
766.65	30.279
766.96	26.768
767.27	31.915
767.58	28.161
767.89	26.241
768.20	19.886
768.51	24.725
768.82	26.601
769.13	23.963
769.44	21.888
769.75	26.484
770.06	24.138
770.37	23.077
770.68	19.289
770.99	22.172
771.30	25.000
771.61	21.719
771.92	22.845
772.23	28.079
772.54	25.269
772.85	24.691
773.16	26.966
773.47	26.144
773.78	28.105
774.09	22.156
774.39	24.667
774.70	24.204
775.01	35.862
775.32	29.286
775.63	30.579
775.94	35.878
776.25	33.858
776.56	26.667
776.87	35.577
777.18	20.513
777.48	30.172
777.79	26.087
778.10	33.333
778.41	27.928
778.72	35.714
779.03	24.060
779.34	26.950
779.65	26.712
779.95	21.918
780.26	22.069
780.57	17.886
780.88	24.409
781.19	31.034
781.50	25.581
781.80	24.260
782.11	26.415
782.42	26.154
782.73	19.424
783.04	26.667
783.34	27.083
783.65	23.932
783.96	17.213
784.27	24.828
784.57	20.325
784.88	26.563
785.19	29.000
785.50	36.000
785.81	26.724
786.11	18.103
786.42	22.330
786.73	39.091
787.04	19.388
787.34	21.429
787.65	20.952
787.96	30.088
788.26	21.818
788.57	14.530
788.88	36.719
789.19	19.048
789.49	25.217
789.80	26.531
790.11	38.384
790.41	17.273
790.72	20.652
791.03	29.545
791.33	33.750
791.64	28.750
791.95	31.395
792.25	36.170
792.56	33.708
792.87	39.726
793.17	31.884
793.48	10.667
793.79	22.500
794.09	31.250
794.40	22.642
794.70	24.272
795.01	13.821
795.32	18.803
795.62	30.476
795.93	26.471
796.23	33.962
796.54	27.083
796.85	47.059
797.15	25.352
797.46	45.833
797.76	37.879
798.07	31.395
798.37	11.842
798.68	22.727
798.99	33.333
799.29	32.857
799.60	24.638
799.90	22.667
800.21	50.820
800.51	32.308
800.82	33.898
801.12	36.232
801.43	32.787
801.73	46.032
802.04	34.000
802.34	29.851
802.65	32.692
802.95	19.643
803.26	30.769
803.56	37.255
803.87	6.522
804.17	36.000
804.48	36.508
804.78	16.667
805.09	54.348
805.39	40.000
805.70	24.074
806.00	24.561
806.30	42.254
806.61	37.143
806.91	16.667
807.22	34.211
807.52	30.667
807.83	21.818
808.13	43.056
808.43	44.118
808.74	17.910
809.04	38.983
809.35	34.615
809.65	26.563
809.95	10.811
810.26	13.636
810.56	34.247
810.86	35.714
811.17	28.000
811.47	44.898
811.77	15.789
812.08	25.000
812.38	24.528
812.69	25.000
812.99	36.364
813.29	44.737
813.59	14.286
813.90	18.182
814.20	17.949
814.50	32.692
814.81	22.642
815.11	21.277
815.41	45.763
815.72	28.571
816.02	21.569
816.32	25.000
816.62	48.780
816.93	40.541
817.23	37.143
817.53	41.667
817.84	43.478
818.14	30.769
818.44	18.421
818.74	63.043
819.04	0.000
819.35	40.541
819.65	50.000
819.95	13.889
820.25	50.000
820.56	50.000
820.86	-3.448
821.16	27.500
821.46	46.809
821.76	42.500
822.07	25.581
822.37	24.324
822.67	34.375
822.97	14.286
823.27	14.286
823.57	36.000
823.88	33.333
824.18	39.286
824.48	11.765
824.78	64.516
825.08	30.435
825.38	45.455
825.69	12.500
825.99	55.263
826.29	27.778
826.59	40.000
826.89	19.048
827.19	39.130
827.49	35.000
827.79	37.143
828.09	53.571
828.39	27.273
828.70	59.459
829.00	35.714
829.30	0.000
829.60	16.667
829.90	68.750
830.20	44.737
830.50	29.630
830.80	30.435
831.10	63.636
831.40	30.303
831.70	41.935
832.00	42.857
832.30	14.286
832.60	8.333
832.90	34.483
833.20	100.000
833.50	39.394
833.80	37.037
834.10	19.231
834.40	59.375
834.70	122.222
835.00	94.737
835.30	73.077
835.60	46.667
835.90	22.581
836.20	9.091
836.50	25.000
836.80	-11.538
837.10	28.571
837.40	100.000
837.70	31.818
838.00	81.818
838.30	26.087
838.60	61.538
838.90	81.818
839.19	50.000
839.49	46.667
839.79	7.692
840.09	25.000
840.39	92.857
840.69	17.857
840.99	50.000
841.29	-26.316
841.59	-10.000
841.88	18.182
842.18	40.000
842.48	56.250
842.78	113.333
843.08	14.815
843.38	-100.000
843.68	39.130
843.97	46.667
844.27	6.667
844.57	50.000
844.87	27.778
845.17	-9.524
845.47	160.000
845.76	9.524
846.06	88.235
846.36	70.000
846.66	28.571
846.96	53.333
847.25	-12.500
847.55	78.571
847.85	112.500
848.15	-4.545
848.44	-266.667
848.74	10.000
849.04	44.444
849.34	36.364
849.63	200.000
849.93	40.000
850.23	16.667
850.53	180.000
850.82	-53.846
851.12	133.333
851.42	66.667
851.71	38.462
852.01	57.143
852.31	225.000
852.61	36.364
852.90	35.000
853.20	63.158
853.50	58.333
853.79	21.739
854.09	54.167
854.39	42.105
854.68	12.500
854.98	45.161
855.28	42.308
855.57	45.000
855.87	50.000
856.17	33.333
856.46	85.714
856.76	-46.667
857.05	155.556
857.35	16.000
857.65	44.444
857.94	84.615
858.24	62.069
858.53	0.000
858.83	25.926
859.13	63.636
859.42	8.696
859.72	-50.000
860.01	-133.333
860.31	92.000
860.60	23.810
860.90	100.000
861.20	-13.333
861.49	200.000
861.79	0.000
862.08	40.000
862.38	80.000
862.67	140.000
862.97	50.000
863.26	75.000
863.56	33.333
863.85	-100.000
864.15	77.778
864.44	60.000
864.74	21.429
865.03	225.000
865.33	60.000
865.62	183.333
865.92	58.333
866.21	-50.000
866.51	93.750
866.80	18.182
867.10	-50.000
867.39	25.000
867.69	0.000
867.98	76.923
868.27	233.333
868.57	33.333
868.86	33.333
869.16	23.077
869.45	120.000
869.75	400.000
870.04	0.000
870.33	-100.000
870.63	9.524
870.92	-200.000
871.22	0.000
871.51	-400.000
871.80	155.556
872.10	33.333
>>>>>End Processed Spectral Data<<<<<
