SpectraSuite Data File
++++++++++++++++++++++++++++++++++++
Date: Fri May 15 17:29:42 PDT 2015
User: schluterlab
Dark Spectrum Present: Yes
Reference Spectrum Present: Yes
Number of Sampled Component Spectra: 1
Spectrometers: USB2E3373
Integration Time (usec): 3000 (USB2E3373)
Spectra Averaged: 3 (USB2E3373)
Boxcar Smoothing: 0 (USB2E3373)
Correct for Electrical Dark: No (USB2E3373)
Strobe/Lamp Enabled: No (USB2E3373)
Correct for Detector Non-linearity: No (USB2E3373)
Correct for Stray Light: No (USB2E3373)
Number of Pixels in Processed Spectrum: 2048
>>>>>Begin Processed Spectral Data<<<<<
178.53	0.000
178.91	0.000
179.29	137.500
179.67	-150.000
180.04	-28.571
180.42	150.000
180.80	-1100.000
181.18	-133.333
181.56	600.000
181.94	100.000
182.31	1100.000
182.69	100.000
183.07	-33.333
183.45	-60.000
183.83	33.333
184.20	9.091
184.58	77.778
184.96	-0.000
185.34	166.667
185.72	-200.000
186.09	53.846
186.47	-600.000
186.85	133.333
187.23	33.333
187.61	100.000
187.98	-400.000
188.36	-33.333
188.74	100.000
189.12	70.588
189.49	55.556
189.87	0.000
190.25	100.000
190.63	-200.000
191.00	-100.000
191.38	21.053
191.76	500.000
192.14	50.000
192.51	-150.000
192.89	0.000
193.27	-42.857
193.65	133.333
194.02	109.091
194.40	-50.000
194.78	-62.500
195.15	33.333
195.53	-25.000
195.91	125.000
196.29	-200.000
196.66	107.692
197.04	200.000
197.42	-33.333
197.79	-466.667
198.17	-53.846
198.55	1300.000
198.92	-200.000
199.30	-500.000
199.68	-100.000
200.05	-433.333
200.43	0.000
200.81	-100.000
201.18	-33.333
201.56	-0.000
201.94	-300.000
202.31	-166.667
202.69	0.000
203.07	-0.000
203.44	200.000
203.82	0.000
204.19	57.143
204.57	-133.333
204.95	-50.000
205.32	50.000
205.70	28.571
206.08	-150.000
206.45	155.556
206.83	142.857
207.20	0.000
207.58	600.000
207.96	-300.000
208.33	-60.000
208.71	-175.000
209.08	-200.000
209.46	-300.000
209.84	20.000
210.21	-300.000
210.59	85.714
210.96	66.667
211.34	25.000
211.71	113.333
212.09	-100.000
212.46	-900.000
212.84	0.000
213.22	190.000
213.59	900.000
213.97	46.154
214.34	63.636
214.72	0.000
215.09	200.000
215.47	-7.692
215.84	27.273
216.22	200.000
216.59	37.500
216.97	500.000
217.34	125.000
217.72	-80.000
218.09	37.500
218.47	162.500
218.84	100.000
219.22	22.222
219.59	-80.000
219.97	233.333
220.34	100.000
220.72	0.000
221.09	-100.000
221.47	250.000
221.84	-100.000
222.22	-500.000
222.59	54.545
222.97	75.000
223.34	-133.333
223.72	50.000
224.09	57.143
224.46	-3.571
224.84	233.333
225.21	40.000
225.59	40.000
225.96	100.000
226.34	125.000
226.71	-28.571
227.08	116.667
227.46	-25.000
227.83	-200.000
228.21	22.222
228.58	127.273
228.95	37.500
229.33	40.000
229.70	-6.250
230.08	-100.000
230.45	-85.714
230.82	100.000
231.20	40.000
231.57	92.857
231.95	71.429
232.32	-80.000
232.69	35.714
233.07	233.333
233.44	20.000
233.81	0.000
234.19	-33.333
234.56	-11.765
234.93	250.000
235.31	25.000
235.68	-100.000
236.05	7.692
236.43	-35.000
236.80	23.529
237.17	34.375
237.55	-5.000
237.92	25.926
238.29	11.111
238.67	16.667
239.04	17.647
239.41	-4.878
239.79	-26.667
240.16	24.390
240.53	13.158
240.91	2.174
241.28	11.111
241.65	28.571
242.02	42.466
242.40	23.333
242.77	15.254
243.14	30.303
243.51	13.750
243.89	19.540
244.26	13.793
244.63	28.571
245.00	31.959
245.38	15.464
245.75	13.483
246.12	22.414
246.49	14.876
246.87	23.077
247.24	19.328
247.61	17.544
247.98	24.390
248.36	15.000
248.73	13.158
249.10	21.429
249.47	20.886
249.84	17.647
250.22	17.647
250.59	22.876
250.96	20.657
251.33	9.884
251.70	22.353
252.08	16.751
252.45	19.307
252.82	24.121
253.19	19.816
253.56	16.355
253.94	23.874
254.31	22.174
254.68	25.877
255.05	15.354
255.42	20.087
255.79	20.849
256.16	17.510
256.54	17.537
256.91	17.110
257.28	18.587
257.65	15.730
258.02	20.922
258.39	21.886
258.76	21.612
259.14	21.262
259.51	20.065
259.88	18.213
260.25	17.974
260.62	20.486
260.99	17.966
261.36	17.808
261.73	17.405
262.10	23.100
262.47	16.258
262.85	20.063
263.22	18.769
263.59	22.741
263.96	22.981
264.33	16.970
264.70	18.452
265.07	22.321
265.44	24.929
265.81	20.339
266.18	19.126
266.55	21.851
266.92	20.984
267.29	21.671
267.66	19.182
268.03	20.942
268.40	19.321
268.77	20.856
269.14	17.506
269.51	21.594
269.88	16.209
270.25	17.092
270.62	16.341
270.99	16.880
271.36	21.027
271.73	19.014
272.10	16.788
272.47	19.149
272.84	18.564
273.21	19.954
273.58	17.590
273.95	18.993
274.32	16.397
274.69	16.968
275.06	20.089
275.43	15.873
275.80	19.426
276.17	18.161
276.54	18.844
276.91	22.368
277.28	16.812
277.65	18.388
278.02	18.085
278.39	19.037
278.76	16.981
279.13	15.145
279.50	20.378
279.87	17.711
280.23	14.624
280.60	18.908
280.97	21.010
281.34	16.346
281.71	18.480
282.08	16.973
282.45	17.025
282.82	18.533
283.19	16.828
283.56	17.919
283.92	15.370
284.29	17.885
284.66	16.667
285.03	17.878
285.40	17.391
285.77	13.884
286.14	16.426
286.51	15.867
286.87	15.905
287.24	17.864
287.61	17.108
287.98	17.018
288.35	14.385
288.72	16.112
289.08	16.840
289.45	18.453
289.82	18.182
290.19	16.894
290.56	14.408
290.93	16.667
291.29	13.867
291.66	16.378
292.03	15.630
292.40	15.806
292.77	13.238
293.13	13.961
293.50	13.202
293.87	14.504
294.24	15.611
294.60	14.158
294.97	13.095
295.34	15.031
295.71	13.115
296.08	13.453
296.44	11.807
296.81	13.889
297.18	13.623
297.55	15.176
297.91	14.795
298.28	14.512
298.65	13.026
299.02	12.534
299.38	11.218
299.75	12.414
300.12	12.173
300.48	12.780
300.85	12.674
301.22	12.727
301.59	13.421
301.95	12.911
302.32	11.933
302.69	12.438
303.05	13.738
303.42	12.951
303.79	12.500
304.15	12.903
304.52	10.464
304.89	11.462
305.25	11.864
305.62	10.385
305.99	11.930
306.35	11.098
306.72	10.461
307.09	11.745
307.45	11.137
307.82	10.532
308.19	12.427
308.55	11.123
308.92	12.527
309.29	10.056
309.65	10.118
310.02	11.221
310.38	11.855
310.75	11.803
311.12	10.980
311.48	11.453
311.85	11.728
312.22	9.494
312.58	10.934
312.95	10.459
313.31	11.180
313.68	11.309
314.05	10.714
314.41	12.268
314.78	11.031
315.14	11.408
315.51	12.526
315.87	10.348
316.24	11.931
316.61	10.236
316.97	11.905
317.34	11.230
317.70	11.950
318.07	10.192
318.43	10.588
318.80	9.943
319.16	12.012
319.53	12.915
319.89	11.713
320.26	12.045
320.62	12.437
320.99	10.125
321.35	12.230
321.72	13.396
322.08	13.192
322.45	13.096
322.81	13.065
323.18	13.445
323.54	13.224
323.91	13.048
324.27	14.062
324.64	14.607
325.00	14.051
325.37	16.162
325.73	14.143
326.10	16.167
326.46	16.951
326.83	15.923
327.19	16.216
327.56	17.116
327.92	18.838
328.29	18.571
328.65	18.868
329.01	19.026
329.38	18.986
329.74	20.585
330.11	20.667
330.47	20.594
330.84	21.058
331.20	24.240
331.56	23.148
331.93	24.110
332.29	24.198
332.66	23.439
333.02	24.257
333.38	24.931
333.75	26.374
334.11	25.336
334.48	27.017
334.84	27.015
335.20	25.709
335.57	26.292
335.93	26.468
336.29	28.269
336.66	27.157
337.02	27.416
337.38	26.944
337.75	29.273
338.11	29.757
338.47	30.566
338.84	29.667
339.20	29.982
339.56	30.275
339.93	29.454
340.29	30.275
340.65	30.018
341.02	30.585
341.38	28.230
341.74	29.064
342.11	29.549
342.47	30.338
342.83	31.661
343.20	29.878
343.56	30.348
343.92	31.887
344.28	30.914
344.65	31.952
345.01	31.288
345.37	31.119
345.73	31.130
346.10	31.924
346.46	31.960
346.82	31.669
347.19	31.505
347.55	32.665
347.91	31.149
348.27	31.609
348.63	33.475
349.00	31.419
349.36	31.338
349.72	32.836
350.08	33.115
350.45	33.839
350.81	32.973
351.17	32.248
351.53	33.714
351.89	32.783
352.26	32.080
352.62	33.387
352.98	33.414
353.34	32.528
353.70	33.172
354.07	34.032
354.43	33.387
354.79	34.434
355.15	33.651
355.51	35.364
355.87	33.172
356.24	33.279
356.60	34.681
356.96	35.317
357.32	34.744
357.68	34.480
358.04	33.926
358.40	35.772
358.77	34.370
359.13	36.269
359.49	34.515
359.85	34.321
360.21	34.450
360.57	34.736
360.93	35.779
361.29	35.121
361.66	36.677
362.02	36.439
362.38	35.415
362.74	36.790
363.10	36.945
363.46	36.323
363.82	36.890
364.18	36.089
364.54	34.853
364.90	37.706
365.26	37.627
365.62	36.934
365.98	37.170
366.35	37.946
366.71	38.211
367.07	38.171
367.43	36.880
367.79	37.385
368.15	36.468
368.51	38.529
368.87	36.971
369.23	37.906
369.59	39.286
369.95	39.516
370.31	39.234
370.67	39.403
371.03	39.806
371.39	39.533
371.75	39.634
372.11	39.087
372.47	39.941
372.83	40.170
373.19	39.301
373.55	39.783
373.91	39.525
374.27	40.751
374.63	40.991
374.99	40.709
375.35	40.738
375.71	42.098
376.07	41.784
376.42	41.905
376.78	41.879
377.14	40.623
377.50	42.098
377.86	42.369
378.22	41.161
378.58	42.821
378.94	41.714
379.30	43.169
379.66	43.824
380.02	42.673
380.38	43.335
380.74	43.148
381.09	44.233
381.45	43.119
381.81	43.553
382.17	42.893
382.53	45.034
382.89	44.696
383.25	44.555
383.61	45.061
383.97	44.381
384.32	44.403
384.68	43.034
385.04	43.995
385.40	43.497
385.76	46.164
386.12	45.731
386.48	46.424
386.83	45.529
387.19	44.811
387.55	46.612
387.91	45.110
388.27	45.238
388.62	46.885
388.98	46.102
389.34	46.471
389.70	46.302
390.06	44.871
390.42	46.762
390.77	47.155
391.13	46.974
391.49	46.184
391.85	47.693
392.20	48.023
392.56	47.107
392.92	47.093
393.28	45.873
393.64	47.027
393.99	48.213
394.35	47.375
394.71	46.999
395.07	46.763
395.42	45.841
395.78	47.687
396.14	46.469
396.50	47.559
396.85	48.036
397.21	47.431
397.57	46.646
397.92	47.873
398.28	47.414
398.64	46.928
399.00	47.968
399.35	45.993
399.71	46.755
400.07	47.158
400.42	47.613
400.78	47.336
401.14	46.703
401.49	47.528
401.85	46.374
402.21	46.506
402.57	47.875
402.92	46.110
403.28	46.429
403.63	46.974
403.99	47.321
404.35	47.283
404.70	45.774
405.06	46.005
405.42	46.178
405.77	45.671
406.13	47.031
406.49	45.885
406.84	46.149
407.20	47.261
407.55	45.911
407.91	45.187
408.27	45.889
408.62	45.169
408.98	45.348
409.34	46.035
409.69	45.930
410.05	45.320
410.40	46.111
410.76	45.296
411.11	46.312
411.47	45.957
411.83	45.951
412.18	46.911
412.54	45.693
412.89	44.581
413.25	46.270
413.60	45.466
413.96	46.012
414.31	45.183
414.67	44.965
415.03	44.874
415.38	45.561
415.74	46.645
416.09	46.114
416.45	45.240
416.80	45.737
417.16	46.685
417.51	45.503
417.87	45.763
418.22	47.150
418.58	47.559
418.93	47.900
419.29	45.070
419.64	45.625
420.00	47.481
420.35	46.687
420.71	47.509
421.06	46.839
421.42	47.897
421.77	47.457
422.12	46.538
422.48	47.537
422.83	46.462
423.19	47.968
423.54	46.502
423.90	47.880
424.25	47.876
424.61	48.286
424.96	47.445
425.31	49.567
425.67	49.589
426.02	49.529
426.38	48.466
426.73	49.274
427.09	48.797
427.44	49.765
427.79	49.617
428.15	49.939
428.50	49.546
428.85	49.017
429.21	49.123
429.56	51.051
429.92	51.002
430.27	49.875
430.62	49.712
430.98	50.690
431.33	50.053
431.68	49.660
432.04	50.811
432.39	48.774
432.74	49.248
433.10	51.264
433.45	49.582
433.80	52.583
434.16	50.416
434.51	51.398
434.86	51.684
435.22	51.262
435.57	51.778
435.92	51.497
436.28	52.355
436.63	51.169
436.98	51.333
437.34	51.724
437.69	51.580
438.04	51.453
438.39	51.619
438.75	52.155
439.10	51.104
439.45	52.769
439.81	51.988
440.16	52.910
440.51	52.657
440.86	53.716
441.22	53.111
441.57	53.311
441.92	54.040
442.27	54.989
442.63	53.212
442.98	52.613
443.33	52.532
443.68	52.891
444.03	53.154
444.39	53.910
444.74	54.348
445.09	53.396
445.44	53.846
445.79	54.564
446.15	51.101
446.50	52.246
446.85	53.879
447.20	53.962
447.55	52.846
447.91	53.299
448.26	53.386
448.61	53.195
448.96	52.610
449.31	52.890
449.66	53.194
450.02	53.394
450.37	53.764
450.72	52.005
451.07	53.671
451.42	52.247
451.77	52.381
452.12	51.914
452.47	52.737
452.83	53.710
453.18	52.562
453.53	52.845
453.88	53.188
454.23	54.272
454.58	53.463
454.93	53.866
455.28	52.825
455.63	52.449
455.98	53.397
456.34	54.342
456.69	53.050
457.04	55.009
457.39	52.673
457.74	53.930
458.09	52.972
458.44	52.896
458.79	52.213
459.14	52.059
459.49	52.836
459.84	52.566
460.19	52.913
460.54	54.340
460.89	53.352
461.24	53.292
461.59	52.613
461.94	51.950
462.29	52.714
462.64	52.757
462.99	52.404
463.34	52.851
463.69	51.866
464.04	54.177
464.39	51.243
464.74	53.436
465.09	53.712
465.44	52.626
465.79	53.175
466.14	52.338
466.49	52.386
466.84	53.242
467.19	52.753
467.54	51.724
467.89	52.432
468.24	52.129
468.59	52.190
468.94	51.365
469.29	51.869
469.64	51.196
469.99	52.278
470.34	50.239
470.68	52.796
471.03	51.734
471.38	51.926
471.73	50.560
472.08	50.882
472.43	50.470
472.78	50.377
473.13	50.476
473.48	50.293
473.83	50.436
474.17	52.461
474.52	51.946
474.87	50.727
475.22	51.678
475.57	51.383
475.92	52.386
476.27	51.688
476.61	52.141
476.96	49.861
477.31	50.730
477.66	50.449
478.01	50.533
478.36	50.436
478.70	51.767
479.05	50.330
479.40	50.715
479.75	50.574
480.10	51.357
480.45	51.950
480.79	50.755
481.14	50.922
481.49	49.754
481.84	51.544
482.19	51.356
482.53	51.319
482.88	49.642
483.23	50.768
483.58	49.151
483.92	49.758
484.27	50.000
484.62	49.036
484.97	50.000
485.31	51.048
485.66	53.009
486.01	54.292
486.36	54.365
486.70	53.964
487.05	53.250
487.40	52.404
487.75	51.408
488.09	50.155
488.44	49.759
488.79	48.935
489.13	50.561
489.48	49.423
489.83	49.731
490.17	47.775
490.52	48.637
490.87	48.218
491.22	48.615
491.56	48.909
491.91	48.518
492.26	49.344
492.60	48.560
492.95	49.680
493.30	48.217
493.64	49.558
493.99	49.275
494.34	48.155
494.68	50.000
495.03	48.759
495.37	48.675
495.72	49.419
496.07	49.366
496.41	49.009
496.76	48.733
497.11	47.788
497.45	48.974
497.80	48.890
498.14	47.640
498.49	48.502
498.84	48.403
499.18	48.444
499.53	48.115
499.87	48.492
500.22	48.912
500.56	48.512
500.91	48.594
501.26	48.690
501.60	48.549
501.95	49.199
502.29	47.990
502.64	49.517
502.98	49.285
503.33	47.791
503.67	48.482
504.02	48.680
504.36	48.194
504.71	47.071
505.06	48.666
505.40	48.173
505.75	49.948
506.09	48.302
506.44	49.281
506.78	48.878
507.13	48.914
507.47	47.311
507.82	47.009
508.16	47.808
508.51	49.423
508.85	48.980
509.19	47.951
509.54	47.989
509.88	47.033
510.23	48.575
510.57	48.316
510.92	46.962
511.26	47.572
511.61	48.790
511.95	48.164
512.30	48.448
512.64	47.357
512.98	46.828
513.33	47.622
513.67	47.356
514.02	48.799
514.36	48.686
514.70	48.077
515.05	48.942
515.39	47.344
515.74	48.563
516.08	48.775
516.42	48.645
516.77	48.040
517.11	48.843
517.46	47.935
517.80	47.378
518.14	48.500
518.49	46.755
518.83	47.205
519.17	47.483
519.52	47.306
519.86	46.879
520.20	47.691
520.55	46.842
520.89	47.804
521.23	46.865
521.58	47.192
521.92	47.115
522.26	47.625
522.61	47.403
522.95	49.139
523.29	46.887
523.64	47.078
523.98	48.023
524.32	46.714
524.66	48.079
525.01	47.922
525.35	46.273
525.69	47.071
526.04	47.222
526.38	48.379
526.72	47.155
527.06	47.082
527.41	47.757
527.75	47.051
528.09	46.977
528.43	47.468
528.78	47.723
529.12	47.419
529.46	48.213
529.80	46.612
530.15	48.053
530.49	47.205
530.83	47.059
531.17	47.011
531.51	48.358
531.86	47.383
532.20	46.347
532.54	47.651
532.88	46.954
533.22	48.320
533.57	48.886
533.91	48.956
534.25	48.958
534.59	48.428
534.93	47.011
535.27	48.096
535.62	47.570
535.96	48.337
536.30	48.549
536.64	48.656
536.98	47.317
537.32	49.573
537.66	47.966
538.01	48.671
538.35	48.474
538.69	48.202
539.03	47.505
539.37	48.856
539.71	48.398
540.05	48.608
540.39	50.000
540.73	48.954
541.07	48.964
541.42	48.253
541.76	50.516
542.10	49.071
542.44	47.464
542.78	47.281
543.12	48.695
543.46	48.957
543.80	48.647
544.14	48.865
544.48	49.300
544.82	49.419
545.16	50.137
545.50	48.732
545.84	50.637
546.18	49.929
546.52	49.099
546.86	49.676
547.20	50.644
547.54	48.339
547.88	49.524
548.22	48.455
548.56	49.340
548.90	49.798
549.24	48.623
549.58	48.378
549.92	48.821
550.26	48.718
550.60	48.178
550.94	49.365
551.28	49.304
551.62	49.308
551.96	49.925
552.30	49.050
552.64	49.154
552.98	49.930
553.32	49.501
553.66	48.621
554.00	51.752
554.34	50.739
554.68	48.304
555.02	48.586
555.36	50.112
555.69	48.059
556.03	49.536
556.37	49.466
556.71	49.170
557.05	49.142
557.39	47.658
557.73	49.100
558.07	50.000
558.41	49.617
558.75	49.104
559.08	48.148
559.42	48.095
559.76	49.560
560.10	49.235
560.44	49.665
560.78	49.650
561.12	51.058
561.45	51.089
561.79	49.510
562.13	50.461
562.47	49.784
562.81	49.856
563.15	49.647
563.48	50.849
563.82	51.887
564.16	51.811
564.50	50.608
564.84	50.268
565.17	50.905
565.51	54.098
565.85	52.263
566.19	53.249
566.52	53.016
566.86	52.185
567.20	53.549
567.54	54.075
567.88	54.599
568.21	55.090
568.55	54.837
568.89	54.979
569.23	55.128
569.56	56.524
569.90	56.598
570.24	57.239
570.57	58.727
570.91	58.313
571.25	57.941
571.59	58.113
571.92	56.652
572.26	57.639
572.60	57.023
572.93	56.417
573.27	56.897
573.61	57.458
573.95	57.946
574.28	57.760
574.62	58.225
574.96	58.065
575.29	57.774
575.63	56.051
575.97	56.303
576.30	57.858
576.64	57.934
576.98	58.662
577.31	59.105
577.65	59.977
577.98	59.679
578.32	59.145
578.66	58.693
578.99	58.142
579.33	57.257
579.67	58.012
580.00	58.177
580.34	59.055
580.67	58.383
581.01	59.534
581.35	59.819
581.68	60.500
582.02	60.837
582.35	61.096
582.69	60.090
583.02	59.325
583.36	59.759
583.70	59.579
584.03	59.327
584.37	59.712
584.70	59.011
585.04	58.523
585.37	59.754
585.71	60.602
586.04	60.136
586.38	59.536
586.72	60.230
587.05	60.572
587.39	60.749
587.72	61.290
588.06	60.338
588.39	59.841
588.73	60.348
589.06	60.404
589.40	59.143
589.73	59.693
590.07	59.781
590.40	59.094
590.73	58.896
591.07	59.075
591.40	59.172
591.74	59.005
592.07	59.740
592.41	60.027
592.74	60.255
593.08	60.461
593.41	61.384
593.75	61.204
594.08	60.796
594.41	60.408
594.75	60.038
595.08	59.970
595.42	60.986
595.75	60.683
596.09	60.438
596.42	60.149
596.75	59.858
597.09	58.907
597.42	59.485
597.75	60.742
598.09	58.850
598.42	58.664
598.76	60.403
599.09	60.737
599.42	59.909
599.76	60.120
600.09	60.973
600.42	60.614
600.76	61.330
601.09	61.031
601.42	60.360
601.76	61.374
602.09	60.479
602.42	61.500
602.76	61.078
603.09	61.669
603.42	63.545
603.76	62.339
604.09	61.442
604.42	61.506
604.76	61.148
605.09	60.603
605.42	61.219
605.75	61.690
606.09	61.401
606.42	61.218
606.75	61.429
607.09	61.582
607.42	60.744
607.75	60.258
608.08	60.243
608.42	58.794
608.75	61.687
609.08	61.335
609.41	61.066
609.75	60.433
610.08	61.358
610.41	61.932
610.74	61.580
611.07	61.292
611.41	61.183
611.74	62.900
612.07	60.546
612.40	60.339
612.73	61.921
613.07	60.405
613.40	60.503
613.73	60.884
614.06	61.491
614.39	61.816
614.72	60.504
615.06	61.397
615.39	59.607
615.72	60.388
616.05	62.849
616.38	59.373
616.71	60.367
617.05	62.137
617.38	59.962
617.71	61.447
618.04	62.540
618.37	61.097
618.70	60.528
619.03	60.625
619.36	57.236
619.69	60.576
620.03	59.752
620.36	60.086
620.69	61.313
621.02	57.722
621.35	58.340
621.68	58.333
622.01	59.667
622.34	58.500
622.67	58.202
623.00	58.959
623.33	60.823
623.66	59.013
623.99	60.061
624.32	59.848
624.65	60.150
624.99	60.722
625.32	59.439
625.65	60.880
625.98	60.677
626.31	59.268
626.64	57.712
626.97	60.646
627.30	59.895
627.63	58.925
627.96	58.131
628.29	57.724
628.62	57.620
628.95	57.515
629.28	57.460
629.61	57.827
629.94	57.869
630.26	57.609
630.59	61.186
630.92	58.974
631.25	56.000
631.58	57.709
631.91	56.798
632.24	56.881
632.57	56.023
632.90	55.042
633.23	55.647
633.56	57.431
633.89	54.871
634.22	57.160
634.55	56.163
634.88	54.151
635.20	55.769
635.53	56.133
635.86	55.137
636.19	57.180
636.52	55.867
636.85	53.970
637.18	57.107
637.51	56.604
637.83	55.322
638.16	57.026
638.49	54.087
638.82	54.868
639.15	56.309
639.48	54.333
639.81	54.812
640.13	56.854
640.46	55.102
640.79	56.406
641.12	54.210
641.45	52.853
641.77	53.630
642.10	57.188
642.43	55.145
642.76	53.135
643.09	52.989
643.41	52.751
643.74	54.860
644.07	54.844
644.40	54.223
644.73	55.166
645.05	54.698
645.38	56.437
645.71	54.965
646.04	57.092
646.36	56.206
646.69	54.137
647.02	56.711
647.35	55.037
647.67	52.651
648.00	55.597
648.33	53.584
648.66	56.780
648.98	55.444
649.31	58.182
649.64	54.788
649.96	57.861
650.29	57.070
650.62	55.556
650.94	55.000
651.27	56.052
651.60	54.054
651.92	55.420
652.25	56.661
652.58	59.000
652.90	59.005
653.23	56.471
653.56	54.992
653.88	57.045
654.21	53.765
654.54	55.008
654.86	58.913
655.19	56.140
655.52	70.666
655.84	80.416
656.17	90.752
656.49	100.000
656.82	100.000
657.15	100.000
657.47	95.460
657.80	48.373
658.13	46.948
658.45	70.360
658.78	67.418
659.10	64.534
659.43	62.893
659.75	63.641
660.08	59.241
660.41	58.938
660.73	55.801
661.06	58.752
661.38	55.382
661.71	52.567
662.03	54.721
662.36	55.165
662.68	54.646
663.01	53.930
663.33	54.292
663.66	54.419
663.98	52.558
664.31	51.599
664.63	54.147
664.96	53.043
665.28	56.071
665.61	55.411
665.93	55.870
666.26	58.134
666.58	54.362
666.91	53.647
667.23	54.481
667.56	57.109
667.88	55.156
668.21	55.131
668.53	56.738
668.86	56.840
669.18	52.358
669.50	54.722
669.83	52.791
670.15	55.245
670.48	54.067
670.80	56.452
671.13	54.586
671.45	52.511
671.77	55.365
672.10	57.426
672.42	58.427
672.75	62.167
673.07	62.970
673.39	61.651
673.72	58.777
674.04	57.083
674.37	58.686
674.69	58.030
675.01	57.556
675.34	58.784
675.66	58.333
675.98	57.206
676.31	58.945
676.63	57.007
676.95	53.636
677.28	58.588
677.60	55.663
677.92	57.339
678.25	59.737
678.57	59.524
678.89	59.874
679.22	63.758
679.54	60.843
679.86	58.449
680.18	61.359
680.51	63.636
680.83	59.245
681.15	61.600
681.48	62.295
681.80	61.570
682.12	56.250
682.44	57.113
682.77	64.018
683.09	58.810
683.41	57.727
683.73	57.834
684.06	61.283
684.38	57.204
684.70	65.359
685.02	62.241
685.34	63.241
685.67	65.291
685.99	65.280
686.31	62.301
686.63	65.492
686.96	62.357
687.28	62.626
687.60	62.548
687.92	69.697
688.24	65.323
688.56	63.100
688.89	62.054
689.21	60.444
689.53	60.557
689.85	62.093
690.17	61.384
690.49	60.757
690.82	60.922
691.14	59.762
691.46	62.617
691.78	63.514
692.10	64.086
692.42	63.203
692.74	61.111
693.06	62.387
693.39	62.443
693.71	64.706
694.03	63.972
694.35	62.383
694.67	65.657
694.99	60.574
695.31	64.491
695.63	61.500
695.95	63.889
696.27	60.104
696.59	59.722
696.91	59.664
697.23	63.496
697.56	68.069
697.88	67.742
698.20	64.009
698.52	66.588
698.84	60.526
699.16	65.250
699.48	63.910
699.80	62.531
700.12	63.073
700.44	59.384
700.76	60.174
701.08	61.818
701.40	61.446
701.72	65.123
702.04	64.686
702.36	64.548
702.68	58.258
703.00	62.727
703.32	60.411
703.64	59.605
703.96	61.159
704.28	62.270
704.60	62.222
704.91	61.199
705.23	62.126
705.55	67.491
705.87	61.372
706.19	55.556
706.51	59.794
706.83	63.344
707.15	62.928
707.47	67.787
707.79	66.406
708.11	72.000
708.43	66.500
708.74	65.116
709.06	72.113
709.38	64.526
709.70	63.018
710.02	61.465
710.34	59.443
710.66	60.897
710.98	66.556
711.29	68.852
711.61	69.153
711.93	63.844
712.25	64.948
712.57	69.597
712.89	60.821
713.20	64.360
713.52	62.021
713.84	62.116
714.16	65.979
714.48	68.387
714.80	67.308
715.11	65.350
715.43	70.533
715.75	65.000
716.07	66.445
716.39	64.094
716.70	63.838
717.02	60.687
717.34	63.563
717.66	62.389
717.97	64.783
718.29	58.159
718.61	67.717
718.93	63.178
719.24	61.977
719.56	67.068
719.88	64.948
720.20	67.045
720.51	60.920
720.83	67.181
721.15	68.908
721.46	65.726
721.78	65.217
722.10	59.851
722.42	61.411
722.73	65.306
723.05	65.306
723.37	69.492
723.68	70.721
724.00	60.256
724.32	64.444
724.63	72.727
724.95	71.179
725.27	62.673
725.58	69.068
725.90	68.651
726.22	67.568
726.53	66.780
726.85	71.910
727.16	72.830
727.48	64.372
727.80	69.231
728.11	69.068
728.43	64.314
728.74	65.323
729.06	68.800
729.38	72.556
729.69	70.916
730.01	65.769
730.32	73.881
730.64	68.551
730.96	76.226
731.27	69.333
731.59	72.542
731.90	69.108
732.22	71.609
732.53	73.090
732.85	78.723
733.16	70.707
733.48	69.424
733.80	75.362
734.11	68.136
734.43	76.632
734.74	76.364
735.06	77.199
735.37	72.508
735.69	76.768
736.00	70.035
736.32	71.141
736.63	75.352
736.95	73.379
737.26	72.242
737.58	71.477
737.89	76.190
738.21	77.820
738.52	75.309
738.83	72.052
739.15	71.179
739.46	70.866
739.78	75.824
740.09	69.935
740.41	70.652
740.72	71.654
741.04	74.089
741.35	65.957
741.66	67.299
741.98	65.306
742.29	65.347
742.61	71.204
742.92	63.033
743.23	69.907
743.55	71.041
743.86	67.943
744.18	64.115
744.49	73.404
744.80	69.565
745.12	77.005
745.43	62.927
745.74	75.000
746.06	71.220
746.37	73.822
746.68	71.564
747.00	72.872
747.31	76.617
747.62	69.903
747.94	76.077
748.25	67.822
748.56	79.781
748.88	69.634
749.19	71.277
749.50	69.458
749.82	66.981
750.13	74.312
750.44	79.323
750.75	80.970
751.07	76.642
751.38	78.927
751.69	72.941
752.01	76.744
752.32	78.884
752.63	74.704
752.94	71.552
753.26	74.059
753.57	71.493
753.88	76.549
754.19	71.250
754.51	77.686
754.82	70.445
755.13	72.500
755.44	73.387
755.75	76.953
756.07	75.097
756.38	75.472
756.69	77.395
757.00	71.000
757.31	80.065
757.63	74.085
757.94	79.722
758.25	76.986
758.56	77.394
758.87	72.521
759.18	71.651
759.50	77.455
759.81	76.589
760.12	79.677
760.43	76.364
760.74	83.642
761.05	84.000
761.36	77.273
761.67	80.909
761.99	80.612
762.30	76.000
762.61	70.356
762.92	72.398
763.23	73.423
763.54	68.224
763.85	82.203
764.16	75.519
764.47	75.403
764.78	76.190
765.10	80.471
765.41	78.864
765.72	78.413
766.03	80.827
766.34	77.737
766.65	74.502
766.96	76.263
767.27	76.064
767.58	70.115
767.89	80.142
768.20	65.341
768.51	68.132
768.82	77.833
769.13	70.507
769.44	76.824
769.75	77.169
770.06	71.552
770.37	73.077
770.68	74.619
770.99	76.018
771.30	94.608
771.61	77.376
771.92	75.862
772.23	80.788
772.54	76.344
772.85	86.420
773.16	72.472
773.47	78.431
773.78	79.085
774.09	65.269
774.39	67.333
774.70	70.064
775.01	70.345
775.32	71.429
775.63	66.942
775.94	72.519
776.25	69.291
776.56	69.167
776.87	73.077
777.18	65.812
777.48	66.379
777.79	61.739
778.10	64.762
778.41	72.072
778.72	69.048
779.03	70.677
779.34	70.213
779.65	81.507
779.95	71.918
780.26	81.379
780.57	64.228
780.88	65.354
781.19	75.000
781.50	82.171
781.80	71.598
782.11	71.069
782.42	82.308
782.73	80.576
783.04	71.852
783.34	65.278
783.65	70.940
783.96	75.410
784.27	75.862
784.57	78.049
784.88	57.813
785.19	79.000
785.50	73.000
785.81	74.138
786.11	79.310
786.42	75.728
786.73	73.636
787.04	75.510
787.34	59.821
787.65	73.333
787.96	69.912
788.26	82.727
788.57	71.795
788.88	78.906
789.19	65.079
789.49	82.609
789.80	82.653
790.11	68.687
790.41	58.182
790.72	68.478
791.03	62.500
791.33	82.500
791.64	70.000
791.95	67.442
792.25	64.894
792.56	61.798
792.87	64.384
793.17	72.464
793.48	68.000
793.79	52.500
794.09	75.000
794.40	78.302
794.70	80.583
795.01	66.667
795.32	66.667
795.62	76.190
795.93	79.412
796.23	61.321
796.54	65.625
796.85	73.529
797.15	61.972
797.46	73.611
797.76	81.818
798.07	59.302
798.37	61.842
798.68	48.485
798.99	53.086
799.29	72.857
799.60	52.174
799.90	62.667
800.21	75.410
800.51	69.231
800.82	59.322
801.12	55.072
801.43	68.852
801.73	63.492
802.04	64.000
802.34	56.716
802.65	71.154
802.95	57.143
803.26	44.231
803.56	72.549
803.87	34.783
804.17	53.333
804.48	53.968
804.78	51.852
805.09	63.043
805.39	64.444
805.70	66.667
806.00	77.193
806.30	67.606
806.61	84.286
806.91	65.278
807.22	80.263
807.52	70.667
807.83	65.455
808.13	63.889
808.43	60.294
808.74	59.701
809.04	81.356
809.35	71.154
809.65	60.937
809.95	29.730
810.26	47.727
810.56	57.534
810.86	73.810
811.17	78.000
811.47	48.980
811.77	84.211
812.08	72.727
812.38	52.830
812.69	45.000
812.99	75.758
813.29	97.368
813.59	34.286
813.90	61.364
814.20	66.667
814.50	67.308
814.81	75.472
815.11	57.447
815.41	77.966
815.72	69.048
816.02	50.980
816.32	41.667
816.62	46.341
816.93	56.757
817.23	57.143
817.53	75.000
817.84	52.174
818.14	53.846
818.44	57.895
818.74	60.870
819.04	37.500
819.35	40.541
819.65	61.765
819.95	47.222
820.25	40.476
820.56	80.000
820.86	27.586
821.16	100.000
821.46	78.723
821.76	75.000
822.07	67.442
822.37	43.243
822.67	53.125
822.97	66.667
823.27	60.714
823.57	80.000
823.88	11.111
824.18	82.143
824.48	32.353
824.78	25.806
825.08	91.304
825.38	63.636
825.69	58.333
825.99	42.105
826.29	72.222
826.59	93.333
826.89	47.619
827.19	45.652
827.49	40.000
827.79	114.286
828.09	75.000
828.39	57.576
828.70	89.189
829.00	32.143
829.30	66.667
829.60	66.667
829.90	46.875
830.20	28.947
830.50	33.333
830.80	43.478
831.10	-4.545
831.40	54.545
831.70	41.935
832.00	38.095
832.30	61.905
832.60	50.000
832.90	20.690
833.20	60.000
833.50	27.273
833.80	59.259
834.10	30.769
834.40	87.500
834.70	44.444
835.00	121.053
835.30	111.538
835.60	100.000
835.90	70.968
836.20	27.273
836.50	50.000
836.80	50.000
837.10	42.857
837.40	200.000
837.70	59.091
838.00	-36.364
838.30	30.435
838.60	30.769
838.90	77.273
839.19	32.143
839.49	23.333
839.79	46.154
840.09	41.667
840.39	64.286
840.69	17.857
840.99	38.462
841.29	21.053
841.59	80.000
841.88	63.636
842.18	140.000
842.48	56.250
842.78	40.000
843.08	25.926
843.38	-40.000
843.68	26.087
843.97	93.333
844.27	-13.333
844.57	65.000
844.87	55.556
845.17	76.190
845.47	73.333
845.76	4.762
846.06	82.353
846.36	-30.000
846.66	7.143
846.96	73.333
847.25	-37.500
847.55	135.714
847.85	-12.500
848.15	9.091
848.44	66.667
848.74	30.000
849.04	62.963
849.34	90.909
849.63	50.000
849.93	-140.000
850.23	16.667
850.53	60.000
850.82	61.538
851.12	33.333
851.42	0.000
851.71	46.154
852.01	107.143
852.31	25.000
852.61	0.000
852.90	25.000
853.20	52.632
853.50	58.333
853.79	34.783
854.09	95.833
854.39	63.158
854.68	66.667
854.98	83.871
855.28	69.231
855.57	65.000
855.87	83.333
856.17	77.778
856.46	78.571
856.76	40.000
857.05	66.667
857.35	92.000
857.65	33.333
857.94	30.769
858.24	62.069
858.53	66.667
858.83	59.259
859.13	22.727
859.42	13.043
859.72	200.000
860.01	-366.667
860.31	64.000
860.60	42.857
860.90	0.000
861.20	-26.667
861.49	0.000
861.79	0.000
862.08	20.000
862.38	93.333
862.67	-60.000
862.97	100.000
863.26	41.667
863.56	61.111
863.85	-200.000
864.15	61.111
864.44	10.000
864.74	114.286
865.03	-125.000
865.33	140.000
865.62	116.667
865.92	-16.667
866.21	-50.000
866.51	18.750
866.80	63.636
867.10	650.000
867.39	83.333
867.69	0.000
867.98	115.385
868.27	200.000
868.57	40.000
868.86	66.667
869.16	23.077
869.45	46.667
869.75	-600.000
870.04	0.000
870.33	-114.286
870.63	28.571
870.92	266.667
871.22	20.000
871.51	300.000
871.80	111.111
872.10	466.667
>>>>>End Processed Spectral Data<<<<<
