SpectraSuite Data File
++++++++++++++++++++++++++++++++++++
Date: Fri May 15 20:13:09 PDT 2015
User: schluterlab
Dark Spectrum Present: Yes
Reference Spectrum Present: Yes
Number of Sampled Component Spectra: 1
Spectrometers: USB2E3373
Integration Time (usec): 3000 (USB2E3373)
Spectra Averaged: 3 (USB2E3373)
Boxcar Smoothing: 0 (USB2E3373)
Correct for Electrical Dark: No (USB2E3373)
Strobe/Lamp Enabled: No (USB2E3373)
Correct for Detector Non-linearity: No (USB2E3373)
Correct for Stray Light: No (USB2E3373)
Number of Pixels in Processed Spectrum: 2048
>>>>>Begin Processed Spectral Data<<<<<
178.53	0.000
178.91	0.000
179.29	25.000
179.67	-150.000
180.04	-28.571
180.42	-25.000
180.80	-200.000
181.18	100.000
181.56	250.000
181.94	-250.000
182.31	200.000
182.69	-40.000
183.07	-266.667
183.45	-60.000
183.83	-133.333
184.20	54.545
184.58	77.778
184.96	-25.000
185.34	-33.333
185.72	-350.000
186.09	38.462
186.47	0.000
186.85	116.667
187.23	133.333
187.61	300.000
187.98	-100.000
188.36	144.444
188.74	133.333
189.12	64.706
189.49	94.444
189.87	0.000
190.25	57.143
190.63	0.000
191.00	133.333
191.38	-15.789
191.76	200.000
192.14	-75.000
192.51	250.000
192.89	-66.667
193.27	-28.571
193.65	116.667
194.02	72.727
194.40	-10.000
194.78	-25.000
195.15	41.667
195.53	-75.000
195.91	250.000
196.29	-25.000
196.66	69.231
197.04	71.429
197.42	55.556
197.79	-433.333
198.17	-30.769
198.55	500.000
198.92	-200.000
199.30	800.000
199.68	40.000
200.05	0.000
200.43	0.000
200.81	100.000
201.18	366.667
201.56	1200.000
201.94	-400.000
202.31	33.333
202.69	-260.000
203.07	200.000
203.44	700.000
203.82	0.000
204.19	107.143
204.57	-66.667
204.95	112.500
205.32	-50.000
205.70	114.286
206.08	-50.000
206.45	233.333
206.83	142.857
207.20	-114.286
207.58	200.000
207.96	133.333
208.33	20.000
208.71	-75.000
209.08	-83.333
209.46	1600.000
209.84	0.000
210.21	-600.000
210.59	71.429
210.96	83.333
211.34	125.000
211.71	86.667
212.09	28.571
212.46	-800.000
212.84	0.000
213.22	110.000
213.59	-200.000
213.97	61.538
214.34	45.455
214.72	33.333
215.09	300.000
215.47	84.615
215.84	9.091
216.22	33.333
216.59	150.000
216.97	50.000
217.34	-75.000
217.72	-160.000
218.09	-75.000
218.47	137.500
218.84	-500.000
219.22	-88.889
219.59	120.000
219.97	233.333
220.34	225.000
220.72	85.714
221.09	75.000
221.47	350.000
221.84	-650.000
222.22	-600.000
222.59	36.364
222.97	0.000
223.34	133.333
223.72	7.143
224.09	47.619
224.46	35.714
224.84	200.000
225.21	80.000
225.59	40.000
225.96	50.000
226.34	175.000
226.71	85.714
227.08	116.667
227.46	100.000
227.83	-100.000
228.21	111.111
228.58	100.000
228.95	25.000
229.33	110.000
229.70	12.500
230.08	75.000
230.45	57.143
230.82	142.857
231.20	66.667
231.57	142.857
231.95	214.286
232.32	-40.000
232.69	50.000
233.07	33.333
233.44	180.000
233.81	60.000
234.19	77.778
234.56	29.412
234.93	-50.000
235.31	175.000
235.68	-200.000
236.05	-7.692
236.43	20.000
236.80	64.706
237.17	71.875
237.55	55.000
237.92	33.333
238.29	33.333
238.67	60.000
239.04	50.000
239.41	31.707
239.79	73.333
240.16	48.780
240.53	57.895
240.91	43.478
241.28	52.381
241.65	55.357
242.02	56.164
242.40	46.667
242.77	59.322
243.14	42.424
243.51	33.750
243.89	59.770
244.26	37.931
244.63	44.048
245.00	48.454
245.38	48.454
245.75	46.067
246.12	46.552
246.49	42.975
246.87	61.538
247.24	42.017
247.61	38.596
247.98	50.407
248.36	42.500
248.73	44.079
249.10	42.857
249.47	43.671
249.84	36.601
250.22	40.588
250.59	43.791
250.96	47.418
251.33	45.930
251.70	51.765
252.08	45.685
252.45	43.564
252.82	46.231
253.19	39.631
253.56	41.121
253.94	44.595
254.31	44.348
254.68	50.000
255.05	44.094
255.42	45.852
255.79	42.857
256.16	42.802
256.54	46.642
256.91	43.346
257.28	39.405
257.65	45.693
258.02	40.780
258.39	43.771
258.76	47.985
259.14	47.508
259.51	43.689
259.88	45.017
260.25	48.366
260.62	46.875
260.99	48.136
261.36	39.384
261.73	45.253
262.10	43.161
262.47	42.638
262.85	42.633
263.22	44.615
263.59	47.040
263.96	48.447
264.33	46.364
264.70	42.262
265.07	47.321
265.44	46.459
265.81	45.198
266.18	44.536
266.55	45.501
266.92	45.078
267.29	45.692
267.66	44.501
268.03	46.073
268.40	43.081
268.77	47.326
269.14	45.084
269.51	47.301
269.88	44.638
270.25	43.878
270.62	42.683
270.99	45.780
271.36	41.565
271.73	42.019
272.10	46.472
272.47	43.735
272.84	46.040
273.21	42.459
273.58	45.060
273.95	44.851
274.32	42.263
274.69	40.950
275.06	44.643
275.43	42.404
275.80	43.488
276.17	41.609
276.54	42.184
276.91	42.544
277.28	46.070
277.65	42.355
278.02	42.340
278.39	42.013
278.76	42.348
279.13	41.079
279.50	43.908
279.87	43.844
280.23	44.516
280.60	40.546
280.97	42.828
281.34	41.538
281.71	43.532
282.08	40.900
282.45	43.640
282.82	41.506
283.19	44.294
283.56	42.967
283.92	42.884
284.29	40.192
284.66	40.504
285.03	41.061
285.40	38.374
285.77	41.301
286.14	41.516
286.51	42.066
286.87	39.854
287.24	43.646
287.61	38.448
287.98	40.877
288.35	39.341
288.72	41.681
289.08	38.021
289.45	40.246
289.82	39.510
290.19	38.567
290.56	38.937
290.93	38.215
291.29	36.518
291.66	36.063
292.03	36.045
292.40	36.613
292.77	36.045
293.13	33.604
293.50	34.901
293.87	35.267
294.24	33.230
294.60	34.128
294.97	32.738
295.34	33.436
295.71	33.085
296.08	32.436
296.44	28.734
296.81	32.500
297.18	31.884
297.55	33.198
297.91	34.521
298.28	33.773
298.65	32.429
299.02	32.210
299.38	29.822
299.75	32.276
300.12	32.330
300.48	31.225
300.85	31.052
301.22	28.312
301.59	30.000
301.95	30.000
302.32	32.296
302.69	29.975
303.05	29.950
303.42	29.514
303.79	29.673
304.15	30.108
304.52	28.775
304.89	29.474
305.25	29.540
305.62	28.121
305.99	28.304
306.35	29.711
306.72	26.884
307.09	29.190
307.45	28.473
307.82	28.356
308.19	29.036
308.55	27.481
308.92	29.630
309.29	29.832
309.65	27.126
310.02	29.373
310.38	28.540
310.75	29.617
311.12	27.879
311.48	28.420
311.85	29.005
312.22	26.582
312.58	27.707
312.95	27.321
313.31	28.468
313.68	28.377
314.05	27.551
314.41	29.381
314.78	29.485
315.14	29.394
315.51	29.296
315.87	28.279
316.24	31.041
316.61	30.315
316.97	30.853
317.34	29.004
317.70	29.350
318.07	29.904
318.43	29.706
318.80	31.061
319.16	32.422
319.53	31.624
319.89	31.496
320.26	32.085
320.62	32.397
320.99	32.150
321.35	32.991
321.72	34.164
322.08	35.448
322.45	33.503
322.81	35.560
323.18	33.857
323.54	34.556
323.91	36.125
324.27	38.867
324.64	37.828
325.00	37.318
325.37	39.210
325.73	37.625
326.10	38.874
326.46	40.717
326.83	40.857
327.19	41.500
327.56	42.572
327.92	42.606
328.29	42.500
328.65	45.000
329.01	44.026
329.38	43.963
329.74	45.326
330.11	45.783
330.47	45.269
330.84	46.731
331.20	50.951
331.56	48.148
331.93	50.868
332.29	49.679
332.66	49.140
333.02	50.372
333.38	49.313
333.75	51.648
334.11	49.239
334.48	52.221
334.84	52.930
335.20	51.693
335.57	51.224
335.93	55.104
336.29	54.972
336.66	53.497
337.02	51.859
337.38	52.685
337.75	52.000
338.11	53.201
338.47	54.380
338.84	56.100
339.20	55.119
339.56	54.037
339.93	54.163
340.29	55.138
340.65	55.108
341.02	55.142
341.38	57.345
341.74	54.770
342.11	53.899
342.47	56.851
342.83	55.104
343.20	53.397
343.56	54.609
343.92	56.687
344.28	56.447
344.65	55.699
345.01	55.920
345.37	54.752
345.73	56.318
346.10	56.342
346.46	55.004
346.82	55.646
347.19	54.613
347.55	55.639
347.91	56.392
348.27	55.214
348.63	56.474
349.00	57.014
349.36	56.941
349.72	56.799
350.08	55.902
350.45	56.584
350.81	57.060
351.17	55.782
351.53	56.735
351.89	55.987
352.26	56.160
352.62	56.532
352.98	56.787
353.34	55.314
353.70	58.172
354.07	57.097
354.43	55.645
354.79	58.382
355.15	57.937
355.51	58.386
355.87	57.767
356.24	55.791
356.60	58.044
356.96	58.492
357.32	56.390
357.68	57.310
358.04	58.643
358.40	56.913
358.77	58.054
359.13	58.927
359.49	56.626
359.85	56.942
360.21	58.054
360.57	57.536
360.93	57.489
361.29	56.647
361.66	58.542
362.02	58.864
362.38	59.482
362.74	58.970
363.10	60.120
363.46	59.822
363.82	60.406
364.18	58.229
364.54	59.044
364.90	59.140
365.26	59.534
365.62	59.927
365.98	58.798
366.35	61.617
366.71	60.902
367.07	59.942
367.43	59.382
367.79	59.647
368.15	59.871
368.51	61.690
368.87	59.153
369.23	59.711
369.59	61.443
369.95	61.217
370.31	60.983
370.67	62.836
371.03	61.016
371.39	61.488
371.75	63.150
372.11	61.412
372.47	62.648
372.83	62.527
373.19	60.984
373.55	61.733
373.91	61.339
374.27	63.926
374.63	62.670
374.99	64.184
375.35	61.630
375.71	64.126
376.07	63.834
376.42	64.558
376.78	64.362
377.14	63.169
377.50	63.280
377.86	66.399
378.22	63.689
378.58	64.167
378.94	64.335
379.30	65.003
379.66	66.897
380.02	63.765
380.38	64.942
380.74	64.333
381.09	67.178
381.45	66.728
381.81	66.996
382.17	67.069
382.53	67.146
382.89	68.424
383.25	67.579
383.61	67.439
383.97	68.508
384.32	67.917
384.68	68.731
385.04	67.402
385.40	67.517
385.76	70.440
386.12	69.664
386.48	69.413
386.83	68.738
387.19	70.085
387.55	70.138
387.91	69.621
388.27	69.170
388.62	71.932
388.98	71.148
389.34	70.206
389.70	71.287
390.06	69.037
390.42	71.438
390.77	72.204
391.13	69.924
391.49	71.410
391.85	72.645
392.20	72.316
392.56	72.092
392.92	71.521
393.28	73.172
393.64	71.411
393.99	73.292
394.35	74.194
394.71	72.733
395.07	71.087
395.42	71.949
395.78	74.202
396.14	74.275
396.50	74.572
396.85	74.243
397.21	73.684
397.57	73.730
397.92	73.936
398.28	75.172
398.64	72.530
399.00	75.677
399.35	73.533
399.71	73.808
400.07	75.695
400.42	73.623
400.78	74.648
401.14	75.076
401.49	75.819
401.85	75.198
402.21	74.819
402.57	76.063
402.92	75.282
403.28	76.817
403.63	76.356
403.99	76.531
404.35	77.014
404.70	74.345
405.06	76.263
405.42	74.705
405.77	76.351
406.13	76.950
406.49	75.252
406.84	77.017
407.20	77.303
407.55	75.660
407.91	76.070
408.27	77.247
408.62	77.231
408.98	76.094
409.34	77.819
409.69	75.711
410.05	75.985
410.40	76.173
410.76	77.503
411.11	78.000
411.47	76.989
411.83	77.527
412.18	76.963
412.54	75.780
412.89	76.663
413.25	78.580
413.60	77.391
413.96	75.890
414.31	76.890
414.67	77.678
415.03	78.895
415.38	77.023
415.74	78.827
416.09	78.837
416.45	78.393
416.80	78.586
417.16	80.525
417.51	79.147
417.87	79.596
418.22	79.728
418.58	78.997
418.93	79.436
419.29	78.361
419.64	80.622
420.00	81.297
420.35	78.687
420.71	80.559
421.06	79.435
421.42	80.469
421.77	82.023
422.12	79.342
422.48	80.671
422.83	80.278
423.19	80.474
423.54	82.305
423.90	80.212
424.25	82.090
424.61	82.558
424.96	81.533
425.31	84.402
425.67	83.157
426.02	82.980
426.38	83.281
426.73	84.019
427.09	84.114
427.44	82.294
427.79	82.381
428.15	82.039
428.50	82.859
428.85	82.862
429.21	84.493
429.56	84.636
429.92	83.821
430.27	81.805
430.62	83.743
430.98	84.448
431.33	84.648
431.68	83.883
432.04	84.964
432.39	83.514
432.74	81.960
433.10	84.310
433.45	85.066
433.80	85.607
434.16	84.432
434.51	84.194
434.86	84.669
435.22	84.913
435.57	87.211
435.92	86.587
436.28	84.496
436.63	87.279
436.98	84.878
437.34	86.146
437.69	86.285
438.04	85.812
438.39	86.255
438.75	86.885
439.10	87.267
439.45	87.097
439.81	86.483
440.16	88.242
440.51	87.284
440.86	89.245
441.22	85.860
441.57	87.252
441.92	87.775
442.27	89.690
442.63	87.420
442.98	87.478
443.33	86.756
443.68	87.745
444.03	87.134
444.39	86.768
444.74	89.521
445.09	87.973
445.44	89.231
445.79	87.932
446.15	87.941
446.50	87.465
446.85	88.948
447.20	87.800
447.55	87.500
447.91	89.566
448.26	88.902
448.61	88.946
448.96	89.443
449.31	88.960
449.66	88.386
450.02	88.420
450.37	90.219
450.72	89.347
451.07	90.000
451.42	88.577
451.77	90.054
452.12	88.098
452.47	88.925
452.83	89.105
453.18	89.374
453.53	90.898
453.88	90.225
454.23	90.104
454.58	91.184
454.93	90.786
455.28	88.444
455.63	91.011
455.98	91.100
456.34	90.166
456.69	92.821
457.04	90.422
457.39	91.191
457.74	91.052
458.09	88.758
458.44	90.755
458.79	90.700
459.14	89.989
459.49	92.418
459.84	89.735
460.19	90.170
460.54	91.443
460.89	90.455
461.24	90.559
461.59	89.786
461.94	89.497
462.29	91.435
462.64	90.365
462.99	90.792
463.34	89.847
463.69	91.055
464.04	90.254
464.39	89.933
464.74	90.123
465.09	91.329
465.44	90.883
465.79	88.039
466.14	91.790
466.49	90.799
466.84	90.184
467.19	91.302
467.54	89.847
467.89	91.725
468.24	91.788
468.59	91.619
468.94	89.968
469.29	92.590
469.64	90.772
469.99	92.292
470.34	92.014
470.68	95.004
471.03	93.064
471.38	91.583
471.73	92.017
472.08	90.366
472.43	91.275
472.78	90.884
473.13	92.925
473.48	91.987
473.83	90.535
474.17	92.617
474.52	91.002
474.87	92.727
475.22	91.336
475.57	91.417
475.92	92.320
476.27	91.153
476.61	91.840
476.96	90.017
477.31	92.807
477.66	91.517
478.01	93.150
478.36	90.959
478.70	93.420
479.05	92.033
479.40	92.952
479.75	91.241
480.10	90.118
480.45	92.900
480.79	92.749
481.14	92.316
481.49	91.232
481.84	91.892
482.19	90.833
482.53	91.751
482.88	91.695
483.23	90.643
483.58	90.660
483.92	90.997
484.27	91.522
484.62	90.811
484.97	90.381
485.31	90.318
485.66	88.581
486.01	89.452
486.36	88.650
486.70	88.901
487.05	89.949
487.40	90.512
487.75	90.338
488.09	90.389
488.44	90.475
488.79	89.765
489.13	91.066
489.48	91.620
489.83	90.762
490.17	92.000
490.52	91.270
490.87	90.652
491.22	92.264
491.56	93.027
491.91	90.822
492.26	92.416
492.60	92.898
492.95	93.950
493.30	92.428
493.64	92.780
493.99	91.787
494.34	91.845
494.68	91.905
495.03	92.165
495.37	92.296
495.72	92.226
496.07	94.488
496.41	90.991
496.76	91.663
497.11	90.824
497.45	91.885
497.80	93.693
498.14	90.512
498.49	92.737
498.84	92.715
499.18	91.968
499.53	91.964
499.87	91.342
500.22	91.048
500.56	92.385
500.91	90.964
501.26	89.867
501.60	91.933
501.95	91.655
502.29	91.768
502.64	91.458
502.98	93.587
503.33	92.171
503.67	90.892
504.02	91.056
504.36	92.182
504.71	91.515
505.06	90.840
505.40	91.980
505.75	93.041
506.09	91.941
506.44	94.764
506.78	92.194
507.13	92.037
507.47	91.802
507.82	92.842
508.16	94.665
508.51	93.075
508.85	94.192
509.19	92.177
509.54	91.850
509.88	92.017
510.23	94.137
510.57	91.502
510.92	90.618
511.26	93.071
511.61	93.784
511.95	93.151
512.30	92.350
512.64	93.100
512.98	93.375
513.33	91.774
513.67	91.529
514.02	93.993
514.36	94.629
514.70	94.289
515.05	93.948
515.39	94.333
515.74	94.012
516.08	95.218
516.42	95.171
516.77	94.032
517.11	95.490
517.46	95.691
517.80	92.849
518.14	93.570
518.49	93.450
518.83	94.107
519.17	94.118
519.52	94.020
519.86	93.397
520.20	93.499
520.55	95.622
520.89	94.668
521.23	94.934
521.58	94.322
521.92	94.872
522.26	95.966
522.61	95.714
522.95	97.285
523.29	94.600
523.64	94.409
523.98	96.111
524.32	94.716
524.66	93.662
525.01	94.805
525.35	95.269
525.69	96.498
526.04	94.378
526.38	95.785
526.72	95.095
527.06	93.645
527.41	95.119
527.75	94.236
528.09	94.219
528.43	95.206
528.78	96.568
529.12	95.871
529.46	94.672
529.80	92.780
530.15	95.842
530.49	94.949
530.83	96.854
531.17	95.299
531.51	94.528
531.86	95.717
532.20	95.059
532.54	95.575
532.88	94.387
533.22	95.766
533.57	95.151
533.91	96.736
534.25	96.810
534.59	92.559
534.93	92.574
535.27	93.591
535.62	95.139
535.96	93.607
536.30	94.525
536.64	95.107
536.98	95.331
537.32	95.875
537.66	96.073
538.01	96.573
538.35	95.839
538.69	91.877
539.03	93.643
539.37	91.992
539.71	94.751
540.05	93.279
540.39	95.499
540.73	95.746
541.07	92.749
541.42	93.817
541.76	94.563
542.10	93.668
542.44	94.580
542.78	92.911
543.12	94.368
543.46	94.228
543.80	95.142
544.14	92.790
544.48	91.939
544.82	96.036
545.16	95.082
545.50	94.593
545.84	94.051
546.18	95.390
546.52	93.151
546.86	94.536
547.20	94.134
547.54	94.064
547.88	94.905
548.22	92.242
548.56	93.865
548.90	93.598
549.24	93.595
549.58	91.608
549.92	93.209
550.26	94.652
550.60	93.978
550.94	95.892
551.28	95.440
551.62	96.231
551.96	95.338
552.30	95.395
552.64	93.018
552.98	94.023
553.32	93.010
553.66	93.832
554.00	95.328
554.34	95.790
554.68	93.437
555.02	94.866
555.36	95.512
555.69	93.773
556.03	93.505
556.37	92.313
556.71	94.224
557.05	95.451
557.39	94.201
557.73	95.202
558.07	95.173
558.41	95.100
558.75	95.947
559.08	95.902
559.42	96.111
559.76	96.958
560.10	94.037
560.44	96.500
560.78	93.776
561.12	94.993
561.45	96.627
561.79	94.398
562.13	95.955
562.47	94.676
562.81	95.245
563.15	92.877
563.48	94.767
563.82	94.921
564.16	96.170
564.50	93.581
564.84	94.110
565.17	93.427
565.51	96.995
565.85	96.228
566.19	94.828
566.52	95.845
566.86	96.465
567.20	92.528
567.54	95.681
567.88	94.962
568.21	94.457
568.55	93.370
568.89	94.097
569.23	92.730
569.56	92.951
569.90	94.113
570.24	90.808
570.57	92.109
570.91	91.914
571.25	91.812
571.59	90.159
571.92	88.415
572.26	89.825
572.60	89.612
572.93	89.991
573.27	90.157
573.61	90.215
573.95	90.825
574.28	89.460
574.62	88.253
574.96	86.637
575.29	87.961
575.63	86.421
575.97	87.829
576.30	89.261
576.64	87.735
576.98	88.649
577.31	88.720
577.65	88.509
577.98	88.039
578.32	88.196
578.66	86.611
578.99	87.904
579.33	87.160
579.67	87.434
580.00	87.848
580.34	88.657
580.67	87.092
581.01	88.473
581.35	87.984
581.68	87.168
582.02	86.585
582.35	87.484
582.69	87.943
583.02	87.481
583.36	87.816
583.70	89.252
584.03	90.186
584.37	90.062
584.70	88.874
585.04	86.917
585.37	88.305
585.71	88.151
586.04	88.956
586.38	87.437
586.72	88.895
587.05	90.208
587.39	88.454
587.72	90.405
588.06	88.597
588.39	88.522
588.73	89.042
589.06	90.411
589.40	88.731
589.73	89.704
590.07	89.841
590.40	90.673
590.73	92.751
591.07	90.543
591.40	90.739
591.74	91.403
592.07	91.512
592.41	92.226
592.74	90.800
593.08	88.823
593.41	89.061
593.75	87.995
594.08	88.637
594.41	89.774
594.75	89.885
595.08	89.406
595.42	90.099
595.75	90.499
596.09	90.539
596.42	89.872
596.75	90.675
597.09	89.977
597.42	89.657
597.75	91.480
598.09	89.135
598.42	89.892
598.76	89.618
599.09	89.583
599.42	88.784
599.76	89.729
600.09	88.537
600.42	88.211
600.76	87.853
601.09	88.855
601.42	88.014
601.76	89.758
602.09	89.150
602.42	91.491
602.76	90.195
603.09	91.196
603.42	92.600
603.76	90.685
604.09	89.510
604.42	91.032
604.76	90.921
605.09	90.219
605.42	89.842
605.75	91.419
606.09	90.488
606.42	89.533
606.75	89.870
607.09	88.835
607.42	88.923
607.75	91.075
608.08	89.802
608.42	88.534
608.75	91.229
609.08	92.277
609.41	91.168
609.75	90.877
610.08	90.914
610.41	89.565
610.74	91.516
611.07	92.455
611.41	91.230
611.74	92.751
612.07	90.471
612.40	92.670
612.73	92.542
613.07	91.845
613.40	91.357
613.73	92.278
614.06	91.820
614.39	92.837
614.72	91.989
615.06	92.402
615.39	89.356
615.72	90.151
616.05	91.285
616.38	89.573
616.71	91.131
617.05	94.441
617.38	92.520
617.71	93.019
618.04	94.095
618.37	94.325
618.70	94.389
619.03	94.792
619.36	94.067
619.69	95.982
620.03	95.325
620.36	95.708
620.69	94.932
621.02	93.349
621.35	96.432
621.68	99.235
622.01	98.000
622.34	93.296
622.67	96.530
623.00	95.482
623.33	94.893
623.66	94.166
623.99	94.478
624.32	96.426
624.65	94.962
624.99	96.614
625.32	94.845
625.65	97.093
625.98	96.857
626.31	96.924
626.64	98.873
626.97	97.993
627.30	98.862
627.63	97.574
627.96	98.562
628.29	98.335
628.62	98.722
628.95	97.996
629.28	103.931
629.61	101.296
629.94	98.143
630.26	97.925
630.59	101.249
630.92	99.795
631.25	94.769
631.58	101.101
631.91	101.096
632.24	101.606
632.57	102.045
632.90	102.728
633.23	99.882
633.56	106.549
633.89	104.316
634.22	103.457
634.55	103.050
634.88	103.831
635.20	103.846
635.53	106.267
635.86	101.691
636.19	103.234
636.52	102.168
636.85	101.117
637.18	102.767
637.51	99.245
637.83	101.314
638.16	106.276
638.49	101.226
638.82	101.447
639.15	103.935
639.48	105.777
639.81	103.068
640.13	107.071
640.46	105.102
640.79	107.069
641.12	102.216
641.45	105.255
641.77	105.630
642.10	108.689
642.43	105.627
642.76	105.446
643.09	106.947
643.41	103.236
643.74	106.260
644.07	107.553
644.40	107.939
644.73	110.333
645.05	103.020
645.38	110.406
645.71	107.979
646.04	111.670
646.36	106.028
646.69	108.993
647.02	110.586
647.35	110.075
647.67	105.667
648.00	112.873
648.33	102.218
648.66	104.915
648.98	104.523
649.31	108.430
649.64	104.239
649.96	103.890
650.29	108.177
650.62	105.812
650.94	107.037
651.27	108.752
651.60	103.964
651.92	106.119
652.25	104.440
652.58	104.667
652.90	109.605
653.23	106.387
653.56	104.230
653.88	105.155
654.21	106.655
654.54	107.640
654.86	107.640
655.19	103.070
655.52	101.006
655.84	89.962
656.17	96.875
656.49	100.000
656.82	100.000
657.15	100.000
657.47	100.000
657.80	93.558
658.13	56.496
658.45	88.960
658.78	88.899
659.10	87.514
659.43	88.499
659.75	89.936
660.08	90.966
660.41	96.834
660.73	97.790
661.06	102.773
661.38	106.262
661.71	104.312
662.03	113.519
662.36	110.110
662.68	110.177
663.01	111.135
663.33	112.529
663.66	114.884
663.98	113.721
664.31	104.478
664.63	109.447
664.96	105.870
665.28	108.389
665.61	106.277
665.93	109.783
666.26	109.544
666.58	108.725
666.91	114.353
667.23	109.906
667.56	109.953
667.88	113.909
668.21	113.604
668.53	109.456
668.86	107.311
669.18	108.962
669.50	107.990
669.83	109.302
670.15	110.256
670.48	113.876
670.80	111.060
671.13	103.356
671.45	105.708
671.77	106.009
672.10	105.347
672.42	101.685
672.75	104.618
673.07	104.830
673.39	105.321
673.72	102.170
674.04	105.208
674.37	107.415
674.69	106.210
675.01	112.222
675.34	111.036
675.66	110.648
675.98	108.647
676.31	106.881
676.63	108.789
676.95	105.682
677.28	113.647
677.60	111.807
677.92	108.716
678.25	106.346
678.57	109.957
678.89	107.353
679.22	111.409
679.54	103.815
679.86	101.590
680.18	104.660
680.51	103.220
680.83	104.374
681.15	103.800
681.48	107.992
681.80	107.231
682.12	104.839
682.44	104.603
682.77	109.051
683.09	105.492
683.41	106.136
683.73	106.682
684.06	105.531
684.38	105.806
684.70	111.765
685.02	108.299
685.34	104.545
685.67	104.503
685.99	104.521
686.31	98.407
686.63	104.082
686.96	101.521
687.28	102.222
687.60	100.760
687.92	108.283
688.24	104.234
688.56	107.642
688.89	104.688
689.21	107.556
689.53	109.049
689.85	109.070
690.17	106.696
690.49	110.402
690.82	110.194
691.14	105.000
691.46	107.477
691.78	108.108
692.10	108.602
692.42	105.844
692.74	101.923
693.06	104.505
693.39	102.941
693.71	103.620
694.03	103.926
694.35	104.206
694.67	107.071
694.99	108.094
695.31	108.616
695.63	108.750
695.95	106.566
696.27	104.922
696.59	108.889
696.91	106.162
697.23	107.969
697.56	107.673
697.88	102.151
698.20	103.417
698.52	101.882
698.84	103.589
699.16	110.500
699.48	109.774
699.80	106.948
700.12	107.008
700.44	109.244
700.76	104.651
701.08	106.061
701.40	109.036
701.72	116.358
702.04	117.162
702.36	118.395
702.68	112.312
703.00	111.212
703.32	111.144
703.64	104.802
703.96	107.826
704.28	111.656
704.60	112.381
704.91	103.785
705.23	106.645
705.55	118.375
705.87	114.440
706.19	110.741
706.51	110.653
706.83	109.325
707.15	107.477
707.47	101.961
707.79	103.125
708.11	103.250
708.43	103.250
708.74	99.483
709.06	106.197
709.38	112.538
709.70	107.101
710.02	108.917
710.34	105.263
710.66	107.051
710.98	107.947
711.29	110.164
711.61	111.864
711.93	109.121
712.25	110.309
712.57	113.919
712.89	114.179
713.20	108.651
713.52	106.620
713.84	103.413
714.16	110.309
714.48	108.387
714.80	109.295
715.11	105.471
715.43	102.821
715.75	107.000
716.07	101.329
716.39	108.389
716.70	113.284
717.02	104.580
717.34	112.551
717.66	120.796
717.97	114.348
718.29	112.552
718.61	112.992
718.93	106.589
719.24	111.027
719.56	115.261
719.88	98.282
720.20	111.742
720.51	105.364
720.83	108.880
721.15	114.286
721.46	112.097
721.78	111.462
722.10	100.372
722.42	107.884
722.73	110.612
723.05	111.020
723.37	110.169
723.68	116.216
724.00	110.684
724.32	106.667
724.63	118.182
724.95	110.044
725.27	119.816
725.58	107.203
725.90	105.159
726.22	101.931
726.53	97.627
726.85	107.116
727.16	109.811
727.48	104.858
727.80	111.741
728.11	119.492
728.43	101.961
728.74	108.871
729.06	106.800
729.38	103.759
729.69	113.546
730.01	104.615
730.32	104.851
730.64	106.360
730.96	109.057
731.27	99.667
731.59	108.136
731.90	106.369
732.22	104.732
732.53	105.648
732.85	104.610
733.16	99.327
733.48	104.317
733.80	109.058
734.11	98.983
734.43	106.186
734.74	105.455
735.06	104.560
735.37	99.698
735.69	109.091
736.00	106.272
736.32	101.342
736.63	105.282
736.95	103.413
737.26	107.829
737.58	98.322
737.89	104.396
738.21	105.639
738.52	109.053
738.83	105.240
739.15	112.664
739.46	114.567
739.78	103.663
740.09	101.634
740.41	105.797
740.72	109.843
741.04	108.097
741.35	102.128
741.66	109.953
741.98	112.755
742.29	106.931
742.61	121.466
742.92	103.791
743.23	101.389
743.55	109.050
743.86	112.440
744.18	105.742
744.49	107.979
744.80	113.587
745.12	122.460
745.43	106.341
745.74	118.750
746.06	111.707
746.37	121.466
746.68	113.270
747.00	113.298
747.31	126.368
747.62	105.340
747.94	114.354
748.25	113.861
748.56	123.497
748.88	114.660
749.19	119.681
749.50	113.300
749.82	101.887
750.13	112.844
750.44	104.887
750.75	109.701
751.07	106.569
751.38	104.598
751.69	109.020
752.01	105.039
752.32	108.765
752.63	105.534
752.94	112.500
753.26	107.950
753.57	106.787
753.88	114.159
754.19	108.750
754.51	111.983
754.82	107.287
755.13	111.667
755.44	106.048
755.75	107.812
756.07	112.062
756.38	105.283
756.69	106.513
757.00	98.000
757.31	99.020
757.63	101.829
757.94	97.778
758.25	94.247
758.56	94.415
758.87	98.867
759.18	96.262
759.50	104.727
759.81	106.355
760.12	101.613
760.43	98.182
760.74	100.617
761.05	108.000
761.36	100.568
761.67	100.606
761.99	104.422
762.30	101.455
762.61	102.372
762.92	110.407
763.23	105.405
763.54	109.346
763.85	110.169
764.16	100.000
764.47	106.048
764.78	98.535
765.10	105.724
765.41	99.054
765.72	103.175
766.03	106.015
766.34	98.175
766.65	96.414
766.96	116.162
767.27	106.383
767.58	107.471
767.89	126.241
768.20	106.250
768.51	108.242
768.82	101.970
769.13	104.147
769.44	100.000
769.75	102.740
770.06	96.983
770.37	107.212
770.68	107.614
770.99	104.525
771.30	112.255
771.61	104.525
771.92	102.155
772.23	109.852
772.54	106.989
772.85	111.728
773.16	109.551
773.47	121.569
773.78	115.686
774.09	101.796
774.39	111.333
774.70	100.637
775.01	111.034
775.32	105.714
775.63	115.702
775.94	105.344
776.25	103.937
776.56	103.333
776.87	119.231
777.18	111.111
777.48	108.621
777.79	111.304
778.10	110.476
778.41	105.405
778.72	106.349
779.03	115.038
779.34	103.546
779.65	106.164
779.95	105.479
780.26	103.448
780.57	106.504
780.88	110.236
781.19	111.207
781.50	114.729
781.80	90.533
782.11	90.566
782.42	123.846
782.73	101.439
783.04	105.926
783.34	102.778
783.65	105.128
783.96	116.393
784.27	101.379
784.57	109.756
784.88	98.437
785.19	124.000
785.50	118.000
785.81	107.759
786.11	105.172
786.42	110.680
786.73	109.091
787.04	109.184
787.34	98.214
787.65	120.952
787.96	107.965
788.26	115.455
788.57	111.966
788.88	102.344
789.19	103.968
789.49	101.739
789.80	114.286
790.11	117.172
790.41	98.182
790.72	100.000
791.03	118.182
791.33	115.000
791.64	93.750
791.95	118.605
792.25	98.936
792.56	110.112
792.87	113.699
793.17	123.188
793.48	97.333
793.79	101.250
794.09	120.000
794.40	110.377
794.70	110.680
795.01	92.683
795.32	101.709
795.62	95.238
795.93	108.824
796.23	105.660
796.54	91.667
796.85	136.765
797.15	111.268
797.46	109.722
797.76	119.697
798.07	89.535
798.37	110.526
798.68	112.121
798.99	98.765
799.29	95.714
799.60	105.797
799.90	120.000
800.21	108.197
800.51	121.538
800.82	113.559
801.12	94.203
801.43	101.639
801.73	106.349
802.04	136.000
802.34	102.985
802.65	128.846
802.95	94.643
803.26	119.231
803.56	115.686
803.87	121.739
804.17	104.000
804.48	117.460
804.78	109.259
805.09	106.522
805.39	111.111
805.70	107.407
806.00	87.719
806.30	108.451
806.61	111.429
806.91	104.167
807.22	106.579
807.52	106.667
807.83	109.091
808.13	86.111
808.43	110.294
808.74	104.478
809.04	88.136
809.35	123.077
809.65	95.312
809.95	116.216
810.26	122.727
810.56	73.973
810.86	116.667
811.17	102.000
811.47	130.612
811.77	105.263
812.08	111.364
812.38	90.566
812.69	107.500
812.99	103.030
813.29	131.579
813.59	131.429
813.90	118.182
814.20	92.308
814.50	98.077
814.81	116.981
815.11	89.362
815.41	101.695
815.72	102.381
816.02	92.157
816.32	93.750
816.62	97.561
816.93	102.703
817.23	111.429
817.53	120.833
817.84	86.957
818.14	69.231
818.44	100.000
818.74	119.565
819.04	72.500
819.35	91.892
819.65	94.118
819.95	77.778
820.25	64.286
820.56	120.000
820.86	93.103
821.16	130.000
821.46	104.255
821.76	135.000
822.07	104.651
822.37	72.973
822.67	96.875
822.97	97.619
823.27	71.429
823.57	120.000
823.88	118.519
824.18	110.714
824.48	111.765
824.78	83.871
825.08	182.609
825.38	90.909
825.69	108.333
825.99	81.579
826.29	122.222
826.59	173.333
826.89	123.810
827.19	86.957
827.49	102.500
827.79	122.857
828.09	150.000
828.39	130.303
828.70	129.730
829.00	96.429
829.30	147.619
829.60	86.667
829.90	115.625
830.20	81.579
830.50	81.481
830.80	130.435
831.10	136.364
831.40	66.667
831.70	90.323
832.00	123.810
832.30	76.190
832.60	141.667
832.90	96.552
833.20	100.000
833.50	78.788
833.80	88.889
834.10	111.538
834.40	65.625
834.70	255.556
835.00	131.579
835.30	153.846
835.60	180.000
835.90	93.548
836.20	150.000
836.50	82.143
836.80	61.538
837.10	89.286
837.40	200.000
837.70	136.364
838.00	145.455
838.30	108.696
838.60	76.923
838.90	109.091
839.19	67.857
839.49	83.333
839.79	130.769
840.09	125.000
840.39	114.286
840.69	92.857
840.99	50.000
841.29	89.474
841.59	100.000
841.88	136.364
842.18	140.000
842.48	181.250
842.78	73.333
843.08	96.296
843.38	30.000
843.68	104.348
843.97	106.667
844.27	46.667
844.57	120.000
844.87	72.222
845.17	61.905
845.47	126.667
845.76	28.571
846.06	82.353
846.36	170.000
846.66	114.286
846.96	106.667
847.25	-100.000
847.55	135.714
847.85	175.000
848.15	72.727
848.44	-133.333
848.74	120.000
849.04	66.667
849.34	109.091
849.63	50.000
849.93	120.000
850.23	50.000
850.53	180.000
850.82	100.000
851.12	100.000
851.42	133.333
851.71	42.308
852.01	128.571
852.31	225.000
852.61	163.636
852.90	35.000
853.20	147.368
853.50	116.667
853.79	95.652
854.09	112.500
854.39	89.474
854.68	58.333
854.98	64.516
855.28	119.231
855.57	80.000
855.87	127.778
856.17	85.185
856.46	71.429
856.76	113.333
857.05	266.667
857.35	32.000
857.65	94.444
857.94	138.462
858.24	124.138
858.53	150.000
858.83	88.889
859.13	77.273
859.42	34.783
859.72	250.000
860.01	-166.667
860.31	72.000
860.60	33.333
860.90	266.667
861.20	20.000
861.49	300.000
861.79	73.333
862.08	90.000
862.38	100.000
862.67	160.000
862.97	83.333
863.26	66.667
863.56	38.889
863.85	366.667
864.15	38.889
864.44	60.000
864.74	107.143
865.03	-125.000
865.33	60.000
865.62	50.000
865.92	75.000
866.21	150.000
866.51	56.250
866.80	90.909
867.10	-150.000
867.39	191.667
867.69	0.000
867.98	46.154
868.27	466.667
868.57	106.667
868.86	61.111
869.16	61.538
869.45	126.667
869.75	500.000
870.04	0.000
870.33	142.857
870.63	95.238
870.92	66.667
871.22	-120.000
871.51	600.000
871.80	211.111
872.10	-0.000
>>>>>End Processed Spectral Data<<<<<
