SpectraSuite Data File
++++++++++++++++++++++++++++++++++++
Date: Fri May 15 20:11:45 PDT 2015
User: schluterlab
Dark Spectrum Present: Yes
Reference Spectrum Present: Yes
Number of Sampled Component Spectra: 1
Spectrometers: USB2E3373
Integration Time (usec): 3000 (USB2E3373)
Spectra Averaged: 3 (USB2E3373)
Boxcar Smoothing: 0 (USB2E3373)
Correct for Electrical Dark: No (USB2E3373)
Strobe/Lamp Enabled: No (USB2E3373)
Correct for Detector Non-linearity: No (USB2E3373)
Correct for Stray Light: No (USB2E3373)
Number of Pixels in Processed Spectrum: 2048
>>>>>Begin Processed Spectral Data<<<<<
178.53	0.000
178.91	0.000
179.29	50.000
179.67	-250.000
180.04	28.571
180.42	150.000
180.80	200.000
181.18	-266.667
181.56	200.000
181.94	200.000
182.31	100.000
182.69	-160.000
183.07	-166.667
183.45	0.000
183.83	116.667
184.20	27.273
184.58	66.667
184.96	50.000
185.34	133.333
185.72	-250.000
186.09	84.615
186.47	-300.000
186.85	116.667
187.23	-11.111
187.61	-400.000
187.98	166.667
188.36	100.000
188.74	-133.333
189.12	100.000
189.49	27.778
189.87	0.000
190.25	57.143
190.63	100.000
191.00	33.333
191.38	57.895
191.76	550.000
192.14	-300.000
192.51	450.000
192.89	-44.444
193.27	-14.286
193.65	-16.667
194.02	127.273
194.40	150.000
194.78	0.000
195.15	-58.333
195.53	37.500
195.91	225.000
196.29	-175.000
196.66	130.769
197.04	28.571
197.42	-100.000
197.79	-166.667
198.17	-23.077
198.55	-100.000
198.92	-200.000
199.30	-700.000
199.68	120.000
200.05	-266.667
200.43	0.000
200.81	33.333
201.18	-100.000
201.56	100.000
201.94	-150.000
202.31	-266.667
202.69	-140.000
203.07	-25.000
203.44	300.000
203.82	0.000
204.19	35.714
204.57	-300.000
204.95	112.500
205.32	90.000
205.70	-71.429
206.08	150.000
206.45	111.111
206.83	85.714
207.20	-100.000
207.58	200.000
207.96	33.333
208.33	0.000
208.71	250.000
209.08	-166.667
209.46	-500.000
209.84	0.000
210.21	-300.000
210.59	14.286
210.96	16.667
211.34	0.000
211.71	40.000
212.09	-85.714
212.46	-1300.000
212.84	0.000
213.22	130.000
213.59	600.000
213.97	0.000
214.34	72.727
214.72	33.333
215.09	275.000
215.47	-7.692
215.84	-27.273
216.22	-400.000
216.59	-87.500
216.97	400.000
217.34	50.000
217.72	-160.000
218.09	187.500
218.47	62.500
218.84	-400.000
219.22	-33.333
219.59	-180.000
219.97	333.333
220.34	175.000
220.72	-114.286
221.09	-75.000
221.47	-250.000
221.84	-100.000
222.22	-750.000
222.59	154.545
222.97	33.333
223.34	-233.333
223.72	7.143
224.09	47.619
224.46	64.286
224.84	400.000
225.21	20.000
225.59	60.000
225.96	-300.000
226.34	425.000
226.71	-14.286
227.08	-66.667
227.46	37.500
227.83	200.000
228.21	66.667
228.58	36.364
228.95	75.000
229.33	120.000
229.70	81.250
230.08	-162.500
230.45	-42.857
230.82	142.857
231.20	40.000
231.57	135.714
231.95	-157.143
232.32	10.000
232.69	50.000
233.07	100.000
233.44	0.000
233.81	10.000
234.19	-11.111
234.56	29.412
234.93	-100.000
235.31	125.000
235.68	-40.000
236.05	-46.154
236.43	-30.000
236.80	-52.941
237.17	9.375
237.55	-5.000
237.92	-29.630
238.29	5.556
238.67	-3.333
239.04	-5.882
239.41	-26.829
239.79	-33.333
240.16	24.390
240.53	-26.316
240.91	-2.174
241.28	-4.762
241.65	17.857
242.02	20.548
242.40	13.333
242.77	0.000
243.14	-6.061
243.51	-1.250
243.89	10.345
244.26	2.299
244.63	-2.381
245.00	6.186
245.38	0.000
245.75	-3.371
246.12	-4.310
246.49	4.132
246.87	4.808
247.24	5.042
247.61	3.509
247.98	0.000
248.36	-0.625
248.73	0.658
249.10	0.649
249.47	0.000
249.84	-1.307
250.22	3.529
250.59	1.307
250.96	7.981
251.33	2.326
251.70	4.118
252.08	3.553
252.45	0.990
252.82	0.503
253.19	4.147
253.56	3.271
253.94	6.306
254.31	5.217
254.68	4.386
255.05	3.150
255.42	0.437
255.79	3.861
256.16	4.280
256.54	4.478
256.91	5.703
257.28	2.974
257.65	2.247
258.02	1.773
258.39	3.704
258.76	3.297
259.14	2.990
259.51	2.265
259.88	4.467
260.25	2.614
260.62	3.819
260.99	0.000
261.36	2.397
261.73	1.899
262.10	2.432
262.47	-0.307
262.85	5.016
263.22	3.077
263.59	2.804
263.96	2.484
264.33	5.152
264.70	5.952
265.07	-2.381
265.44	3.116
265.81	2.542
266.18	3.279
266.55	1.542
266.92	4.922
267.29	3.655
267.66	0.767
268.03	4.450
268.40	4.178
268.77	5.615
269.14	2.638
269.51	6.684
269.88	1.247
270.25	2.041
270.62	2.195
270.99	0.767
271.36	3.178
271.73	6.103
272.10	1.460
272.47	1.655
272.84	1.733
273.21	5.336
273.58	4.819
273.95	2.975
274.32	1.848
274.69	0.226
275.06	4.688
275.43	1.134
275.80	1.987
276.17	1.609
276.54	4.711
276.91	2.412
277.28	0.873
277.65	2.686
278.02	4.043
278.39	2.188
278.76	1.468
279.13	0.415
279.50	3.361
279.87	3.240
280.23	1.290
280.60	4.483
280.97	4.242
281.34	1.731
281.71	3.901
282.08	1.431
282.45	2.153
282.82	2.510
283.19	2.128
283.56	2.312
283.92	-0.949
284.29	1.731
284.66	1.163
285.03	3.733
285.40	2.079
285.77	1.933
286.14	4.874
286.51	3.690
286.87	1.828
287.24	1.842
287.61	1.940
287.98	5.088
288.35	2.946
288.72	4.553
289.08	5.035
289.45	2.460
289.82	4.545
290.19	3.754
290.56	1.201
290.93	0.505
291.29	3.082
291.66	3.465
292.03	3.349
292.40	3.387
292.77	2.073
293.13	0.649
293.50	1.669
293.87	3.206
294.24	2.473
294.60	1.341
294.97	4.018
295.34	1.687
295.71	3.130
296.08	1.196
296.44	-0.142
296.81	0.833
297.18	2.029
297.55	2.981
297.91	3.288
298.28	2.902
298.65	1.628
299.02	3.235
299.38	-0.821
299.75	1.517
300.12	1.178
300.48	1.318
300.85	2.281
301.22	1.688
301.59	0.263
301.95	1.899
302.32	2.205
302.69	2.861
303.05	1.361
303.42	1.743
303.79	2.570
304.15	2.509
304.52	0.832
304.89	1.170
305.25	2.421
305.62	0.350
305.99	1.637
306.35	1.734
306.72	0.675
307.09	2.623
307.45	2.870
307.82	2.199
308.19	1.858
308.55	2.617
308.92	2.397
309.29	1.564
309.65	2.153
310.02	1.760
310.38	3.074
310.75	2.077
311.12	1.722
311.48	2.651
311.85	1.152
312.22	2.426
312.58	2.335
312.95	2.988
313.31	1.139
313.68	1.361
314.05	1.633
314.41	1.959
314.78	1.959
315.14	2.467
315.51	3.106
315.87	0.410
316.24	2.831
316.61	1.772
316.97	2.976
317.34	2.246
317.70	2.199
318.07	3.173
318.43	3.039
318.80	2.178
319.16	3.027
319.53	3.419
319.89	2.165
320.26	2.530
320.62	3.611
320.99	1.775
321.35	3.083
321.72	3.634
322.08	3.525
322.45	3.553
322.81	4.224
323.18	3.140
323.54	3.185
323.91	4.771
324.27	3.906
324.64	4.213
325.00	4.836
325.37	6.612
325.73	4.533
326.10	4.995
326.46	5.471
326.83	5.774
327.19	6.016
327.56	6.082
327.92	6.250
328.29	5.446
328.65	6.509
329.01	6.250
329.38	6.912
329.74	6.138
330.11	7.322
330.47	6.494
330.84	6.346
331.20	7.985
331.56	7.963
331.93	9.315
332.29	7.883
332.66	8.597
333.02	6.970
333.38	7.791
333.75	8.333
334.11	7.789
334.48	9.882
334.84	9.158
335.20	8.783
335.57	8.704
335.93	9.304
336.29	9.576
336.66	8.719
337.02	7.621
337.38	8.148
337.75	8.636
338.11	9.739
338.47	8.668
338.84	9.797
339.20	8.044
339.56	10.000
339.93	9.758
340.29	10.000
340.65	10.484
341.02	8.245
341.38	8.584
341.74	8.569
342.11	8.925
342.47	9.075
342.83	10.121
343.20	8.711
343.56	9.826
343.92	9.920
344.28	9.223
344.65	8.895
345.01	9.075
345.37	10.008
345.73	9.289
346.10	9.750
346.46	10.261
346.82	9.493
347.19	7.897
347.55	9.942
347.91	9.709
348.27	10.428
348.63	10.477
349.00	9.762
349.36	9.559
349.72	9.536
350.08	9.918
350.45	9.577
350.81	8.887
351.17	8.958
351.53	10.531
351.89	9.496
352.26	9.440
352.62	9.355
352.98	9.478
353.34	9.018
353.70	10.356
354.07	11.210
354.43	10.488
354.79	9.331
355.15	9.762
355.51	9.810
355.87	10.437
356.24	8.564
356.60	10.833
356.96	10.238
357.32	9.984
357.68	10.242
358.04	10.339
358.40	9.566
358.77	10.766
359.13	9.928
359.49	10.015
359.85	9.750
360.21	10.367
360.57	9.564
360.93	10.212
361.29	9.290
361.66	10.580
362.02	10.682
362.38	11.120
362.74	9.463
363.10	10.986
363.46	10.156
363.82	12.021
364.18	10.332
364.54	10.294
364.90	10.753
365.26	10.771
365.62	11.898
365.98	11.144
366.35	11.653
366.71	11.013
367.07	10.668
367.43	10.496
367.79	11.307
368.15	11.486
368.51	11.216
368.87	10.266
369.23	10.614
369.59	11.589
369.95	10.630
370.31	11.705
370.67	11.493
371.03	11.053
371.39	10.941
371.75	11.429
372.11	11.912
372.47	12.648
372.83	11.994
373.19	10.984
373.55	10.830
373.91	12.311
374.27	12.261
374.63	12.778
374.99	11.986
375.35	11.908
375.71	13.147
376.07	13.202
376.42	13.061
376.78	12.953
377.14	12.119
377.50	12.151
377.86	13.119
378.22	12.827
378.58	12.885
378.94	12.665
379.30	12.040
379.66	12.539
380.02	12.814
380.38	12.964
380.74	13.226
381.09	14.540
381.45	13.761
381.81	13.510
382.17	14.340
382.53	13.367
382.89	12.806
383.25	14.375
383.61	15.366
383.97	13.587
384.32	14.634
384.68	14.861
385.04	13.664
385.40	13.939
385.76	14.717
386.12	15.524
386.48	15.517
386.83	15.029
387.19	16.117
387.55	15.621
387.91	15.281
388.27	14.591
388.62	15.041
388.98	15.285
389.34	15.240
389.70	15.662
390.06	14.978
390.42	15.609
390.77	15.566
391.13	15.574
391.49	15.783
391.85	16.309
392.20	16.008
392.56	16.211
392.92	16.911
393.28	15.920
393.64	16.577
393.99	16.614
394.35	16.698
394.71	16.603
395.07	15.902
395.42	16.454
395.78	16.938
396.14	17.087
396.50	17.185
396.85	16.484
397.21	16.855
397.57	16.489
397.92	17.016
398.28	16.897
398.64	15.964
399.00	17.325
399.35	16.874
399.71	17.117
400.07	16.929
400.42	16.585
400.78	18.187
401.14	17.604
401.49	16.557
401.85	17.246
402.21	17.410
402.57	17.562
402.92	16.813
403.28	17.669
403.63	17.528
403.99	17.666
404.35	17.052
404.70	17.262
405.06	17.156
405.42	17.216
405.77	16.734
406.13	17.171
406.49	16.874
406.84	17.848
407.20	18.182
407.55	16.871
407.91	16.979
408.27	16.826
408.62	18.092
408.98	17.437
409.34	18.092
409.69	18.152
410.05	16.872
410.40	17.716
410.76	18.637
411.11	17.750
411.47	18.212
411.83	16.573
412.18	17.310
412.54	17.665
412.89	17.241
413.25	18.111
413.60	17.391
413.96	17.730
414.31	18.902
414.67	17.768
415.03	17.643
415.38	17.493
415.74	18.762
416.09	17.897
416.45	18.771
416.80	17.779
417.16	18.715
417.51	18.454
417.87	17.666
418.22	18.782
418.58	19.130
418.93	19.122
419.29	17.414
419.64	18.535
420.00	20.025
420.35	18.507
420.71	18.773
421.06	18.600
421.42	19.291
421.77	18.960
422.12	18.615
422.48	18.300
422.83	18.619
423.19	18.679
423.54	17.989
423.90	18.846
424.25	19.518
424.61	19.461
424.96	18.931
425.31	19.180
425.67	19.836
426.02	19.847
426.38	19.599
426.73	19.189
427.09	18.671
427.44	20.118
427.79	19.151
428.15	19.296
428.50	19.443
428.85	18.489
429.21	19.072
429.56	19.030
429.92	19.363
430.27	19.649
430.62	19.080
430.98	19.108
431.33	20.032
431.68	18.995
432.04	18.893
432.39	18.140
432.74	19.302
433.10	19.828
433.45	19.594
433.80	20.255
434.16	19.169
434.51	19.677
434.86	19.744
435.22	20.752
435.57	19.900
435.92	19.401
436.28	19.499
436.63	19.681
436.98	19.699
437.34	19.238
437.69	20.095
438.04	19.829
438.39	19.365
438.75	19.672
439.10	19.694
439.45	20.146
439.81	19.939
440.16	20.784
440.51	20.776
440.86	21.390
441.22	20.136
441.57	20.033
441.92	20.357
442.27	20.288
442.63	21.306
442.98	20.620
443.33	20.646
443.68	20.000
444.03	21.063
444.39	20.462
444.74	21.126
445.09	20.824
445.44	20.513
445.79	21.042
446.15	20.430
446.50	20.410
446.85	20.085
447.20	20.125
447.55	21.150
447.91	20.530
448.26	20.489
448.61	20.725
448.96	20.769
449.31	20.347
449.66	20.732
450.02	20.936
450.37	20.391
450.72	20.160
451.07	20.759
451.42	20.787
451.77	21.097
452.12	20.036
452.47	20.155
452.83	21.496
453.18	20.177
453.53	21.239
453.88	20.522
454.23	20.652
454.58	20.088
454.93	21.005
455.28	19.873
455.63	21.141
455.98	21.888
456.34	21.456
456.69	21.347
457.04	22.243
457.39	21.324
457.74	19.891
458.09	20.895
458.44	20.655
458.79	20.000
459.14	20.938
459.49	20.418
459.84	20.981
460.19	20.752
460.54	22.433
460.89	20.966
461.24	21.118
461.59	21.615
461.94	20.440
462.29	21.894
462.64	20.465
462.99	21.530
463.34	20.932
463.69	20.849
464.04	21.610
464.39	21.892
464.74	21.472
465.09	22.208
465.44	20.889
465.79	20.408
466.14	20.924
466.49	21.449
466.84	21.654
467.19	21.652
467.54	21.520
467.89	20.783
468.24	20.742
468.59	21.778
468.94	21.397
469.29	21.639
469.64	20.916
469.99	22.004
470.34	20.341
470.68	21.327
471.03	21.727
471.38	21.897
471.73	21.779
472.08	20.488
472.43	21.745
472.78	20.219
473.13	21.633
473.48	21.564
473.83	21.544
474.17	22.150
474.52	21.634
474.87	21.515
475.22	20.866
475.57	20.779
475.92	21.613
476.27	22.352
476.61	21.875
476.96	21.361
477.31	22.174
477.66	21.348
478.01	21.561
478.36	21.405
478.70	22.077
479.05	21.923
479.40	22.046
479.75	20.855
480.10	20.942
480.45	22.150
480.79	22.659
481.14	22.131
481.49	21.576
481.84	21.815
482.19	21.094
482.53	22.302
482.88	21.957
483.23	21.977
483.58	21.321
483.92	21.781
484.27	21.604
484.62	21.739
484.97	21.310
485.31	20.990
485.66	20.983
486.01	21.509
486.36	20.648
486.70	20.883
487.05	21.242
487.40	21.484
487.75	21.859
488.09	21.508
488.44	22.215
488.79	21.853
489.13	21.715
489.48	22.018
489.83	21.525
490.17	21.978
490.52	22.079
490.87	21.934
491.22	22.397
491.56	21.964
491.91	21.654
492.26	22.752
492.60	22.169
492.95	22.823
493.30	22.081
493.64	22.544
493.99	22.271
494.34	22.282
494.68	22.762
495.03	21.752
495.37	22.375
495.72	22.312
496.07	22.244
496.41	22.123
496.76	23.077
497.11	22.170
497.45	22.482
497.80	22.957
498.14	21.808
498.49	22.905
498.84	22.455
499.18	22.942
499.53	22.421
499.87	22.374
500.22	22.552
500.56	23.500
500.91	23.343
501.26	22.442
501.60	22.577
501.95	22.077
502.29	22.470
502.64	23.021
502.98	22.595
503.33	22.671
503.67	23.036
504.02	22.972
504.36	23.008
504.71	21.818
505.06	22.849
505.40	23.096
505.75	22.216
506.09	21.896
506.44	23.255
506.78	23.010
507.13	22.958
507.47	22.402
507.82	22.382
508.16	22.610
508.51	23.295
508.85	23.129
509.19	22.778
509.54	23.164
509.88	22.816
510.23	23.346
510.57	23.196
510.92	21.802
511.26	22.859
511.61	24.587
511.95	23.014
512.30	23.004
512.64	23.038
512.98	22.684
513.33	23.391
513.67	22.285
514.02	24.714
514.36	23.714
514.70	24.476
515.05	24.501
515.39	23.081
515.74	23.952
516.08	23.730
516.42	23.852
516.77	24.985
517.11	24.036
517.46	23.938
517.80	24.255
518.14	23.760
518.49	24.459
518.83	23.147
519.17	23.469
519.52	24.452
519.86	23.529
520.20	24.666
520.55	24.015
520.89	24.467
521.23	23.686
521.58	25.489
521.92	24.038
522.26	23.943
522.61	24.416
522.95	25.166
523.29	24.142
523.64	25.476
523.98	24.498
524.32	23.905
524.66	24.840
525.01	25.065
525.35	24.951
525.69	24.108
526.04	24.074
526.38	26.070
526.72	24.068
527.06	23.800
527.41	24.472
527.75	24.732
528.09	24.518
528.43	26.131
528.78	24.158
529.12	24.903
529.46	24.886
529.80	24.699
530.15	25.347
530.49	25.320
530.83	25.308
531.17	24.312
531.51	26.060
531.86	24.405
532.20	24.983
532.54	25.051
532.88	25.667
533.22	25.202
533.57	24.771
533.91	24.674
534.25	26.302
534.59	25.529
534.93	24.858
535.27	25.381
535.62	24.498
535.96	25.636
536.30	25.066
536.64	25.706
536.98	24.669
537.32	25.107
537.66	25.666
538.01	26.364
538.35	24.827
538.69	24.900
539.03	25.290
539.37	24.764
539.71	24.744
540.05	25.322
540.39	25.970
540.73	25.872
541.07	26.243
541.42	27.352
541.76	25.877
542.10	25.189
542.44	25.782
542.78	24.432
543.12	24.451
543.46	26.495
543.80	25.885
544.14	24.833
544.48	25.050
544.82	25.154
545.16	25.683
545.50	25.701
545.84	25.637
546.18	25.674
546.52	26.244
546.86	25.234
547.20	25.608
547.54	24.947
547.88	26.834
548.22	25.049
548.56	25.594
548.90	25.674
549.24	25.207
549.58	26.446
549.92	24.518
550.26	25.934
550.60	25.725
550.94	26.811
551.28	26.043
551.62	26.308
551.96	25.865
552.30	26.827
552.64	24.894
552.98	26.793
553.32	25.464
553.66	24.964
554.00	25.839
554.34	26.588
554.68	25.516
555.02	26.339
555.36	27.076
555.69	26.227
556.03	25.981
556.37	25.765
556.71	26.787
557.05	25.951
557.39	24.833
557.73	26.612
558.07	25.490
558.41	26.263
558.75	25.643
559.08	26.162
559.42	26.905
559.76	26.821
560.10	25.994
560.44	25.838
560.78	27.413
561.12	26.657
561.45	26.915
561.79	26.821
562.13	27.040
562.47	25.468
562.81	26.657
563.15	25.952
563.48	26.379
563.82	26.699
564.16	25.836
564.50	26.216
564.84	26.506
565.17	26.559
565.51	27.049
565.85	27.229
566.19	25.928
566.52	26.676
566.86	26.864
567.20	25.654
567.54	25.487
567.88	25.893
568.21	25.962
568.55	25.380
568.89	26.437
569.23	25.373
569.56	25.701
569.90	26.472
570.24	25.195
570.57	25.309
570.91	25.619
571.25	24.696
571.59	24.883
571.92	24.059
572.26	24.638
572.60	24.837
572.93	24.318
573.27	24.357
573.61	24.463
573.95	24.276
574.28	24.709
574.62	24.002
574.96	24.458
575.29	24.079
575.63	24.048
575.97	24.424
576.30	24.543
576.64	23.921
576.98	24.762
577.31	25.018
577.65	24.862
577.98	24.429
578.32	24.296
578.66	24.049
578.99	24.403
579.33	24.282
579.67	24.653
580.00	24.734
580.34	24.751
580.67	24.382
581.01	24.616
581.35	24.483
581.68	24.660
582.02	24.280
582.35	24.067
582.69	24.620
583.02	24.461
583.36	24.627
583.70	25.312
584.03	25.049
584.37	26.087
584.70	24.753
585.04	24.171
585.37	24.349
585.71	24.118
586.04	24.609
586.38	24.860
586.72	24.878
587.05	25.217
587.39	24.937
587.72	25.369
588.06	25.131
588.39	25.036
588.73	25.305
589.06	25.701
589.40	25.544
589.73	25.812
590.07	25.982
590.40	25.697
590.73	26.071
591.07	26.081
591.40	25.334
591.74	26.154
592.07	25.928
592.41	26.237
592.74	24.691
593.08	24.101
593.41	25.338
593.75	25.123
594.08	24.957
594.41	25.255
594.75	24.962
595.08	25.691
595.42	25.064
595.75	25.347
596.09	25.410
596.42	25.796
596.75	25.844
597.09	25.421
597.42	25.881
597.75	25.424
598.09	25.758
598.42	24.774
598.76	25.268
599.09	25.200
599.42	24.744
599.76	25.621
600.09	25.339
600.42	24.829
600.76	24.591
601.09	24.962
601.42	24.951
601.76	25.208
602.09	25.454
602.42	26.074
602.76	25.382
603.09	25.332
603.42	26.338
603.76	25.121
604.09	24.585
604.42	25.338
604.76	25.901
605.09	26.051
605.42	25.959
605.75	25.613
606.09	25.393
606.42	25.688
606.75	25.541
607.09	25.626
607.42	24.767
607.75	25.666
608.08	24.483
608.42	24.806
608.75	25.928
609.08	25.262
609.41	26.142
609.75	25.907
610.08	25.312
610.41	25.121
610.74	25.987
611.07	25.581
611.41	26.258
611.74	26.333
612.07	26.285
612.40	26.422
612.73	25.932
613.07	25.928
613.40	25.109
613.73	25.853
614.06	26.822
614.39	26.678
614.72	26.050
615.06	25.475
615.39	24.945
615.72	25.942
616.05	25.922
616.38	25.299
616.71	26.728
617.05	26.436
617.38	27.216
617.71	25.786
618.04	26.667
618.37	27.427
618.70	27.261
619.03	27.569
619.36	26.266
619.69	26.839
620.03	27.757
620.36	25.751
620.69	26.481
621.02	27.752
621.35	28.216
621.68	27.721
622.01	27.750
622.34	27.135
622.67	28.155
623.00	26.646
623.33	27.134
623.66	26.552
623.99	26.853
624.32	26.996
624.65	27.368
624.99	26.938
625.32	26.459
625.65	27.101
625.98	27.961
626.31	26.351
626.64	28.510
626.97	28.447
627.30	26.532
627.63	28.163
627.96	28.212
628.29	28.585
628.62	29.597
628.95	28.557
629.28	28.024
629.61	28.415
629.94	29.912
630.26	27.569
630.59	29.657
630.92	29.641
631.25	28.205
631.58	28.414
631.91	27.632
632.24	28.670
632.57	28.068
632.90	28.826
633.23	29.882
633.56	29.219
633.89	30.456
634.22	29.753
634.55	30.750
634.88	28.225
635.20	28.205
635.53	29.200
635.86	28.218
636.19	29.107
636.52	29.592
636.85	28.412
637.18	27.547
637.51	28.050
637.83	28.778
638.16	31.651
638.49	29.155
638.82	29.737
639.15	29.579
639.48	27.785
639.81	30.265
640.13	30.303
640.46	30.175
640.79	29.750
641.12	28.360
641.45	30.480
641.77	27.111
642.10	31.280
642.43	28.135
642.76	29.043
643.09	31.502
643.41	27.670
643.74	30.643
644.07	29.064
644.40	31.081
644.73	32.925
645.05	29.530
645.38	32.451
645.71	29.255
646.04	32.136
646.36	31.915
646.69	30.935
647.02	33.648
647.35	32.836
647.67	30.347
648.00	32.649
648.33	30.546
648.66	30.339
648.98	28.811
649.31	28.595
649.64	28.728
649.96	29.498
650.29	31.346
650.62	30.427
650.94	28.333
651.27	29.981
651.60	31.171
651.92	30.594
652.25	30.906
652.58	30.500
652.90	28.816
653.23	28.908
653.56	28.765
653.88	28.007
654.21	29.247
654.54	30.051
654.86	29.711
655.19	27.485
655.52	27.245
655.84	24.342
656.17	26.705
656.49	36.042
656.82	37.717
657.15	29.002
657.47	21.719
657.80	15.900
658.13	15.938
658.45	24.627
658.78	24.710
659.10	24.860
659.43	24.629
659.75	26.443
660.08	27.724
660.41	28.498
660.73	28.039
661.06	30.676
661.38	29.941
661.71	30.801
662.03	33.476
662.36	28.791
662.68	28.540
663.01	30.786
663.33	29.002
663.66	30.233
663.98	29.070
664.31	29.638
664.63	27.880
664.96	32.174
665.28	28.918
665.61	31.818
665.93	31.739
666.26	31.020
666.58	29.530
666.91	32.000
667.23	30.896
667.56	32.701
667.88	31.894
668.21	29.594
668.53	35.225
668.86	29.953
669.18	30.425
669.50	30.751
669.83	30.233
670.15	30.070
670.48	29.665
670.80	30.184
671.13	29.530
671.45	27.626
671.77	30.901
672.10	28.515
672.42	29.026
672.75	29.485
673.07	31.843
673.39	31.193
673.72	27.022
674.04	30.833
674.37	31.992
674.69	28.694
675.01	30.000
675.34	29.505
675.66	32.639
675.98	31.264
676.31	31.881
676.63	28.741
676.95	29.091
677.28	30.118
677.60	33.494
677.92	30.275
678.25	30.416
678.57	29.870
678.89	31.723
679.22	33.781
679.54	27.108
679.86	29.622
680.18	27.961
680.51	28.788
680.83	26.441
681.15	28.200
681.48	31.762
681.80	28.926
682.12	31.452
682.44	28.033
682.77	29.581
683.09	29.519
683.41	28.409
683.73	27.189
684.06	28.982
684.38	27.527
684.70	29.194
685.02	28.216
685.34	26.680
685.67	27.392
685.99	28.933
686.31	28.673
686.63	28.571
686.96	27.186
687.28	24.848
687.60	26.996
687.92	30.101
688.24	28.629
688.56	28.603
688.89	30.134
689.21	28.444
689.53	29.930
689.85	29.070
690.17	28.348
690.49	30.024
690.82	29.369
691.14	29.048
691.46	29.673
691.78	28.829
692.10	32.043
692.42	28.571
692.74	29.487
693.06	28.378
693.39	28.959
693.71	28.054
694.03	29.561
694.35	28.505
694.67	29.798
694.99	27.154
695.31	29.504
695.63	28.250
695.95	27.525
696.27	28.756
696.59	28.611
696.91	29.132
697.23	25.450
697.56	29.703
697.88	30.968
698.20	27.563
698.52	28.471
698.84	27.751
699.16	27.250
699.48	29.825
699.80	26.799
700.12	30.189
700.44	31.653
700.76	26.453
701.08	28.788
701.40	28.916
701.72	31.790
702.04	34.323
702.36	29.431
702.68	25.826
703.00	28.788
703.32	26.393
703.64	28.249
703.96	28.696
704.28	31.288
704.60	31.746
704.91	27.760
705.23	31.894
705.55	38.163
705.87	31.769
706.19	28.889
706.51	31.959
706.83	30.225
707.15	27.414
707.47	30.252
707.79	28.646
708.11	29.500
708.43	29.250
708.74	27.907
709.06	32.676
709.38	29.358
709.70	31.065
710.02	28.344
710.34	29.721
710.66	24.359
710.98	30.464
711.29	31.148
711.61	30.508
711.93	30.293
712.25	33.333
712.57	30.037
712.89	31.343
713.20	28.028
713.52	25.087
713.84	25.597
714.16	32.302
714.48	28.710
714.80	29.487
715.11	30.395
715.43	28.840
715.75	26.333
716.07	23.920
716.39	25.839
716.70	23.616
717.02	28.244
717.34	31.579
717.66	27.434
717.97	25.217
718.29	33.054
718.61	32.677
718.93	30.233
719.24	27.757
719.56	30.924
719.88	29.210
720.20	28.788
720.51	27.586
720.83	31.660
721.15	27.731
721.46	31.048
721.78	26.877
722.10	29.368
722.42	26.556
722.73	28.163
723.05	31.429
723.37	31.356
723.68	39.640
724.00	26.068
724.32	28.444
724.63	29.545
724.95	29.694
725.27	35.945
725.58	25.847
725.90	22.619
726.22	27.413
726.53	31.525
726.85	31.835
727.16	29.057
727.48	26.721
727.80	29.150
728.11	24.153
728.43	26.667
728.74	27.419
729.06	31.200
729.38	31.203
729.69	23.108
730.01	23.462
730.32	28.731
730.64	27.915
730.96	31.321
731.27	23.333
731.59	32.542
731.90	26.433
732.22	29.968
732.53	28.904
732.85	29.433
733.16	31.650
733.48	26.978
733.80	30.797
734.11	28.814
734.43	29.210
734.74	26.970
735.06	22.801
735.37	27.492
735.69	30.303
736.00	26.132
736.32	27.852
736.63	29.225
736.95	29.010
737.26	28.826
737.58	27.852
737.89	30.403
738.21	28.947
738.52	26.749
738.83	27.074
739.15	24.891
739.46	26.378
739.78	27.106
740.09	24.510
740.41	29.348
740.72	24.409
741.04	30.769
741.35	28.511
741.66	28.436
741.98	31.633
742.29	32.178
742.61	31.414
742.92	21.327
743.23	28.704
743.55	27.602
743.86	28.708
744.18	29.665
744.49	23.404
744.80	35.326
745.12	31.551
745.43	27.317
745.74	31.771
746.06	34.146
746.37	31.937
746.68	28.436
747.00	34.043
747.31	30.846
747.62	34.466
747.94	31.579
748.25	27.723
748.56	24.590
748.88	28.272
749.19	30.851
749.50	27.586
749.82	25.472
750.13	26.147
750.44	27.068
750.75	29.478
751.07	29.927
751.38	29.885
751.69	25.882
752.01	32.171
752.32	29.880
752.63	24.506
752.94	27.155
753.26	33.473
753.57	22.172
753.88	26.106
754.19	25.417
754.51	26.446
754.82	27.530
755.13	29.583
755.44	26.210
755.75	32.422
756.07	29.183
756.38	25.660
756.69	22.989
757.00	29.000
757.31	27.778
757.63	27.134
757.94	25.556
758.25	23.288
758.56	26.596
758.87	23.513
759.18	25.545
759.50	24.000
759.81	30.100
760.12	26.129
760.43	26.061
760.74	25.309
761.05	24.000
761.36	25.568
761.67	28.182
761.99	30.952
762.30	24.364
762.61	24.901
762.92	25.339
763.23	26.126
763.54	28.037
763.85	26.271
764.16	26.971
764.47	25.000
764.78	26.007
765.10	25.589
765.41	27.445
765.72	23.492
766.03	23.308
766.34	25.547
766.65	31.076
766.96	27.273
767.27	23.404
767.58	27.011
767.89	21.986
768.20	27.841
768.51	23.626
768.82	28.079
769.13	18.894
769.44	23.605
769.75	28.311
770.06	24.569
770.37	28.846
770.68	26.396
770.99	23.077
771.30	26.471
771.61	26.697
771.92	26.293
772.23	25.616
772.54	28.495
772.85	29.630
773.16	29.213
773.47	35.948
773.78	28.105
774.09	28.144
774.39	28.667
774.70	31.210
775.01	33.103
775.32	31.429
775.63	9.917
775.94	19.847
776.25	22.047
776.56	26.667
776.87	24.038
777.18	29.060
777.48	23.276
777.79	28.696
778.10	19.048
778.41	33.333
778.72	32.540
779.03	24.812
779.34	32.624
779.65	26.712
779.95	19.863
780.26	32.414
780.57	28.455
780.88	28.346
781.19	31.034
781.50	27.907
781.80	23.669
782.11	25.786
782.42	26.923
782.73	25.180
783.04	25.185
783.34	22.222
783.65	17.949
783.96	18.852
784.27	31.724
784.57	35.772
784.88	29.688
785.19	35.000
785.50	34.000
785.81	23.276
786.11	32.759
786.42	23.301
786.73	29.091
787.04	23.469
787.34	23.214
787.65	35.238
787.96	23.009
788.26	32.727
788.57	27.350
788.88	39.844
789.19	27.778
789.49	20.870
789.80	33.673
790.11	26.263
790.41	16.364
790.72	35.870
791.03	21.591
791.33	42.500
791.64	27.500
791.95	23.256
792.25	36.170
792.56	39.326
792.87	30.137
793.17	11.594
793.48	13.333
793.79	28.750
794.09	37.500
794.40	18.868
794.70	15.534
795.01	29.268
795.32	27.350
795.62	22.857
795.93	31.373
796.23	26.415
796.54	32.292
796.85	30.882
797.15	36.620
797.46	43.056
797.76	34.848
798.07	17.442
798.37	11.842
798.68	25.758
798.99	27.160
799.29	20.000
799.60	37.681
799.90	28.000
800.21	39.344
800.51	33.846
800.82	28.814
801.12	31.884
801.43	31.148
801.73	34.921
802.04	34.000
802.34	23.881
802.65	40.385
802.95	19.643
803.26	26.923
803.56	31.373
803.87	15.217
804.17	32.000
804.48	41.270
804.78	22.222
805.09	30.435
805.39	24.444
805.70	29.630
806.00	19.298
806.30	40.845
806.61	28.571
806.91	4.167
807.22	42.105
807.52	28.000
807.83	14.545
808.13	20.833
808.43	20.588
808.74	25.373
809.04	20.339
809.35	25.000
809.65	26.563
809.95	-13.514
810.26	4.545
810.56	35.616
810.86	33.333
811.17	34.000
811.47	48.980
811.77	-2.632
812.08	6.818
812.38	50.943
812.69	12.500
812.99	24.242
813.29	10.526
813.59	5.714
813.90	27.273
814.20	20.513
814.50	25.000
814.81	24.528
815.11	25.532
815.41	32.203
815.72	38.095
816.02	29.412
816.32	25.000
816.62	2.439
816.93	16.216
817.23	34.286
817.53	27.083
817.84	23.913
818.14	21.154
818.44	5.263
818.74	30.435
819.04	-10.000
819.35	45.946
819.65	17.647
819.95	33.333
820.25	21.429
820.56	50.000
820.86	-17.241
821.16	57.500
821.46	17.021
821.76	20.000
822.07	37.209
822.37	0.000
822.67	62.500
822.97	33.333
823.27	46.429
823.57	36.000
823.88	-3.704
824.18	82.143
824.48	20.588
824.78	64.516
825.08	13.043
825.38	27.273
825.69	4.167
825.99	28.947
826.29	11.111
826.59	-26.667
826.89	-28.571
827.19	17.391
827.49	17.500
827.79	40.000
828.09	-14.286
828.39	36.364
828.70	51.351
829.00	32.143
829.30	38.095
829.60	6.667
829.90	31.250
830.20	26.316
830.50	18.519
830.80	13.043
831.10	9.091
831.40	54.545
831.70	58.065
832.00	38.095
832.30	-52.381
832.60	50.000
832.90	-17.241
833.20	-25.000
833.50	48.485
833.80	48.148
834.10	34.615
834.40	18.750
834.70	-77.778
835.00	57.895
835.30	46.154
835.60	20.000
835.90	54.839
836.20	18.182
836.50	46.429
836.80	-30.769
837.10	39.286
837.40	66.667
837.70	18.182
838.00	0.000
838.30	47.826
838.60	-7.692
838.90	40.909
839.19	35.714
839.49	13.333
839.79	0.000
840.09	-91.667
840.39	46.429
840.69	46.429
840.99	0.000
841.29	-5.263
841.59	-80.000
841.88	36.364
842.18	-90.000
842.48	56.250
842.78	26.667
843.08	48.148
843.38	-70.000
843.68	26.087
843.97	13.333
844.27	6.667
844.57	10.000
844.87	0.000
845.17	-19.048
845.47	40.000
845.76	19.048
846.06	-5.882
846.36	-10.000
846.66	42.857
846.96	73.333
847.25	-62.500
847.55	21.429
847.85	-125.000
848.15	-40.909
848.44	-66.667
848.74	40.000
849.04	44.444
849.34	54.545
849.63	-66.667
849.93	-240.000
850.23	33.333
850.53	100.000
850.82	-30.769
851.12	-55.556
851.42	13.333
851.71	11.538
852.01	7.143
852.31	125.000
852.61	27.273
852.90	45.000
853.20	31.579
853.50	41.667
853.79	21.739
854.09	12.500
854.39	5.263
854.68	20.833
854.98	32.258
855.28	34.615
855.57	-40.000
855.87	33.333
856.17	33.333
856.46	-14.286
856.76	-6.667
857.05	155.556
857.35	8.000
857.65	27.778
857.94	23.077
858.24	82.759
858.53	-11.111
858.83	22.222
859.13	36.364
859.42	21.739
859.72	-250.000
860.01	-100.000
860.31	28.000
860.60	38.095
860.90	-400.000
861.20	-20.000
861.49	-50.000
861.79	-20.000
862.08	55.000
862.38	46.667
862.67	-240.000
862.97	-216.667
863.26	8.333
863.56	16.667
863.85	-100.000
864.15	66.667
864.44	-10.000
864.74	35.714
865.03	50.000
865.33	-100.000
865.62	66.667
865.92	-33.333
866.21	-83.333
866.51	25.000
866.80	9.091
867.10	50.000
867.39	75.000
867.69	0.000
867.98	23.077
868.27	-66.667
868.57	60.000
868.86	11.111
869.16	-23.077
869.45	6.667
869.75	100.000
870.04	0.000
870.33	-100.000
870.63	28.571
870.92	166.667
871.22	-100.000
871.51	-200.000
871.80	55.556
872.10	266.667
>>>>>End Processed Spectral Data<<<<<
