SpectraSuite Data File
++++++++++++++++++++++++++++++++++++
Date: Fri May 15 17:20:20 PDT 2015
User: schluterlab
Dark Spectrum Present: Yes
Reference Spectrum Present: Yes
Number of Sampled Component Spectra: 1
Spectrometers: USB2E3373
Integration Time (usec): 3000 (USB2E3373)
Spectra Averaged: 3 (USB2E3373)
Boxcar Smoothing: 0 (USB2E3373)
Correct for Electrical Dark: No (USB2E3373)
Strobe/Lamp Enabled: No (USB2E3373)
Correct for Detector Non-linearity: No (USB2E3373)
Correct for Stray Light: No (USB2E3373)
Number of Pixels in Processed Spectrum: 2048
>>>>>Begin Processed Spectral Data<<<<<
178.53	0.000
178.91	0.000
179.29	162.500
179.67	0.000
180.04	-42.857
180.42	525.000
180.80	900.000
181.18	-133.333
181.56	350.000
181.94	100.000
182.31	700.000
182.69	280.000
183.07	466.667
183.45	0.000
183.83	50.000
184.20	54.545
184.58	-66.667
184.96	-300.000
185.34	-233.333
185.72	-200.000
186.09	-0.000
186.47	600.000
186.85	50.000
187.23	-111.111
187.61	-500.000
187.98	100.000
188.36	22.222
188.74	200.000
189.12	64.706
189.49	50.000
189.87	0.000
190.25	135.714
190.63	250.000
191.00	233.333
191.38	115.789
191.76	200.000
192.14	-0.000
192.51	450.000
192.89	-11.111
193.27	28.571
193.65	-16.667
194.02	81.818
194.40	70.000
194.78	0.000
195.15	8.333
195.53	37.500
195.91	-200.000
196.29	-125.000
196.66	-23.077
197.04	-57.143
197.42	55.556
197.79	-233.333
198.17	-30.769
198.55	100.000
198.92	-300.000
199.30	1000.000
199.68	180.000
200.05	-233.333
200.43	0.000
200.81	66.667
201.18	366.667
201.56	-200.000
201.94	250.000
202.31	-466.667
202.69	0.000
203.07	-100.000
203.44	1300.000
203.82	0.000
204.19	114.286
204.57	-100.000
204.95	62.500
205.32	140.000
205.70	114.286
206.08	125.000
206.45	300.000
206.83	150.000
207.20	200.000
207.58	-400.000
207.96	66.667
208.33	10.000
208.71	125.000
209.08	-116.667
209.46	-400.000
209.84	120.000
210.21	300.000
210.59	85.714
210.96	100.000
211.34	0.000
211.71	100.000
212.09	128.571
212.46	-1100.000
212.84	0.000
213.22	180.000
213.59	450.000
213.97	46.154
214.34	154.545
214.72	-33.333
215.09	175.000
215.47	107.692
215.84	45.455
216.22	133.333
216.59	37.500
216.97	650.000
217.34	150.000
217.72	160.000
218.09	50.000
218.47	100.000
218.84	700.000
219.22	100.000
219.59	100.000
219.97	-100.000
220.34	-50.000
220.72	142.857
221.09	125.000
221.47	200.000
221.84	-650.000
222.22	-300.000
222.59	136.364
222.97	108.333
223.34	-66.667
223.72	14.286
224.09	4.762
224.46	21.429
224.84	233.333
225.21	-10.000
225.59	60.000
225.96	100.000
226.34	200.000
226.71	100.000
227.08	166.667
227.46	112.500
227.83	-100.000
228.21	111.111
228.58	200.000
228.95	125.000
229.33	20.000
229.70	56.250
230.08	87.500
230.45	71.429
230.82	214.286
231.20	26.667
231.57	128.571
231.95	128.571
232.32	20.000
232.69	50.000
233.07	133.333
233.44	320.000
233.81	110.000
234.19	55.556
234.56	5.882
234.93	50.000
235.31	25.000
235.68	20.000
236.05	38.462
236.43	75.000
236.80	47.059
237.17	59.375
237.55	50.000
237.92	37.037
238.29	19.444
238.67	33.333
239.04	14.706
239.41	7.317
239.79	30.000
240.16	58.537
240.53	42.105
240.91	41.304
241.28	31.746
241.65	46.429
242.02	52.055
242.40	31.667
242.77	22.034
243.14	34.848
243.51	42.500
243.89	51.724
244.26	26.437
244.63	46.429
245.00	30.928
245.38	34.021
245.75	33.708
246.12	24.138
246.49	28.926
246.87	35.577
247.24	23.529
247.61	32.456
247.98	25.203
248.36	30.625
248.73	30.921
249.10	36.364
249.47	37.975
249.84	32.680
250.22	30.000
250.59	31.373
250.96	31.925
251.33	36.047
251.70	28.235
252.08	30.457
252.45	27.723
252.82	35.176
253.19	36.406
253.56	29.907
253.94	34.234
254.31	30.435
254.68	32.895
255.05	30.315
255.42	31.441
255.79	28.958
256.16	29.183
256.54	32.836
256.91	30.038
257.28	33.829
257.65	34.831
258.02	30.496
258.39	30.303
258.76	37.363
259.14	32.890
259.51	31.392
259.88	32.302
260.25	35.294
260.62	35.069
260.99	27.797
261.36	30.822
261.73	32.595
262.10	30.091
262.47	32.515
262.85	29.467
263.22	30.462
263.59	29.595
263.96	32.609
264.33	28.788
264.70	29.762
265.07	31.845
265.44	34.844
265.81	34.181
266.18	32.514
266.55	31.877
266.92	31.088
267.29	32.376
267.66	30.435
268.03	31.414
268.40	32.376
268.77	36.364
269.14	31.655
269.51	32.391
269.88	31.920
270.25	31.633
270.62	30.244
270.99	30.946
271.36	31.051
271.73	34.742
272.10	29.197
272.47	33.333
272.84	28.960
273.21	29.466
273.58	31.807
273.95	31.350
274.32	31.178
274.69	28.054
275.06	32.366
275.43	30.839
275.80	29.801
276.17	31.724
276.54	29.550
276.91	32.456
277.28	30.349
277.65	30.165
278.02	29.362
278.39	27.571
278.76	30.608
279.13	27.801
279.50	29.622
279.87	31.102
280.23	30.753
280.60	30.409
280.97	31.919
281.34	29.808
281.71	31.622
282.08	32.720
282.45	29.550
282.82	26.834
283.19	31.141
283.56	30.443
283.92	26.565
284.29	29.231
284.66	28.488
285.03	26.719
285.40	26.465
285.77	28.120
286.14	29.603
286.51	28.598
286.87	28.519
287.24	27.256
287.61	29.806
287.98	29.474
288.35	27.903
288.72	28.546
289.08	27.257
289.45	28.120
289.82	26.748
290.19	27.133
290.56	25.386
290.93	26.431
291.29	26.502
291.66	28.504
292.03	28.230
292.40	27.903
292.77	25.997
293.13	24.026
293.50	27.011
293.87	26.718
294.24	25.811
294.60	26.528
294.97	25.893
295.34	24.540
295.71	22.951
296.08	27.952
296.44	23.613
296.81	24.306
297.18	24.493
297.55	27.371
297.91	26.986
298.28	26.121
298.65	24.423
299.02	25.741
299.38	22.435
299.75	25.379
300.12	24.215
300.48	24.901
300.85	25.349
301.22	24.935
301.59	24.342
301.95	25.696
302.32	26.459
302.69	25.871
303.05	25.000
303.42	24.159
303.79	25.701
304.15	26.404
304.52	24.257
304.89	24.795
305.25	25.182
305.62	22.870
305.99	25.614
306.35	23.815
306.72	23.285
307.09	24.629
307.45	25.603
307.82	25.347
308.19	25.552
308.55	23.882
308.92	25.926
309.29	25.028
309.65	24.973
310.02	24.752
310.38	23.710
310.75	25.355
311.12	24.650
311.48	24.708
311.85	25.340
312.22	25.211
312.58	25.159
312.95	24.867
313.31	25.673
313.68	25.864
314.05	26.020
314.41	26.907
314.78	25.773
315.14	26.927
315.51	24.534
315.87	25.410
316.24	26.694
316.61	25.492
316.97	25.397
317.34	26.465
317.70	25.048
318.07	25.385
318.43	26.176
318.80	26.136
319.16	25.488
319.53	26.686
319.89	26.870
320.26	27.632
320.62	26.680
320.99	26.827
321.35	27.235
321.72	27.518
322.08	26.888
322.45	27.614
322.81	27.407
323.18	27.674
323.54	27.124
323.91	28.238
324.27	29.199
324.64	28.745
325.00	27.190
325.37	29.385
325.73	27.108
326.10	28.610
326.46	30.673
326.83	29.396
327.19	29.904
327.56	30.321
327.92	29.665
328.29	30.893
328.65	30.189
329.01	29.963
329.38	29.124
329.74	29.651
330.11	31.418
330.47	29.963
330.84	31.346
331.20	32.795
331.56	30.926
331.93	32.237
332.29	32.356
332.66	32.489
333.02	31.506
333.38	32.081
333.75	32.326
334.11	31.782
334.48	33.092
334.84	33.059
335.20	33.669
335.57	31.822
335.93	33.333
336.29	32.689
336.66	33.061
337.02	32.528
337.38	32.222
337.75	33.727
338.11	32.822
338.47	33.485
338.84	33.272
339.20	34.095
339.56	33.119
339.93	33.393
340.29	34.404
340.65	34.140
341.02	33.156
341.38	32.743
341.74	33.039
342.11	32.582
342.47	33.808
342.83	34.256
343.20	33.188
343.56	34.000
343.92	32.772
344.28	33.732
344.65	31.434
345.01	32.757
345.37	32.212
345.73	33.389
346.10	33.477
346.46	33.558
346.82	32.979
347.19	32.086
347.55	33.166
347.91	32.848
348.27	32.902
348.63	32.794
349.00	31.829
349.36	33.500
349.72	33.002
350.08	33.197
350.45	31.764
350.81	31.561
351.17	32.003
351.53	33.061
351.89	32.287
352.26	32.640
352.62	33.145
352.98	31.647
353.34	30.757
353.70	33.091
354.07	32.984
354.43	32.186
354.79	32.783
355.15	33.810
355.51	32.358
355.87	32.282
356.24	31.974
356.60	32.175
356.96	32.698
357.32	32.987
357.68	31.431
358.04	33.118
358.40	33.601
358.77	32.855
359.13	32.346
359.49	31.818
359.85	32.371
360.21	32.536
360.57	31.523
360.93	33.359
361.29	32.175
361.66	33.229
362.02	34.091
362.38	33.816
362.74	33.005
363.10	33.484
363.46	33.358
363.82	34.035
364.18	33.284
364.54	32.426
364.90	33.262
365.26	33.333
365.62	34.672
365.98	33.211
366.35	34.304
366.71	33.259
367.07	33.237
367.43	33.357
367.79	34.205
368.15	32.735
368.51	33.285
368.87	33.597
369.23	32.563
369.59	34.184
369.95	33.724
370.31	33.671
370.67	34.627
371.03	33.981
371.39	33.115
371.75	34.505
372.11	33.951
372.47	34.541
372.83	33.712
373.19	35.021
373.55	33.935
373.91	34.629
374.27	35.648
374.63	34.458
374.99	34.610
375.35	34.053
375.71	36.294
376.07	35.674
376.42	35.646
376.78	35.369
377.14	35.139
377.50	36.255
377.86	36.948
378.22	36.120
378.58	35.769
378.94	36.169
379.30	35.808
379.66	36.176
380.02	36.665
380.38	35.119
380.74	36.685
381.09	37.423
381.45	36.514
381.81	37.569
382.17	36.104
382.53	36.540
382.89	37.602
383.25	38.457
383.61	38.293
383.97	37.714
384.32	37.461
384.68	38.638
385.04	38.542
385.40	38.706
385.76	39.874
386.12	39.586
386.48	37.356
386.83	38.808
387.19	37.973
387.55	39.586
387.91	39.181
388.27	38.828
388.62	40.088
388.98	39.042
389.34	39.788
389.70	39.776
390.06	38.326
390.42	39.702
390.77	40.615
391.13	39.092
391.49	40.168
391.85	39.506
392.20	40.176
392.56	40.687
392.92	40.517
393.28	40.271
393.64	40.000
393.99	40.690
394.35	39.785
394.71	40.549
395.07	39.975
395.42	39.223
395.78	40.782
396.14	39.849
396.50	40.900
396.85	40.373
397.21	40.852
397.57	40.752
397.92	40.324
398.28	40.287
398.64	39.699
399.00	40.632
399.35	39.334
399.71	39.862
400.07	40.447
400.42	39.841
400.78	40.661
401.14	40.653
401.49	40.739
401.85	40.037
402.21	40.904
402.57	41.000
402.92	39.523
403.28	40.727
403.63	40.731
403.99	41.327
404.35	41.224
404.70	39.643
405.06	40.071
405.42	40.273
405.77	39.686
406.13	41.153
406.49	38.840
406.84	40.220
407.20	40.819
407.55	39.343
407.91	40.040
408.27	41.236
408.62	40.123
408.98	40.481
409.34	40.335
409.69	39.535
410.05	39.594
410.40	40.123
410.76	40.832
411.11	39.688
411.47	40.631
411.83	39.862
412.18	40.669
412.54	41.011
412.89	39.532
413.25	39.771
413.60	40.248
413.96	39.509
414.31	40.244
414.67	39.384
415.03	41.012
415.38	39.687
415.74	40.586
416.09	40.235
416.45	41.594
416.80	42.168
417.16	42.127
417.51	41.173
417.87	41.265
418.22	41.839
418.58	42.475
418.93	40.690
419.29	39.821
419.64	42.709
420.00	42.632
420.35	41.015
420.71	41.312
421.06	40.761
421.42	42.248
421.77	41.618
422.12	40.976
422.48	40.931
422.83	40.777
423.19	42.325
423.54	40.800
423.90	41.873
424.25	42.595
424.61	41.554
424.96	41.057
425.31	42.403
425.67	43.369
426.02	43.581
426.38	43.081
426.73	43.039
427.09	43.038
427.44	43.529
427.79	42.074
428.15	43.447
428.50	42.580
428.85	42.383
429.21	43.124
429.56	44.151
429.92	42.167
430.27	43.158
430.62	41.871
430.98	43.418
431.33	43.218
431.68	43.328
432.04	43.264
432.39	42.898
432.74	41.732
433.10	45.172
433.45	44.086
433.80	43.297
434.16	42.161
434.51	44.140
434.86	43.264
435.22	42.681
435.57	45.540
435.92	43.713
436.28	42.397
436.63	44.666
436.98	42.700
437.34	43.194
437.69	43.888
438.04	44.046
438.39	44.166
438.75	44.202
439.10	44.369
439.45	45.344
439.81	45.076
440.16	44.477
440.51	45.254
440.86	46.103
441.22	45.192
441.57	44.923
441.92	45.278
442.27	44.956
442.63	45.075
442.98	44.515
443.33	44.240
443.68	43.873
444.03	45.206
444.39	45.303
444.74	46.210
445.09	45.379
445.44	45.869
445.79	46.055
446.15	45.485
446.50	44.537
446.85	45.643
447.20	44.578
447.55	44.810
447.91	46.193
448.26	45.304
448.61	45.078
448.96	46.127
449.31	46.012
449.66	45.645
450.02	44.438
450.37	46.058
450.72	45.704
451.07	46.582
451.42	44.382
451.77	44.786
452.12	44.976
452.47	45.911
452.83	46.525
453.18	44.908
453.53	46.776
453.88	47.177
454.23	45.667
454.58	46.725
454.93	47.552
455.28	45.143
455.63	46.621
455.98	47.925
456.34	46.424
456.69	47.205
457.04	46.503
457.39	45.990
457.74	45.949
458.09	45.497
458.44	45.699
458.79	47.115
459.14	47.883
459.49	47.224
459.84	45.911
460.19	45.995
460.54	46.822
460.89	46.364
461.24	47.578
461.59	46.615
461.94	46.101
462.29	46.562
462.64	47.907
462.99	46.852
463.34	46.871
463.69	47.104
464.04	48.063
464.39	46.331
464.74	46.319
465.09	46.974
465.44	46.797
465.79	46.202
466.14	46.693
466.49	46.924
466.84	46.579
467.19	47.747
467.54	46.424
467.89	47.568
468.24	47.324
468.59	47.111
468.94	46.794
469.29	48.000
469.64	47.847
469.99	48.984
470.34	46.689
470.68	47.353
471.03	49.469
471.38	46.291
471.73	46.919
472.08	46.472
472.43	48.322
472.78	46.813
473.13	48.231
473.48	47.492
473.83	46.575
474.17	48.122
474.52	47.224
474.87	47.030
475.22	47.773
475.57	47.544
475.92	48.491
476.27	47.614
476.61	48.669
476.96	46.012
477.31	48.405
477.66	47.247
478.01	48.007
478.36	48.203
478.70	48.613
479.05	48.407
479.40	47.536
479.75	47.132
480.10	47.824
480.45	47.950
480.79	49.144
481.14	48.873
481.49	47.044
481.84	48.890
482.19	47.287
482.53	47.770
482.88	47.685
483.23	47.361
483.58	47.783
483.92	47.967
484.27	47.220
484.62	47.916
484.97	48.093
485.31	47.363
485.66	46.454
486.01	46.160
486.36	46.052
486.70	46.054
487.05	46.035
487.40	46.975
487.75	47.014
488.09	47.064
488.44	48.040
488.79	48.039
489.13	49.239
489.48	49.124
489.83	47.668
490.17	47.551
490.52	47.714
490.87	49.144
491.22	49.188
491.56	48.197
491.91	48.279
492.26	50.219
492.60	48.177
492.95	50.025
493.30	47.924
493.64	49.067
493.99	49.082
494.34	48.252
494.68	48.952
495.03	48.905
495.37	49.215
495.72	50.429
496.07	49.463
496.41	49.387
496.76	48.457
497.11	48.486
497.45	48.449
497.80	49.395
498.14	48.634
498.49	50.229
498.84	49.601
499.18	49.598
499.53	48.760
499.87	49.076
500.22	49.159
500.56	49.420
500.91	50.050
501.26	49.184
501.60	49.139
501.95	49.733
502.29	49.249
502.64	49.324
502.98	49.778
503.33	49.712
503.67	48.867
504.02	50.489
504.36	50.025
504.71	49.495
505.06	48.817
505.40	50.355
505.75	49.948
506.09	50.329
506.44	51.489
506.78	51.378
507.13	50.103
507.47	49.922
507.82	49.519
508.16	49.868
508.51	50.472
508.85	50.392
509.19	50.506
509.54	51.153
509.88	49.730
510.23	51.049
510.57	50.935
510.92	49.307
511.26	50.027
511.61	50.440
511.95	50.795
512.30	50.887
512.64	51.085
512.98	51.151
513.33	51.875
513.67	50.881
514.02	52.460
514.36	51.143
514.70	53.205
515.05	53.349
515.39	52.007
515.74	52.395
516.08	52.301
516.42	52.297
516.77	53.365
517.11	52.166
517.46	53.321
517.80	53.695
518.14	51.439
518.49	52.764
518.83	52.187
519.17	52.274
519.52	52.694
519.86	52.281
520.20	53.524
520.55	52.783
520.89	53.011
521.23	52.375
521.58	53.060
521.92	54.872
522.26	53.546
522.61	54.156
522.95	54.570
523.29	53.939
523.64	53.240
523.98	54.699
524.32	53.995
524.66	53.969
525.01	55.390
525.35	54.051
525.69	55.354
526.04	53.505
526.38	55.707
526.72	53.891
527.06	53.632
527.41	54.156
527.75	54.290
528.09	53.555
528.43	55.368
528.78	53.993
529.12	55.548
529.46	54.646
529.80	53.325
530.15	56.766
530.49	56.094
530.83	56.224
531.17	55.339
531.51	55.472
531.86	55.337
532.20	56.019
532.54	54.459
532.88	55.373
533.22	56.384
533.57	54.849
533.91	54.961
534.25	56.250
534.59	54.843
534.93	53.304
535.27	53.871
535.62	55.347
535.96	55.316
536.30	55.343
536.64	55.686
536.98	54.286
537.32	56.188
537.66	57.433
538.01	55.245
538.35	54.646
538.69	54.860
539.03	54.477
539.37	55.855
539.71	55.419
540.05	55.669
540.39	56.163
540.73	55.788
541.07	56.354
541.42	56.048
541.76	56.366
542.10	55.609
542.44	56.567
542.78	55.816
543.12	55.563
543.46	55.772
543.80	55.656
544.14	53.805
544.48	54.697
544.82	55.844
545.16	55.328
545.50	55.007
545.84	55.453
546.18	56.312
546.52	57.967
546.86	56.003
547.20	57.225
547.54	55.830
547.88	56.658
548.22	54.306
548.56	55.541
548.90	56.536
549.24	53.926
549.58	56.629
549.92	56.469
550.26	56.557
550.60	55.911
550.94	56.385
551.28	56.260
551.62	57.692
551.96	57.218
552.30	57.895
552.64	56.770
552.98	55.767
553.32	56.277
553.66	55.806
554.00	58.102
554.34	57.681
554.68	57.301
555.02	57.961
555.36	56.395
555.69	55.458
556.03	55.960
556.37	55.658
556.71	56.318
557.05	57.420
557.39	55.019
557.73	56.822
558.07	56.259
558.41	58.116
558.75	57.132
559.08	56.107
559.42	57.143
559.76	57.806
560.10	57.110
560.44	55.547
560.78	56.643
561.12	57.475
561.45	58.468
561.79	56.933
562.13	57.204
562.47	57.338
562.81	56.988
563.15	55.289
563.48	56.577
563.82	56.898
564.16	58.078
564.50	54.797
564.84	55.689
565.17	56.472
565.51	57.240
565.85	57.064
566.19	56.830
566.52	57.440
566.86	56.877
567.20	56.476
567.54	56.448
567.88	57.996
568.21	56.618
568.55	55.272
568.89	56.571
569.23	55.128
569.56	53.765
569.90	55.055
570.24	53.145
570.57	53.855
570.91	54.653
571.25	53.239
571.59	52.351
571.92	51.822
572.26	52.687
572.60	52.837
572.93	51.616
573.27	51.661
573.61	52.208
573.95	52.922
574.28	51.907
574.62	50.852
574.96	52.231
575.29	51.212
575.63	50.583
575.97	51.044
576.30	51.870
576.64	51.417
576.98	51.506
577.31	52.028
577.65	52.775
577.98	51.817
578.32	51.199
578.66	51.236
578.99	51.497
579.33	50.837
579.67	50.391
580.00	51.975
580.34	51.244
580.67	51.533
581.01	52.354
581.35	51.421
581.68	51.407
582.02	50.817
582.35	51.551
582.69	51.169
583.02	51.314
583.36	51.337
583.70	52.466
584.03	52.572
584.37	53.811
584.70	53.324
585.04	50.933
585.37	51.499
585.71	52.111
586.04	52.017
586.38	51.827
586.72	51.966
587.05	52.397
587.39	51.971
587.72	52.843
588.06	51.868
588.39	51.552
588.73	53.053
589.06	53.588
589.40	53.094
589.73	53.742
590.07	54.154
590.40	54.567
590.73	54.695
591.07	53.647
591.40	53.161
591.74	53.529
592.07	55.380
592.41	53.799
592.74	52.688
593.08	50.995
593.41	52.817
593.75	52.633
594.08	51.665
594.41	52.948
594.75	53.664
595.08	52.440
595.42	52.705
595.75	54.337
596.09	53.284
596.42	53.535
596.75	53.242
597.09	54.032
597.42	53.342
597.75	54.100
598.09	53.508
598.42	54.513
598.76	53.539
599.09	53.566
599.42	52.065
599.76	53.236
600.09	52.451
600.42	51.857
600.76	51.857
601.09	52.557
601.42	52.213
601.76	52.838
602.09	52.764
602.42	53.875
602.76	54.329
603.09	54.444
603.42	54.557
603.76	53.871
604.09	52.977
604.42	53.511
604.76	53.761
605.09	53.245
605.42	53.634
605.75	52.890
606.09	52.527
606.42	53.169
606.75	53.463
607.09	53.626
607.42	52.946
607.75	52.664
608.08	52.201
608.42	51.850
608.75	54.554
609.08	54.559
609.41	53.909
609.75	54.083
610.08	53.220
610.41	53.285
610.74	53.584
611.07	54.109
611.41	54.126
611.74	54.904
612.07	54.336
612.40	54.705
612.73	55.932
613.07	53.937
613.40	54.048
613.73	55.120
614.06	54.702
614.39	54.089
614.72	54.062
615.06	54.637
615.39	54.312
615.72	53.122
616.05	54.525
616.38	54.245
616.71	54.862
617.05	56.146
617.38	55.563
617.71	55.472
618.04	57.460
618.37	56.305
618.70	56.172
619.03	56.806
619.36	54.703
619.69	57.392
620.03	56.465
620.36	56.152
620.69	55.032
621.02	57.569
621.35	58.506
621.68	58.844
622.01	58.167
622.34	56.744
622.67	57.808
623.00	57.274
623.33	57.012
623.66	56.171
623.99	56.657
624.32	57.262
624.65	56.617
624.99	57.111
625.32	56.482
625.65	58.680
625.98	58.340
626.31	56.775
626.64	57.886
626.97	58.639
627.30	58.757
627.63	58.146
627.96	58.670
628.29	58.742
628.62	59.194
628.95	60.020
629.28	59.375
629.61	58.524
629.94	59.140
630.26	57.905
630.59	60.250
630.92	59.692
631.25	58.564
631.58	60.793
631.91	61.513
632.24	61.468
632.57	63.068
632.90	60.142
633.23	60.235
633.56	62.720
633.89	61.159
634.22	63.086
634.55	63.914
634.88	63.346
635.20	61.154
635.53	63.867
635.86	62.549
636.19	63.131
636.52	62.500
636.85	60.546
637.18	60.881
637.51	61.258
637.83	61.235
638.16	64.666
638.49	61.172
638.82	62.763
639.15	63.094
639.48	62.586
639.81	64.156
640.13	63.492
640.46	64.723
640.79	61.856
641.12	63.959
641.45	62.312
641.77	62.963
642.10	63.191
642.43	60.611
642.76	64.026
643.09	65.590
643.41	60.680
643.74	62.603
644.07	63.383
644.40	65.878
644.73	65.849
645.05	62.752
645.38	66.667
645.71	65.957
646.04	66.068
646.36	66.135
646.69	66.187
647.02	67.108
647.35	65.485
647.67	62.706
648.00	68.097
648.33	63.311
648.66	64.915
648.98	63.987
649.31	64.132
649.64	61.224
649.96	61.912
650.29	65.417
650.62	62.393
650.94	64.630
651.27	65.177
651.60	63.423
651.92	62.238
652.25	60.568
652.58	61.167
652.90	66.038
653.23	63.193
653.56	61.083
653.88	63.574
654.21	62.522
654.54	62.479
654.86	63.497
655.19	58.480
655.52	56.656
655.84	49.546
656.17	54.637
656.49	73.619
656.82	76.559
657.15	59.180
657.47	44.502
657.80	33.240
658.13	33.101
658.45	51.542
658.78	51.835
659.10	52.553
659.43	53.996
659.75	56.586
660.08	57.310
660.41	60.266
660.73	61.740
661.06	66.378
661.38	62.231
661.71	63.655
662.03	70.601
662.36	64.835
662.68	63.496
663.01	67.249
663.33	65.893
663.66	63.256
663.98	65.581
664.31	63.966
664.63	67.742
664.96	61.304
665.28	63.797
665.61	64.069
665.93	66.087
666.26	67.679
666.58	64.206
666.91	67.059
667.23	68.160
667.56	66.588
667.88	67.146
668.21	65.871
668.53	65.248
668.86	64.858
669.18	67.453
669.50	64.891
669.83	64.186
670.15	65.035
670.48	64.833
670.80	64.516
671.13	62.416
671.45	60.731
671.77	63.948
672.10	61.188
672.42	61.236
672.75	62.700
673.07	59.392
673.39	62.385
673.72	57.988
674.04	62.917
674.37	64.195
674.69	64.240
675.01	65.778
675.34	63.739
675.66	63.194
675.98	67.184
676.31	63.532
676.63	62.233
676.95	65.455
677.28	63.529
677.60	67.229
677.92	61.927
678.25	61.269
678.57	61.472
678.89	62.605
679.22	65.548
679.54	59.036
679.86	59.841
680.18	59.612
680.51	60.038
680.83	60.239
681.15	63.800
681.48	65.369
681.80	61.777
682.12	63.508
682.44	62.971
682.77	64.459
683.09	66.133
683.41	61.818
683.73	62.903
684.06	60.398
684.38	60.000
684.70	62.527
685.02	60.373
685.34	60.277
685.67	59.475
685.99	58.228
686.31	58.053
686.63	57.143
686.96	60.456
687.28	60.404
687.60	58.555
687.92	62.020
688.24	59.274
688.56	62.227
688.89	63.170
689.21	61.333
689.53	59.861
689.85	59.302
690.17	61.161
690.49	64.066
690.82	60.680
691.14	59.048
691.46	62.150
691.78	61.937
692.10	60.000
692.42	62.554
692.74	59.402
693.06	61.261
693.39	59.955
693.71	60.860
694.03	61.201
694.35	63.551
694.67	64.899
694.99	63.185
695.31	61.358
695.63	59.000
695.95	63.131
696.27	60.881
696.59	67.222
696.91	65.266
697.23	58.869
697.56	61.139
697.88	58.280
698.20	63.554
698.52	60.000
698.84	60.048
699.16	56.250
699.48	61.404
699.80	58.065
700.12	63.342
700.44	63.585
700.76	57.558
701.08	61.818
701.40	65.663
701.72	64.506
702.04	67.327
702.36	68.562
702.68	64.565
703.00	64.242
703.32	64.516
703.64	55.367
703.96	58.261
704.28	60.429
704.60	64.762
704.91	64.353
705.23	67.110
705.55	66.784
705.87	70.758
706.19	65.185
706.51	60.825
706.83	64.630
707.15	65.109
707.47	61.905
707.79	57.812
708.11	60.250
708.43	56.750
708.74	62.274
709.06	62.254
709.38	62.080
709.70	60.947
710.02	62.739
710.34	60.372
710.66	52.564
710.98	60.265
711.29	64.262
711.61	63.051
711.93	64.495
712.25	64.948
712.57	61.538
712.89	62.687
713.20	62.284
713.52	62.718
713.84	62.799
714.16	62.543
714.48	60.323
714.80	66.026
715.11	65.350
715.43	57.053
715.75	62.000
716.07	58.472
716.39	57.383
716.70	63.100
717.02	58.397
717.34	61.134
717.66	70.796
717.97	70.000
718.29	63.180
718.61	65.748
718.93	62.791
719.24	62.357
719.56	67.871
719.88	60.481
720.20	60.606
720.51	57.088
720.83	65.251
721.15	63.025
721.46	64.113
721.78	58.103
722.10	55.390
722.42	60.581
722.73	59.184
723.05	61.633
723.37	67.373
723.68	72.523
724.00	61.111
724.32	59.111
724.63	65.000
724.95	62.009
725.27	67.281
725.58	67.373
725.90	54.762
726.22	62.548
726.53	56.271
726.85	62.921
727.16	60.377
727.48	61.538
727.80	59.919
728.11	62.288
728.43	64.314
728.74	56.855
729.06	63.200
729.38	64.286
729.69	61.753
730.01	55.385
730.32	60.075
730.64	57.597
730.96	61.509
731.27	59.333
731.59	59.661
731.90	60.828
732.22	63.091
732.53	58.804
732.85	57.801
733.16	57.912
733.48	57.914
733.80	59.058
734.11	56.271
734.43	55.670
734.74	59.697
735.06	58.632
735.37	58.308
735.69	60.606
736.00	54.007
736.32	53.356
736.63	58.099
736.95	58.362
737.26	56.228
737.58	54.362
737.89	59.341
738.21	57.143
738.52	59.671
738.83	62.445
739.15	59.389
739.46	60.630
739.78	56.410
740.09	54.248
740.41	59.783
740.72	57.087
741.04	59.514
741.35	59.574
741.66	54.976
741.98	63.265
742.29	63.366
742.61	65.969
742.92	54.976
743.23	59.259
743.55	59.729
743.86	56.459
744.18	60.287
744.49	63.298
744.80	66.304
745.12	64.706
745.43	54.634
745.74	59.375
746.06	62.927
746.37	70.681
746.68	61.137
747.00	58.511
747.31	67.662
747.62	57.767
747.94	64.115
748.25	55.941
748.56	61.749
748.88	66.492
749.19	64.894
749.50	63.054
749.82	56.132
750.13	58.257
750.44	60.150
750.75	61.194
751.07	59.489
751.38	55.939
751.69	58.824
752.01	56.589
752.32	59.363
752.63	57.708
752.94	59.914
753.26	66.109
753.57	56.561
753.88	57.965
754.19	60.833
754.51	54.545
754.82	56.680
755.13	61.250
755.44	62.500
755.75	58.984
756.07	56.809
756.38	60.377
756.69	55.172
757.00	55.000
757.31	52.288
757.63	49.390
757.94	53.056
758.25	52.877
758.56	50.798
758.87	50.708
759.18	52.960
759.50	54.182
759.81	56.856
760.12	53.226
760.43	49.394
760.74	54.321
761.05	51.385
761.36	53.693
761.67	56.667
761.99	57.143
762.30	52.727
762.61	60.870
762.92	56.561
763.23	57.207
763.54	60.748
763.85	60.593
764.16	59.751
764.47	55.242
764.78	50.549
765.10	58.586
765.41	53.943
765.72	53.651
766.03	59.398
766.34	50.000
766.65	55.777
766.96	56.061
767.27	60.638
767.58	64.943
767.89	61.702
768.20	56.250
768.51	51.099
768.82	52.709
769.13	53.456
769.44	50.215
769.75	59.361
770.06	50.431
770.37	54.327
770.68	57.868
770.99	50.679
771.30	59.804
771.61	49.321
771.92	59.052
772.23	57.635
772.54	62.366
772.85	67.284
773.16	48.876
773.47	62.745
773.78	66.013
774.09	57.485
774.39	56.667
774.70	62.420
775.01	65.517
775.32	49.286
775.63	65.289
775.94	54.962
776.25	60.630
776.56	53.333
776.87	66.346
777.18	44.444
777.48	66.379
777.79	60.870
778.10	58.095
778.41	65.766
778.72	56.349
779.03	63.910
779.34	62.411
779.65	54.795
779.95	65.068
780.26	62.069
780.57	56.098
780.88	59.055
781.19	56.897
781.50	65.116
781.80	57.988
782.11	50.943
782.42	63.077
782.73	53.957
783.04	49.630
783.34	50.694
783.65	57.265
783.96	55.738
784.27	60.690
784.57	67.480
784.88	53.906
785.19	66.000
785.50	64.000
785.81	61.207
786.11	56.034
786.42	60.194
786.73	65.455
787.04	64.286
787.34	56.250
787.65	55.238
787.96	62.832
788.26	65.455
788.57	50.427
788.88	58.594
789.19	47.619
789.49	54.783
789.80	71.429
790.11	63.636
790.41	51.818
790.72	68.478
791.03	62.500
791.33	62.500
791.64	68.750
791.95	54.651
792.25	64.894
792.56	58.427
792.87	71.233
793.17	62.319
793.48	57.333
793.79	47.500
794.09	65.000
794.40	64.151
794.70	55.340
795.01	47.154
795.32	51.282
795.62	64.762
795.93	57.843
796.23	62.264
796.54	63.542
796.85	86.765
797.15	61.972
797.46	65.278
797.76	80.303
798.07	48.837
798.37	51.316
798.68	57.576
798.99	50.617
799.29	50.000
799.60	52.174
799.90	64.000
800.21	62.295
800.51	53.846
800.82	55.932
801.12	57.971
801.43	81.967
801.73	66.667
802.04	68.000
802.34	38.806
802.65	94.231
802.95	42.857
803.26	57.692
803.56	76.471
803.87	54.348
804.17	57.333
804.48	74.603
804.78	70.370
805.09	76.087
805.39	57.778
805.70	64.815
806.00	47.368
806.30	47.887
806.61	67.143
806.91	43.056
807.22	75.000
807.52	60.000
807.83	70.909
808.13	41.667
808.43	61.765
808.74	46.269
809.04	50.847
809.35	65.385
809.65	50.000
809.95	54.054
810.26	43.182
810.56	36.986
810.86	66.667
811.17	60.000
811.47	61.224
811.77	42.105
812.08	59.091
812.38	49.057
812.69	80.000
812.99	69.697
813.29	84.211
813.59	60.000
813.90	54.545
814.20	61.538
814.50	69.231
814.81	79.245
815.11	53.191
815.41	62.712
815.72	76.190
816.02	62.745
816.32	58.333
816.62	80.488
816.93	78.378
817.23	77.143
817.53	77.083
817.84	43.478
818.14	57.692
818.44	55.263
818.74	63.043
819.04	25.000
819.35	48.649
819.65	58.824
819.95	66.667
820.25	45.238
820.56	77.500
820.86	55.172
821.16	95.000
821.46	51.064
821.76	47.500
822.07	51.163
822.37	54.054
822.67	46.875
822.97	88.095
823.27	67.857
823.57	40.000
823.88	62.963
824.18	103.571
824.48	67.647
824.78	45.161
825.08	65.217
825.38	81.818
825.69	54.167
825.99	78.947
826.29	75.000
826.59	133.333
826.89	61.905
827.19	71.739
827.49	52.500
827.79	60.000
828.09	60.714
828.39	81.818
828.70	81.081
829.00	32.143
829.30	47.619
829.60	76.667
829.90	62.500
830.20	78.947
830.50	77.778
830.80	69.565
831.10	45.455
831.40	81.818
831.70	83.871
832.00	42.857
832.30	52.381
832.60	58.333
832.90	24.138
833.20	30.000
833.50	81.818
833.80	81.481
834.10	57.692
834.40	78.125
834.70	111.111
835.00	94.737
835.30	103.846
835.60	126.667
835.90	58.065
836.20	72.727
836.50	75.000
836.80	19.231
837.10	39.286
837.40	233.333
837.70	118.182
838.00	190.909
838.30	43.478
838.60	107.692
838.90	90.909
839.19	28.571
839.49	86.667
839.79	100.000
840.09	83.333
840.39	125.000
840.69	53.571
840.99	69.231
841.29	26.316
841.59	-40.000
841.88	118.182
842.18	130.000
842.48	50.000
842.78	113.333
843.08	59.259
843.38	-30.000
843.68	86.957
843.97	120.000
844.27	80.000
844.57	55.000
844.87	55.556
845.17	52.381
845.47	53.333
845.76	28.571
846.06	111.765
846.36	30.000
846.66	150.000
846.96	86.667
847.25	37.500
847.55	171.429
847.85	175.000
848.15	-9.091
848.44	-33.333
848.74	135.000
849.04	103.704
849.34	109.091
849.63	0.000
849.93	120.000
850.23	100.000
850.53	160.000
850.82	46.154
851.12	44.444
851.42	93.333
851.71	61.538
852.01	71.429
852.31	75.000
852.61	81.818
852.90	75.000
853.20	63.158
853.50	50.000
853.79	100.000
854.09	129.167
854.39	78.947
854.68	45.833
854.98	77.419
855.28	76.923
855.57	75.000
855.87	133.333
856.17	48.148
856.46	100.000
856.76	106.667
857.05	177.778
857.35	80.000
857.65	94.444
857.94	100.000
858.24	79.310
858.53	50.000
858.83	103.704
859.13	77.273
859.42	47.826
859.72	325.000
860.01	33.333
860.31	48.000
860.60	57.143
860.90	300.000
861.20	6.667
861.49	150.000
861.79	-26.667
862.08	25.000
862.38	80.000
862.67	60.000
862.97	116.667
863.26	108.333
863.56	111.111
863.85	66.667
864.15	77.778
864.44	60.000
864.74	150.000
865.03	-25.000
865.33	-60.000
865.62	-50.000
865.92	75.000
866.21	-83.333
866.51	125.000
866.80	45.455
867.10	-200.000
867.39	125.000
867.69	0.000
867.98	169.231
868.27	33.333
868.57	33.333
868.86	100.000
869.16	7.692
869.45	166.667
869.75	-300.000
870.04	0.000
870.33	-28.571
870.63	80.952
870.92	-166.667
871.22	260.000
871.51	1000.000
871.80	155.556
872.10	-66.667
>>>>>End Processed Spectral Data<<<<<
