SpectraSuite Data File
++++++++++++++++++++++++++++++++++++
Date: Fri May 15 17:13:00 PDT 2015
User: schluterlab
Dark Spectrum Present: Yes
Reference Spectrum Present: Yes
Number of Sampled Component Spectra: 1
Spectrometers: USB2E3373
Integration Time (usec): 3000 (USB2E3373)
Spectra Averaged: 3 (USB2E3373)
Boxcar Smoothing: 0 (USB2E3373)
Correct for Electrical Dark: No (USB2E3373)
Strobe/Lamp Enabled: No (USB2E3373)
Correct for Detector Non-linearity: No (USB2E3373)
Correct for Stray Light: No (USB2E3373)
Number of Pixels in Processed Spectrum: 2048
>>>>>Begin Processed Spectral Data<<<<<
178.53	0.000
178.91	0.000
179.29	262.500
179.67	-150.000
180.04	-28.571
180.42	0.000
180.80	300.000
181.18	100.000
181.56	350.000
181.94	100.000
182.31	400.000
182.69	40.000
183.07	166.667
183.45	80.000
183.83	33.333
184.20	45.455
184.58	133.333
184.96	-275.000
185.34	-233.333
185.72	-300.000
186.09	61.538
186.47	1000.000
186.85	183.333
187.23	77.778
187.61	400.000
187.98	33.333
188.36	122.222
188.74	100.000
189.12	64.706
189.49	88.889
189.87	0.000
190.25	121.429
190.63	800.000
191.00	100.000
191.38	31.579
191.76	400.000
192.14	-100.000
192.51	150.000
192.89	-11.111
193.27	0.000
193.65	33.333
194.02	63.636
194.40	10.000
194.78	25.000
195.15	41.667
195.53	37.500
195.91	-25.000
196.29	-25.000
196.66	23.077
197.04	-14.286
197.42	77.778
197.79	66.667
198.17	-53.846
198.55	100.000
198.92	-200.000
199.30	500.000
199.68	100.000
200.05	166.667
200.43	0.000
200.81	-33.333
201.18	100.000
201.56	300.000
201.94	-300.000
202.31	-133.333
202.69	-20.000
203.07	-225.000
203.44	400.000
203.82	0.000
204.19	42.857
204.57	-133.333
204.95	-50.000
205.32	30.000
205.70	85.714
206.08	0.000
206.45	177.778
206.83	78.571
207.20	57.143
207.58	200.000
207.96	0.000
208.33	-40.000
208.71	-150.000
209.08	-33.333
209.46	-700.000
209.84	120.000
210.21	-800.000
210.59	185.714
210.96	-16.667
211.34	225.000
211.71	106.667
212.09	128.571
212.46	0.000
212.84	0.000
213.22	30.000
213.59	350.000
213.97	107.692
214.34	90.909
214.72	-66.667
215.09	250.000
215.47	15.385
215.84	36.364
216.22	-100.000
216.59	187.500
216.97	550.000
217.34	150.000
217.72	40.000
218.09	112.500
218.47	175.000
218.84	400.000
219.22	-77.778
219.59	180.000
219.97	333.333
220.34	25.000
220.72	28.571
221.09	225.000
221.47	150.000
221.84	-100.000
222.22	-850.000
222.59	18.182
222.97	25.000
223.34	-100.000
223.72	57.143
224.09	57.143
224.46	39.286
224.84	-66.667
225.21	-30.000
225.59	80.000
225.96	-500.000
226.34	225.000
226.71	85.714
227.08	-66.667
227.46	100.000
227.83	-300.000
228.21	44.444
228.58	72.727
228.95	25.000
229.33	10.000
229.70	75.000
230.08	-37.500
230.45	-28.571
230.82	171.429
231.20	-20.000
231.57	42.857
231.95	114.286
232.32	0.000
232.69	78.571
233.07	233.333
233.44	80.000
233.81	-40.000
234.19	77.778
234.56	5.882
234.93	50.000
235.31	350.000
235.68	0.000
236.05	-38.462
236.43	-35.000
236.80	47.059
237.17	40.625
237.55	10.000
237.92	29.630
238.29	8.333
238.67	10.000
239.04	35.294
239.41	-14.634
239.79	30.000
240.16	24.390
240.53	15.789
240.91	8.696
241.28	15.873
241.65	25.000
242.02	24.658
242.40	5.000
242.77	32.203
243.14	0.000
243.51	6.250
243.89	26.437
244.26	2.299
244.63	11.905
245.00	19.588
245.38	9.278
245.75	11.236
246.12	6.897
246.49	4.132
246.87	14.423
247.24	-0.840
247.61	0.000
247.98	6.504
248.36	6.875
248.73	15.132
249.10	5.195
249.47	13.291
249.84	3.268
250.22	4.118
250.59	10.458
250.96	17.371
251.33	5.233
251.70	9.412
252.08	13.706
252.45	13.366
252.82	4.523
253.19	7.834
253.56	7.477
253.94	17.117
254.31	12.174
254.68	7.895
255.05	9.055
255.42	9.170
255.79	8.880
256.16	9.728
256.54	9.701
256.91	7.985
257.28	12.268
257.65	7.116
258.02	4.965
258.39	9.428
258.76	7.326
259.14	9.967
259.51	8.738
259.88	9.622
260.25	9.804
260.62	13.542
260.99	8.814
261.36	9.589
261.73	4.114
262.10	7.903
262.47	9.202
262.85	9.718
263.22	8.923
263.59	11.838
263.96	15.217
264.33	11.212
264.70	8.631
265.07	8.631
265.44	9.065
265.81	11.017
266.18	8.743
266.55	12.082
266.92	9.585
267.29	10.183
267.66	10.230
268.03	9.948
268.40	10.966
268.77	10.963
269.14	11.511
269.51	10.540
269.88	12.219
270.25	9.184
270.62	7.073
270.99	4.092
271.36	8.068
271.73	7.746
272.10	7.786
272.47	6.383
272.84	8.911
273.21	11.137
273.58	8.434
273.95	7.323
274.32	8.776
274.69	7.919
275.06	12.277
275.43	9.524
275.80	8.389
276.17	6.437
276.54	9.636
276.91	8.772
277.28	6.550
277.65	9.711
278.02	7.234
278.39	7.659
278.76	10.901
279.13	7.676
279.50	10.714
279.87	9.287
280.23	7.097
280.60	9.942
280.97	11.111
281.34	8.077
281.71	10.062
282.08	7.771
282.45	7.241
282.82	8.880
283.19	8.124
283.56	7.514
283.92	7.590
284.29	8.846
284.66	8.140
285.03	6.680
285.40	6.994
285.77	5.800
286.14	8.484
286.51	8.487
286.87	7.313
287.24	7.735
287.61	7.055
287.98	6.491
288.35	6.586
288.72	9.632
289.08	7.465
289.45	8.436
289.82	9.266
290.19	6.655
290.56	7.376
290.93	8.081
291.29	6.780
291.66	8.976
292.03	8.293
292.40	6.613
292.77	6.858
293.13	6.006
293.50	5.918
293.87	7.634
294.24	6.801
294.60	7.303
294.97	6.994
295.34	5.828
295.71	6.855
296.08	6.129
296.44	5.121
296.81	7.361
297.18	6.812
297.55	7.453
297.91	7.123
298.28	8.047
298.65	6.649
299.02	4.582
299.38	4.104
299.75	6.069
300.12	5.759
300.48	5.138
300.85	6.971
301.22	5.974
301.59	5.132
301.95	8.354
302.32	6.226
302.69	6.716
303.05	6.064
303.42	6.476
303.79	5.374
304.15	7.407
304.52	3.805
304.89	6.082
305.25	5.206
305.62	5.368
305.99	5.965
306.35	4.740
306.72	5.287
307.09	6.157
307.45	5.626
307.82	5.324
308.19	6.736
308.55	5.671
308.92	5.338
309.29	4.469
309.65	6.136
310.02	5.941
310.38	6.696
310.75	5.792
311.12	5.813
311.48	5.832
311.85	6.492
312.22	6.013
312.58	5.626
312.95	5.550
313.31	5.797
313.68	5.550
314.05	5.306
314.41	5.979
314.78	5.773
315.14	6.783
315.51	6.315
315.87	6.660
316.24	7.179
316.61	7.874
316.97	7.837
317.34	6.055
317.70	6.501
318.07	6.442
318.43	6.569
318.80	6.250
319.16	7.129
319.53	6.553
319.89	6.398
320.26	6.377
320.62	7.523
320.99	6.159
321.35	7.297
321.72	9.138
322.08	7.553
322.45	7.310
322.81	8.448
323.18	8.930
323.54	8.012
323.91	8.082
324.27	9.473
324.64	9.925
325.00	10.584
325.37	10.468
325.73	9.701
326.10	11.081
326.46	11.839
326.83	11.986
327.19	11.334
327.56	13.206
327.92	13.028
328.29	13.393
328.65	12.830
329.01	14.522
329.38	13.456
329.74	15.486
330.11	15.848
330.47	15.770
330.84	16.442
331.20	19.202
331.56	17.037
331.93	18.904
332.29	20.715
332.66	19.819
333.02	19.981
333.38	20.073
333.75	21.429
334.11	21.038
334.48	21.759
334.84	22.802
335.20	22.324
335.57	22.121
335.93	23.848
336.29	24.586
336.66	23.706
337.02	24.535
337.38	23.333
337.75	25.273
338.11	25.068
338.47	25.639
338.84	25.601
339.20	25.411
339.56	24.220
339.93	26.589
340.29	26.330
340.65	26.703
341.02	25.798
341.38	26.283
341.74	25.618
342.11	25.130
342.47	26.957
342.83	26.471
343.20	26.220
343.56	27.565
343.92	26.661
344.28	26.046
344.65	26.339
345.01	25.497
345.37	25.484
345.73	27.197
346.10	27.179
346.46	27.166
346.82	26.268
347.19	26.101
347.55	26.734
347.91	27.427
348.27	26.354
348.63	27.428
349.00	25.431
349.36	27.016
349.72	26.617
350.08	25.656
350.45	26.018
350.81	26.744
351.17	26.384
351.53	28.082
351.89	26.012
352.26	26.400
352.62	26.290
352.98	26.426
353.34	26.812
353.70	27.913
354.07	26.774
354.43	25.540
354.79	25.764
355.15	26.984
355.51	26.424
355.87	26.537
356.24	25.122
356.60	26.597
356.96	26.667
357.32	26.997
357.68	26.349
358.04	26.010
358.40	26.206
358.77	26.396
359.13	27.782
359.49	27.350
359.85	25.975
360.21	26.475
360.57	25.861
360.93	28.366
361.29	25.604
361.66	27.116
362.02	27.273
362.38	28.104
362.74	27.706
363.10	29.044
363.46	27.502
363.82	28.550
364.18	28.339
364.54	27.279
364.90	27.455
365.26	26.492
365.62	29.124
365.98	28.592
366.35	27.968
366.71	28.677
367.07	28.447
367.43	27.247
367.79	27.350
368.15	28.212
368.51	28.551
368.87	26.777
369.23	27.437
369.59	28.280
369.95	28.739
370.31	29.191
370.67	28.507
371.03	28.379
371.39	28.082
371.75	28.425
372.11	28.388
372.47	29.734
372.83	29.312
373.19	29.244
373.55	28.159
373.91	29.734
374.27	29.412
374.63	29.720
374.99	28.865
375.35	29.805
375.71	29.650
376.07	28.722
376.42	29.864
376.78	31.141
377.14	30.061
377.50	30.212
377.86	31.392
378.22	29.930
378.58	30.449
378.94	30.372
379.30	31.067
379.66	31.661
380.02	31.698
380.38	30.980
380.74	29.683
381.09	31.902
381.45	31.560
381.81	32.572
382.17	32.043
382.53	31.543
382.89	32.015
383.25	33.105
383.61	32.195
383.97	31.746
384.32	32.583
384.68	32.012
385.04	32.169
385.40	33.105
385.76	34.843
386.12	33.247
386.48	34.036
386.83	32.784
387.19	34.127
387.55	33.061
387.91	33.496
388.27	33.516
388.62	33.606
388.98	33.456
389.34	33.229
389.70	34.618
390.06	33.984
390.42	33.873
390.77	33.682
391.13	33.417
391.49	35.576
391.85	34.308
392.20	34.087
392.56	34.965
392.92	34.703
393.28	34.375
393.64	34.474
393.99	36.050
394.35	33.903
394.71	36.079
395.07	34.004
395.42	34.062
395.78	35.375
396.14	34.237
396.50	33.798
396.85	35.415
397.21	33.709
397.57	35.172
397.92	34.152
398.28	34.425
398.64	34.217
399.00	34.537
399.35	34.650
399.71	34.635
400.07	34.462
400.42	34.088
400.78	35.028
401.14	33.757
401.49	34.842
401.85	34.308
402.21	34.217
402.57	34.500
402.92	34.442
403.28	34.398
403.63	34.615
403.99	34.247
404.35	35.228
404.70	33.750
405.06	34.195
405.42	33.686
405.77	33.527
406.13	33.586
406.49	33.037
406.84	34.169
407.20	34.076
407.55	33.033
407.91	33.824
408.27	34.799
408.62	34.462
408.98	33.457
409.34	34.077
409.69	34.302
410.05	33.436
410.40	34.444
410.76	34.258
411.11	33.750
411.47	34.057
411.83	33.082
412.18	35.328
412.54	33.271
412.89	33.682
413.25	34.296
413.60	33.913
413.96	33.926
414.31	33.902
414.67	33.996
415.03	33.688
415.38	33.420
415.74	34.332
416.09	34.814
416.45	35.044
416.80	33.906
417.16	34.876
417.51	34.710
417.87	33.246
418.22	35.363
418.58	34.515
418.93	35.925
419.29	34.251
419.64	34.543
420.00	35.579
420.35	34.985
420.71	35.784
421.06	34.622
421.42	35.156
421.77	35.376
422.12	35.414
422.48	35.842
422.83	34.861
423.19	34.819
423.54	35.509
423.90	35.336
424.25	36.051
424.61	36.965
424.96	35.308
425.31	36.106
425.67	36.444
426.02	37.044
426.38	37.445
426.73	37.409
427.09	37.468
427.44	38.647
427.79	37.006
428.15	37.925
428.50	38.098
428.85	37.101
429.21	38.257
429.56	38.113
429.92	38.675
430.27	37.794
430.62	37.585
430.98	37.951
431.33	38.065
431.68	37.938
432.04	38.569
432.39	38.220
432.74	38.304
433.10	39.080
433.45	39.785
433.80	39.118
434.16	39.003
434.51	38.710
434.86	40.360
435.22	39.540
435.57	40.050
435.92	39.461
436.28	40.549
436.63	40.673
436.98	40.035
437.34	40.593
437.69	41.324
438.04	40.741
438.39	39.462
438.75	40.801
439.10	41.030
439.45	41.327
439.81	40.734
440.16	41.390
440.51	42.985
440.86	42.477
441.22	41.742
441.57	41.060
441.92	43.022
442.27	43.182
442.63	42.184
442.98	43.021
443.33	41.180
443.68	42.812
444.03	43.020
444.39	42.892
444.74	43.255
445.09	43.764
445.44	43.647
445.79	43.682
446.15	43.337
446.50	42.596
446.85	43.252
447.20	42.649
447.55	43.917
447.91	43.768
448.26	43.369
448.61	43.754
448.96	44.234
449.31	44.162
449.66	43.786
450.02	44.666
450.37	44.576
450.72	43.700
451.07	44.304
451.42	43.508
451.77	45.690
452.12	44.019
452.47	44.495
452.83	44.876
453.18	45.161
453.53	44.627
453.88	45.112
454.23	45.605
454.58	45.970
454.93	44.781
455.28	44.762
455.63	45.443
455.98	45.761
456.34	46.296
456.69	46.823
457.04	46.755
457.39	45.565
457.74	45.586
458.09	45.321
458.44	46.752
458.79	45.042
459.14	46.281
459.49	46.090
459.84	45.403
460.19	46.784
460.54	46.516
460.89	45.568
461.24	46.025
461.59	46.675
461.94	45.346
462.29	46.441
462.64	46.844
462.99	46.852
463.34	45.967
463.69	45.817
464.04	46.913
464.39	46.695
464.74	46.871
465.09	46.974
465.44	47.490
465.79	46.088
466.14	46.579
466.49	46.521
466.84	47.115
467.19	46.683
467.54	47.510
467.89	46.810
468.24	47.445
468.59	47.111
468.94	46.603
469.29	48.131
469.64	47.915
469.99	49.615
470.34	47.235
470.68	49.142
471.03	49.186
471.38	48.502
471.73	48.599
472.08	47.490
472.43	47.718
472.78	47.635
473.13	48.435
473.48	46.189
473.83	48.506
474.17	49.028
474.52	48.373
474.87	48.606
475.22	48.932
475.57	47.544
475.92	48.711
476.27	48.603
476.61	50.000
476.96	46.737
477.31	49.054
477.66	47.978
478.01	48.624
478.36	48.366
478.70	49.973
479.05	48.352
479.40	49.020
479.75	48.332
480.10	48.336
480.45	48.550
480.79	49.194
481.14	50.256
481.49	48.128
481.84	49.421
482.19	48.363
482.53	49.400
482.88	48.449
483.23	48.512
483.58	48.302
483.92	48.306
484.27	48.769
484.62	47.916
484.97	48.259
485.31	48.158
485.66	46.722
486.01	46.337
486.36	46.370
486.70	46.324
487.05	47.197
487.40	47.234
487.75	48.197
488.09	47.899
488.44	48.006
488.79	48.973
489.13	49.239
489.48	49.038
489.83	48.520
490.17	48.584
490.52	50.023
490.87	48.866
491.22	50.334
491.56	49.668
491.91	49.044
492.26	49.635
492.60	48.225
492.95	50.221
493.30	50.073
493.64	51.130
493.99	48.986
494.34	49.078
494.68	49.190
495.03	49.197
495.37	50.736
495.72	50.076
496.07	50.195
496.41	50.142
496.76	49.562
497.11	49.092
497.45	50.740
497.80	50.505
498.14	49.230
498.49	50.381
498.84	50.299
499.18	50.703
499.53	50.942
499.87	49.368
500.22	48.764
500.56	50.378
500.91	49.197
501.26	49.283
501.60	49.434
501.95	50.752
502.29	49.879
502.64	50.627
502.98	50.962
503.33	49.280
503.67	51.181
504.02	51.369
504.36	51.608
504.71	49.495
505.06	50.176
505.40	50.203
505.75	51.289
506.09	49.873
506.44	51.797
506.78	49.745
507.13	51.293
507.47	50.287
507.82	51.175
508.16	50.185
508.51	50.997
508.85	50.445
509.19	50.878
509.54	51.582
509.88	50.378
510.23	52.448
510.57	51.897
510.92	49.307
511.26	51.991
511.61	52.255
511.95	51.123
512.30	51.275
512.64	50.863
512.98	51.544
513.33	52.043
513.67	51.620
514.02	52.231
514.36	51.543
514.70	53.089
515.05	53.114
515.39	52.361
515.74	53.293
516.08	52.779
516.42	52.002
516.77	52.253
517.11	52.819
517.46	52.723
517.80	52.682
518.14	53.154
518.49	52.885
518.83	52.612
519.17	51.668
519.52	52.161
519.86	51.741
520.20	53.827
520.55	53.909
520.89	53.325
521.23	52.058
521.58	53.943
521.92	53.333
522.26	52.830
522.61	53.636
522.95	53.179
523.29	53.177
523.64	54.320
523.98	54.439
524.32	52.513
524.66	54.545
525.01	55.260
525.35	53.338
525.69	54.007
526.04	53.439
526.38	53.696
526.72	53.041
527.06	53.243
527.41	53.958
527.75	52.614
528.09	53.488
528.43	55.030
528.78	52.937
529.12	53.548
529.46	54.061
529.80	52.628
530.15	54.917
530.49	54.276
530.83	54.036
531.17	54.265
531.51	55.267
531.86	52.481
532.20	54.071
532.54	54.118
532.88	53.388
533.22	54.503
533.57	54.128
533.91	52.611
534.25	55.404
534.59	51.892
534.93	51.919
535.27	52.665
535.62	52.949
535.96	53.098
536.30	53.628
536.64	53.549
536.98	52.962
537.32	55.263
537.66	54.769
538.01	53.846
538.35	54.646
538.69	51.798
539.03	54.409
539.37	53.836
539.71	53.033
540.05	53.360
540.39	53.047
540.73	53.347
541.07	53.798
541.42	53.024
541.76	53.820
542.10	53.407
542.44	53.718
542.78	52.443
543.12	52.885
543.46	52.851
543.80	55.586
544.14	51.135
544.48	52.831
544.82	53.383
545.16	53.893
545.50	52.403
545.84	53.895
546.18	53.830
546.52	52.415
546.86	53.846
547.20	54.006
547.54	52.792
547.88	53.057
548.22	52.597
548.56	52.243
548.90	54.111
549.24	53.512
549.58	53.315
549.92	53.538
550.26	52.674
550.60	53.978
550.94	53.996
551.28	56.105
551.62	54.615
551.96	54.586
552.30	54.386
552.64	53.597
552.98	53.094
553.32	53.780
553.66	53.628
554.00	55.328
554.34	55.022
554.68	54.425
555.02	56.324
555.36	53.927
555.69	54.799
556.03	52.819
556.37	53.238
556.71	54.152
557.05	54.586
557.39	54.349
557.73	54.273
558.07	55.053
558.41	55.819
558.75	53.780
559.08	55.319
559.42	54.444
559.76	55.084
560.10	54.587
560.44	53.760
560.78	52.937
561.12	54.161
561.45	53.760
561.79	54.202
562.13	55.004
562.47	53.741
562.81	55.115
563.15	54.937
563.48	53.536
563.82	54.015
564.16	54.666
564.50	53.784
564.84	54.016
565.17	53.856
565.51	55.738
565.85	54.321
566.19	54.377
566.52	54.893
566.86	54.563
567.20	53.487
567.54	55.231
567.88	53.368
568.21	52.885
568.55	51.250
568.89	51.129
569.23	52.576
569.56	51.620
569.90	51.482
570.24	49.758
570.57	50.764
570.91	50.784
571.25	48.964
571.59	49.175
571.92	48.207
572.26	48.943
572.60	48.558
572.93	48.227
573.27	48.589
573.61	48.777
573.95	48.689
574.28	48.596
574.62	48.360
574.96	47.519
575.29	47.173
575.63	46.463
575.97	48.794
576.30	47.737
576.64	47.099
576.98	48.803
577.31	47.948
577.65	47.890
577.98	47.633
578.32	47.946
578.66	47.475
578.99	48.152
579.33	47.739
579.67	48.171
580.00	47.367
580.34	48.184
580.67	47.676
581.01	48.079
581.35	47.804
581.68	47.707
582.02	47.513
582.35	47.911
582.69	47.273
583.02	48.173
583.36	48.521
583.70	49.117
584.03	49.374
584.37	50.198
584.70	49.368
585.04	48.316
585.37	48.771
585.71	48.284
586.04	48.563
586.38	49.213
586.72	49.039
587.05	50.029
587.39	49.483
587.72	50.191
588.06	49.654
588.39	49.559
588.73	49.237
589.06	50.130
589.40	49.119
589.73	50.566
590.07	51.397
590.40	51.238
590.73	52.183
591.07	52.417
591.40	51.959
591.74	52.172
592.07	51.948
592.41	51.899
592.74	50.816
593.08	49.354
593.41	50.774
593.75	50.180
594.08	49.468
594.41	51.055
594.75	50.229
595.08	50.889
595.42	50.902
595.75	51.408
596.09	50.821
596.42	52.046
596.75	51.465
597.09	51.982
597.42	51.310
597.75	51.901
598.09	51.245
598.42	50.948
598.76	50.965
599.09	50.080
599.42	49.564
599.76	49.774
600.09	49.548
600.42	50.493
600.76	49.257
601.09	50.000
601.42	50.450
601.76	50.457
602.09	50.578
602.42	51.980
602.76	51.019
603.09	50.748
603.42	52.425
603.76	50.484
604.09	50.385
604.42	51.354
604.76	52.025
605.09	51.965
605.42	50.339
605.75	50.000
606.09	50.446
606.42	51.126
606.75	50.606
607.09	51.429
607.42	51.041
607.75	50.710
608.08	51.033
608.42	50.982
608.75	51.759
609.08	52.765
609.41	52.030
609.75	51.865
610.08	51.722
610.41	50.821
610.74	51.438
611.07	53.385
611.41	52.102
611.74	52.345
612.07	52.195
612.40	51.805
612.73	52.429
613.07	52.700
613.40	53.173
613.73	53.330
614.06	52.977
614.39	52.792
614.72	51.821
615.06	52.291
615.39	50.382
615.72	51.399
616.05	52.067
616.38	51.681
616.71	53.945
617.05	54.602
617.38	53.111
617.71	53.396
618.04	54.857
618.37	53.279
618.70	54.785
619.03	55.139
619.36	55.065
619.69	55.724
620.03	54.200
620.36	55.937
620.69	53.605
621.02	55.046
621.35	57.012
621.68	57.398
622.01	55.500
622.34	55.946
622.67	55.678
623.00	55.743
623.33	55.564
623.66	53.029
623.99	53.177
624.32	55.361
624.65	53.985
624.99	56.283
625.32	55.724
625.65	56.245
625.98	57.131
626.31	55.362
626.64	56.066
626.97	56.370
627.30	56.305
627.63	56.759
627.96	57.412
628.29	56.984
628.62	57.325
628.95	57.916
629.28	58.468
629.61	58.225
629.94	57.771
630.26	56.917
630.59	60.146
630.92	57.333
631.25	56.513
631.58	58.921
631.91	57.127
632.24	60.665
632.57	60.909
632.90	59.905
633.23	59.882
633.56	62.972
633.89	60.296
634.22	61.358
634.55	61.753
634.88	61.686
635.20	59.744
635.53	62.933
635.86	57.997
636.19	61.061
636.52	60.714
636.85	61.166
637.18	58.868
637.51	57.862
637.83	60.710
638.16	63.302
638.49	60.627
638.82	59.079
639.15	58.887
639.48	60.110
639.81	60.251
640.13	63.348
640.46	60.641
640.79	62.887
641.12	61.004
641.45	61.562
641.77	60.741
642.10	63.349
642.43	60.772
642.76	62.706
643.09	62.520
643.41	63.916
643.74	60.791
644.07	62.233
644.40	62.162
644.73	62.522
645.05	61.913
645.38	65.256
645.71	63.652
646.04	63.555
646.36	63.298
646.69	64.209
647.02	63.138
647.35	63.060
647.67	63.620
648.00	65.112
648.33	59.727
648.66	61.356
648.98	59.296
649.31	60.826
649.64	60.911
649.96	58.833
650.29	62.521
650.62	60.171
650.94	63.519
651.27	63.687
651.60	63.604
651.92	58.741
652.25	59.680
652.58	61.167
652.90	66.895
653.23	59.664
653.56	58.376
653.88	60.997
654.21	61.296
654.54	62.479
654.86	60.441
655.19	57.018
655.52	53.328
655.84	44.911
656.17	49.953
656.49	67.258
656.82	70.903
657.15	54.443
657.47	41.036
657.80	30.845
658.13	30.418
658.45	48.060
658.78	48.142
659.10	48.429
659.43	49.259
659.75	50.962
660.08	52.138
660.41	55.669
660.73	58.702
661.06	60.139
661.38	62.818
661.71	62.423
662.03	65.880
662.36	65.495
662.68	65.708
663.01	62.882
663.33	62.645
663.66	64.419
663.98	61.628
664.31	59.488
664.63	64.055
664.96	60.870
665.28	62.252
665.61	61.905
665.93	65.435
666.26	63.341
666.58	59.955
666.91	63.765
667.23	63.208
667.56	63.744
667.88	67.386
668.21	63.007
668.53	65.485
668.86	65.330
669.18	63.915
669.50	61.985
669.83	59.070
670.15	61.538
670.48	61.962
670.80	62.212
671.13	62.192
671.45	59.132
671.77	62.017
672.10	57.228
672.42	59.176
672.75	59.680
673.07	58.676
673.39	57.982
673.72	58.580
674.04	61.250
674.37	60.805
674.69	59.743
675.01	62.889
675.34	56.757
675.66	64.352
675.98	59.645
676.31	63.761
676.63	60.095
676.95	60.682
677.28	63.059
677.60	62.410
677.92	61.697
678.25	58.643
678.57	56.926
678.89	57.143
679.22	60.403
679.54	58.233
679.86	57.058
680.18	57.864
680.51	57.008
680.83	57.654
681.15	57.200
681.48	60.246
681.80	58.058
682.12	57.056
682.44	55.021
682.77	59.382
683.09	57.437
683.41	56.136
683.73	57.143
684.06	58.407
684.38	58.710
684.70	58.606
685.02	57.469
685.34	55.138
685.67	52.158
685.99	56.239
686.31	56.637
686.63	54.360
686.96	52.662
687.28	54.141
687.60	53.232
687.92	57.778
688.24	54.032
688.56	59.607
688.89	57.589
689.21	57.556
689.53	59.861
689.85	57.674
690.17	57.812
690.49	59.574
690.82	57.767
691.14	57.143
691.46	58.879
691.78	55.856
692.10	58.710
692.42	58.442
692.74	56.838
693.06	55.856
693.39	57.466
693.71	52.941
694.03	56.120
694.35	57.009
694.67	55.808
694.99	55.352
695.31	57.441
695.63	59.000
695.95	53.788
696.27	54.663
696.59	58.333
696.91	55.182
697.23	54.242
697.56	56.931
697.88	57.849
698.20	57.175
698.52	56.706
698.84	53.828
699.16	54.500
699.48	54.386
699.80	56.328
700.12	53.369
700.44	59.104
700.76	55.233
701.08	57.576
701.40	60.241
701.72	65.123
702.04	59.406
702.36	61.204
702.68	56.757
703.00	55.152
703.32	58.065
703.64	53.672
703.96	54.203
704.28	57.669
704.60	57.778
704.91	54.259
705.23	56.811
705.55	65.371
705.87	59.206
706.19	63.333
706.51	56.014
706.83	60.450
707.15	53.583
707.47	54.342
707.79	52.083
708.11	51.500
708.43	52.000
708.74	51.421
709.06	60.282
709.38	59.021
709.70	55.030
710.02	53.185
710.34	55.728
710.66	53.846
710.98	55.629
711.29	59.344
711.61	56.610
711.93	53.094
712.25	58.076
712.57	55.678
712.89	55.970
713.20	57.785
713.52	55.749
713.84	57.679
714.16	53.952
714.48	55.806
714.80	56.410
715.11	52.888
715.43	54.859
715.75	49.667
716.07	53.821
716.39	53.020
716.70	53.875
717.02	57.634
717.34	55.061
717.66	59.292
717.97	59.130
718.29	57.741
718.61	54.331
718.93	49.225
719.24	57.795
719.56	61.847
719.88	47.766
720.20	57.197
720.51	55.172
720.83	54.826
721.15	57.983
721.46	56.452
721.78	55.336
722.10	54.275
722.42	48.548
722.73	55.102
723.05	53.878
723.37	61.441
723.68	57.658
724.00	57.692
724.32	56.444
724.63	49.091
724.95	55.895
725.27	59.447
725.58	54.237
725.90	52.778
726.22	56.757
726.53	51.864
726.85	53.933
727.16	50.943
727.48	53.036
727.80	56.680
728.11	56.780
728.43	58.039
728.74	50.000
729.06	52.400
729.38	53.008
729.69	47.012
730.01	46.923
730.32	51.866
730.64	49.823
730.96	59.245
731.27	48.333
731.59	48.814
731.90	51.274
732.22	49.211
732.53	52.492
732.85	53.546
733.16	49.832
733.48	46.763
733.80	54.348
734.11	53.220
734.43	53.952
734.74	46.667
735.06	46.906
735.37	50.453
735.69	51.178
736.00	53.659
736.32	48.993
736.63	49.296
736.95	51.877
737.26	53.737
737.58	47.987
737.89	49.084
738.21	50.000
738.52	53.086
738.83	52.402
739.15	47.598
739.46	52.362
739.78	46.886
740.09	48.693
740.41	50.725
740.72	48.425
741.04	51.417
741.35	48.085
741.66	52.133
741.98	52.041
742.29	54.455
742.61	58.639
742.92	47.393
743.23	44.444
743.55	54.299
743.86	53.110
744.18	52.153
744.49	48.404
744.80	54.348
745.12	59.358
745.43	45.366
745.74	57.292
746.06	58.537
746.37	52.356
746.68	52.607
747.00	54.787
747.31	51.244
747.62	49.515
747.94	55.502
748.25	53.465
748.56	56.284
748.88	49.215
749.19	56.915
749.50	51.724
749.82	52.358
750.13	46.330
750.44	50.752
750.75	48.881
751.07	53.650
751.38	49.808
751.69	46.275
752.01	50.000
752.32	44.223
752.63	46.640
752.94	47.845
753.26	54.393
753.57	49.321
753.88	53.540
754.19	45.000
754.51	46.694
754.82	45.749
755.13	51.250
755.44	47.984
755.75	51.172
756.07	50.584
756.38	47.170
756.69	46.743
757.00	42.667
757.31	44.771
757.63	42.988
757.94	43.889
758.25	42.192
758.56	38.298
758.87	37.677
759.18	44.237
759.50	44.727
759.81	47.492
760.12	45.484
760.43	43.939
760.74	44.753
761.05	43.077
761.36	39.773
761.67	47.879
761.99	47.619
762.30	43.636
762.61	47.826
762.92	46.154
763.23	45.045
763.54	50.467
763.85	50.424
764.16	46.473
764.47	42.742
764.78	43.956
765.10	43.771
765.41	44.164
765.72	38.730
766.03	43.609
766.34	41.971
766.65	44.622
766.96	49.495
767.27	50.000
767.58	41.954
767.89	54.610
768.20	46.591
768.51	48.352
768.82	43.350
769.13	45.622
769.44	44.635
769.75	42.466
770.06	45.690
770.37	46.635
770.68	42.132
770.99	43.891
771.30	52.451
771.61	44.344
771.92	48.707
772.23	47.783
772.54	50.538
772.85	47.531
773.16	42.135
773.47	53.595
773.78	46.405
774.09	43.114
774.39	43.333
774.70	45.860
775.01	51.034
775.32	46.429
775.63	47.107
775.94	47.328
776.25	51.181
776.56	46.667
776.87	58.654
777.18	48.718
777.48	60.345
777.79	45.217
778.10	35.238
778.41	44.144
778.72	44.444
779.03	44.361
779.34	49.645
779.65	47.260
779.95	40.411
780.26	42.759
780.57	52.033
780.88	41.732
781.19	46.552
781.50	47.287
781.80	43.195
782.11	37.736
782.42	52.308
782.73	45.324
783.04	43.704
783.34	38.194
783.65	36.752
783.96	44.262
784.27	44.138
784.57	44.715
784.88	47.656
785.19	55.000
785.50	64.000
785.81	40.517
786.11	48.276
786.42	41.748
786.73	54.545
787.04	42.857
787.34	49.107
787.65	49.524
787.96	49.558
788.26	48.182
788.57	43.590
788.88	43.750
789.19	43.651
789.49	44.348
789.80	36.735
790.11	44.444
790.41	47.273
790.72	51.087
791.03	52.273
791.33	56.250
791.64	45.000
791.95	44.186
792.25	41.489
792.56	47.191
792.87	36.986
793.17	44.928
793.48	45.333
793.79	42.500
794.09	50.000
794.40	41.509
794.70	48.544
795.01	40.650
795.32	40.171
795.62	36.190
795.93	46.078
796.23	37.736
796.54	56.250
796.85	41.176
797.15	49.296
797.46	55.556
797.76	50.000
798.07	38.372
798.37	27.632
798.68	30.303
798.99	43.210
799.29	27.143
799.60	49.275
799.90	46.667
800.21	40.984
800.51	60.000
800.82	55.932
801.12	42.029
801.43	59.016
801.73	58.730
802.04	48.000
802.34	47.761
802.65	46.154
802.95	33.929
803.26	32.692
803.56	56.863
803.87	32.609
804.17	52.000
804.48	66.667
804.78	27.778
805.09	43.478
805.39	26.667
805.70	44.444
806.00	29.825
806.30	52.113
806.61	41.429
806.91	30.556
807.22	51.316
807.52	53.333
807.83	45.455
808.13	37.500
808.43	58.824
808.74	50.746
809.04	49.153
809.35	40.385
809.65	45.313
809.95	29.730
810.26	20.455
810.56	35.616
810.86	76.190
811.17	40.000
811.47	69.388
811.77	-2.632
812.08	31.818
812.38	32.075
812.69	45.000
812.99	42.424
813.29	57.895
813.59	42.857
813.90	31.818
814.20	38.462
814.50	40.385
814.81	49.057
815.11	55.319
815.41	62.712
815.72	23.810
816.02	47.059
816.32	37.500
816.62	17.073
816.93	43.243
817.23	34.286
817.53	37.500
817.84	50.000
818.14	50.000
818.44	18.421
818.74	45.652
819.04	7.500
819.35	37.838
819.65	29.412
819.95	50.000
820.25	35.714
820.56	37.500
820.86	0.000
821.16	75.000
821.46	53.191
821.76	35.000
822.07	32.558
822.37	16.216
822.67	25.000
822.97	64.286
823.27	42.857
823.57	40.000
823.88	14.815
824.18	17.857
824.48	38.235
824.78	58.065
825.08	26.087
825.38	81.818
825.69	37.500
825.99	50.000
826.29	36.111
826.59	100.000
826.89	-4.762
827.19	30.435
827.49	32.500
827.79	88.571
828.09	53.571
828.39	36.364
828.70	67.568
829.00	32.143
829.30	57.143
829.60	70.000
829.90	34.375
830.20	18.421
830.50	44.444
830.80	30.435
831.10	45.455
831.40	39.394
831.70	16.129
832.00	80.952
832.30	19.048
832.60	41.667
832.90	44.828
833.20	60.000
833.50	51.515
833.80	48.148
834.10	53.846
834.40	31.250
834.70	77.778
835.00	105.263
835.30	84.615
835.60	46.667
835.90	38.710
836.20	63.636
836.50	35.714
836.80	34.615
837.10	25.000
837.40	366.667
837.70	59.091
838.00	45.455
838.30	52.174
838.60	92.308
838.90	63.636
839.19	50.000
839.49	36.667
839.79	23.077
840.09	0.000
840.39	53.571
840.69	32.143
840.99	46.154
841.29	-5.263
841.59	-30.000
841.88	90.909
842.18	130.000
842.48	75.000
842.78	60.000
843.08	37.037
843.38	30.000
843.68	82.609
843.97	26.667
844.27	66.667
844.57	10.000
844.87	77.778
845.17	-38.095
845.47	40.000
845.76	52.381
846.06	129.412
846.36	-10.000
846.66	71.429
846.96	73.333
847.25	0.000
847.55	100.000
847.85	125.000
848.15	13.636
848.44	233.333
848.74	40.000
849.04	70.370
849.34	54.545
849.63	-100.000
849.93	-60.000
850.23	66.667
850.53	90.000
850.82	107.692
851.12	166.667
851.42	53.333
851.71	19.231
852.01	85.714
852.31	-75.000
852.61	-81.818
852.90	40.000
853.20	78.947
853.50	16.667
853.79	60.870
854.09	79.167
854.39	52.632
854.68	20.833
854.98	45.161
855.28	50.000
855.57	25.000
855.87	38.889
856.17	62.963
856.46	35.714
856.76	0.000
857.05	188.889
857.35	24.000
857.65	83.333
857.94	69.231
858.24	48.276
858.53	83.333
858.83	44.444
859.13	13.636
859.42	34.783
859.72	50.000
860.01	-300.000
860.31	48.000
860.60	57.143
860.90	0.000
861.20	60.000
861.49	500.000
861.79	13.333
862.08	35.000
862.38	100.000
862.67	0.000
862.97	50.000
863.26	75.000
863.56	22.222
863.85	-333.333
864.15	44.444
864.44	-90.000
864.74	64.286
865.03	-125.000
865.33	20.000
865.62	66.667
865.92	75.000
866.21	-116.667
866.51	81.250
866.80	-18.182
867.10	-150.000
867.39	133.333
867.69	0.000
867.98	46.154
868.27	-366.667
868.57	40.000
868.86	72.222
869.16	76.923
869.45	120.000
869.75	0.000
870.04	0.000
870.33	-28.571
870.63	100.000
870.92	233.333
871.22	-40.000
871.51	-700.000
871.80	233.333
872.10	166.667
>>>>>End Processed Spectral Data<<<<<
