SpectraSuite Data File
++++++++++++++++++++++++++++++++++++
Date: Fri May 15 20:00:17 PDT 2015
User: schluterlab
Dark Spectrum Present: Yes
Reference Spectrum Present: Yes
Number of Sampled Component Spectra: 1
Spectrometers: USB2E3373
Integration Time (usec): 3000 (USB2E3373)
Spectra Averaged: 3 (USB2E3373)
Boxcar Smoothing: 0 (USB2E3373)
Correct for Electrical Dark: No (USB2E3373)
Strobe/Lamp Enabled: No (USB2E3373)
Correct for Detector Non-linearity: No (USB2E3373)
Correct for Stray Light: No (USB2E3373)
Number of Pixels in Processed Spectrum: 2048
>>>>>Begin Processed Spectral Data<<<<<
178.53	0.000
178.91	0.000
179.29	162.500
179.67	-400.000
180.04	-157.143
180.42	275.000
180.80	300.000
181.18	33.333
181.56	250.000
181.94	200.000
182.31	400.000
182.69	80.000
183.07	-133.333
183.45	200.000
183.83	-83.333
184.20	72.727
184.58	77.778
184.96	-125.000
185.34	-333.333
185.72	-250.000
186.09	7.692
186.47	200.000
186.85	150.000
187.23	122.222
187.61	-1400.000
187.98	-66.667
188.36	-11.111
188.74	300.000
189.12	35.294
189.49	50.000
189.87	0.000
190.25	107.143
190.63	600.000
191.00	-200.000
191.38	15.789
191.76	500.000
192.14	125.000
192.51	850.000
192.89	44.444
193.27	42.857
193.65	16.667
194.02	36.364
194.40	140.000
194.78	75.000
195.15	50.000
195.53	-87.500
195.91	225.000
196.29	25.000
196.66	76.923
197.04	128.571
197.42	88.889
197.79	-66.667
198.17	-30.769
198.55	700.000
198.92	33.333
199.30	300.000
199.68	60.000
200.05	66.667
200.43	0.000
200.81	66.667
201.18	0.000
201.56	300.000
201.94	250.000
202.31	-266.667
202.69	-20.000
203.07	100.000
203.44	900.000
203.82	0.000
204.19	57.143
204.57	-100.000
204.95	75.000
205.32	0.000
205.70	142.857
206.08	0.000
206.45	177.778
206.83	71.429
207.20	-114.286
207.58	100.000
207.96	100.000
208.33	-20.000
208.71	-50.000
209.08	16.667
209.46	200.000
209.84	100.000
210.21	-400.000
210.59	128.571
210.96	33.333
211.34	225.000
211.71	40.000
212.09	-57.143
212.46	-1200.000
212.84	0.000
213.22	90.000
213.59	150.000
213.97	92.308
214.34	9.091
214.72	33.333
215.09	225.000
215.47	-30.769
215.84	81.818
216.22	133.333
216.59	-37.500
216.97	150.000
217.34	-75.000
217.72	-100.000
218.09	137.500
218.47	100.000
218.84	300.000
219.22	55.556
219.59	120.000
219.97	-100.000
220.34	-200.000
220.72	100.000
221.09	0.000
221.47	200.000
221.84	-150.000
222.22	-150.000
222.59	63.636
222.97	100.000
223.34	0.000
223.72	-14.286
224.09	52.381
224.46	50.000
224.84	233.333
225.21	20.000
225.59	13.333
225.96	150.000
226.34	25.000
226.71	0.000
227.08	83.333
227.46	62.500
227.83	-50.000
228.21	44.444
228.58	72.727
228.95	100.000
229.33	-10.000
229.70	81.250
230.08	25.000
230.45	42.857
230.82	128.571
231.20	33.333
231.57	100.000
231.95	142.857
232.32	-30.000
232.69	35.714
233.07	33.333
233.44	140.000
233.81	30.000
234.19	88.889
234.56	0.000
234.93	-550.000
235.31	425.000
235.68	0.000
236.05	-30.769
236.43	-10.000
236.80	82.353
237.17	18.750
237.55	70.000
237.92	51.852
238.29	36.111
238.67	40.000
239.04	55.882
239.41	29.268
239.79	56.667
240.16	41.463
240.53	23.684
240.91	30.435
241.28	26.984
241.65	41.071
242.02	34.247
242.40	48.333
242.77	28.814
243.14	51.515
243.51	47.500
243.89	44.828
244.26	27.586
244.63	44.048
245.00	36.082
245.38	54.639
245.75	35.955
246.12	37.931
246.49	38.843
246.87	50.962
247.24	35.294
247.61	35.088
247.98	30.894
248.36	41.875
248.73	42.105
249.10	38.961
249.47	42.405
249.84	32.680
250.22	41.765
250.59	47.059
250.96	41.784
251.33	50.000
251.70	43.529
252.08	43.655
252.45	39.604
252.82	44.724
253.19	35.945
253.56	40.654
253.94	42.793
254.31	40.870
254.68	46.930
255.05	34.646
255.42	39.301
255.79	43.243
256.16	38.521
256.54	40.299
256.91	38.403
257.28	36.059
257.65	40.824
258.02	38.652
258.39	42.424
258.76	41.392
259.14	41.196
259.51	40.129
259.88	33.677
260.25	39.216
260.62	44.444
260.99	37.288
261.36	42.808
261.73	39.557
262.10	41.033
262.47	38.650
262.85	40.752
263.22	40.000
263.59	38.318
263.96	40.994
264.33	40.606
264.70	39.286
265.07	41.964
265.44	42.493
265.81	38.136
266.18	40.437
266.55	36.761
266.92	40.674
267.29	41.253
267.66	38.619
268.03	38.743
268.40	38.381
268.77	47.326
269.14	36.691
269.51	39.589
269.88	37.157
270.25	38.265
270.62	40.000
270.99	38.107
271.36	37.653
271.73	38.028
272.10	38.686
272.47	38.534
272.84	36.881
273.21	37.355
273.58	40.964
273.95	38.444
274.32	37.644
274.69	37.104
275.06	36.830
275.43	37.642
275.80	38.411
276.17	36.552
276.54	37.687
276.91	38.596
277.28	36.245
277.65	36.157
278.02	36.383
278.39	38.512
278.76	35.010
279.13	35.062
279.50	37.605
279.87	33.909
280.23	35.054
280.60	36.257
280.97	38.788
281.34	34.038
281.71	36.961
282.08	34.560
282.45	33.855
282.82	35.328
283.19	35.977
283.56	37.380
283.92	36.243
284.29	34.038
284.66	35.659
285.03	34.381
285.40	33.081
285.77	32.337
286.14	33.935
286.51	35.240
286.87	30.896
287.24	34.070
287.61	32.099
287.98	32.281
288.35	32.929
288.72	35.552
289.08	32.292
289.45	31.634
289.82	30.245
290.19	29.693
290.56	32.590
290.93	31.650
291.29	28.043
291.66	30.709
292.03	29.665
292.40	30.484
292.77	29.027
293.13	27.273
293.50	27.618
293.87	27.939
294.24	26.584
294.60	27.869
294.97	27.232
295.34	27.147
295.71	28.465
296.08	26.457
296.44	24.182
296.81	25.833
297.18	26.957
297.55	26.423
297.91	26.027
298.28	26.517
298.65	25.645
299.02	26.280
299.38	22.982
299.75	25.517
300.12	25.131
300.48	24.506
300.85	24.588
301.22	23.896
301.59	22.632
301.95	25.949
302.32	26.589
302.69	23.134
303.05	23.515
303.42	23.288
303.79	24.416
304.15	25.090
304.52	23.424
304.89	23.275
305.25	23.123
305.62	22.637
305.99	22.222
306.35	22.428
306.72	21.372
307.09	21.437
307.45	21.929
307.82	22.454
308.19	23.345
308.55	22.465
308.92	23.965
309.29	21.788
309.65	21.421
310.02	22.772
310.38	22.503
310.75	22.077
311.12	22.390
311.48	21.739
311.85	22.304
312.22	20.359
312.58	20.701
312.95	21.131
313.31	21.325
313.68	20.628
314.05	20.816
314.41	23.093
314.78	20.722
315.14	22.919
315.51	22.257
315.87	22.131
316.24	24.166
316.61	21.850
316.97	21.825
317.34	22.656
317.70	22.180
318.07	22.981
318.43	23.431
318.80	22.633
319.16	23.633
319.53	23.552
319.89	23.917
320.26	24.696
320.62	25.777
320.99	24.635
321.35	25.385
321.72	25.961
322.08	26.586
322.45	25.381
322.81	23.183
323.18	25.123
323.54	24.421
323.91	26.290
324.27	27.441
324.64	26.685
325.00	28.832
325.37	30.028
325.73	28.558
326.10	29.064
326.46	31.570
326.83	29.571
327.19	30.514
327.56	30.061
327.92	31.514
328.29	31.250
328.65	32.264
329.01	32.445
329.38	32.350
329.74	32.483
330.11	31.233
330.47	33.395
330.84	33.654
331.20	34.886
331.56	33.704
331.93	35.525
332.29	35.655
332.66	36.471
333.02	35.409
333.38	34.647
333.75	38.095
334.11	36.168
334.48	37.443
334.84	36.355
335.20	36.505
335.57	35.902
335.93	37.127
336.29	39.227
336.66	37.421
337.02	36.989
337.38	37.593
337.75	38.636
338.11	38.774
338.47	38.412
338.84	38.817
339.20	39.122
339.56	38.991
339.93	39.391
340.29	38.073
340.65	39.785
341.02	38.564
341.38	38.142
341.74	38.781
342.11	37.955
342.47	39.502
342.83	38.062
343.20	39.199
343.56	39.826
343.92	39.593
344.28	41.161
344.65	39.551
345.01	38.807
345.37	38.940
345.73	39.665
346.10	40.121
346.46	39.529
346.82	39.362
347.19	38.404
347.55	40.351
347.91	39.806
348.27	39.935
348.63	40.034
349.00	38.720
349.36	39.401
349.72	41.376
350.08	39.262
350.45	39.665
350.81	40.947
351.17	39.414
351.53	40.082
351.89	40.545
352.26	41.120
352.62	41.048
352.98	40.723
353.34	39.855
353.70	41.262
354.07	40.726
354.43	40.592
354.79	42.197
355.15	41.746
355.51	42.089
355.87	41.505
356.24	40.375
356.60	40.663
356.96	41.825
357.32	42.093
357.68	40.891
358.04	42.246
358.40	42.605
358.77	43.142
359.13	42.834
359.49	41.371
359.85	42.512
360.21	42.743
360.57	42.540
360.93	42.284
361.29	41.012
361.66	44.592
362.02	42.197
362.38	43.869
362.74	43.679
363.10	44.093
363.46	43.588
363.82	44.929
364.18	42.952
364.54	43.456
364.90	42.509
365.26	44.323
365.62	45.328
365.98	46.334
366.35	44.355
366.71	45.159
367.07	44.485
367.43	44.141
367.79	44.523
368.15	44.580
368.51	45.448
368.87	44.508
369.23	43.610
369.59	46.720
369.95	44.721
370.31	44.436
370.67	46.269
371.03	45.556
371.39	45.077
371.75	45.788
372.11	45.364
372.47	46.154
372.83	45.990
373.19	45.792
373.55	46.137
373.91	45.788
374.27	47.838
374.63	46.159
374.99	47.589
375.35	47.284
375.71	47.622
376.07	47.331
376.42	47.483
376.78	48.725
377.14	48.341
377.50	48.938
377.86	47.791
378.22	47.735
378.58	48.205
378.94	48.330
379.30	49.033
379.66	49.028
380.02	47.578
380.38	48.022
380.74	48.115
381.09	49.264
381.45	49.664
381.81	49.661
382.17	50.444
382.53	49.969
382.89	50.408
383.25	49.844
383.61	51.707
383.97	49.841
384.32	50.469
384.68	50.279
385.04	50.429
385.40	50.093
385.76	51.887
386.12	51.876
386.48	52.874
386.83	50.476
387.19	51.465
387.55	51.945
387.91	51.039
388.27	50.977
388.62	53.430
388.98	51.320
389.34	52.030
389.70	52.268
390.06	51.290
390.42	51.749
390.77	52.780
391.13	51.702
391.49	52.717
391.85	53.801
392.20	52.166
392.56	53.274
392.92	54.727
393.28	53.656
393.64	52.853
393.99	53.918
394.35	54.080
394.71	53.512
395.07	52.923
395.42	52.398
395.78	54.007
396.14	53.342
396.50	54.280
396.85	53.767
397.21	53.133
397.57	53.730
397.92	54.044
398.28	55.115
398.64	53.193
399.00	55.079
399.35	54.515
399.71	53.073
400.07	54.655
400.42	53.672
400.78	54.011
401.14	54.325
401.49	55.033
401.85	53.626
402.21	54.036
402.57	53.937
402.92	53.388
403.28	54.762
403.63	54.288
403.99	54.401
404.35	53.841
404.70	53.690
405.06	53.584
405.42	53.636
405.77	53.980
406.13	54.657
406.49	54.529
406.84	54.523
407.20	54.365
407.55	53.574
407.91	53.075
408.27	54.557
408.62	54.523
408.98	54.036
409.34	56.072
409.69	54.457
410.05	54.064
410.40	53.951
410.76	54.765
411.11	53.750
411.47	54.504
411.83	53.107
412.18	54.955
412.54	53.870
412.89	53.202
413.25	54.272
413.60	54.286
413.96	52.577
414.31	54.512
414.67	53.496
415.03	54.261
415.38	54.830
415.74	53.290
416.09	54.997
416.45	55.098
416.80	54.395
417.16	53.591
417.51	54.430
417.87	52.608
418.22	54.858
418.58	55.719
418.93	54.671
419.29	52.305
419.64	55.023
420.00	55.227
420.35	53.731
420.71	55.103
421.06	55.985
421.42	55.409
421.77	55.780
422.12	55.165
422.48	55.766
422.83	54.524
423.19	55.587
423.54	55.556
423.90	54.653
424.25	56.257
424.61	55.141
424.96	54.762
425.31	55.979
425.67	53.873
426.02	54.417
426.38	57.420
426.73	56.356
427.09	55.886
427.44	56.529
427.79	55.569
428.15	55.583
428.50	56.148
428.85	55.835
429.21	56.933
429.56	57.358
429.92	56.805
430.27	55.990
430.62	57.344
430.98	57.431
431.33	57.045
431.68	56.567
432.04	56.121
432.39	55.790
432.74	54.059
433.10	56.839
433.45	56.511
433.80	57.400
434.16	56.898
434.51	56.828
434.86	56.852
435.22	56.422
435.57	57.205
435.92	55.808
436.28	55.397
436.63	56.303
436.98	56.663
437.34	57.592
437.69	57.126
438.04	56.923
438.39	56.811
438.75	58.409
439.10	56.819
439.45	57.152
439.81	56.208
440.16	57.779
440.51	58.507
440.86	58.489
441.22	56.222
441.57	57.616
441.92	58.814
442.27	58.315
442.63	57.602
442.98	58.070
443.33	58.264
443.68	57.188
444.03	57.029
444.39	56.272
444.74	59.030
445.09	58.018
445.44	58.348
445.79	58.071
446.15	56.883
446.50	57.404
446.85	58.608
447.20	57.351
447.55	58.036
447.91	58.714
448.26	56.232
448.61	57.513
448.96	56.913
449.31	57.514
449.66	57.201
450.02	57.216
450.37	59.040
450.72	57.388
451.07	57.595
451.42	54.869
451.77	56.962
452.12	56.519
452.47	54.733
452.83	57.420
453.18	57.052
453.53	57.016
453.88	57.013
454.23	55.624
454.58	57.872
454.93	56.572
455.28	54.794
455.63	56.789
455.98	56.524
456.34	56.130
456.69	57.243
457.04	56.837
457.39	56.561
457.74	57.195
458.09	55.327
458.44	56.524
458.79	55.742
459.14	56.636
459.49	58.090
459.84	57.417
460.19	56.493
460.54	57.702
460.89	56.761
461.24	56.211
461.59	56.176
461.94	55.094
462.29	55.368
462.64	55.349
462.99	55.518
463.34	54.451
463.69	55.212
464.04	55.993
464.39	56.155
464.74	56.933
465.09	57.392
465.44	57.992
465.79	55.896
466.14	57.127
466.49	57.274
466.84	55.979
467.19	54.819
467.54	56.066
467.89	57.107
468.24	54.319
468.59	57.206
468.94	55.175
469.29	56.197
469.64	54.956
469.99	55.501
470.34	54.676
470.68	55.481
471.03	55.060
471.38	55.136
471.73	55.112
472.08	53.867
472.43	55.369
472.78	53.735
473.13	53.810
473.48	54.919
473.83	54.670
474.17	54.598
474.52	54.308
474.87	53.515
475.22	54.423
475.57	54.658
475.92	55.074
476.27	54.075
476.61	55.093
476.96	54.044
477.31	54.191
477.66	53.820
478.01	54.857
478.36	54.194
478.70	54.486
479.05	54.505
479.40	53.577
479.75	53.285
480.10	54.634
480.45	55.100
480.79	55.841
481.14	55.943
481.49	53.941
481.84	55.598
482.19	54.490
482.53	54.149
482.88	54.940
483.23	53.743
483.58	53.585
483.92	53.388
484.27	52.963
484.62	53.922
484.97	54.436
485.31	55.780
485.66	60.290
486.01	63.072
486.36	61.976
486.70	59.856
487.05	57.784
487.40	56.903
487.75	54.648
488.09	51.823
488.44	50.069
488.79	50.131
489.13	51.522
489.48	52.629
489.83	52.601
490.17	52.090
490.52	51.917
490.87	52.800
491.22	52.913
491.56	52.372
491.91	50.717
492.26	52.309
492.60	51.919
492.95	52.976
493.30	52.027
493.64	52.505
493.99	51.981
494.34	51.990
494.68	52.381
495.03	52.165
495.37	51.717
495.72	52.903
496.07	52.976
496.41	53.396
496.76	53.201
497.11	52.026
497.45	53.174
497.80	52.170
498.14	50.720
498.49	52.057
498.84	50.499
499.18	52.410
499.53	52.679
499.87	51.167
500.22	52.275
500.56	51.740
500.91	51.556
501.26	50.568
501.60	52.336
501.95	52.499
502.29	51.622
502.64	52.220
502.98	52.738
503.33	51.393
503.67	52.193
504.02	52.199
504.36	52.251
504.71	51.818
505.06	51.132
505.40	51.726
505.75	50.670
506.09	51.039
506.44	51.951
506.78	51.327
507.13	51.138
507.47	50.757
507.82	50.748
508.16	49.921
508.51	51.364
508.85	50.131
509.19	49.973
509.54	50.295
509.88	49.946
510.23	50.403
510.57	50.401
510.92	49.414
511.26	51.009
511.61	50.935
511.95	50.027
512.30	49.446
512.64	49.694
512.98	49.523
513.33	50.308
513.67	49.289
514.02	50.915
514.36	50.114
514.70	50.058
515.05	49.882
515.39	48.819
515.74	50.599
516.08	49.492
516.42	49.352
516.77	49.854
517.11	50.682
517.46	50.150
517.80	49.285
518.14	48.683
518.49	48.197
518.83	48.542
519.17	48.029
519.52	49.674
519.86	48.619
520.20	49.210
520.55	47.280
520.89	49.247
521.23	48.575
521.58	48.707
521.92	48.654
522.26	48.081
522.61	47.013
522.95	48.874
523.29	47.840
523.64	47.713
523.98	48.801
524.32	48.582
524.66	48.143
525.01	48.766
525.35	48.671
525.69	48.687
526.04	46.825
526.38	48.119
526.72	47.220
527.06	47.017
527.41	47.230
527.75	47.721
528.09	47.375
528.43	48.953
528.78	48.053
529.12	48.968
529.46	48.928
529.80	48.258
530.15	48.845
530.49	47.811
530.83	48.358
531.17	46.340
531.51	48.837
531.86	48.131
532.20	47.251
532.54	48.741
532.88	48.734
533.22	48.253
533.57	48.493
533.91	48.825
534.25	49.609
534.59	50.417
534.93	49.087
535.27	48.858
535.62	49.125
535.96	48.598
536.30	49.802
536.64	50.861
536.98	48.432
537.32	49.075
537.66	48.387
538.01	48.601
538.35	48.890
538.69	48.402
539.03	48.530
539.37	49.327
539.71	48.194
540.05	48.405
540.39	49.030
540.73	48.257
541.07	49.171
541.42	48.118
541.76	48.658
542.10	48.796
542.44	48.645
542.78	47.970
543.12	49.794
543.46	49.026
543.80	49.688
544.14	47.730
544.48	48.767
544.82	49.897
545.16	50.615
545.50	49.266
545.84	50.212
546.18	49.787
546.52	48.810
546.86	49.676
547.20	48.641
547.54	48.339
547.88	50.611
548.22	49.704
548.56	49.142
548.90	49.124
549.24	49.311
549.58	47.743
549.92	46.533
550.26	48.938
550.60	48.773
550.94	49.216
551.28	47.372
551.62	48.231
551.96	50.075
552.30	50.365
552.64	49.295
552.98	50.000
553.32	48.288
553.66	49.274
554.00	50.511
554.34	48.671
554.68	48.009
555.02	49.033
555.36	48.542
555.69	49.817
556.03	48.465
556.37	49.395
556.71	49.386
557.05	47.726
557.39	48.699
557.73	49.025
558.07	49.623
558.41	48.851
558.75	48.714
559.08	47.597
559.42	46.270
559.76	48.919
560.10	48.853
560.44	50.633
560.78	50.629
561.12	51.269
561.45	51.933
561.79	50.000
562.13	50.958
562.47	50.144
562.81	49.568
563.15	49.929
563.48	51.132
563.82	50.927
564.16	50.557
564.50	50.405
564.84	49.866
565.17	50.302
565.51	52.117
565.85	51.235
566.19	50.796
566.52	51.072
566.86	51.928
567.20	50.747
567.54	53.650
567.88	54.833
568.21	54.016
568.55	54.185
568.89	55.082
569.23	56.235
569.56	56.305
569.90	58.587
570.24	58.355
570.57	58.400
570.91	60.021
571.25	59.092
571.59	58.362
571.92	58.756
572.26	58.907
572.60	57.395
572.93	57.735
573.27	57.179
573.61	59.010
573.95	60.022
574.28	59.190
574.62	60.259
574.96	60.534
575.29	59.036
575.63	58.150
575.97	58.580
576.30	58.504
576.64	58.490
576.98	59.743
577.31	60.113
577.65	60.894
577.98	62.172
578.32	61.960
578.66	59.231
578.99	58.985
579.33	58.181
579.67	58.390
580.00	59.063
580.34	58.831
580.67	57.715
581.01	59.606
581.35	61.068
581.68	63.157
582.02	63.149
582.35	62.526
582.69	61.706
583.02	60.607
583.36	58.599
583.70	57.840
584.03	57.882
584.37	57.030
584.70	57.802
585.04	58.782
585.37	60.565
585.71	61.417
586.04	60.767
586.38	58.762
586.72	59.684
587.05	60.341
587.39	61.336
587.72	61.372
588.06	59.258
588.39	58.872
588.73	59.035
589.06	58.937
589.40	57.449
589.73	56.517
590.07	57.779
590.40	57.353
590.73	58.443
591.07	56.489
591.40	57.435
591.74	56.923
592.07	57.375
592.41	58.436
592.74	59.658
593.08	60.426
593.41	61.746
593.75	60.157
594.08	59.664
594.41	58.916
594.75	59.084
595.08	59.705
595.42	59.514
595.75	58.693
596.09	58.757
596.42	57.007
596.75	56.927
597.09	56.948
597.42	57.633
597.75	58.452
598.09	56.813
598.42	57.762
598.76	59.674
599.09	60.657
599.42	60.894
599.76	60.346
600.09	60.445
600.42	59.439
600.76	59.398
601.09	59.885
601.42	59.342
601.76	59.428
602.09	58.993
602.42	59.225
602.76	58.616
603.09	59.261
603.42	61.455
603.76	59.073
604.09	59.012
604.42	59.179
604.76	58.567
605.09	57.998
605.42	57.698
605.75	59.676
606.09	59.958
606.42	58.173
606.75	59.394
607.09	59.297
607.42	58.175
607.75	58.837
608.08	57.188
608.42	56.647
608.75	58.602
609.08	57.349
609.41	57.614
609.75	57.359
610.08	57.913
610.41	57.971
610.74	58.606
611.07	58.346
611.41	57.966
611.74	58.849
612.07	57.120
612.40	57.659
612.73	58.757
613.07	56.749
613.40	58.096
613.73	56.687
614.06	57.874
614.39	58.206
614.72	57.759
615.06	58.380
615.39	58.133
615.72	58.719
616.05	58.045
616.38	56.467
616.71	56.697
617.05	56.825
617.38	54.620
617.71	56.352
618.04	58.095
618.37	56.431
618.70	56.898
619.03	56.667
619.36	53.618
619.69	55.572
620.03	57.122
620.36	55.579
620.69	55.389
621.02	53.440
621.35	51.701
621.68	54.082
622.01	54.833
622.34	55.387
622.67	55.757
623.00	55.207
623.33	54.726
623.66	55.198
623.99	55.900
624.32	55.589
624.65	55.564
624.99	57.035
625.32	55.269
625.65	55.774
625.98	53.908
626.31	52.618
626.64	53.293
626.97	52.269
627.30	53.415
627.63	52.773
627.96	53.819
628.29	52.081
628.62	51.917
628.95	50.100
629.28	53.427
629.61	51.844
629.94	51.613
630.26	52.075
630.59	52.758
630.92	51.179
631.25	49.846
631.58	50.991
631.91	50.439
632.24	51.720
632.57	48.636
632.90	48.873
633.23	48.235
633.56	49.496
633.89	47.102
634.22	48.642
634.55	49.428
634.88	47.126
635.20	46.923
635.53	48.400
635.86	49.155
636.19	50.582
636.52	49.107
636.85	47.022
637.18	49.560
637.51	48.805
637.83	47.043
638.16	49.659
638.49	46.322
638.82	48.947
639.15	49.254
639.48	50.344
639.81	48.675
640.13	47.763
640.46	46.064
640.79	46.834
641.12	46.677
641.45	46.396
641.77	46.222
642.10	47.077
642.43	44.212
642.76	46.040
643.09	45.719
643.41	43.528
643.74	47.117
644.07	44.828
644.40	45.608
644.73	46.410
645.05	44.966
645.38	44.974
645.71	43.617
646.04	46.499
646.36	43.440
646.69	45.324
647.02	45.558
647.35	43.097
647.67	43.876
648.00	47.015
648.33	45.563
648.66	46.780
648.98	46.064
649.31	49.587
649.64	48.980
649.96	49.757
650.29	45.486
650.62	46.154
650.94	47.963
651.27	45.810
651.60	46.486
651.92	46.329
652.25	47.780
652.58	45.500
652.90	51.801
653.23	49.580
653.56	45.178
653.88	47.251
654.21	47.986
654.54	46.010
654.86	48.557
655.19	50.000
655.52	69.195
655.84	80.831
656.17	88.606
656.49	100.000
656.82	100.000
657.15	100.000
657.47	59.790
657.80	41.735
658.13	39.153
658.45	56.018
658.78	51.184
659.10	46.296
659.43	45.280
659.75	43.957
660.08	42.069
660.41	43.514
660.73	42.265
661.06	43.328
661.38	42.270
661.71	40.452
662.03	46.137
662.36	42.637
662.68	40.929
663.01	42.576
663.33	43.155
663.66	43.488
663.98	43.953
664.31	41.578
664.63	43.318
664.96	42.826
665.28	42.826
665.61	50.649
665.93	46.957
666.26	47.722
666.58	42.506
666.91	42.588
667.23	42.925
667.56	41.943
667.88	43.645
668.21	43.914
668.53	44.681
668.86	43.632
669.18	40.802
669.50	42.857
669.83	44.186
670.15	42.191
670.48	45.455
670.80	45.622
671.13	43.177
671.45	43.607
671.77	46.781
672.10	49.307
672.42	52.247
672.75	52.753
673.07	50.447
673.39	50.826
673.72	44.773
674.04	44.792
674.37	50.000
674.69	44.325
675.01	46.889
675.34	42.342
675.66	44.444
675.98	45.455
676.31	46.101
676.63	46.556
676.95	44.545
677.28	46.824
677.60	46.506
677.92	45.872
678.25	47.484
678.57	48.918
678.89	49.790
679.22	51.230
679.54	47.590
679.86	45.924
680.18	53.398
680.51	51.136
680.83	49.105
681.15	48.200
681.48	50.615
681.80	49.793
682.12	50.000
682.44	48.117
682.77	48.565
683.09	46.453
683.41	44.091
683.73	46.313
684.06	49.779
684.38	47.097
684.70	51.198
685.02	50.000
685.34	51.581
685.67	52.720
685.99	56.962
686.31	51.681
686.63	53.432
686.96	51.331
687.28	51.313
687.60	48.859
687.92	55.960
688.24	53.629
688.56	49.563
688.89	48.437
689.21	49.111
689.53	47.332
689.85	45.814
690.17	47.991
690.49	51.300
690.82	46.845
691.14	49.762
691.46	47.664
691.78	53.378
692.10	52.903
692.42	53.463
692.74	49.145
693.06	48.649
693.39	51.357
693.71	50.226
694.03	48.037
694.35	54.673
694.67	47.980
694.99	46.214
695.31	52.742
695.63	48.500
695.95	50.758
696.27	47.927
696.59	50.556
696.91	45.938
697.23	50.643
697.56	55.198
697.88	56.989
698.20	54.897
698.52	54.118
698.84	49.761
699.16	51.250
699.48	51.629
699.80	48.139
700.12	50.674
700.44	51.541
700.76	47.384
701.08	41.818
701.40	43.976
701.72	53.704
702.04	47.855
702.36	50.836
702.68	48.949
703.00	51.212
703.32	51.906
703.64	49.718
703.96	48.406
704.28	49.693
704.60	52.381
704.91	52.997
705.23	43.854
705.55	48.410
705.87	45.487
706.19	46.296
706.51	42.268
706.83	51.125
707.15	49.533
707.47	54.902
707.79	56.250
708.11	54.750
708.43	54.250
708.74	54.522
709.06	52.958
709.38	53.823
709.70	50.000
710.02	50.000
710.34	49.226
710.66	47.436
710.98	52.318
711.29	54.426
711.61	46.102
711.93	50.489
712.25	52.921
712.57	43.956
712.89	45.522
713.20	51.557
713.52	49.477
713.84	50.512
714.16	53.952
714.48	54.194
714.80	58.013
715.11	51.672
715.43	52.351
715.75	50.333
716.07	52.492
716.39	51.007
716.70	46.125
717.02	45.802
717.34	48.583
717.66	48.230
717.97	45.652
718.29	46.025
718.61	53.937
718.93	46.899
719.24	49.810
719.56	52.610
719.88	50.515
720.20	48.864
720.51	46.743
720.83	49.421
721.15	52.521
721.46	49.194
721.78	48.221
722.10	46.840
722.42	47.303
722.73	49.796
723.05	57.959
723.37	55.085
723.68	50.450
724.00	47.436
724.32	49.778
724.63	50.909
724.95	47.598
725.27	49.770
725.58	54.661
725.90	54.762
726.22	53.282
726.53	49.153
726.85	57.303
727.16	55.472
727.48	51.012
727.80	54.656
728.11	51.695
728.43	55.686
728.74	50.403
729.06	55.200
729.38	55.639
729.69	54.582
730.01	47.692
730.32	55.597
730.64	55.830
730.96	55.094
731.27	58.667
731.59	62.034
731.90	58.917
732.22	58.991
732.53	62.458
732.85	55.319
733.16	60.606
733.48	55.755
733.80	57.246
734.11	54.237
734.43	63.230
734.74	61.818
735.06	64.169
735.37	58.610
735.69	63.973
736.00	56.446
736.32	53.691
736.63	59.859
736.95	58.020
737.26	59.075
737.58	55.369
737.89	58.608
738.21	59.398
738.52	54.733
738.83	53.712
739.15	54.585
739.46	64.173
739.78	53.846
740.09	58.170
740.41	58.333
740.72	54.724
741.04	53.036
741.35	51.915
741.66	49.763
741.98	54.592
742.29	48.515
742.61	58.115
742.92	45.024
743.23	52.778
743.55	52.036
743.86	51.196
744.18	47.368
744.49	59.043
744.80	47.283
745.12	56.684
745.43	52.195
745.74	56.771
746.06	51.707
746.37	58.115
746.68	56.872
747.00	55.851
747.31	56.716
747.62	57.767
747.94	56.938
748.25	55.941
748.56	57.377
748.88	48.168
749.19	58.511
749.50	55.665
749.82	52.830
750.13	54.587
750.44	66.541
750.75	64.179
751.07	65.328
751.38	57.088
751.69	54.902
752.01	59.690
752.32	58.964
752.63	58.103
752.94	59.914
753.26	58.159
753.57	51.584
753.88	64.159
754.19	61.250
754.51	58.264
754.82	56.680
755.13	62.083
755.44	58.871
755.75	62.500
756.07	57.588
756.38	58.868
756.69	60.153
757.00	60.000
757.31	64.379
757.63	67.683
757.94	64.167
758.25	67.945
758.56	63.032
758.87	56.374
759.18	54.829
759.50	61.091
759.81	64.548
760.12	70.645
760.43	62.121
760.74	67.901
761.05	63.077
761.36	64.773
761.67	62.727
761.99	62.585
762.30	56.727
762.61	59.289
762.92	58.824
763.23	55.856
763.54	64.953
763.85	59.746
764.16	61.826
764.47	60.887
764.78	60.440
765.10	65.657
765.41	66.246
765.72	61.270
766.03	69.549
766.34	63.139
766.65	54.980
766.96	65.152
767.27	56.915
767.58	58.621
767.89	52.482
768.20	56.818
768.51	60.989
768.82	58.128
769.13	58.986
769.44	55.794
769.75	58.447
770.06	58.190
770.37	56.731
770.68	61.421
770.99	62.443
771.30	68.137
771.61	70.136
771.92	59.483
772.23	60.591
772.54	54.839
772.85	66.667
773.16	58.427
773.47	64.706
773.78	55.556
774.09	53.892
774.39	55.333
774.70	54.140
775.01	52.414
775.32	55.000
775.63	47.934
775.94	51.908
776.25	43.307
776.56	53.333
776.87	62.500
777.18	44.444
777.48	56.897
777.79	44.348
778.10	46.667
778.41	51.351
778.72	59.524
779.03	60.150
779.34	58.865
779.65	65.068
779.95	57.534
780.26	53.793
780.57	47.967
780.88	57.480
781.19	57.759
781.50	62.016
781.80	59.172
782.11	56.604
782.42	71.538
782.73	61.151
783.04	61.481
783.34	51.389
783.65	46.154
783.96	60.656
784.27	60.000
784.57	56.098
784.88	51.562
785.19	61.000
785.50	64.000
785.81	60.345
786.11	59.483
786.42	51.456
786.73	61.818
787.04	59.184
787.34	55.357
787.65	54.286
787.96	55.752
788.26	62.727
788.57	60.684
788.88	51.563
789.19	60.317
789.49	52.174
789.80	60.204
790.11	55.556
790.41	50.000
790.72	58.696
791.03	51.136
791.33	65.000
791.64	62.500
791.95	48.837
792.25	57.447
792.56	42.697
792.87	49.315
793.17	49.275
793.48	38.667
793.79	57.500
794.09	72.500
794.40	60.377
794.70	67.961
795.01	57.724
795.32	61.538
795.62	69.524
795.93	60.784
796.23	54.717
796.54	55.208
796.85	55.882
797.15	49.296
797.46	59.722
797.76	65.152
798.07	54.651
798.37	56.579
798.68	65.152
798.99	49.383
799.29	64.286
799.60	62.319
799.90	62.667
800.21	68.852
800.51	46.154
800.82	45.763
801.12	56.522
801.43	49.180
801.73	58.730
802.04	48.000
802.34	26.866
802.65	69.231
802.95	44.643
803.26	57.692
803.56	68.627
803.87	41.304
804.17	60.000
804.48	55.556
804.78	33.333
805.09	43.478
805.39	48.889
805.70	53.704
806.00	50.877
806.30	40.845
806.61	61.429
806.91	52.778
807.22	63.158
807.52	65.333
807.83	67.273
808.13	56.944
808.43	52.941
808.74	62.687
809.04	59.322
809.35	53.846
809.65	64.063
809.95	27.027
810.26	40.909
810.56	52.055
810.86	64.286
811.17	52.000
811.47	57.143
811.77	71.053
812.08	36.364
812.38	32.075
812.69	35.000
812.99	45.455
813.29	55.263
813.59	51.429
813.90	63.636
814.20	53.846
814.50	63.462
814.81	64.151
815.11	36.170
815.41	40.678
815.72	38.095
816.02	49.020
816.32	54.167
816.62	48.780
816.93	40.541
817.23	48.571
817.53	58.333
817.84	32.609
818.14	53.846
818.44	23.684
818.74	56.522
819.04	30.000
819.35	67.568
819.65	67.647
819.95	36.111
820.25	38.095
820.56	62.500
820.86	24.138
821.16	60.000
821.46	48.936
821.76	90.000
822.07	46.512
822.37	40.541
822.67	46.875
822.97	61.905
823.27	39.286
823.57	44.000
823.88	55.556
824.18	57.143
824.48	44.118
824.78	32.258
825.08	39.130
825.38	54.545
825.69	25.000
825.99	47.368
826.29	69.444
826.59	80.000
826.89	28.571
827.19	47.826
827.49	55.000
827.79	54.286
828.09	67.857
828.39	75.758
828.70	70.270
829.00	46.429
829.30	90.476
829.60	50.000
829.90	68.750
830.20	13.158
830.50	7.407
830.80	-13.043
831.10	40.909
831.40	60.606
831.70	61.290
832.00	57.143
832.30	42.857
832.60	50.000
832.90	20.690
833.20	0.000
833.50	39.394
833.80	44.444
834.10	34.615
834.40	50.000
834.70	55.556
835.00	52.632
835.30	96.154
835.60	106.667
835.90	25.806
836.20	95.455
836.50	82.143
836.80	30.769
837.10	46.429
837.40	166.667
837.70	18.182
838.00	63.636
838.30	21.739
838.60	23.077
838.90	72.727
839.19	50.000
839.49	16.667
839.79	15.385
840.09	-8.333
840.39	46.429
840.69	42.857
840.99	11.538
841.29	31.579
841.59	10.000
841.88	45.455
842.18	60.000
842.48	50.000
842.78	-46.667
843.08	48.148
843.38	-110.000
843.68	69.565
843.97	6.667
844.27	26.667
844.57	5.000
844.87	50.000
845.17	9.524
845.47	86.667
845.76	38.095
846.06	76.471
846.36	20.000
846.66	-7.143
846.96	53.333
847.25	-75.000
847.55	21.429
847.85	162.500
848.15	31.818
848.44	-200.000
848.74	10.000
849.04	74.074
849.34	63.636
849.63	0.000
849.93	240.000
850.23	5.556
850.53	100.000
850.82	7.692
851.12	33.333
851.42	26.667
851.71	3.846
852.01	57.143
852.31	25.000
852.61	-9.091
852.90	70.000
853.20	47.368
853.50	41.667
853.79	78.261
854.09	70.833
854.39	68.421
854.68	58.333
854.98	35.484
855.28	92.308
855.57	5.000
855.87	33.333
856.17	81.481
856.46	42.857
856.76	73.333
857.05	144.444
857.35	56.000
857.65	72.222
857.94	30.769
858.24	62.069
858.53	27.778
858.83	55.556
859.13	68.182
859.42	47.826
859.72	125.000
860.01	-366.667
860.31	84.000
860.60	57.143
860.90	-100.000
861.20	20.000
861.49	0.000
861.79	-13.333
862.08	50.000
862.38	80.000
862.67	-120.000
862.97	116.667
863.26	108.333
863.56	61.111
863.85	-166.667
864.15	55.556
864.44	70.000
864.74	71.429
865.03	275.000
865.33	-180.000
865.62	100.000
865.92	33.333
866.21	33.333
866.51	106.250
866.80	-9.091
867.10	-200.000
867.39	108.333
867.69	0.000
867.98	61.538
868.27	166.667
868.57	40.000
868.86	72.222
869.16	61.538
869.45	26.667
869.75	-500.000
870.04	0.000
870.33	-57.143
870.63	123.810
870.92	100.000
871.22	0.000
871.51	500.000
871.80	22.222
872.10	266.667
>>>>>End Processed Spectral Data<<<<<
