SpectraSuite Data File
++++++++++++++++++++++++++++++++++++
Date: Fri May 15 20:14:50 PDT 2015
User: schluterlab
Dark Spectrum Present: Yes
Reference Spectrum Present: Yes
Number of Sampled Component Spectra: 1
Spectrometers: USB2E3373
Integration Time (usec): 3000 (USB2E3373)
Spectra Averaged: 3 (USB2E3373)
Boxcar Smoothing: 0 (USB2E3373)
Correct for Electrical Dark: No (USB2E3373)
Strobe/Lamp Enabled: No (USB2E3373)
Correct for Detector Non-linearity: No (USB2E3373)
Correct for Stray Light: No (USB2E3373)
Number of Pixels in Processed Spectrum: 2048
>>>>>Begin Processed Spectral Data<<<<<
178.53	0.000
178.91	0.000
179.29	87.500
179.67	-250.000
180.04	-85.714
180.42	150.000
180.80	-100.000
181.18	-166.667
181.56	350.000
181.94	-300.000
182.31	700.000
182.69	-140.000
183.07	-33.333
183.45	-80.000
183.83	-0.000
184.20	9.091
184.58	144.444
184.96	-75.000
185.34	-266.667
185.72	0.000
186.09	30.769
186.47	-400.000
186.85	200.000
187.23	-22.222
187.61	-200.000
187.98	-100.000
188.36	66.667
188.74	-133.333
189.12	0.000
189.49	22.222
189.87	0.000
190.25	78.571
190.63	50.000
191.00	166.667
191.38	-5.263
191.76	350.000
192.14	150.000
192.51	450.000
192.89	-66.667
193.27	-128.571
193.65	150.000
194.02	109.091
194.40	30.000
194.78	-75.000
195.15	-83.333
195.53	75.000
195.91	150.000
196.29	-275.000
196.66	30.769
197.04	100.000
197.42	-100.000
197.79	-433.333
198.17	-53.846
198.55	1500.000
198.92	-166.667
199.30	0.000
199.68	-40.000
200.05	-33.333
200.43	0.000
200.81	0.000
201.18	100.000
201.56	500.000
201.94	100.000
202.31	-166.667
202.69	-160.000
203.07	-125.000
203.44	1100.000
203.82	0.000
204.19	-42.857
204.57	-133.333
204.95	25.000
205.32	70.000
205.70	-14.286
206.08	-100.000
206.45	188.889
206.83	85.714
207.20	28.571
207.58	-1400.000
207.96	166.667
208.33	-40.000
208.71	275.000
209.08	16.667
209.46	-900.000
209.84	-140.000
210.21	-1400.000
210.59	128.571
210.96	166.667
211.34	150.000
211.71	0.000
212.09	-28.571
212.46	-500.000
212.84	0.000
213.22	70.000
213.59	400.000
213.97	53.846
214.34	54.545
214.72	0.000
215.09	300.000
215.47	7.692
215.84	0.000
216.22	-400.000
216.59	62.500
216.97	350.000
217.34	150.000
217.72	-40.000
218.09	87.500
218.47	150.000
218.84	200.000
219.22	-22.222
219.59	-120.000
219.97	33.333
220.34	225.000
220.72	0.000
221.09	-50.000
221.47	0.000
221.84	-300.000
222.22	-100.000
222.59	-9.091
222.97	33.333
223.34	0.000
223.72	-7.143
224.09	-19.048
224.46	7.143
224.84	300.000
225.21	-20.000
225.59	86.667
225.96	-300.000
226.34	25.000
226.71	-28.571
227.08	33.333
227.46	-87.500
227.83	-550.000
228.21	66.667
228.58	0.000
228.95	0.000
229.33	70.000
229.70	75.000
230.08	-62.500
230.45	-42.857
230.82	57.143
231.20	-60.000
231.57	57.143
231.95	128.571
232.32	-100.000
232.69	64.286
233.07	333.333
233.44	60.000
233.81	60.000
234.19	77.778
234.56	52.941
234.93	200.000
235.31	250.000
235.68	160.000
236.05	-15.385
236.43	10.000
236.80	64.706
237.17	50.000
237.55	50.000
237.92	55.556
238.29	36.111
238.67	43.333
239.04	29.412
239.41	41.463
239.79	43.333
240.16	70.732
240.53	65.789
240.91	28.261
241.28	52.381
241.65	73.214
242.02	67.123
242.40	65.000
242.77	59.322
243.14	74.242
243.51	58.750
243.89	62.069
244.26	51.724
244.63	61.905
245.00	48.454
245.38	63.918
245.75	49.438
246.12	58.621
246.49	64.463
246.87	71.154
247.24	56.303
247.61	50.877
247.98	59.350
248.36	59.375
248.73	65.132
249.10	55.844
249.47	62.025
249.84	58.170
250.22	60.588
250.59	59.477
250.96	55.399
251.33	57.558
251.70	65.882
252.08	56.853
252.45	56.931
252.82	62.312
253.19	64.055
253.56	61.215
253.94	61.712
254.31	58.261
254.68	66.228
255.05	56.693
255.42	62.445
255.79	60.618
256.16	59.922
256.54	60.821
256.91	57.034
257.28	57.249
257.65	59.925
258.02	54.965
258.39	58.586
258.76	62.637
259.14	60.797
259.51	54.693
259.88	62.199
260.25	60.784
260.62	62.153
260.99	55.593
261.36	59.589
261.73	58.228
262.10	58.663
262.47	57.975
262.85	59.248
263.22	58.769
263.59	62.928
263.96	59.006
264.33	62.121
264.70	57.440
265.07	58.631
265.44	61.190
265.81	57.345
266.18	62.568
266.55	61.183
266.92	59.585
267.29	60.052
267.66	59.079
268.03	58.639
268.40	58.486
268.77	63.369
269.14	57.794
269.51	60.154
269.88	57.855
270.25	59.184
270.62	55.854
270.99	57.033
271.36	56.968
271.73	59.390
272.10	56.204
272.47	59.574
272.84	59.406
273.21	56.845
273.58	59.759
273.95	57.895
274.32	58.199
274.69	55.882
275.06	57.143
275.43	54.875
275.80	57.837
276.17	59.310
276.54	55.460
276.91	60.746
277.28	56.987
277.65	56.198
278.02	55.106
278.39	57.112
278.76	54.507
279.13	55.602
279.50	58.193
279.87	55.940
280.23	57.204
280.60	55.361
280.97	56.768
281.34	55.577
281.71	56.468
282.08	54.397
282.45	53.425
282.82	55.985
283.19	55.513
283.56	55.491
283.92	57.875
284.29	53.846
284.66	54.845
285.03	53.831
285.40	55.198
285.77	52.724
286.14	52.347
286.51	56.458
286.87	51.371
287.24	55.433
287.61	55.732
287.98	55.965
288.35	51.473
288.72	54.991
289.08	52.604
289.45	53.076
289.82	52.273
290.19	50.683
290.56	51.458
290.93	48.822
291.29	46.533
291.66	49.449
292.03	49.920
292.40	48.387
292.77	48.166
293.13	44.643
293.50	44.310
293.87	45.802
294.24	45.595
294.60	45.455
294.97	46.577
295.34	46.933
295.71	46.647
296.08	45.740
296.44	43.385
296.81	43.194
297.18	44.058
297.55	47.154
297.91	44.795
298.28	42.612
298.65	42.605
299.02	43.666
299.38	41.313
299.75	42.345
300.12	42.147
300.48	43.083
300.85	42.079
301.22	42.987
301.59	42.632
301.95	43.165
302.32	43.191
302.69	42.413
303.05	42.079
303.42	41.719
303.79	42.056
304.15	41.099
304.52	39.834
304.89	38.363
305.25	38.499
305.62	39.323
305.99	40.702
306.35	39.191
306.72	39.820
307.09	41.391
307.45	40.413
307.82	40.509
308.19	42.044
308.55	39.804
308.92	42.157
309.29	41.676
309.65	39.828
310.02	41.804
310.38	41.932
310.75	39.672
311.12	40.797
311.48	40.191
311.85	39.791
312.22	40.717
312.58	40.021
312.95	39.701
313.31	41.097
313.68	41.152
314.05	40.102
314.41	42.165
314.78	40.000
315.14	42.754
315.51	40.994
315.87	43.135
316.24	41.860
316.61	39.862
316.97	41.270
317.34	42.773
317.70	41.969
318.07	41.442
318.43	41.569
318.80	41.667
319.16	43.652
319.53	42.355
319.89	41.339
320.26	43.927
320.62	43.531
320.99	43.319
321.35	43.988
321.72	44.237
322.08	45.619
322.45	44.467
322.81	44.499
323.18	45.240
323.54	44.595
323.91	46.154
324.27	46.680
324.64	47.659
325.00	46.807
325.37	48.669
325.73	46.510
326.10	48.955
326.46	49.058
326.83	50.394
327.19	50.392
327.56	50.565
327.92	51.937
328.29	50.357
328.65	52.170
329.01	51.654
329.38	52.166
329.74	52.030
330.11	51.807
330.47	51.855
330.84	52.596
331.20	55.133
331.56	51.667
331.93	53.881
332.29	53.346
332.66	54.118
333.02	53.253
333.38	51.604
333.75	53.297
334.11	51.119
334.48	54.941
334.84	54.579
335.20	53.980
335.57	51.496
335.93	53.659
336.29	54.788
336.66	53.951
337.02	51.673
337.38	51.481
337.75	53.818
338.11	54.103
338.47	53.558
338.84	54.344
339.20	53.473
339.56	53.578
339.93	53.357
340.29	52.844
340.65	52.330
341.02	52.926
341.38	52.920
341.74	53.622
342.11	52.166
342.47	53.826
342.83	53.028
343.20	54.181
343.56	53.217
343.92	53.056
344.28	54.483
344.65	52.418
345.01	52.636
345.37	51.640
345.73	52.469
346.10	52.545
346.46	52.229
346.82	50.573
347.19	51.455
347.55	52.632
347.91	53.236
348.27	52.142
348.63	53.237
349.00	52.748
349.36	51.621
349.72	52.902
350.08	53.115
350.45	51.955
350.81	53.405
351.17	51.384
351.53	52.816
351.89	51.445
352.26	51.200
352.62	51.613
352.98	50.120
353.34	50.000
353.70	52.589
354.07	50.323
354.43	52.282
354.79	51.610
355.15	52.778
355.51	52.532
355.87	52.184
356.24	52.121
356.60	51.576
356.96	51.746
357.32	50.958
357.68	50.977
358.04	50.565
358.40	51.849
358.77	52.313
359.13	52.442
359.49	49.692
359.85	51.794
360.21	52.472
360.57	52.487
360.93	50.983
361.29	50.076
361.66	50.549
362.02	53.182
362.38	52.932
362.74	52.006
363.10	52.445
363.46	50.408
363.82	52.968
364.18	51.882
364.54	50.441
364.90	52.545
365.26	53.421
365.62	52.263
365.98	53.372
366.35	52.950
366.71	52.476
367.07	51.597
367.43	52.768
367.79	52.367
368.15	52.764
368.51	52.586
368.87	52.405
369.23	52.780
369.59	53.061
369.95	53.519
370.31	53.468
370.67	52.313
371.03	52.950
371.39	52.589
371.75	51.795
372.11	51.427
372.47	53.920
372.83	53.371
373.19	52.782
373.55	52.924
373.91	53.420
374.27	54.359
374.63	52.764
374.99	51.844
375.35	53.343
375.71	53.846
376.07	53.511
376.42	53.673
376.78	54.228
377.14	53.419
377.50	53.054
377.86	55.087
378.22	54.499
378.58	54.551
378.94	54.064
379.30	54.336
379.66	54.232
380.02	53.525
380.38	54.656
380.74	53.860
381.09	54.601
381.45	53.761
381.81	53.732
382.17	54.315
382.53	53.279
382.89	55.179
383.25	55.258
383.61	54.512
383.97	54.540
384.32	55.034
384.68	55.170
385.04	54.228
385.40	54.636
385.76	56.101
386.12	55.045
386.48	56.386
386.83	55.358
387.19	55.739
387.55	55.897
387.91	57.213
388.27	55.433
388.62	55.570
388.98	55.249
389.34	56.527
389.70	56.619
390.06	54.626
390.42	54.404
390.77	56.442
391.13	55.359
391.49	55.498
391.85	55.880
392.20	54.991
392.56	55.817
392.92	56.900
393.28	56.014
393.64	55.676
393.99	56.614
394.35	56.610
394.71	56.897
395.07	54.431
395.42	55.070
395.78	57.134
396.14	56.116
396.50	55.105
396.85	56.793
397.21	54.950
397.57	56.364
397.92	54.044
398.28	56.034
398.64	54.639
399.00	55.926
399.35	54.402
399.71	54.911
400.07	54.897
400.42	55.324
400.78	55.236
401.14	55.414
401.49	55.033
401.85	55.881
402.21	55.663
402.57	55.125
402.92	54.078
403.28	55.576
403.63	55.422
403.99	55.166
404.35	55.965
404.70	53.571
405.06	54.759
405.42	54.071
405.77	54.387
406.13	54.016
406.49	54.115
406.84	56.601
407.20	54.545
407.55	54.153
407.91	54.278
408.27	53.027
408.62	55.138
408.98	54.529
409.34	54.895
409.69	54.651
410.05	53.756
410.40	54.506
410.76	55.127
411.11	53.812
411.47	55.161
411.83	53.672
412.18	54.505
412.54	52.809
412.89	53.387
413.25	54.513
413.60	54.596
413.96	53.313
414.31	53.841
414.67	54.522
415.03	53.063
415.38	52.872
415.74	54.397
416.09	55.258
416.45	53.410
416.80	55.056
417.16	54.282
417.51	54.763
417.87	53.390
418.22	54.663
418.58	55.585
418.93	55.361
419.29	52.753
419.64	54.569
420.00	54.345
420.35	54.507
420.71	55.286
421.06	54.328
421.42	55.349
421.77	54.740
422.12	54.597
422.48	53.600
422.83	55.162
423.19	54.797
423.54	53.439
423.90	54.122
424.25	53.846
424.61	56.426
424.96	54.530
425.31	55.921
425.67	55.986
426.02	55.477
426.38	55.917
426.73	56.295
427.09	57.658
427.44	55.706
427.79	55.392
428.15	54.854
428.50	55.360
428.85	55.528
429.21	56.084
429.56	56.712
429.92	56.086
430.27	55.038
430.62	56.247
430.98	56.210
431.33	56.204
431.68	55.050
432.04	56.624
432.39	55.163
432.74	55.021
433.10	55.747
433.45	56.631
433.80	56.529
434.16	55.845
434.51	56.183
434.86	57.201
435.22	56.478
435.57	57.392
435.92	57.365
436.28	56.351
436.63	58.756
436.98	55.562
437.34	57.471
437.69	58.378
438.04	56.752
438.39	57.178
438.75	57.984
439.10	57.555
439.45	58.551
439.81	56.697
440.16	57.660
440.51	57.851
440.86	58.127
441.22	57.523
441.57	57.119
441.92	58.342
442.27	57.594
442.63	58.458
442.98	58.300
443.33	56.427
443.68	57.082
444.03	57.625
444.39	57.304
444.74	59.532
445.09	57.962
445.44	58.575
445.79	59.257
446.15	57.819
446.50	58.181
446.85	57.598
447.20	57.299
447.55	57.812
447.91	58.263
448.26	57.200
448.61	58.319
448.96	58.692
449.31	58.613
449.66	58.014
450.02	57.787
450.37	59.751
450.72	57.159
451.07	57.722
451.42	58.614
451.77	57.685
452.12	58.373
452.47	58.789
452.83	58.422
453.18	59.013
453.53	57.901
453.88	58.531
454.23	58.144
454.58	59.194
454.93	57.990
455.28	59.683
455.63	58.772
455.98	59.651
456.34	59.323
456.69	60.038
457.04	60.239
457.39	58.505
457.74	58.948
458.09	57.916
458.44	59.977
458.79	57.143
459.14	59.439
459.49	59.463
459.84	58.432
460.19	59.102
460.54	58.435
460.89	59.432
461.24	59.006
461.59	59.145
461.94	57.673
462.29	59.228
462.64	59.003
462.99	59.039
463.34	59.875
463.69	59.009
464.04	59.201
464.39	59.491
464.74	58.405
465.09	59.513
465.44	59.723
465.79	58.107
466.14	59.464
466.49	58.827
466.84	60.202
467.19	59.262
467.54	59.579
467.89	60.076
468.24	59.367
468.59	60.762
468.94	59.365
469.29	59.475
469.64	58.988
469.99	61.107
470.34	59.863
470.68	60.254
471.03	60.863
471.38	60.699
471.73	59.454
472.08	60.176
472.43	59.597
472.78	60.452
473.13	60.680
473.48	60.586
473.83	58.780
474.17	60.427
474.52	59.285
474.87	59.394
475.22	59.793
475.57	60.305
475.92	59.901
476.27	60.827
476.61	59.838
476.96	58.673
477.31	60.087
477.66	59.831
478.01	60.528
478.36	59.586
478.70	60.685
479.05	60.330
479.40	59.671
479.75	59.020
480.10	58.884
480.45	59.600
480.79	60.121
481.14	60.553
481.49	58.621
481.84	60.811
482.19	59.775
482.53	60.000
482.88	58.663
483.23	59.837
483.58	59.670
483.92	59.874
484.27	59.526
484.62	59.435
484.97	58.748
485.31	58.273
485.66	57.012
486.01	57.395
486.36	57.052
486.70	57.856
487.05	58.611
487.40	58.066
487.75	58.169
488.09	58.251
488.44	58.769
488.79	58.872
489.13	59.375
489.48	58.829
489.83	59.552
490.17	58.517
490.52	59.815
490.87	59.047
491.22	60.029
491.56	59.440
491.91	58.365
492.26	60.136
492.60	58.925
492.95	61.289
493.30	58.964
493.64	60.953
493.99	59.903
494.34	60.194
494.68	59.619
495.03	58.929
495.37	59.764
495.72	60.676
496.07	59.610
496.41	59.434
496.76	59.420
497.11	59.199
497.45	60.191
497.80	61.302
498.14	59.116
498.49	60.691
498.84	60.379
499.18	60.843
499.53	60.863
499.87	59.533
500.22	60.336
500.56	59.708
500.91	60.341
501.26	59.763
501.60	59.321
501.95	59.874
502.29	59.467
502.64	60.473
502.98	59.891
503.33	58.501
503.67	59.904
504.02	61.828
504.36	60.119
504.71	59.899
505.06	60.040
505.40	59.645
505.75	61.649
506.09	60.618
506.44	61.807
506.78	60.255
507.13	61.117
507.47	59.530
507.82	60.897
508.16	60.222
508.51	61.385
508.85	61.852
509.19	62.533
509.54	62.038
509.88	60.680
510.23	61.646
510.57	62.052
510.92	60.501
511.26	61.866
511.61	62.541
511.95	61.808
512.30	63.027
512.64	61.770
512.98	61.763
513.33	62.619
513.67	62.194
514.02	63.501
514.36	63.371
514.70	63.403
515.05	64.219
515.39	63.282
515.74	64.731
516.08	63.240
516.42	65.077
516.77	64.775
517.11	64.036
517.46	64.034
517.80	63.826
518.14	63.074
518.49	63.041
518.83	64.763
519.17	62.220
519.52	62.522
519.86	64.106
520.20	65.006
520.55	64.353
520.89	63.802
521.23	64.408
521.58	64.795
521.92	64.359
522.26	64.086
522.61	64.026
522.95	66.887
523.29	64.231
523.64	65.502
523.98	65.262
524.32	64.884
524.66	66.133
525.01	65.455
525.35	66.559
525.69	64.848
526.04	64.947
526.38	66.602
526.72	64.356
527.06	64.786
527.41	64.644
527.75	64.745
528.09	66.047
528.43	66.509
528.78	66.073
529.12	65.355
529.46	65.237
529.80	65.104
530.15	66.799
530.49	66.667
530.83	66.826
531.17	65.212
531.51	65.663
531.86	64.038
532.20	66.040
532.54	65.487
532.88	66.188
533.22	66.062
533.57	64.417
533.91	65.731
534.25	67.513
534.59	66.389
534.93	64.884
535.27	63.832
535.62	64.938
535.96	65.558
536.30	64.908
536.64	65.610
536.98	66.690
537.32	67.994
537.66	67.672
538.01	66.923
538.35	66.436
538.69	64.381
539.03	63.705
539.37	65.949
539.71	66.121
540.05	66.191
540.39	65.305
540.73	65.900
541.07	67.196
541.42	65.390
541.76	67.722
542.10	65.313
542.44	66.227
542.78	66.208
543.12	65.797
543.46	67.107
543.80	66.204
544.14	63.752
544.48	66.755
544.82	65.824
545.16	66.598
545.50	65.487
545.84	66.714
546.18	67.092
546.52	66.186
546.86	66.499
547.20	67.310
547.54	66.502
547.88	66.304
548.22	65.023
548.56	63.984
548.90	67.251
549.24	65.565
549.58	66.150
549.92	65.833
550.26	68.059
550.60	67.584
550.94	67.513
551.28	67.774
551.62	67.462
551.96	67.970
552.30	67.178
552.64	65.303
552.98	66.807
553.32	65.407
553.66	66.981
554.00	67.080
554.34	67.061
554.68	66.593
555.02	66.741
555.36	67.016
555.69	67.326
556.03	66.238
556.37	66.050
556.71	67.437
557.05	67.338
557.39	66.914
557.73	66.867
558.07	67.421
558.41	67.458
558.75	67.186
559.08	68.479
559.42	68.016
559.76	67.574
560.10	66.743
560.44	67.014
560.78	66.503
561.12	66.925
561.45	68.025
561.79	67.437
562.13	69.127
562.47	68.201
562.81	67.435
563.15	66.291
563.48	67.963
563.82	67.124
564.16	67.061
564.50	65.676
564.84	67.068
565.17	66.264
565.51	68.238
565.85	69.342
566.19	69.297
566.52	67.024
566.86	67.931
567.20	67.310
567.54	67.397
567.88	67.545
568.21	67.138
568.55	65.054
568.89	66.581
569.23	65.190
569.56	64.492
569.90	65.408
570.24	61.965
570.57	65.236
570.91	64.936
571.25	63.302
571.59	62.753
571.92	61.541
572.26	61.957
572.60	61.705
572.93	62.567
573.27	61.724
573.61	62.202
573.95	62.643
574.28	61.917
574.62	61.785
574.96	60.908
575.29	60.626
575.63	60.197
575.97	61.561
576.30	61.541
576.64	61.139
576.98	62.317
577.31	61.145
577.65	61.284
577.98	61.454
578.32	61.126
578.66	60.219
578.99	60.576
579.33	60.854
579.67	60.207
580.00	61.241
580.34	60.746
580.67	60.781
581.01	61.623
581.35	61.262
581.68	60.736
582.02	60.635
582.35	60.891
582.69	60.635
583.02	61.034
583.36	61.391
583.70	62.150
584.03	63.108
584.37	63.947
584.70	62.060
585.04	60.544
585.37	60.835
585.71	61.442
586.04	61.548
586.38	61.856
586.72	62.152
587.05	62.681
587.39	62.007
587.72	62.821
588.06	62.054
588.39	62.746
588.73	63.278
589.06	63.960
589.40	62.288
589.73	63.709
590.07	63.595
590.40	64.164
590.73	65.527
591.07	64.673
591.40	64.248
591.74	63.937
592.07	64.147
592.41	64.355
592.74	63.521
593.08	61.684
593.41	63.196
593.75	63.134
594.08	62.547
594.41	63.392
594.75	64.427
595.08	63.980
595.42	64.667
595.75	64.251
596.09	64.660
596.42	62.877
596.75	64.165
597.09	64.875
597.42	64.589
597.75	65.689
598.09	62.653
598.42	63.718
598.76	63.749
599.09	63.502
599.42	62.486
599.76	63.695
600.09	62.406
600.42	62.206
600.76	62.667
601.09	63.206
601.42	63.416
601.76	63.081
602.09	63.655
602.42	65.038
602.76	64.559
603.09	64.327
603.42	66.054
603.76	64.556
604.09	64.115
604.42	65.102
604.76	65.243
605.09	65.311
605.42	64.424
605.75	64.799
606.09	63.524
606.42	63.803
606.75	63.853
607.09	63.824
607.42	63.358
607.75	63.455
608.08	62.893
608.42	63.591
608.75	64.530
609.08	66.418
609.41	64.416
609.75	63.962
610.08	65.102
610.41	64.831
610.74	64.651
611.07	67.132
611.41	65.906
611.74	67.164
612.07	65.203
612.40	66.685
612.73	66.893
613.07	65.354
613.40	65.153
613.73	65.976
614.06	65.609
614.39	65.651
614.72	66.331
615.06	65.642
615.39	64.520
615.72	65.931
616.05	65.307
616.38	64.843
616.71	66.055
617.05	66.770
617.38	67.379
617.71	67.296
618.04	69.968
618.37	68.411
618.70	67.261
619.03	70.208
619.36	68.379
619.69	70.887
620.03	70.562
620.36	68.598
620.69	68.237
621.02	68.960
621.35	69.710
621.68	71.259
622.01	70.250
622.34	69.832
622.67	69.164
623.00	69.142
623.33	70.274
623.66	68.512
623.99	68.306
624.32	68.897
624.65	68.872
624.99	69.752
625.32	66.793
625.65	71.406
625.98	70.669
626.31	68.579
626.64	70.104
626.97	71.728
627.30	70.928
627.63	70.277
627.96	70.171
628.29	70.398
628.62	73.156
628.95	72.345
629.28	73.790
629.61	71.685
629.94	72.532
630.26	71.739
630.59	75.026
630.92	72.718
631.25	71.077
631.58	75.220
631.91	73.904
632.24	74.427
632.57	71.818
632.90	72.835
633.23	74.588
633.56	77.960
633.89	76.079
634.22	76.790
634.55	75.731
634.88	75.351
635.20	74.744
635.53	77.867
635.86	73.342
636.19	75.809
636.52	74.617
636.85	74.566
637.18	73.711
637.51	72.327
637.83	74.507
638.16	78.035
638.49	75.749
638.82	76.711
639.15	75.577
639.48	74.691
639.81	75.732
640.13	76.912
640.46	73.761
640.79	75.110
641.12	75.775
641.45	76.577
641.77	75.852
642.10	78.989
642.43	77.170
642.76	78.053
643.09	79.160
643.41	77.023
643.74	79.407
644.07	77.833
644.40	81.419
644.73	81.261
645.05	76.678
645.38	79.189
645.71	78.369
646.04	81.508
646.36	78.546
646.69	79.496
647.02	83.554
647.35	80.037
647.67	79.525
648.00	80.410
648.33	78.840
648.66	77.288
648.98	77.219
649.31	79.504
649.64	75.510
649.96	75.851
650.29	79.216
650.62	76.923
650.94	79.444
651.27	79.888
651.60	78.198
651.92	77.273
652.25	77.265
652.58	75.500
652.90	79.588
653.23	75.126
653.56	74.958
653.88	76.976
654.21	76.708
654.54	71.986
654.86	77.250
655.19	75.000
655.52	71.053
655.84	62.633
656.17	68.100
656.49	90.646
656.82	93.407
657.15	72.063
657.47	54.203
657.80	40.636
658.13	40.199
658.45	62.383
658.78	61.960
659.10	61.588
659.43	61.266
659.75	64.825
660.08	63.931
660.41	68.131
660.73	70.304
661.06	75.043
661.38	77.495
661.71	75.770
662.03	80.043
662.36	78.462
662.68	80.752
663.01	81.223
663.33	83.991
663.66	80.698
663.98	80.930
664.31	76.333
664.63	81.797
664.96	80.652
665.28	76.600
665.61	78.788
665.93	79.348
666.26	79.610
666.58	78.300
666.91	81.176
667.23	79.481
667.56	85.782
667.88	84.412
668.21	84.726
668.53	80.142
668.86	78.538
669.18	80.896
669.50	80.872
669.83	80.698
670.15	79.254
670.48	78.230
670.80	79.724
671.13	76.957
671.45	79.909
671.77	79.185
672.10	76.436
672.42	76.030
672.75	75.133
673.07	74.776
673.39	76.881
673.72	74.162
674.04	75.833
674.37	78.602
674.69	76.874
675.01	80.667
675.34	79.279
675.66	77.778
675.98	78.049
676.31	80.734
676.63	79.335
676.95	76.591
677.28	80.000
677.60	83.855
677.92	78.899
678.25	77.899
678.57	77.489
678.89	76.261
679.22	78.300
679.54	75.502
679.86	75.149
680.18	77.087
680.51	74.053
680.83	75.944
681.15	76.200
681.48	78.074
681.80	75.000
682.12	75.000
682.44	76.569
682.77	77.704
683.09	77.346
683.41	74.545
683.73	79.724
684.06	75.000
684.38	75.269
684.70	78.649
685.02	73.237
685.34	72.530
685.67	72.608
685.99	73.056
686.31	71.681
686.63	73.469
686.96	71.293
687.28	73.131
687.60	71.673
687.92	76.566
688.24	75.403
688.56	77.074
688.89	75.446
689.21	74.222
689.53	75.174
689.85	74.651
690.17	75.223
690.49	77.069
690.82	75.971
691.14	74.286
691.46	78.505
691.78	73.874
692.10	76.344
692.42	72.944
692.74	72.436
693.06	72.748
693.39	73.077
693.71	73.982
694.03	75.289
694.35	72.664
694.67	78.030
694.99	74.935
695.31	79.896
695.63	76.250
695.95	73.485
696.27	76.166
696.59	78.333
696.91	78.151
697.23	76.093
697.56	75.743
697.88	70.968
698.20	71.754
698.52	75.765
698.84	74.402
699.16	69.500
699.48	77.444
699.80	71.960
700.12	75.472
700.44	77.031
700.76	77.326
701.08	75.152
701.40	74.398
701.72	83.025
702.04	82.838
702.36	86.288
702.68	75.976
703.00	75.758
703.32	79.179
703.64	70.904
703.96	74.203
704.28	78.834
704.60	78.095
704.91	71.293
705.23	71.096
705.55	78.445
705.87	79.783
706.19	82.593
706.51	75.945
706.83	77.492
707.15	73.520
707.47	75.630
707.79	74.219
708.11	75.000
708.43	70.500
708.74	70.284
709.06	76.901
709.38	76.147
709.70	76.036
710.02	73.885
710.34	73.065
710.66	75.641
710.98	74.172
711.29	76.393
711.61	78.305
711.93	71.987
712.25	78.351
712.57	77.289
712.89	74.627
713.20	76.471
713.52	73.171
713.84	71.672
714.16	70.790
714.48	72.258
714.80	72.115
715.11	73.860
715.43	71.473
715.75	71.333
716.07	70.100
716.39	72.483
716.70	71.956
717.02	75.191
717.34	82.591
717.66	81.416
717.97	80.000
718.29	78.661
718.61	75.197
718.93	75.194
719.24	74.525
719.56	75.904
719.88	75.258
720.20	71.970
720.51	70.115
720.83	75.676
721.15	77.731
721.46	75.806
721.78	72.727
722.10	72.491
722.42	75.104
722.73	73.061
723.05	79.184
723.37	76.271
723.68	80.180
724.00	71.795
724.32	75.111
724.63	74.091
724.95	76.856
725.27	73.272
725.58	78.390
725.90	69.444
726.22	72.973
726.53	69.153
726.85	73.783
727.16	79.623
727.48	71.660
727.80	71.255
728.11	77.119
728.43	74.510
728.74	69.355
729.06	75.200
729.38	77.444
729.69	72.112
730.01	68.846
730.32	73.134
730.64	69.965
730.96	73.208
731.27	68.333
731.59	70.169
731.90	66.242
732.22	67.192
732.53	72.425
732.85	73.759
733.16	71.044
733.48	67.266
733.80	71.377
734.11	65.763
734.43	69.072
734.74	67.576
735.06	72.964
735.37	66.163
735.69	74.074
736.00	70.383
736.32	62.752
736.63	73.944
736.95	69.966
737.26	68.327
737.58	65.101
737.89	69.963
738.21	70.677
738.52	71.193
738.83	74.236
739.15	73.362
739.46	70.866
739.78	65.934
740.09	61.765
740.41	72.101
740.72	73.622
741.04	72.065
741.35	63.830
741.66	69.194
741.98	67.347
742.29	75.743
742.61	71.728
742.92	68.246
743.23	62.963
743.55	71.041
743.86	69.378
744.18	74.163
744.49	73.936
744.80	72.283
745.12	80.214
745.43	65.366
745.74	82.292
746.06	68.780
746.37	77.487
746.68	73.460
747.00	75.532
747.31	77.612
747.62	73.786
747.94	72.727
748.25	78.218
748.56	79.235
748.88	77.487
749.19	77.660
749.50	70.936
749.82	67.925
750.13	67.890
750.44	74.436
750.75	70.522
751.07	72.628
751.38	72.414
751.69	64.706
752.01	72.868
752.32	71.713
752.63	67.589
752.94	71.983
753.26	71.548
753.57	71.946
753.88	67.257
754.19	67.500
754.51	70.661
754.82	66.802
755.13	69.583
755.44	66.935
755.75	70.703
756.07	68.482
756.38	63.396
756.69	68.199
757.00	65.333
757.31	64.706
757.63	60.366
757.94	62.500
758.25	63.288
758.56	65.160
758.87	58.924
759.18	61.682
759.50	64.000
759.81	69.565
760.12	61.935
760.43	65.152
760.74	69.136
761.05	66.154
761.36	63.068
761.67	67.273
761.99	63.605
762.30	60.000
762.61	64.427
762.92	65.611
763.23	68.018
763.54	73.832
763.85	66.525
764.16	68.050
764.47	67.339
764.78	61.905
765.10	65.320
765.41	62.145
765.72	61.587
766.03	62.030
766.34	60.949
766.65	66.135
766.96	68.182
767.27	71.277
767.58	63.793
767.89	66.667
768.20	65.909
768.51	71.429
768.82	64.532
769.13	66.820
769.44	64.378
769.75	60.731
770.06	64.655
770.37	63.942
770.68	69.543
770.99	61.538
771.30	71.078
771.61	69.231
771.92	62.069
772.23	67.488
772.54	66.129
772.85	77.778
773.16	62.921
773.47	83.660
773.78	67.974
774.09	62.874
774.39	72.000
774.70	63.057
775.01	61.379
775.32	67.857
775.63	71.901
775.94	66.412
776.25	77.953
776.56	75.833
776.87	73.077
777.18	72.650
777.48	69.828
777.79	69.565
778.10	56.190
778.41	75.676
778.72	65.873
779.03	63.910
779.34	61.702
779.65	66.438
779.95	63.014
780.26	68.276
780.57	65.854
780.88	69.291
781.19	72.414
781.50	79.845
781.80	56.805
782.11	61.635
782.42	73.077
782.73	59.712
783.04	60.741
783.34	62.500
783.65	58.974
783.96	60.656
784.27	60.000
784.57	65.041
784.88	54.688
785.19	79.000
785.50	74.000
785.81	56.034
786.11	59.483
786.42	66.019
786.73	80.000
787.04	61.224
787.34	68.750
787.65	64.762
787.96	66.372
788.26	72.727
788.57	59.829
788.88	68.750
789.19	57.143
789.49	59.130
789.80	66.327
790.11	61.616
790.41	65.455
790.72	66.304
791.03	67.045
791.33	68.750
791.64	57.500
791.95	60.465
792.25	61.702
792.56	62.921
792.87	68.493
793.17	72.464
793.48	64.000
793.79	62.500
794.09	63.750
794.40	66.038
794.70	71.845
795.01	49.593
795.32	58.120
795.62	71.429
795.93	66.667
796.23	66.038
796.54	69.792
796.85	76.471
797.15	57.746
797.46	54.167
797.76	72.727
798.07	54.651
798.37	56.579
798.68	60.606
798.99	49.383
799.29	54.286
799.60	56.522
799.90	69.333
800.21	67.213
800.51	67.692
800.82	76.271
801.12	60.870
801.43	77.049
801.73	69.841
802.04	72.000
802.34	67.164
802.65	71.154
802.95	42.857
803.26	65.385
803.56	64.706
803.87	45.652
804.17	53.333
804.48	63.492
804.78	53.704
805.09	76.087
805.39	57.778
805.70	62.963
806.00	26.316
806.30	57.746
806.61	60.000
806.91	56.944
807.22	75.000
807.52	61.333
807.83	56.364
808.13	62.500
808.43	69.118
808.74	55.224
809.04	44.068
809.35	61.538
809.65	70.312
809.95	45.946
810.26	81.818
810.56	67.123
810.86	64.286
811.17	66.000
811.47	63.265
811.77	36.842
812.08	65.909
812.38	52.830
812.69	65.000
812.99	54.545
813.29	78.947
813.59	45.714
813.90	52.273
814.20	74.359
814.50	61.538
814.81	73.585
815.11	46.809
815.41	61.017
815.72	47.619
816.02	60.784
816.32	70.833
816.62	60.976
816.93	48.649
817.23	45.714
817.53	43.750
817.84	52.174
818.14	55.769
818.44	57.895
818.74	50.000
819.04	22.500
819.35	59.459
819.65	67.647
819.95	25.000
820.25	40.476
820.56	87.500
820.86	37.931
821.16	80.000
821.46	53.191
821.76	70.000
822.07	39.535
822.37	32.432
822.67	46.875
822.97	85.714
823.27	57.143
823.57	96.000
823.88	37.037
824.18	53.571
824.48	41.176
824.78	67.742
825.08	82.609
825.38	45.455
825.69	54.167
825.99	68.421
826.29	63.889
826.59	93.333
826.89	42.857
827.19	52.174
827.49	42.500
827.79	57.143
828.09	60.714
828.39	57.576
828.70	72.973
829.00	42.857
829.30	57.143
829.60	83.333
829.90	75.000
830.20	26.316
830.50	59.259
830.80	65.217
831.10	59.091
831.40	84.848
831.70	77.419
832.00	61.905
832.30	47.619
832.60	58.333
832.90	58.621
833.20	-15.000
833.50	75.758
833.80	66.667
834.10	69.231
834.40	59.375
834.70	77.778
835.00	68.421
835.30	119.231
835.60	60.000
835.90	58.065
836.20	54.545
836.50	85.714
836.80	23.077
837.10	50.000
837.40	166.667
837.70	95.455
838.00	36.364
838.30	95.652
838.60	100.000
838.90	90.909
839.19	39.286
839.49	60.000
839.79	84.615
840.09	16.667
840.39	53.571
840.69	17.857
840.99	50.000
841.29	0.000
841.59	-50.000
841.88	81.818
842.18	100.000
842.48	43.750
842.78	20.000
843.08	44.444
843.38	0.000
843.68	47.826
843.97	100.000
844.27	13.333
844.57	50.000
844.87	55.556
845.17	28.571
845.47	26.667
845.76	23.810
846.06	47.059
846.36	20.000
846.66	42.857
846.96	60.000
847.25	-25.000
847.55	57.143
847.85	37.500
848.15	-4.545
848.44	-400.000
848.74	85.000
849.04	51.852
849.34	-18.182
849.63	-33.333
849.93	-100.000
850.23	55.556
850.53	100.000
850.82	15.385
851.12	100.000
851.42	100.000
851.71	50.000
852.01	28.571
852.31	-75.000
852.61	-9.091
852.90	30.000
853.20	52.632
853.50	-33.333
853.79	60.870
854.09	62.500
854.39	94.737
854.68	95.833
854.98	0.000
855.28	50.000
855.57	40.000
855.87	116.667
856.17	29.630
856.46	57.143
856.76	20.000
857.05	144.444
857.35	68.000
857.65	11.111
857.94	15.385
858.24	65.517
858.53	22.222
858.83	66.667
859.13	63.636
859.42	0.000
859.72	125.000
860.01	-233.333
860.31	52.000
860.60	47.619
860.90	-66.667
861.20	26.667
861.49	-150.000
861.79	46.667
862.08	10.000
862.38	93.333
862.67	20.000
862.97	150.000
863.26	83.333
863.56	38.889
863.85	-233.333
864.15	83.333
864.44	90.000
864.74	92.857
865.03	125.000
865.33	80.000
865.62	16.667
865.92	41.667
866.21	-83.333
866.51	68.750
866.80	-54.545
867.10	50.000
867.39	150.000
867.69	0.000
867.98	7.692
868.27	-33.333
868.57	60.000
868.86	61.111
869.16	-30.769
869.45	73.333
869.75	-400.000
870.04	0.000
870.33	-42.857
870.63	28.571
870.92	333.333
871.22	-220.000
871.51	-800.000
871.80	22.222
872.10	333.333
>>>>>End Processed Spectral Data<<<<<
