SpectraSuite Data File
++++++++++++++++++++++++++++++++++++
Date: Fri May 15 17:20:30 PDT 2015
User: schluterlab
Dark Spectrum Present: Yes
Reference Spectrum Present: Yes
Number of Sampled Component Spectra: 1
Spectrometers: USB2E3373
Integration Time (usec): 3000 (USB2E3373)
Spectra Averaged: 3 (USB2E3373)
Boxcar Smoothing: 0 (USB2E3373)
Correct for Electrical Dark: No (USB2E3373)
Strobe/Lamp Enabled: No (USB2E3373)
Correct for Detector Non-linearity: No (USB2E3373)
Correct for Stray Light: No (USB2E3373)
Number of Pixels in Processed Spectrum: 2048
>>>>>Begin Processed Spectral Data<<<<<
178.53	0.000
178.91	0.000
179.29	112.500
179.67	-400.000
180.04	-71.429
180.42	275.000
180.80	400.000
181.18	-300.000
181.56	-100.000
181.94	600.000
182.31	-1000.000
182.69	40.000
183.07	100.000
183.45	200.000
183.83	66.667
184.20	118.182
184.58	100.000
184.96	-75.000
185.34	-233.333
185.72	-100.000
186.09	-0.000
186.47	-1100.000
186.85	116.667
187.23	55.556
187.61	-600.000
187.98	66.667
188.36	144.444
188.74	-166.667
189.12	52.941
189.49	77.778
189.87	0.000
190.25	114.286
190.63	700.000
191.00	33.333
191.38	52.632
191.76	500.000
192.14	-75.000
192.51	550.000
192.89	11.111
193.27	14.286
193.65	83.333
194.02	154.545
194.40	20.000
194.78	0.000
195.15	33.333
195.53	112.500
195.91	-50.000
196.29	100.000
196.66	23.077
197.04	-100.000
197.42	11.111
197.79	-233.333
198.17	-46.154
198.55	500.000
198.92	-166.667
199.30	500.000
199.68	-40.000
200.05	66.667
200.43	0.000
200.81	33.333
201.18	333.333
201.56	500.000
201.94	-150.000
202.31	-33.333
202.69	100.000
203.07	-75.000
203.44	1100.000
203.82	0.000
204.19	14.286
204.57	-166.667
204.95	62.500
205.32	40.000
205.70	71.429
206.08	75.000
206.45	177.778
206.83	85.714
207.20	-28.571
207.58	-600.000
207.96	133.333
208.33	-50.000
208.71	25.000
209.08	-150.000
209.46	200.000
209.84	80.000
210.21	-1000.000
210.59	100.000
210.96	150.000
211.34	150.000
211.71	60.000
212.09	71.429
212.46	-700.000
212.84	0.000
213.22	170.000
213.59	-100.000
213.97	69.231
214.34	36.364
214.72	150.000
215.09	200.000
215.47	76.923
215.84	0.000
216.22	233.333
216.59	37.500
216.97	400.000
217.34	175.000
217.72	60.000
218.09	162.500
218.47	-75.000
218.84	600.000
219.22	55.556
219.59	200.000
219.97	-100.000
220.34	175.000
220.72	200.000
221.09	-125.000
221.47	250.000
221.84	-250.000
222.22	-650.000
222.59	100.000
222.97	141.667
223.34	166.667
223.72	7.143
224.09	14.286
224.46	25.000
224.84	-100.000
225.21	0.000
225.59	40.000
225.96	350.000
226.34	-0.000
226.71	142.857
227.08	116.667
227.46	-12.500
227.83	200.000
228.21	144.444
228.58	109.091
228.95	175.000
229.33	20.000
229.70	68.750
230.08	25.000
230.45	14.286
230.82	142.857
231.20	53.333
231.57	142.857
231.95	157.143
232.32	-50.000
232.69	85.714
233.07	633.333
233.44	-20.000
233.81	120.000
234.19	-11.111
234.56	82.353
234.93	50.000
235.31	325.000
235.68	100.000
236.05	7.692
236.43	25.000
236.80	29.412
237.17	28.125
237.55	45.000
237.92	18.519
238.29	50.000
238.67	63.333
239.04	29.412
239.41	0.000
239.79	10.000
240.16	34.146
240.53	28.947
240.91	32.609
241.28	30.159
241.65	53.571
242.02	41.096
242.40	40.000
242.77	16.949
243.14	27.273
243.51	20.000
243.89	41.379
244.26	22.989
244.63	16.667
245.00	39.175
245.38	34.021
245.75	29.213
246.12	22.414
246.49	29.752
246.87	38.462
247.24	17.647
247.61	20.175
247.98	20.325
248.36	27.500
248.73	26.974
249.10	13.636
249.47	27.848
249.84	19.608
250.22	29.412
250.59	30.719
250.96	25.352
251.33	20.930
251.70	30.588
252.08	24.365
252.45	22.277
252.82	28.141
253.19	26.728
253.56	23.364
253.94	22.523
254.31	25.652
254.68	28.070
255.05	20.472
255.42	27.074
255.79	25.869
256.16	21.401
256.54	27.985
256.91	26.616
257.28	22.677
257.65	25.094
258.02	24.823
258.39	23.569
258.76	27.106
259.14	28.904
259.51	24.272
259.88	24.399
260.25	26.144
260.62	29.167
260.99	22.373
261.36	22.603
261.73	24.684
262.10	25.228
262.47	24.233
262.85	26.646
263.22	23.077
263.59	28.037
263.96	27.019
264.33	27.273
264.70	24.702
265.07	27.679
265.44	26.912
265.81	26.271
266.18	24.863
266.55	27.506
266.92	29.793
267.29	24.543
267.66	26.854
268.03	26.702
268.40	25.065
268.77	27.005
269.14	23.022
269.51	23.907
269.88	24.688
270.25	24.745
270.62	24.146
270.99	21.228
271.36	22.738
271.73	23.474
272.10	25.304
272.47	25.532
272.84	24.752
273.21	27.610
273.58	25.542
273.95	26.545
274.32	24.018
274.69	23.982
275.06	25.223
275.43	24.036
275.80	25.828
276.17	24.598
276.54	24.197
276.91	26.754
277.28	23.799
277.65	24.380
278.02	22.979
278.39	23.851
278.76	24.738
279.13	20.954
279.50	22.479
279.87	25.054
280.23	23.226
280.60	25.731
280.97	24.242
281.34	22.692
281.71	27.721
282.08	21.268
282.45	21.722
282.82	20.077
283.19	23.985
283.56	24.277
283.92	23.529
284.29	19.808
284.66	22.287
285.03	22.790
285.40	22.495
285.77	21.793
286.14	23.646
286.51	24.354
286.87	23.218
287.24	22.652
287.61	21.869
287.98	24.561
288.35	22.010
288.72	23.993
289.08	22.569
289.45	24.780
289.82	23.252
290.19	21.843
290.56	20.926
290.93	24.411
291.29	21.880
291.66	22.677
292.03	21.531
292.40	21.452
292.77	20.574
293.13	19.968
293.50	20.030
293.87	17.863
294.24	20.093
294.60	20.566
294.97	22.173
295.34	19.172
295.71	19.672
296.08	21.375
296.44	18.350
296.81	20.694
297.18	18.261
297.55	20.190
297.91	19.726
298.28	20.844
298.65	20.217
299.02	20.081
299.38	18.741
299.75	19.172
300.12	20.550
300.48	18.709
300.85	19.518
301.22	20.519
301.59	17.500
301.95	19.494
302.32	19.196
302.69	21.020
303.05	20.050
303.42	19.303
303.79	21.145
304.15	19.235
304.52	18.668
304.89	18.480
305.25	16.707
305.62	18.086
305.99	19.298
306.35	19.075
306.72	19.010
307.09	17.902
307.45	18.714
307.82	19.444
308.19	18.815
308.55	17.993
308.92	19.390
309.29	18.436
309.65	17.976
310.02	19.142
310.38	18.771
310.75	19.235
311.12	17.869
311.48	18.346
311.85	20.000
312.22	17.300
312.58	19.002
312.95	18.783
313.31	17.805
313.68	17.801
314.05	18.061
314.41	18.866
314.78	18.763
315.14	19.013
315.51	19.255
315.87	18.648
316.24	19.919
316.61	18.504
316.97	19.147
317.34	18.652
317.70	18.356
318.07	19.615
318.43	18.627
318.80	17.708
319.16	18.555
319.53	19.753
319.89	18.307
320.26	18.927
320.62	19.659
320.99	18.789
321.35	19.836
321.72	21.391
322.08	20.544
322.45	19.289
322.81	20.727
323.18	19.431
323.54	19.112
323.91	21.227
324.27	20.898
324.64	22.472
325.00	22.993
325.37	22.314
325.73	20.852
326.10	22.434
326.46	23.229
326.83	24.059
327.19	23.191
327.56	24.153
327.92	24.208
328.29	23.661
328.65	25.377
329.01	25.368
329.38	25.714
329.74	25.496
330.11	26.877
330.47	25.603
330.84	25.673
331.20	27.186
331.56	26.111
331.93	27.945
332.29	27.864
332.66	27.873
333.02	27.416
333.38	26.856
333.75	28.205
334.11	28.201
334.48	29.012
334.84	29.853
335.20	27.264
335.57	28.558
335.93	27.823
336.29	28.913
336.66	28.520
337.02	28.810
337.38	28.241
337.75	29.727
338.11	29.576
338.47	28.102
338.84	30.222
339.20	30.530
339.56	29.266
339.93	29.364
340.29	30.826
340.65	30.645
341.02	28.457
341.38	28.319
341.74	28.887
342.11	26.863
342.47	29.448
342.83	29.585
343.20	29.268
343.56	28.783
343.92	28.875
344.28	29.804
344.65	29.188
345.01	27.917
345.37	29.605
345.73	29.121
346.10	29.853
346.46	28.595
346.82	29.051
347.19	27.182
347.55	27.402
347.91	28.641
348.27	27.648
348.63	29.472
349.00	27.235
349.36	27.930
349.72	28.027
350.08	27.459
350.45	28.252
350.81	28.073
351.17	27.606
351.53	28.898
351.89	26.920
352.26	27.840
352.62	28.387
352.98	27.149
353.34	27.375
353.70	27.913
354.07	28.468
354.43	27.302
354.79	26.672
355.15	26.587
355.51	29.351
355.87	28.398
356.24	27.162
356.60	27.405
356.96	28.175
357.32	28.594
357.68	27.443
358.04	28.837
358.40	27.170
358.77	27.911
359.13	27.782
359.49	27.042
359.85	27.223
360.21	28.389
360.57	26.932
360.93	26.626
361.29	26.133
361.66	28.448
362.02	28.030
362.38	28.484
362.74	26.949
363.10	28.518
363.46	27.947
363.82	28.850
364.18	28.856
364.54	26.985
364.90	27.527
365.26	27.875
365.62	29.343
365.98	27.639
366.35	29.060
366.71	27.790
367.07	28.084
367.43	27.103
367.79	28.834
368.15	27.997
368.51	28.186
368.87	27.638
369.23	28.087
369.59	28.426
369.95	28.886
370.31	28.829
370.67	28.657
371.03	27.409
371.39	27.717
371.75	29.377
372.11	28.531
372.47	27.663
372.83	29.028
373.19	28.459
373.55	26.643
373.91	27.790
374.27	28.703
374.63	29.720
374.99	27.589
375.35	29.178
375.71	28.951
376.07	28.862
376.42	28.095
376.78	28.389
377.14	28.571
377.50	28.619
377.86	29.719
378.22	28.590
378.58	29.167
378.94	29.427
379.30	29.195
379.66	30.094
380.02	28.571
380.38	29.032
380.74	28.905
381.09	29.816
381.45	29.052
381.81	28.994
382.17	29.632
382.53	29.606
382.89	29.127
383.25	30.243
383.61	30.305
383.97	29.841
384.32	29.956
384.68	30.217
385.04	29.596
385.40	28.438
385.76	30.314
386.12	29.754
386.48	31.545
386.83	30.120
387.19	29.609
387.55	31.368
387.91	30.440
388.27	30.464
388.62	30.837
388.98	30.080
389.34	31.168
389.70	30.764
390.06	29.515
390.42	30.635
390.77	30.085
391.13	29.887
391.49	30.595
391.85	30.539
392.20	30.257
392.56	29.943
392.92	29.654
393.28	31.073
393.64	29.670
393.99	31.160
394.35	30.614
394.71	30.204
395.07	29.981
395.42	30.237
395.78	30.684
396.14	29.697
396.50	29.803
396.85	30.328
397.21	30.451
397.57	29.718
397.92	30.437
398.28	30.575
398.64	28.916
399.00	29.402
399.35	28.217
399.71	29.294
400.07	29.988
400.42	29.498
400.78	29.884
401.14	29.038
401.49	29.541
401.85	29.311
402.21	30.120
402.57	28.625
402.92	28.545
403.28	28.947
403.63	28.941
403.99	29.273
404.35	29.357
404.70	28.988
405.06	28.496
405.42	29.397
405.77	28.181
406.13	27.648
406.49	28.064
406.84	28.606
407.20	28.356
407.55	27.753
407.91	28.275
408.27	27.470
408.62	28.308
408.98	28.835
409.34	28.129
409.69	27.842
410.05	27.340
410.40	27.099
410.76	28.106
411.11	27.938
411.47	27.745
411.83	27.495
412.18	28.443
412.54	27.154
412.89	27.032
413.25	28.460
413.60	26.708
413.96	28.221
414.31	27.927
414.67	27.261
415.03	27.031
415.38	27.415
415.74	27.883
416.09	27.760
416.45	28.089
416.80	27.693
417.16	28.108
417.51	28.714
417.87	27.966
418.22	28.433
418.58	27.625
418.93	28.527
419.29	27.785
419.64	29.034
420.00	28.401
420.35	27.940
420.71	28.919
421.06	28.238
421.42	29.808
421.77	28.786
422.12	28.150
422.48	28.587
422.83	28.480
423.19	28.555
423.54	28.571
423.90	28.033
424.25	29.277
424.61	29.070
424.96	29.675
425.31	29.694
425.67	30.751
426.02	29.093
426.38	29.368
426.73	30.206
427.09	30.759
427.44	29.882
427.79	30.524
428.15	30.704
428.50	30.103
428.85	29.054
429.21	30.843
429.56	31.806
429.92	30.406
430.27	30.226
430.62	30.946
430.98	30.255
431.33	31.230
431.68	30.141
432.04	30.688
432.39	30.120
432.74	30.487
433.10	31.494
433.45	30.765
433.80	31.341
434.16	30.748
434.51	31.237
434.86	31.010
435.22	30.847
435.57	30.942
435.92	31.557
436.28	31.723
436.63	31.033
436.98	31.808
437.34	31.216
437.69	31.306
438.04	31.738
438.39	30.971
438.75	32.301
439.10	30.390
439.45	32.136
439.81	30.826
440.16	32.185
440.51	32.955
440.86	33.293
441.22	30.826
441.57	33.057
441.92	32.267
442.27	32.373
442.63	31.745
442.98	31.304
443.33	31.942
443.68	31.088
444.03	32.588
444.39	31.235
444.74	33.278
445.09	33.129
445.44	31.909
445.79	32.439
446.15	31.057
446.50	32.058
446.85	32.359
447.20	31.648
447.55	33.203
447.91	32.431
448.26	32.442
448.61	32.470
448.96	32.473
449.31	32.370
449.66	33.159
450.02	31.945
450.37	32.247
450.72	33.276
451.07	32.911
451.42	33.708
451.77	32.489
452.12	32.177
452.47	31.681
452.83	32.450
453.18	32.448
453.53	32.680
453.88	33.212
454.23	32.514
454.58	33.249
454.93	32.603
455.28	32.444
455.63	33.354
455.98	32.471
456.34	32.439
456.69	33.100
457.04	33.711
457.39	32.746
457.74	32.346
458.09	32.313
458.44	32.768
458.79	32.213
459.14	32.895
459.49	33.433
459.84	32.882
460.19	32.160
460.54	33.130
460.89	32.898
461.24	32.422
461.59	33.610
461.94	32.767
462.29	33.655
462.64	33.953
462.99	33.920
463.34	32.893
463.69	33.462
464.04	33.354
464.39	32.383
464.74	32.822
465.09	33.500
465.44	32.776
465.79	31.633
466.14	33.124
466.49	31.857
466.84	33.195
467.19	33.417
467.54	32.695
467.89	33.291
468.24	34.124
468.59	33.968
468.94	32.508
469.29	33.508
469.64	33.630
469.99	34.268
470.34	33.652
470.68	33.632
471.03	33.546
471.38	34.165
471.73	34.174
472.08	32.972
472.43	32.819
472.78	33.310
473.13	33.878
473.48	33.029
473.83	33.437
474.17	35.298
474.52	33.376
474.87	32.424
475.22	33.191
475.57	33.936
475.92	34.174
476.27	34.459
476.61	34.144
476.96	33.073
477.31	34.018
477.66	33.483
478.01	34.363
478.36	34.314
478.70	35.508
479.05	34.176
479.40	34.340
479.75	33.420
480.10	33.794
480.45	34.550
480.79	33.938
481.14	34.375
481.49	33.645
481.84	34.218
482.19	33.770
482.53	33.909
482.88	33.938
483.23	33.541
483.58	34.009
483.92	33.446
484.27	32.498
484.62	33.303
484.97	33.333
485.31	34.068
485.66	32.886
486.01	32.764
486.36	32.532
486.70	32.486
487.05	32.231
487.40	33.014
487.75	32.930
488.09	32.787
488.44	33.012
488.79	34.105
489.13	34.175
489.48	33.647
489.83	34.126
490.17	34.292
490.52	34.134
490.87	33.734
491.22	34.384
491.56	34.583
491.91	33.843
492.26	34.419
492.60	33.925
492.95	35.022
493.30	33.854
493.64	34.479
493.99	34.396
494.34	33.398
494.68	34.524
495.03	34.307
495.37	34.887
495.72	33.569
496.07	35.122
496.41	34.434
496.76	34.915
497.11	33.954
497.45	34.845
497.80	34.965
498.14	34.128
498.49	35.094
498.84	34.331
499.18	34.237
499.53	35.020
499.87	33.706
500.22	34.520
500.56	35.250
500.91	34.839
501.26	34.652
501.60	34.137
501.95	34.595
502.29	34.576
502.64	34.556
502.98	35.224
503.33	34.438
503.67	34.361
504.02	35.386
504.36	35.379
504.71	34.697
505.06	35.279
505.40	34.822
505.75	35.825
506.09	35.327
506.44	36.653
506.78	35.306
507.13	35.936
507.47	35.770
507.82	35.203
508.16	35.024
508.51	34.365
508.85	35.531
509.19	34.859
509.54	35.389
509.88	35.005
510.23	36.095
510.57	35.970
510.92	34.755
511.26	36.116
511.61	36.579
511.95	35.507
512.30	36.308
512.64	35.726
512.98	35.036
513.33	36.374
513.67	35.588
514.02	36.842
514.36	37.429
514.70	36.538
515.05	37.838
515.39	36.954
515.74	37.485
516.08	37.418
516.42	37.397
516.77	36.922
517.11	37.685
517.46	37.522
517.80	37.723
518.14	38.151
518.49	37.740
518.83	37.181
519.17	37.599
519.52	37.596
519.86	36.735
520.20	36.817
520.55	37.023
520.89	37.014
521.23	37.999
521.58	39.243
521.92	38.974
522.26	37.606
522.61	38.636
522.95	39.404
523.29	38.945
523.64	39.454
523.98	38.561
524.32	38.338
524.66	39.181
525.01	39.221
525.35	39.469
525.69	38.047
526.04	38.624
526.38	40.078
526.72	38.457
527.06	39.429
527.41	39.248
527.75	38.740
528.09	38.073
528.43	41.188
528.78	38.614
529.12	39.290
529.46	38.921
529.80	39.835
530.15	40.000
530.49	40.269
530.83	40.287
531.17	39.825
531.51	39.330
531.86	38.341
532.20	40.640
532.54	40.095
532.88	39.836
533.22	41.667
533.57	39.450
533.91	39.687
534.25	39.388
534.59	39.192
534.93	39.773
535.27	38.896
535.62	39.274
535.96	39.139
536.30	40.040
536.64	40.041
536.98	40.627
537.32	42.034
537.66	40.323
538.01	40.420
538.35	39.667
538.69	40.013
539.03	39.918
539.37	40.915
539.71	39.536
540.05	40.869
540.39	40.928
540.73	41.213
541.07	40.124
541.42	40.390
541.76	41.500
542.10	39.642
542.44	39.472
542.78	40.537
543.12	39.698
543.46	41.168
543.80	40.319
544.14	40.521
544.48	40.973
544.82	41.422
545.16	41.530
545.50	40.254
545.84	42.422
546.18	41.631
546.52	40.519
546.86	40.474
547.20	41.059
547.54	41.343
547.88	40.829
548.22	39.842
548.56	42.018
548.90	41.846
549.24	40.289
549.58	39.704
549.92	40.100
550.26	41.612
550.60	41.561
550.94	41.001
551.28	40.958
551.62	40.692
551.96	41.429
552.30	42.251
552.64	40.691
552.98	41.561
553.32	41.441
553.66	41.437
554.00	41.825
554.34	41.728
554.68	39.012
555.02	42.113
555.36	41.511
555.69	40.440
556.03	39.971
556.37	41.423
556.71	41.083
557.05	41.312
557.39	41.561
557.73	41.079
558.07	40.799
558.41	43.951
558.75	41.933
559.08	41.214
559.42	42.460
559.76	42.914
560.10	42.278
560.44	40.655
560.78	40.699
561.12	41.608
561.45	41.181
561.79	40.966
562.13	41.448
562.47	41.583
562.81	41.282
563.15	41.396
563.48	41.160
563.82	42.896
564.16	41.852
564.50	40.946
564.84	42.236
565.17	39.839
565.51	41.803
565.85	41.152
566.19	41.048
566.52	41.756
566.86	41.710
567.20	40.598
567.54	40.633
567.88	40.539
568.21	41.572
568.55	39.620
568.89	40.760
569.23	40.636
569.56	39.755
569.90	40.520
570.24	38.742
570.57	39.018
570.91	39.317
571.25	37.784
571.59	37.839
571.92	37.244
572.26	37.621
572.60	38.388
572.93	37.810
573.27	37.147
573.61	37.082
573.95	36.947
574.28	37.262
574.62	36.588
574.96	36.998
575.29	36.497
575.63	35.735
575.97	36.704
576.30	36.744
576.64	36.636
576.98	36.834
577.31	36.790
577.65	37.294
577.98	37.172
578.32	36.413
578.66	36.149
578.99	36.547
579.33	36.223
579.67	35.781
580.00	36.937
580.34	36.617
580.67	36.771
581.01	36.792
581.35	36.736
581.68	36.784
582.02	36.594
582.35	36.119
582.69	36.482
583.02	36.146
583.36	37.000
583.70	37.409
584.03	37.559
584.37	37.691
584.70	37.527
585.04	36.425
585.37	36.929
585.71	37.053
586.04	36.863
586.38	37.290
586.72	37.504
587.05	38.330
587.39	37.657
587.72	37.890
588.06	37.448
588.39	37.482
588.73	37.515
589.06	37.997
589.40	38.334
589.73	38.627
590.07	38.142
590.40	38.622
590.73	39.498
591.07	38.338
591.40	38.602
591.74	38.914
592.07	38.636
592.41	39.664
592.74	38.909
593.08	37.234
593.41	37.858
593.75	37.749
594.08	37.007
594.41	38.210
594.75	37.939
595.08	38.403
595.42	38.057
595.75	38.002
596.09	38.389
596.42	38.446
596.75	39.210
597.09	38.633
597.42	39.341
597.75	38.937
598.09	37.709
598.42	37.951
598.76	38.267
599.09	37.780
599.42	38.272
599.76	37.359
600.09	38.462
600.42	37.680
600.76	37.221
601.09	37.290
601.42	37.485
601.76	37.594
602.09	38.160
602.42	39.933
602.76	38.710
603.09	38.372
603.42	39.172
603.76	38.266
604.09	38.558
604.42	38.198
604.76	38.540
605.09	39.077
605.42	37.652
605.75	37.916
606.09	38.769
606.42	37.781
606.75	37.706
607.09	38.286
607.42	37.528
607.75	38.144
608.08	37.152
608.42	38.100
608.75	39.277
609.08	38.914
609.41	38.122
609.75	38.760
610.08	38.542
610.41	37.681
610.74	38.372
611.07	39.121
611.41	39.180
611.74	38.699
612.07	38.437
612.40	39.114
612.73	38.475
613.07	38.189
613.40	37.965
613.73	39.228
614.06	40.178
614.39	39.481
614.72	39.048
615.06	39.162
615.39	38.210
615.72	38.482
616.05	38.715
616.38	38.519
616.71	38.899
617.05	39.592
617.38	38.969
617.71	39.623
618.04	41.397
618.37	40.984
618.70	39.406
619.03	40.694
619.36	39.725
619.69	40.409
620.03	42.586
620.36	39.986
620.69	40.114
621.02	40.291
621.35	42.324
621.68	42.432
622.01	40.917
622.34	40.702
622.67	40.221
623.00	40.888
623.33	40.168
623.66	39.417
623.99	39.561
624.32	41.369
624.65	40.602
624.99	41.084
625.32	38.893
625.65	40.456
625.98	40.451
626.31	40.316
626.64	41.508
626.97	41.885
627.30	43.082
627.63	42.461
627.96	41.779
628.29	41.443
628.62	42.576
628.95	42.485
629.28	41.230
629.61	40.279
629.94	41.642
630.26	40.415
630.59	42.248
630.92	41.949
631.25	41.538
631.58	41.960
631.91	40.570
632.24	42.890
632.57	45.909
632.90	42.705
633.23	42.000
633.56	43.703
633.89	43.280
634.22	44.815
634.55	44.727
634.88	44.700
635.20	43.974
635.53	45.467
635.86	43.823
636.19	44.114
636.52	44.133
636.85	44.293
637.18	41.132
637.51	44.403
637.83	44.415
638.16	46.385
638.49	42.916
638.82	45.395
639.15	43.012
639.48	43.466
639.81	44.351
640.13	45.022
640.46	45.481
640.79	44.477
641.12	44.461
641.45	43.093
641.77	43.111
642.10	45.498
642.43	42.605
642.76	45.710
643.09	47.173
643.41	44.175
643.74	43.657
644.07	46.141
644.40	45.101
644.73	46.235
645.05	45.805
645.38	45.855
645.71	43.440
646.04	44.524
646.36	46.099
646.69	47.122
647.02	46.881
647.35	45.336
647.67	45.704
648.00	47.575
648.33	46.587
648.66	45.763
648.98	43.886
649.31	45.289
649.64	42.857
649.96	44.733
650.29	46.337
650.62	43.932
650.94	46.481
651.27	45.624
651.60	45.045
651.92	43.182
652.25	45.115
652.58	45.000
652.90	44.597
653.23	43.025
653.56	46.193
653.88	46.392
654.21	44.483
654.54	44.482
654.86	45.161
655.19	43.860
655.52	39.319
655.84	35.427
656.17	39.070
656.49	52.285
656.82	54.182
657.15	40.879
657.47	30.466
657.80	22.751
658.13	22.148
658.45	34.752
658.78	35.114
659.10	34.792
659.43	35.913
659.75	37.938
660.08	37.793
660.41	42.084
660.73	42.265
661.06	44.367
661.38	45.010
661.71	42.094
662.03	48.927
662.36	46.374
662.68	46.903
663.01	47.380
663.33	48.724
663.66	45.581
663.98	46.744
664.31	43.710
664.63	46.774
664.96	42.609
665.28	45.475
665.61	43.939
665.93	44.130
666.26	44.685
666.58	46.756
666.91	47.059
667.23	47.170
667.56	46.445
667.88	45.084
668.21	46.778
668.53	46.336
668.86	45.519
669.18	45.283
669.50	45.278
669.83	47.209
670.15	46.620
670.48	45.215
670.80	46.313
671.13	44.519
671.45	46.804
671.77	46.567
672.10	44.158
672.42	42.509
672.75	43.872
673.07	45.259
673.39	44.404
673.72	39.842
674.04	43.125
674.37	45.127
674.69	43.469
675.01	44.000
675.34	46.171
675.66	47.454
675.98	41.685
676.31	46.560
676.63	46.081
676.95	43.636
677.28	45.412
677.60	45.783
677.92	46.101
678.25	45.733
678.57	42.208
678.89	44.958
679.22	46.756
679.54	42.570
679.86	43.141
680.18	43.107
680.51	42.614
680.83	42.147
681.15	41.800
681.48	44.057
681.80	44.628
682.12	43.952
682.44	42.887
682.77	45.254
683.09	43.936
683.41	43.636
683.73	45.392
684.06	44.469
684.38	41.290
684.70	42.484
685.02	41.286
685.34	42.885
685.67	42.026
685.99	44.123
686.31	40.177
686.63	39.889
686.96	42.586
687.28	39.798
687.60	41.635
687.92	43.838
688.24	43.145
688.56	40.175
688.89	42.411
689.21	44.000
689.53	40.835
689.85	43.256
690.17	43.973
690.49	42.080
690.82	40.777
691.14	43.810
691.46	44.159
691.78	41.667
692.10	42.151
692.42	41.342
692.74	42.094
693.06	41.892
693.39	41.176
693.71	44.118
694.03	43.187
694.35	45.093
694.67	44.949
694.99	40.731
695.31	45.170
695.63	46.000
695.95	41.162
696.27	41.451
696.59	46.389
696.91	43.978
697.23	41.131
697.56	43.564
697.88	41.720
698.20	42.597
698.52	44.000
698.84	42.823
699.16	41.250
699.48	43.860
699.80	38.958
700.12	40.701
700.44	43.137
700.76	43.605
701.08	43.030
701.40	45.181
701.72	47.222
702.04	46.205
702.36	47.826
702.68	43.544
703.00	42.424
703.32	43.402
703.64	40.960
703.96	40.870
704.28	44.172
704.60	50.159
704.91	40.694
705.23	47.176
705.55	48.763
705.87	45.848
706.19	42.593
706.51	43.299
706.83	43.087
707.15	43.614
707.47	42.297
707.79	39.323
708.11	43.250
708.43	43.500
708.74	42.119
709.06	45.915
709.38	44.343
709.70	41.716
710.02	44.904
710.34	43.963
710.66	36.859
710.98	42.384
711.29	42.951
711.61	40.678
711.93	43.974
712.25	45.704
712.57	47.619
712.89	39.552
713.20	46.367
713.52	46.341
713.84	41.638
714.16	44.674
714.48	41.935
714.80	40.705
715.11	43.161
715.43	39.498
715.75	39.000
716.07	40.199
716.39	41.611
716.70	42.435
717.02	41.603
717.34	46.559
717.66	44.248
717.97	44.348
718.29	41.423
718.61	39.764
718.93	41.860
719.24	46.388
719.56	44.980
719.88	40.206
720.20	42.424
720.51	41.762
720.83	40.541
721.15	46.639
721.46	45.968
721.78	38.340
722.10	40.520
722.42	40.249
722.73	40.408
723.05	47.755
723.37	47.881
723.68	49.550
724.00	46.154
724.32	42.667
724.63	40.000
724.95	47.162
725.27	42.857
725.58	47.458
725.90	40.873
726.22	43.629
726.53	38.983
726.85	42.697
727.16	50.566
727.48	42.510
727.80	40.891
728.11	41.949
728.43	40.392
728.74	37.097
729.06	40.400
729.38	44.361
729.69	38.645
730.01	45.000
730.32	44.403
730.64	42.403
730.96	41.132
731.27	39.000
731.59	38.305
731.90	41.083
732.22	44.479
732.53	43.189
732.85	43.617
733.16	44.444
733.48	37.410
733.80	42.391
734.11	41.356
734.43	38.832
734.74	36.364
735.06	41.368
735.37	41.692
735.69	46.465
736.00	40.070
736.32	38.255
736.63	42.606
736.95	37.884
737.26	40.214
737.58	39.933
737.89	45.421
738.21	42.481
738.52	44.444
738.83	41.485
739.15	41.485
739.46	40.551
739.78	39.194
740.09	34.641
740.41	44.565
740.72	36.614
741.04	42.105
741.35	42.553
741.66	45.024
741.98	41.327
742.29	43.069
742.61	43.979
742.92	39.810
743.23	35.648
743.55	43.891
743.86	38.756
744.18	38.756
744.49	41.489
744.80	43.478
745.12	49.198
745.43	44.390
745.74	50.521
746.06	38.537
746.37	43.455
746.68	39.810
747.00	42.021
747.31	40.796
747.62	44.175
747.94	47.368
748.25	44.554
748.56	44.262
748.88	40.838
749.19	46.809
749.50	43.842
749.82	42.453
750.13	35.780
750.44	47.744
750.75	39.925
751.07	43.796
751.38	41.379
751.69	38.824
752.01	39.922
752.32	43.028
752.63	43.478
752.94	41.379
753.26	44.351
753.57	35.294
753.88	45.133
754.19	40.417
754.51	39.669
754.82	37.652
755.13	43.750
755.44	41.532
755.75	40.625
756.07	41.634
756.38	35.472
756.69	38.314
757.00	39.667
757.31	37.255
757.63	31.707
757.94	36.944
758.25	35.616
758.56	35.904
758.87	38.527
759.18	36.760
759.50	35.273
759.81	40.803
760.12	37.742
760.43	37.273
760.74	36.420
761.05	36.615
761.36	34.943
761.67	41.212
761.99	39.116
762.30	37.818
762.61	41.107
762.92	40.271
763.23	36.036
763.54	35.514
763.85	38.983
764.16	39.004
764.47	39.516
764.78	36.264
765.10	37.374
765.41	37.855
765.72	37.778
766.03	37.594
766.34	40.146
766.65	40.637
766.96	40.404
767.27	45.745
767.58	47.701
767.89	36.170
768.20	40.909
768.51	40.110
768.82	41.379
769.13	35.023
769.44	40.773
769.75	35.616
770.06	40.086
770.37	39.423
770.68	39.594
770.99	41.176
771.30	45.588
771.61	38.462
771.92	42.241
772.23	44.335
772.54	43.548
772.85	41.975
773.16	41.573
773.47	52.288
773.78	41.830
774.09	44.910
774.39	40.000
774.70	40.127
775.01	46.207
775.32	37.143
775.63	45.455
775.94	39.695
776.25	52.756
776.56	41.667
776.87	46.154
777.18	43.590
777.48	44.828
777.79	34.783
778.10	34.286
778.41	46.847
778.72	51.587
779.03	46.617
779.34	46.099
779.65	40.411
779.95	37.671
780.26	42.069
780.57	42.276
780.88	37.795
781.19	44.828
781.50	48.837
781.80	34.911
782.11	38.994
782.42	43.077
782.73	36.691
783.04	42.963
783.34	36.111
783.65	34.188
783.96	42.623
784.27	42.069
784.57	34.959
784.88	28.125
785.19	40.000
785.50	53.000
785.81	44.828
786.11	35.345
786.42	34.951
786.73	48.182
787.04	40.816
787.34	50.893
787.65	42.857
787.96	39.823
788.26	45.455
788.57	41.880
788.88	41.406
789.19	33.333
789.49	30.435
789.80	50.000
790.11	48.485
790.41	33.636
790.72	40.217
791.03	38.636
791.33	56.250
791.64	36.250
791.95	33.721
792.25	39.362
792.56	41.573
792.87	36.986
793.17	63.768
793.48	40.000
793.79	50.000
794.09	52.500
794.40	41.509
794.70	43.689
795.01	31.707
795.32	37.607
795.62	37.143
795.93	50.000
796.23	47.170
796.54	46.875
796.85	52.941
797.15	46.479
797.46	36.111
797.76	59.091
798.07	41.860
798.37	42.105
798.68	43.939
798.99	44.444
799.29	45.714
799.60	40.580
799.90	56.000
800.21	36.066
800.51	56.923
800.82	52.542
801.12	36.232
801.43	50.820
801.73	44.444
802.04	40.000
802.34	41.791
802.65	48.077
802.95	35.714
803.26	51.923
803.56	52.941
803.87	28.261
804.17	33.333
804.48	49.206
804.78	42.593
805.09	58.696
805.39	26.667
805.70	50.000
806.00	35.088
806.30	49.296
806.61	35.714
806.91	26.389
807.22	60.526
807.52	46.667
807.83	23.636
808.13	45.833
808.43	47.059
808.74	46.269
809.04	50.847
809.35	38.462
809.65	28.125
809.95	24.324
810.26	56.818
810.56	26.027
810.86	61.905
811.17	30.000
811.47	53.061
811.77	23.684
812.08	27.273
812.38	49.057
812.69	52.500
812.99	51.515
813.29	63.158
813.59	28.571
813.90	38.636
814.20	25.641
814.50	40.385
814.81	54.717
815.11	21.277
815.41	55.932
815.72	73.810
816.02	35.294
816.32	33.333
816.62	39.024
816.93	37.838
817.23	22.857
817.53	56.250
817.84	34.783
818.14	55.769
818.44	39.474
818.74	47.826
819.04	25.000
819.35	70.270
819.65	47.059
819.95	27.778
820.25	61.905
820.56	57.500
820.86	-3.448
821.16	57.500
821.46	57.447
821.76	47.500
822.07	46.512
822.37	35.135
822.67	40.625
822.97	61.905
823.27	17.857
823.57	76.000
823.88	-14.815
824.18	50.000
824.48	44.118
824.78	35.484
825.08	47.826
825.38	57.576
825.69	41.667
825.99	63.158
826.29	33.333
826.59	60.000
826.89	-4.762
827.19	69.565
827.49	15.000
827.79	48.571
828.09	60.714
828.39	66.667
828.70	48.649
829.00	42.857
829.30	14.286
829.60	43.333
829.90	71.875
830.20	55.263
830.50	37.037
830.80	39.130
831.10	36.364
831.40	57.576
831.70	51.613
832.00	104.762
832.30	-9.524
832.60	33.333
832.90	37.931
833.20	70.000
833.50	57.576
833.80	74.074
834.10	50.000
834.40	81.250
834.70	11.111
835.00	42.105
835.30	111.538
835.60	120.000
835.90	64.516
836.20	27.273
836.50	89.286
836.80	23.077
837.10	67.857
837.40	200.000
837.70	86.364
838.00	63.636
838.30	65.217
838.60	84.615
838.90	100.000
839.19	17.857
839.49	60.000
839.79	69.231
840.09	-41.667
840.39	35.714
840.69	14.286
840.99	34.615
841.29	47.368
841.59	70.000
841.88	-45.455
842.18	60.000
842.48	25.000
842.78	-13.333
843.08	29.630
843.38	-20.000
843.68	47.826
843.97	60.000
844.27	0.000
844.57	0.000
844.87	105.556
845.17	28.571
845.47	60.000
845.76	33.333
846.06	29.412
846.36	50.000
846.66	35.714
846.96	126.667
847.25	-50.000
847.55	92.857
847.85	150.000
848.15	50.000
848.44	-166.667
848.74	60.000
849.04	70.370
849.34	136.364
849.63	66.667
849.93	-60.000
850.23	33.333
850.53	240.000
850.82	-38.462
851.12	77.778
851.42	113.333
851.71	7.692
852.01	92.857
852.31	50.000
852.61	181.818
852.90	30.000
853.20	68.421
853.50	133.333
853.79	52.174
854.09	91.667
854.39	10.526
854.68	37.500
854.98	35.484
855.28	38.462
855.57	75.000
855.87	122.222
856.17	74.074
856.46	14.286
856.76	60.000
857.05	177.778
857.35	56.000
857.65	44.444
857.94	61.538
858.24	79.310
858.53	44.444
858.83	66.667
859.13	77.273
859.42	43.478
859.72	-175.000
860.01	66.667
860.31	76.000
860.60	42.857
860.90	0.000
861.20	6.667
861.49	-400.000
861.79	40.000
862.08	80.000
862.38	153.333
862.67	-80.000
862.97	-16.667
863.26	75.000
863.56	111.111
863.85	-466.667
864.15	33.333
864.44	30.000
864.74	107.143
865.03	150.000
865.33	100.000
865.62	133.333
865.92	16.667
866.21	83.333
866.51	62.500
866.80	9.091
867.10	-50.000
867.39	150.000
867.69	0.000
867.98	0.000
868.27	100.000
868.57	46.667
868.86	88.889
869.16	0.000
869.45	46.667
869.75	-400.000
870.04	0.000
870.33	-100.000
870.63	80.952
870.92	333.333
871.22	20.000
871.51	200.000
871.80	100.000
872.10	333.333
>>>>>End Processed Spectral Data<<<<<
