SpectraSuite Data File
++++++++++++++++++++++++++++++++++++
Date: Fri May 15 20:13:23 PDT 2015
User: schluterlab
Dark Spectrum Present: Yes
Reference Spectrum Present: Yes
Number of Sampled Component Spectra: 1
Spectrometers: USB2E3373
Integration Time (usec): 3000 (USB2E3373)
Spectra Averaged: 3 (USB2E3373)
Boxcar Smoothing: 0 (USB2E3373)
Correct for Electrical Dark: No (USB2E3373)
Strobe/Lamp Enabled: No (USB2E3373)
Correct for Detector Non-linearity: No (USB2E3373)
Correct for Stray Light: No (USB2E3373)
Number of Pixels in Processed Spectrum: 2048
>>>>>Begin Processed Spectral Data<<<<<
178.53	0.000
178.91	0.000
179.29	225.000
179.67	-450.000
180.04	14.286
180.42	350.000
180.80	200.000
181.18	-0.000
181.56	100.000
181.94	-100.000
182.31	100.000
182.69	-40.000
183.07	-166.667
183.45	-140.000
183.83	16.667
184.20	54.545
184.58	211.111
184.96	-100.000
185.34	33.333
185.72	-50.000
186.09	46.154
186.47	0.000
186.85	50.000
187.23	22.222
187.61	-0.000
187.98	-466.667
188.36	133.333
188.74	100.000
189.12	-47.059
189.49	27.778
189.87	0.000
190.25	50.000
190.63	250.000
191.00	33.333
191.38	0.000
191.76	850.000
192.14	-50.000
192.51	200.000
192.89	0.000
193.27	14.286
193.65	150.000
194.02	9.091
194.40	20.000
194.78	-62.500
195.15	-41.667
195.53	-100.000
195.91	25.000
196.29	-25.000
196.66	123.077
197.04	-14.286
197.42	22.222
197.79	-433.333
198.17	-46.154
198.55	600.000
198.92	-333.333
199.30	-100.000
199.68	-80.000
200.05	-300.000
200.43	0.000
200.81	-133.333
201.18	-200.000
201.56	-300.000
201.94	-100.000
202.31	166.667
202.69	-80.000
203.07	150.000
203.44	-100.000
203.82	0.000
204.19	78.571
204.57	-33.333
204.95	125.000
205.32	-60.000
205.70	14.286
206.08	200.000
206.45	233.333
206.83	100.000
207.20	85.714
207.58	500.000
207.96	100.000
208.33	-80.000
208.71	25.000
209.08	-100.000
209.46	-400.000
209.84	0.000
210.21	-1100.000
210.59	28.571
210.96	100.000
211.34	225.000
211.71	60.000
212.09	-85.714
212.46	-1000.000
212.84	0.000
213.22	70.000
213.59	300.000
213.97	53.846
214.34	-27.273
214.72	33.333
215.09	250.000
215.47	61.538
215.84	0.000
216.22	66.667
216.59	25.000
216.97	550.000
217.34	150.000
217.72	-100.000
218.09	12.500
218.47	37.500
218.84	400.000
219.22	44.444
219.59	20.000
219.97	133.333
220.34	100.000
220.72	157.143
221.09	-50.000
221.47	-50.000
221.84	0.000
222.22	-200.000
222.59	0.000
222.97	33.333
223.34	-100.000
223.72	-71.429
224.09	9.524
224.46	10.714
224.84	266.667
225.21	20.000
225.59	126.667
225.96	-400.000
226.34	200.000
226.71	57.143
227.08	-33.333
227.46	-25.000
227.83	0.000
228.21	33.333
228.58	18.182
228.95	-12.500
229.33	-30.000
229.70	37.500
230.08	-50.000
230.45	0.000
230.82	57.143
231.20	-13.333
231.57	50.000
231.95	0.000
232.32	-10.000
232.69	100.000
233.07	166.667
233.44	-20.000
233.81	-80.000
234.19	-11.111
234.56	11.765
234.93	50.000
235.31	-25.000
235.68	-60.000
236.05	23.077
236.43	-50.000
236.80	11.765
237.17	9.375
237.55	40.000
237.92	-7.407
238.29	8.333
238.67	20.000
239.04	8.824
239.41	-4.878
239.79	10.000
240.16	48.780
240.53	7.895
240.91	6.522
241.28	14.286
241.65	5.357
242.02	27.397
242.40	18.333
242.77	13.559
243.14	9.091
243.51	18.750
243.89	8.046
244.26	3.448
244.63	14.286
245.00	10.309
245.38	15.464
245.75	-2.247
246.12	7.759
246.49	10.744
246.87	15.385
247.24	4.202
247.61	11.404
247.98	8.943
248.36	9.375
248.73	7.237
249.10	8.442
249.47	9.494
249.84	13.072
250.22	10.588
250.59	7.190
250.96	15.023
251.33	6.395
251.70	9.412
252.08	9.137
252.45	11.386
252.82	9.045
253.19	8.756
253.56	5.607
253.94	11.712
254.31	12.609
254.68	10.965
255.05	10.630
255.42	10.044
255.79	8.494
256.16	10.506
256.54	13.060
256.91	11.027
257.28	10.037
257.65	11.985
258.02	7.447
258.39	9.764
258.76	12.088
259.14	9.302
259.51	11.974
259.88	9.966
260.25	8.497
260.62	12.847
260.99	12.203
261.36	6.849
261.73	8.861
262.10	13.982
262.47	8.282
262.85	8.464
263.22	12.000
263.59	9.969
263.96	12.733
264.33	11.818
264.70	7.143
265.07	10.417
265.44	10.198
265.81	12.994
266.18	9.016
266.55	11.825
266.92	12.435
267.29	13.577
267.66	9.974
268.03	11.780
268.40	8.616
268.77	12.834
269.14	11.271
269.51	12.853
269.88	10.973
270.25	8.418
270.62	8.780
270.99	8.440
271.36	10.024
271.73	11.268
272.10	11.436
272.47	11.348
272.84	10.891
273.21	12.297
273.58	12.289
273.95	11.899
274.32	7.390
274.69	7.692
275.06	10.268
275.43	7.256
275.80	10.375
276.17	7.586
276.54	11.777
276.91	9.649
277.28	10.699
277.65	11.364
278.02	10.851
278.39	8.753
278.76	9.015
279.13	8.091
279.50	10.294
279.87	12.095
280.23	9.032
280.60	10.916
280.97	9.697
281.34	8.269
281.71	12.115
282.08	9.202
282.45	9.980
282.82	8.687
283.19	9.478
283.56	11.368
283.92	9.298
284.29	9.423
284.66	8.915
285.03	7.466
285.40	7.940
285.77	9.315
286.14	8.484
286.51	9.594
286.87	8.227
287.24	9.208
287.61	8.466
287.98	11.930
288.35	7.972
288.72	10.858
289.08	9.549
289.45	8.436
289.82	8.916
290.19	6.826
290.56	7.719
290.93	8.586
291.29	8.937
291.66	8.346
292.03	7.496
292.40	8.871
292.77	9.250
293.13	6.494
293.50	7.284
293.87	7.939
294.24	8.346
294.60	8.793
294.97	8.333
295.34	6.902
295.71	7.750
296.08	7.773
296.44	5.690
296.81	7.083
297.18	7.536
297.55	9.621
297.91	7.808
298.28	8.707
298.65	5.970
299.02	7.143
299.38	3.967
299.75	5.517
300.12	7.068
300.48	7.246
300.85	6.844
301.22	6.494
301.59	6.711
301.95	7.975
302.32	7.782
302.69	7.214
303.05	5.693
303.42	6.600
303.79	6.425
304.15	7.766
304.52	7.015
304.89	7.485
305.25	6.780
305.62	6.768
305.99	6.316
306.35	6.474
306.72	6.637
307.09	7.298
307.45	6.774
307.82	5.671
308.19	5.923
308.55	6.761
308.92	9.695
309.29	5.028
309.65	6.781
310.02	6.931
310.38	7.355
310.75	6.230
311.12	6.674
311.48	6.575
311.85	6.597
312.22	5.591
312.58	6.582
312.95	5.977
313.31	6.004
313.68	6.178
314.05	5.918
314.41	7.320
314.78	6.804
315.14	7.605
315.51	7.246
315.87	7.172
316.24	8.190
316.61	8.465
316.97	7.044
317.34	7.129
317.70	8.604
318.07	8.365
318.43	7.843
318.80	7.292
319.16	8.398
319.53	9.117
319.89	9.350
320.26	8.502
320.62	9.328
320.99	7.933
321.35	9.764
321.72	10.073
322.08	10.876
322.45	10.558
322.81	10.413
323.18	10.991
323.54	10.714
323.91	10.808
324.27	12.109
324.64	10.861
325.00	13.777
325.37	14.233
325.73	13.055
326.10	14.169
326.46	15.874
326.83	15.223
327.19	15.780
327.56	17.463
327.92	16.725
328.29	16.696
328.65	17.736
329.01	17.923
329.38	19.355
329.74	18.130
330.11	19.277
330.47	19.388
330.84	19.519
331.20	21.673
331.56	20.556
331.93	21.644
332.29	22.915
332.66	23.620
333.02	22.862
333.38	21.907
333.75	25.000
334.11	22.202
334.48	23.935
334.84	24.084
335.20	23.330
335.57	23.572
335.93	25.203
336.29	26.796
336.66	23.887
337.02	25.186
337.38	23.889
337.75	24.091
338.11	26.510
338.47	26.095
338.84	25.416
339.20	25.503
339.56	25.688
339.93	25.694
340.29	25.780
340.65	27.599
341.02	25.709
341.38	25.752
341.74	26.148
342.11	26.170
342.47	27.135
342.83	27.336
343.20	27.091
343.56	26.000
343.92	27.635
344.28	27.071
344.65	25.907
345.01	25.843
345.37	26.409
345.73	26.360
346.10	28.128
346.46	27.082
346.82	26.759
347.19	26.351
347.55	26.984
347.91	27.427
348.27	26.920
348.63	27.939
349.00	27.071
349.36	28.595
349.72	26.949
350.08	27.705
350.45	26.257
350.81	26.993
351.17	27.036
351.53	27.347
351.89	26.920
352.26	26.480
352.62	27.661
352.98	27.309
353.34	26.731
353.70	28.722
354.07	27.177
354.43	28.102
354.79	27.250
355.15	28.730
355.51	28.323
355.87	27.427
356.24	26.427
356.60	28.294
356.96	28.413
357.32	28.275
357.68	26.896
358.04	27.625
358.40	28.698
358.77	29.027
359.13	27.942
359.49	27.658
359.85	29.173
360.21	28.469
360.57	28.233
360.93	28.669
361.29	28.021
361.66	28.683
362.02	28.864
362.38	29.779
362.74	28.690
363.10	30.173
363.46	29.503
363.82	31.255
364.18	30.037
364.54	29.485
364.90	29.534
365.26	29.258
365.62	30.365
365.98	30.205
366.35	31.318
366.71	30.007
367.07	30.334
367.43	30.697
367.79	31.025
368.15	30.725
368.51	30.299
368.87	30.223
369.23	30.614
369.59	31.050
369.95	31.525
370.31	31.575
370.67	30.299
371.03	31.591
371.39	31.218
371.75	30.696
372.11	31.598
372.47	31.805
372.83	31.228
373.19	31.812
373.55	31.264
373.91	32.901
374.27	32.814
374.63	31.515
374.99	32.199
375.35	32.730
375.71	32.517
376.07	32.935
376.42	32.381
376.78	33.826
377.14	32.431
377.50	33.997
377.86	32.664
378.22	34.142
378.58	33.782
378.94	33.585
379.30	34.872
379.66	34.922
380.02	34.090
380.38	33.293
380.74	34.291
381.09	35.031
381.45	34.924
381.81	35.904
382.17	34.454
382.53	34.791
382.89	35.656
383.25	35.657
383.61	36.280
383.97	35.873
384.32	35.022
384.68	36.471
385.04	35.784
385.40	36.030
385.76	36.981
386.12	36.805
386.48	36.909
386.83	36.906
387.19	37.790
387.55	37.453
387.91	37.775
388.27	37.668
388.62	37.634
388.98	36.587
389.34	37.789
389.70	37.850
390.06	35.809
390.42	37.241
390.77	38.718
391.13	38.083
391.49	37.257
391.85	38.532
392.20	39.548
392.56	39.097
392.92	38.931
393.28	39.151
393.64	39.039
393.99	39.248
394.35	39.532
394.71	38.953
395.07	38.969
395.42	38.494
395.78	39.805
396.14	39.281
396.50	39.822
396.85	40.695
397.21	39.411
397.57	39.687
397.92	39.605
398.28	40.632
398.64	38.735
399.00	39.616
399.35	39.278
399.71	39.805
400.07	40.145
400.42	39.290
400.78	40.600
401.14	40.109
401.49	39.666
401.85	39.427
402.21	40.361
402.57	40.500
402.92	39.649
403.28	40.977
403.63	40.668
403.99	40.434
404.35	40.912
404.70	40.833
405.06	39.365
405.42	39.838
405.77	39.686
406.13	41.153
406.49	39.668
406.84	41.320
407.20	40.698
407.55	39.665
407.91	41.310
408.27	40.727
408.62	40.492
408.98	40.850
409.34	41.450
409.69	39.987
410.05	39.778
410.40	40.802
410.76	41.496
411.11	42.312
411.47	40.697
411.83	41.243
412.18	41.828
412.54	41.386
412.89	40.825
413.25	41.757
413.60	41.304
413.96	40.184
414.31	42.317
414.67	40.795
415.03	40.812
415.38	41.319
415.74	41.759
416.09	40.692
416.45	41.256
416.80	40.846
417.16	41.436
417.51	42.438
417.87	40.743
418.22	42.746
418.58	42.341
418.93	42.759
419.29	40.845
419.64	43.227
420.00	43.199
420.35	43.164
420.71	42.467
421.06	42.664
421.42	42.849
421.77	42.775
422.12	42.792
422.48	42.447
422.83	42.401
423.19	42.889
423.54	43.269
423.90	43.051
424.25	43.226
424.61	43.758
424.96	43.496
425.31	45.292
425.67	43.662
426.02	43.757
426.38	44.333
426.73	45.218
427.09	44.114
427.44	44.588
427.79	44.255
428.15	44.660
428.50	44.761
428.85	44.042
429.21	43.577
429.56	44.852
429.92	44.273
430.27	43.860
430.62	42.603
430.98	44.692
431.33	44.742
431.68	44.479
432.04	43.879
432.39	44.438
432.74	44.257
433.10	45.287
433.45	44.086
433.80	45.386
434.16	44.875
434.51	45.215
434.86	45.935
435.22	45.317
435.57	45.727
435.92	45.808
436.28	45.736
436.63	45.579
436.98	44.844
437.34	46.461
437.69	45.617
438.04	45.926
438.39	45.266
438.75	47.420
439.10	45.671
439.45	45.709
439.81	45.688
440.16	46.615
440.51	47.343
440.86	47.009
441.22	46.719
441.57	47.351
441.92	47.272
442.27	47.395
442.63	47.002
442.98	46.238
443.33	45.075
443.68	46.631
444.03	47.243
444.39	47.614
444.74	48.495
445.09	48.775
445.44	48.034
445.79	48.994
446.15	46.916
446.50	46.367
446.85	47.396
447.20	47.080
447.55	48.326
447.91	47.152
448.26	48.150
448.61	46.632
448.96	47.906
449.31	47.514
449.66	46.864
450.02	47.690
450.37	48.666
450.72	48.053
451.07	48.165
451.42	46.567
451.77	47.619
452.12	46.471
452.47	47.521
452.83	48.645
453.18	47.944
453.53	48.293
453.88	48.209
454.23	48.433
454.58	47.796
454.93	47.809
455.28	47.429
455.63	48.915
455.98	48.767
456.34	47.190
456.69	47.395
457.04	49.527
457.39	48.360
457.74	48.126
458.09	47.440
458.44	48.625
458.79	47.843
459.14	48.398
459.49	49.552
459.84	48.054
460.19	47.087
460.54	49.633
460.89	49.091
461.24	49.130
461.59	49.347
461.94	47.862
462.29	48.733
462.64	48.904
462.99	48.612
463.34	48.261
463.69	48.198
464.04	48.426
464.39	48.393
464.74	47.791
465.09	48.971
465.44	49.683
465.79	49.206
466.14	48.746
466.49	48.649
466.84	49.018
467.19	49.186
467.54	48.276
467.89	49.400
468.24	50.000
468.59	49.143
468.94	49.079
469.29	49.639
469.64	49.282
469.99	49.194
470.34	48.669
470.68	50.186
471.03	49.186
471.38	48.787
471.73	50.770
472.08	48.711
472.43	48.389
472.78	49.417
473.13	49.388
473.48	49.642
473.83	48.692
474.17	49.806
474.52	49.138
474.87	48.848
475.22	49.847
475.57	48.617
475.92	48.382
476.27	49.127
476.61	50.231
476.96	49.303
477.31	49.162
477.66	48.539
478.01	49.860
478.36	48.366
478.70	49.647
479.05	49.231
479.40	49.285
479.75	48.227
480.10	48.336
480.45	48.100
480.79	49.899
481.14	50.256
481.49	48.768
481.84	48.697
482.19	49.486
482.53	49.448
482.88	49.642
483.23	49.136
483.58	49.906
483.92	48.887
484.27	49.180
484.62	49.216
484.97	48.134
485.31	48.338
485.66	47.636
486.01	47.888
486.36	48.523
486.70	48.306
487.05	48.381
487.40	48.164
487.75	48.451
488.09	47.528
488.44	47.730
488.79	48.935
489.13	48.317
489.48	49.081
489.83	48.161
490.17	49.169
490.52	48.961
490.87	49.144
491.22	50.191
491.56	48.909
491.91	48.614
492.26	49.538
492.60	49.280
492.95	49.779
493.30	48.901
493.64	50.000
493.99	49.324
494.34	49.515
494.68	49.238
495.03	48.321
495.37	49.804
495.72	49.924
496.07	49.561
496.41	49.340
496.76	50.023
497.11	48.626
497.45	49.021
497.80	50.454
498.14	48.634
498.49	49.060
498.84	48.952
499.18	48.795
499.53	49.901
499.87	48.784
500.22	50.000
500.56	49.723
500.91	49.849
501.26	49.728
501.60	49.582
501.95	49.151
502.29	50.121
502.64	49.517
502.98	48.890
503.33	49.135
503.67	48.482
504.02	50.098
504.36	49.876
504.71	49.646
505.06	49.874
505.40	51.117
505.75	50.258
506.09	49.265
506.44	51.489
506.78	50.612
507.13	50.259
507.47	49.295
507.82	50.053
508.16	48.283
508.51	50.262
508.85	49.712
509.19	48.803
509.54	49.598
509.88	50.162
510.23	50.081
510.57	50.187
510.92	48.774
511.26	50.245
511.61	50.660
511.95	49.479
512.30	49.834
512.64	50.362
512.98	49.747
513.33	49.692
513.67	49.858
514.02	51.201
514.36	50.000
514.70	51.923
515.05	50.470
515.39	50.118
515.74	51.018
516.08	50.030
516.42	51.296
516.77	51.317
517.11	51.632
517.46	51.047
517.80	51.311
518.14	50.521
518.49	50.361
518.83	51.397
519.17	50.212
519.52	49.793
519.86	49.940
520.20	51.337
520.55	50.469
520.89	51.568
521.23	50.348
521.58	52.114
521.92	51.923
522.26	51.269
522.61	51.039
522.95	51.987
523.29	50.508
523.64	51.017
523.98	51.458
524.32	51.031
524.66	51.472
525.01	51.558
525.35	51.264
525.69	52.593
526.04	50.595
526.38	52.140
526.72	50.818
527.06	50.778
527.41	51.319
527.75	51.340
528.09	50.831
528.43	52.127
528.78	51.023
529.12	50.516
529.46	51.202
529.80	51.045
530.15	52.409
530.49	52.189
530.83	52.531
531.17	50.101
531.51	51.915
531.86	51.734
532.20	51.287
532.54	51.804
532.88	50.582
533.22	51.949
533.57	51.180
533.91	51.632
534.25	51.758
534.59	50.930
534.93	51.416
535.27	50.571
535.62	50.745
535.96	51.533
536.30	50.330
536.64	53.067
536.98	50.453
537.32	53.129
537.66	52.034
538.01	51.748
538.35	51.179
538.69	49.201
539.03	50.581
539.37	50.673
539.71	49.830
540.05	50.916
540.39	51.662
540.73	51.534
541.07	50.622
541.42	50.470
541.76	51.480
542.10	50.723
542.44	51.286
542.78	49.966
543.12	50.962
543.46	50.974
543.80	51.145
544.14	49.199
544.48	50.966
544.82	51.470
545.16	51.366
545.50	51.669
545.84	52.125
546.18	51.773
546.52	52.127
546.86	51.186
547.20	51.431
547.54	49.258
547.88	52.038
548.22	50.888
548.56	50.132
548.90	51.348
549.24	50.895
549.58	50.705
549.92	50.179
550.26	50.476
550.60	50.929
550.94	51.083
551.28	51.700
551.62	51.538
551.96	51.278
552.30	51.974
552.64	50.423
552.98	51.758
553.32	51.070
553.66	52.830
554.00	52.920
554.34	50.517
554.68	51.180
555.02	51.637
555.36	51.384
555.69	50.696
556.03	51.320
556.37	51.601
556.71	49.386
557.05	51.902
557.39	50.632
557.73	50.150
558.07	51.207
558.41	51.149
558.75	52.611
559.08	51.143
559.42	52.143
559.76	51.801
560.10	50.917
560.44	52.197
560.78	50.490
561.12	51.693
561.45	52.354
561.79	52.031
562.13	50.674
562.47	50.000
562.81	51.729
563.15	50.917
563.48	51.839
563.82	51.270
564.16	52.437
564.50	50.338
564.84	51.406
565.17	50.905
565.51	51.981
565.85	51.989
566.19	51.592
566.52	52.547
566.86	51.735
567.20	50.685
567.54	51.156
567.88	51.377
568.21	52.262
568.55	50.978
568.89	51.129
569.23	50.746
569.56	50.263
569.90	51.726
570.24	49.721
570.57	50.873
570.91	50.575
571.25	49.359
571.59	48.832
571.92	47.941
572.26	48.611
572.60	48.837
572.93	48.604
573.27	48.715
573.61	48.986
573.95	48.826
574.28	48.332
574.62	48.284
574.96	48.741
575.29	47.804
575.63	47.499
575.97	47.953
576.30	48.327
576.64	48.106
576.98	48.623
577.31	48.513
577.65	48.211
577.98	48.161
578.32	47.946
578.66	47.518
578.99	47.894
579.33	47.589
579.67	46.884
580.00	48.304
580.34	49.005
580.67	47.725
581.01	48.223
581.35	47.954
581.68	48.061
582.02	48.229
582.35	47.911
582.69	48.500
583.02	48.131
583.36	48.238
583.70	48.806
584.03	49.625
584.37	49.577
584.70	48.599
585.04	47.824
585.37	47.961
585.71	48.457
586.04	48.411
586.38	48.680
586.72	49.326
587.05	48.758
587.39	49.203
587.72	49.481
588.06	49.322
588.39	47.679
588.73	48.687
589.06	49.348
589.40	49.291
589.73	49.215
590.07	49.018
590.40	49.110
590.73	50.618
591.07	49.025
591.40	50.178
591.74	49.774
592.07	50.464
592.41	50.177
592.74	49.064
593.08	47.957
593.41	49.357
593.75	48.512
594.08	48.198
594.41	49.672
594.75	49.046
595.08	48.770
595.42	50.239
595.75	50.357
596.09	49.492
596.42	49.897
596.75	50.133
597.09	49.385
597.42	49.864
597.75	50.435
598.09	48.574
598.42	48.782
598.76	49.078
599.09	48.998
599.42	48.124
599.76	48.081
600.09	48.605
600.42	47.991
600.76	47.548
601.09	47.786
601.42	48.061
601.76	48.789
602.09	49.010
602.42	50.000
602.76	48.769
603.09	49.668
603.42	50.376
603.76	48.589
604.09	49.453
604.42	48.900
604.76	49.844
605.09	49.726
605.42	48.894
605.75	48.117
606.09	48.705
606.42	47.998
606.75	48.788
607.09	49.055
607.42	47.895
607.75	48.845
608.08	48.068
608.42	48.058
608.75	48.964
609.08	50.125
609.41	49.746
609.75	50.353
610.08	49.725
610.41	48.261
610.74	49.391
611.07	49.922
611.41	49.144
611.74	50.213
612.07	49.465
612.40	50.274
612.73	50.452
613.07	49.494
613.40	50.055
613.73	48.909
614.06	50.751
614.39	50.479
614.72	51.036
615.06	50.559
615.39	49.017
615.72	48.816
616.05	50.168
616.38	49.288
616.71	50.398
617.05	49.413
617.38	50.409
617.71	50.943
618.04	51.111
618.37	50.567
618.70	51.617
619.03	50.000
619.36	52.388
619.69	52.085
620.03	52.447
620.36	50.429
620.69	50.535
621.02	51.376
621.35	52.116
621.68	53.146
622.01	51.417
622.34	49.721
622.67	52.050
623.00	50.995
623.33	51.905
623.66	50.561
623.99	50.076
624.32	51.787
624.65	50.752
624.99	50.941
625.32	49.356
625.65	50.746
625.98	52.055
626.31	50.956
626.64	51.127
626.97	52.356
627.30	52.539
627.63	51.473
627.96	52.650
628.29	51.804
628.62	53.491
628.95	52.605
629.28	54.032
629.61	51.545
629.94	52.297
630.26	52.273
630.59	54.214
630.92	53.641
631.25	50.974
631.58	53.524
631.91	53.947
632.24	52.638
632.57	52.500
632.90	53.855
633.23	53.647
633.56	53.023
633.89	52.035
634.22	55.309
634.55	53.113
634.88	53.512
635.20	53.077
635.53	53.600
635.86	52.926
636.19	55.110
636.52	52.041
636.85	52.233
637.18	51.824
637.51	53.459
637.83	54.271
638.16	56.071
638.49	54.360
638.82	53.421
639.15	53.460
639.48	54.470
639.81	53.556
640.13	55.556
640.46	53.207
640.79	56.112
641.12	54.505
641.45	53.153
641.77	53.037
642.10	54.818
642.43	51.929
642.76	54.785
643.09	55.412
643.41	52.913
643.74	52.554
644.07	56.814
644.40	52.872
644.73	56.392
645.05	53.188
645.38	53.439
645.71	53.014
646.04	57.271
646.36	56.206
646.69	58.813
647.02	57.278
647.35	55.224
647.67	55.027
648.00	56.716
648.33	54.437
648.66	56.949
648.98	52.596
649.31	52.893
649.64	51.491
649.96	51.702
650.29	53.492
650.62	54.188
650.94	56.296
651.27	53.445
651.60	54.955
651.92	56.294
652.25	53.819
652.58	53.167
652.90	56.089
653.23	52.941
653.56	53.807
653.88	55.155
654.21	52.014
654.54	53.480
654.86	51.783
655.19	51.462
655.52	54.025
655.84	47.744
656.17	53.317
656.49	71.180
656.82	73.773
657.15	56.556
657.47	41.674
657.80	31.535
658.13	30.661
658.45	48.399
658.78	48.374
659.10	46.156
659.43	46.618
659.75	48.249
660.08	47.862
660.41	51.073
660.73	49.724
661.06	53.553
661.38	54.403
661.71	54.209
662.03	56.652
662.36	56.044
662.68	55.973
663.01	58.515
663.33	53.364
663.66	56.512
663.98	53.488
664.31	56.930
664.63	53.687
664.96	50.217
665.28	53.201
665.61	52.381
665.93	53.261
666.26	59.653
666.58	50.559
666.91	57.412
667.23	56.132
667.56	54.976
667.88	53.237
668.21	55.609
668.53	58.629
668.86	56.132
669.18	52.358
669.50	52.300
669.83	52.791
670.15	55.012
670.48	55.742
670.80	55.760
671.13	54.810
671.45	50.913
671.77	55.150
672.10	53.069
672.42	50.000
672.75	51.865
673.07	55.635
673.39	55.413
673.72	54.043
674.04	53.125
674.37	54.873
674.69	50.964
675.01	55.333
675.34	54.279
675.66	54.167
675.98	54.324
676.31	54.587
676.63	52.969
676.95	53.636
677.28	54.353
677.60	54.458
677.92	56.193
678.25	54.267
678.57	56.277
678.89	53.151
679.22	57.271
679.54	53.012
679.86	52.485
680.18	54.951
680.51	54.545
680.83	51.093
681.15	53.400
681.48	54.508
681.80	52.479
682.12	51.411
682.44	51.674
682.77	54.746
683.09	54.920
683.41	51.818
683.73	55.300
684.06	53.319
684.38	52.258
684.70	55.773
685.02	52.905
685.34	50.791
685.67	50.281
685.99	51.537
686.31	52.035
686.63	50.278
686.96	50.570
687.28	49.697
687.60	50.000
687.92	52.525
688.24	53.226
688.56	54.148
688.89	52.679
689.21	54.444
689.53	54.524
689.85	52.093
690.17	52.679
690.49	52.482
690.82	53.398
691.14	54.048
691.46	54.673
691.78	52.703
692.10	54.624
692.42	49.567
692.74	52.778
693.06	53.829
693.39	51.131
693.71	53.167
694.03	54.042
694.35	55.140
694.67	52.778
694.99	51.175
695.31	59.008
695.63	53.250
695.95	50.505
696.27	49.223
696.59	52.500
696.91	50.700
697.23	50.386
697.56	51.485
697.88	53.978
698.20	54.442
698.52	52.000
698.84	50.239
699.16	51.250
699.48	53.133
699.80	53.846
700.12	52.561
700.44	53.501
700.76	54.360
701.08	52.121
701.40	53.313
701.72	58.951
702.04	58.086
702.36	59.197
702.68	52.252
703.00	56.970
703.32	56.012
703.64	51.977
703.96	52.174
704.28	53.374
704.60	53.968
704.91	50.789
705.23	57.475
705.55	53.710
705.87	61.372
706.19	57.778
706.51	52.921
706.83	54.341
707.15	51.713
707.47	54.622
707.79	50.000
708.11	53.000
708.43	56.250
708.74	54.005
709.06	55.493
709.38	53.823
709.70	54.734
710.02	50.318
710.34	51.703
710.66	50.321
710.98	53.642
711.29	56.393
711.61	56.610
711.93	54.397
712.25	54.983
712.57	57.143
712.89	54.104
713.20	56.747
713.52	53.310
713.84	58.362
714.16	51.546
714.48	52.581
714.80	55.769
715.11	51.368
715.43	51.724
715.75	51.333
716.07	53.156
716.39	54.027
716.70	51.661
717.02	52.290
717.34	57.895
717.66	51.770
717.97	53.478
718.29	58.577
718.61	51.181
718.93	53.101
719.24	57.034
719.56	59.438
719.88	52.234
720.20	50.379
720.51	49.808
720.83	52.510
721.15	60.504
721.46	48.790
721.78	54.941
722.10	47.955
722.42	53.942
722.73	53.469
723.05	57.551
723.37	53.814
723.68	65.315
724.00	58.120
724.32	58.222
724.63	47.727
724.95	54.148
725.27	58.065
725.58	50.847
725.90	52.381
726.22	53.282
726.53	50.169
726.85	57.303
727.16	55.849
727.48	50.607
727.80	54.251
728.11	53.390
728.43	47.843
728.74	51.613
729.06	51.200
729.38	56.391
729.69	50.199
730.01	49.615
730.32	50.746
730.64	48.763
730.96	53.962
731.27	48.667
731.59	49.492
731.90	49.045
732.22	48.580
732.53	54.153
732.85	50.709
733.16	56.566
733.48	48.561
733.80	51.087
734.11	54.237
734.43	54.296
734.74	53.636
735.06	53.746
735.37	51.057
735.69	57.239
736.00	49.477
736.32	48.658
736.63	51.056
736.95	51.877
737.26	49.822
737.58	45.638
737.89	50.549
738.21	54.511
738.52	52.263
738.83	51.528
739.15	49.345
739.46	55.118
739.78	52.015
740.09	47.059
740.41	54.710
740.72	51.181
741.04	50.607
741.35	52.340
741.66	52.133
741.98	52.041
742.29	54.950
742.61	59.162
742.92	42.180
743.23	44.444
743.55	55.204
743.86	50.718
744.18	51.196
744.49	51.596
744.80	51.630
745.12	54.545
745.43	48.293
745.74	61.458
746.06	51.220
746.37	55.497
746.68	52.607
747.00	54.787
747.31	59.701
747.62	50.971
747.94	51.675
748.25	50.990
748.56	53.552
748.88	54.974
749.19	50.532
749.50	54.187
749.82	52.358
750.13	49.541
750.44	50.752
750.75	55.224
751.07	52.555
751.38	55.556
751.69	49.804
752.01	52.326
752.32	55.378
752.63	54.150
752.94	54.310
753.26	54.393
753.57	50.226
753.88	52.212
754.19	48.750
754.51	52.066
754.82	49.393
755.13	57.083
755.44	52.823
755.75	57.812
756.07	53.307
756.38	48.679
756.69	50.192
757.00	51.000
757.31	50.000
757.63	50.610
757.94	48.333
758.25	50.959
758.56	48.138
758.87	45.042
759.18	47.664
759.50	50.545
759.81	52.174
760.12	51.613
760.43	46.061
760.74	51.543
761.05	48.923
761.36	47.159
761.67	51.515
761.99	53.061
762.30	49.818
762.61	51.383
762.92	49.321
763.23	49.099
763.54	52.804
763.85	57.203
764.16	48.548
764.47	46.774
764.78	53.114
765.10	51.852
765.41	51.104
765.72	48.889
766.03	49.248
766.34	47.810
766.65	53.386
766.96	59.091
767.27	54.787
767.58	49.425
767.89	58.156
768.20	50.000
768.51	47.802
768.82	43.350
769.13	51.152
769.44	49.356
769.75	53.881
770.06	44.828
770.37	55.288
770.68	50.761
770.99	48.869
771.30	57.353
771.61	45.701
771.92	51.724
772.23	52.217
772.54	53.226
772.85	45.679
773.16	50.562
773.47	59.477
773.78	53.595
774.09	49.701
774.39	50.000
774.70	52.229
775.01	57.241
775.32	51.429
775.63	47.934
775.94	55.725
776.25	54.331
776.56	44.167
776.87	57.692
777.18	52.137
777.48	51.724
777.79	48.696
778.10	58.095
778.41	54.955
778.72	50.794
779.03	48.120
779.34	50.355
779.65	58.904
779.95	49.315
780.26	44.828
780.57	40.650
780.88	49.606
781.19	37.069
781.50	55.039
781.80	42.604
782.11	45.283
782.42	60.000
782.73	51.079
783.04	48.889
783.34	44.444
783.65	41.026
783.96	61.475
784.27	45.517
784.57	52.033
784.88	50.000
785.19	63.000
785.50	60.000
785.81	60.345
786.11	54.310
786.42	42.718
786.73	59.091
787.04	47.959
787.34	53.571
787.65	52.381
787.96	56.637
788.26	61.818
788.57	55.556
788.88	50.000
789.19	48.413
789.49	48.696
789.80	55.102
790.11	49.495
790.41	28.182
790.72	63.043
791.03	50.000
791.33	47.500
791.64	50.000
791.95	46.512
792.25	43.617
792.56	43.820
792.87	50.685
793.17	43.478
793.48	29.333
793.79	47.500
794.09	63.750
794.40	47.170
794.70	45.631
795.01	46.341
795.32	43.590
795.62	44.762
795.93	53.922
796.23	57.547
796.54	52.083
796.85	44.118
797.15	56.338
797.46	58.333
797.76	62.121
798.07	47.674
798.37	34.211
798.68	42.424
798.99	41.975
799.29	52.857
799.60	44.928
799.90	45.333
800.21	47.541
800.51	60.000
800.82	67.797
801.12	43.478
801.43	47.541
801.73	53.968
802.04	60.000
802.34	35.821
802.65	78.846
802.95	50.000
803.26	46.154
803.56	50.980
803.87	21.739
804.17	28.000
804.48	65.079
804.78	48.148
805.09	60.870
805.39	60.000
805.70	46.296
806.00	31.579
806.30	39.437
806.61	50.000
806.91	43.056
807.22	63.158
807.52	65.333
807.83	47.273
808.13	65.278
808.43	72.059
808.74	61.194
809.04	38.983
809.35	42.308
809.65	20.313
809.95	21.622
810.26	27.273
810.56	45.205
810.86	47.619
811.17	48.000
811.47	67.347
811.77	47.368
812.08	47.727
812.38	43.396
812.69	37.500
812.99	42.424
813.29	57.895
813.59	34.286
813.90	50.000
814.20	38.462
814.50	61.538
814.81	32.075
815.11	36.170
815.41	57.627
815.72	61.905
816.02	37.255
816.32	45.833
816.62	29.268
816.93	24.324
817.23	25.714
817.53	52.083
817.84	60.870
818.14	28.846
818.44	47.368
818.74	54.348
819.04	10.000
819.35	35.135
819.65	58.824
819.95	38.889
820.25	26.190
820.56	62.500
820.86	3.448
821.16	65.000
821.46	40.426
821.76	70.000
822.07	32.558
822.37	27.027
822.67	40.625
822.97	66.667
823.27	82.143
823.57	56.000
823.88	55.556
824.18	50.000
824.48	26.471
824.78	51.613
825.08	52.174
825.38	39.394
825.69	12.500
825.99	42.105
826.29	25.000
826.59	66.667
826.89	9.524
827.19	54.348
827.49	30.000
827.79	34.286
828.09	42.857
828.39	60.606
828.70	75.676
829.00	50.000
829.30	57.143
829.60	33.333
829.90	68.750
830.20	44.737
830.50	40.741
830.80	73.913
831.10	54.545
831.40	63.636
831.70	32.258
832.00	42.857
832.30	28.571
832.60	58.333
832.90	31.034
833.20	40.000
833.50	48.485
833.80	44.444
834.10	69.231
834.40	37.500
834.70	44.444
835.00	63.158
835.30	84.615
835.60	80.000
835.90	48.387
836.20	72.727
836.50	67.857
836.80	15.385
837.10	35.714
837.40	-33.333
837.70	36.364
838.00	-18.182
838.30	21.739
838.60	0.000
838.90	54.545
839.19	3.571
839.49	40.000
839.79	-15.385
840.09	83.333
840.39	60.714
840.69	46.429
840.99	11.538
841.29	-15.789
841.59	10.000
841.88	-45.455
842.18	120.000
842.48	-12.500
842.78	20.000
843.08	51.852
843.38	-10.000
843.68	21.739
843.97	60.000
844.27	-13.333
844.57	35.000
844.87	27.778
845.17	-19.048
845.47	73.333
845.76	61.905
846.06	41.176
846.36	-20.000
846.66	42.857
846.96	20.000
847.25	-62.500
847.55	71.429
847.85	0.000
848.15	-13.636
848.44	-333.333
848.74	70.000
849.04	48.148
849.34	36.364
849.63	-116.667
849.93	0.000
850.23	22.222
850.53	50.000
850.82	23.077
851.12	0.000
851.42	53.333
851.71	-30.769
852.01	21.429
852.31	150.000
852.61	9.091
852.90	15.000
853.20	10.526
853.50	-33.333
853.79	34.783
854.09	45.833
854.39	26.316
854.68	25.000
854.98	64.516
855.28	65.385
855.57	35.000
855.87	27.778
856.17	59.259
856.46	7.143
856.76	80.000
857.05	144.444
857.35	36.000
857.65	38.889
857.94	-15.385
858.24	48.276
858.53	66.667
858.83	88.889
859.13	31.818
859.42	-13.043
859.72	75.000
860.01	-333.333
860.31	20.000
860.60	19.048
860.90	-33.333
861.20	-40.000
861.49	150.000
861.79	-53.333
862.08	25.000
862.38	86.667
862.67	-120.000
862.97	133.333
863.26	58.333
863.56	-11.111
863.85	-166.667
864.15	16.667
864.44	-30.000
864.74	92.857
865.03	275.000
865.33	20.000
865.62	83.333
865.92	125.000
866.21	-83.333
866.51	56.250
866.80	-18.182
867.10	50.000
867.39	108.333
867.69	0.000
867.98	30.769
868.27	66.667
868.57	20.000
868.86	44.444
869.16	23.077
869.45	26.667
869.75	300.000
870.04	0.000
870.33	-57.143
870.63	19.048
870.92	133.333
871.22	20.000
871.51	-400.000
871.80	122.222
872.10	233.333
>>>>>End Processed Spectral Data<<<<<
