SpectraSuite Data File
++++++++++++++++++++++++++++++++++++
Date: Fri May 15 17:09:18 PDT 2015
User: schluterlab
Dark Spectrum Present: Yes
Reference Spectrum Present: Yes
Number of Sampled Component Spectra: 1
Spectrometers: USB2E3373
Integration Time (usec): 3000 (USB2E3373)
Spectra Averaged: 3 (USB2E3373)
Boxcar Smoothing: 0 (USB2E3373)
Correct for Electrical Dark: No (USB2E3373)
Strobe/Lamp Enabled: No (USB2E3373)
Correct for Detector Non-linearity: No (USB2E3373)
Correct for Stray Light: No (USB2E3373)
Number of Pixels in Processed Spectrum: 2048
>>>>>Begin Processed Spectral Data<<<<<
178.53	0.000
178.91	0.000
179.29	200.000
179.67	200.000
180.04	-0.000
180.42	300.000
180.80	400.000
181.18	-133.333
181.56	-150.000
181.94	50.000
182.31	200.000
182.69	20.000
183.07	-366.667
183.45	0.000
183.83	16.667
184.20	-18.182
184.58	55.556
184.96	-75.000
185.34	-300.000
185.72	700.000
186.09	61.538
186.47	200.000
186.85	-133.333
187.23	100.000
187.61	-600.000
187.98	166.667
188.36	44.444
188.74	33.333
189.12	76.471
189.49	61.111
189.87	0.000
190.25	28.571
190.63	350.000
191.00	-33.333
191.38	36.842
191.76	950.000
192.14	-150.000
192.51	1100.000
192.89	22.222
193.27	-57.143
193.65	-50.000
194.02	-0.000
194.40	100.000
194.78	-25.000
195.15	58.333
195.53	-50.000
195.91	225.000
196.29	125.000
196.66	-7.692
197.04	-14.286
197.42	44.444
197.79	-266.667
198.17	-23.077
198.55	500.000
198.92	66.667
199.30	1100.000
199.68	80.000
200.05	-33.333
200.43	0.000
200.81	33.333
201.18	0.000
201.56	-0.000
201.94	100.000
202.31	-0.000
202.69	-100.000
203.07	-50.000
203.44	700.000
203.82	0.000
204.19	107.143
204.57	-400.000
204.95	37.500
205.32	90.000
205.70	157.143
206.08	25.000
206.45	222.222
206.83	128.571
207.20	128.571
207.58	-600.000
207.96	66.667
208.33	40.000
208.71	100.000
209.08	-183.333
209.46	500.000
209.84	220.000
210.21	400.000
210.59	71.429
210.96	183.333
211.34	-25.000
211.71	86.667
212.09	-14.286
212.46	-1200.000
212.84	0.000
213.22	140.000
213.59	-250.000
213.97	84.615
214.34	54.545
214.72	0.000
215.09	250.000
215.47	169.231
215.84	-36.364
216.22	66.667
216.59	-125.000
216.97	550.000
217.34	175.000
217.72	60.000
218.09	75.000
218.47	62.500
218.84	200.000
219.22	-33.333
219.59	100.000
219.97	400.000
220.34	150.000
220.72	128.571
221.09	-75.000
221.47	700.000
221.84	-200.000
222.22	-400.000
222.59	54.545
222.97	91.667
223.34	433.333
223.72	28.571
224.09	42.857
224.46	35.714
224.84	166.667
225.21	110.000
225.59	20.000
225.96	-50.000
226.34	175.000
226.71	71.429
227.08	133.333
227.46	137.500
227.83	-250.000
228.21	122.222
228.58	100.000
228.95	175.000
229.33	100.000
229.70	87.500
230.08	-50.000
230.45	0.000
230.82	57.143
231.20	-20.000
231.57	85.714
231.95	42.857
232.32	0.000
232.69	78.571
233.07	133.333
233.44	220.000
233.81	10.000
234.19	22.222
234.56	35.294
234.93	550.000
235.31	100.000
235.68	-60.000
236.05	23.077
236.43	50.000
236.80	64.706
237.17	31.250
237.55	30.000
237.92	14.815
238.29	13.889
238.67	36.667
239.04	23.529
239.41	29.268
239.79	16.667
240.16	31.707
240.53	5.263
240.91	15.217
241.28	19.048
241.65	42.857
242.02	26.027
242.40	23.333
242.77	23.729
243.14	15.152
243.51	31.250
243.89	33.333
244.26	21.839
244.63	8.333
245.00	22.680
245.38	10.309
245.75	17.978
246.12	15.517
246.49	19.008
246.87	25.000
247.24	12.605
247.61	12.281
247.98	17.886
248.36	14.375
248.73	22.368
249.10	22.078
249.47	18.354
249.84	24.837
250.22	18.235
250.59	20.261
250.96	22.535
251.33	19.186
251.70	17.059
252.08	17.259
252.45	18.812
252.82	20.101
253.19	17.972
253.56	14.486
253.94	19.820
254.31	19.565
254.68	20.175
255.05	14.567
255.42	20.961
255.79	18.533
256.16	16.342
256.54	17.910
256.91	14.829
257.28	17.844
257.65	15.730
258.02	18.794
258.39	16.498
258.76	19.414
259.14	17.276
259.51	17.799
259.88	16.495
260.25	16.993
260.62	19.097
260.99	14.915
261.36	15.411
261.73	16.139
262.10	18.541
262.47	16.258
262.85	14.420
263.22	14.154
263.59	19.938
263.96	19.255
264.33	16.061
264.70	19.048
265.07	14.881
265.44	17.564
265.81	18.079
266.18	15.027
266.55	18.252
266.92	17.617
267.29	15.666
267.66	17.391
268.03	15.707
268.40	15.927
268.77	19.251
269.14	15.348
269.51	16.710
269.88	16.958
270.25	15.306
270.62	17.317
270.99	15.857
271.36	16.381
271.73	19.249
272.10	16.545
272.47	17.258
272.84	17.574
273.21	16.009
273.58	18.795
273.95	18.764
274.32	14.781
274.69	15.611
275.06	17.857
275.43	13.832
275.80	15.011
276.17	13.793
276.54	16.488
276.91	14.035
277.28	16.812
277.65	16.942
278.02	18.085
278.39	15.755
278.76	17.400
279.13	12.863
279.50	18.697
279.87	17.927
280.23	14.624
280.60	17.544
280.97	16.768
281.34	14.038
281.71	16.016
282.08	14.315
282.45	15.264
282.82	15.830
283.19	15.667
283.56	15.800
283.92	14.042
284.29	14.808
284.66	15.504
285.03	14.538
285.40	14.745
285.77	15.817
286.14	14.982
286.51	16.790
286.87	13.711
287.24	16.022
287.61	15.697
287.98	16.842
288.35	13.692
288.72	16.112
289.08	14.757
289.45	15.290
289.82	12.937
290.19	13.652
290.56	12.693
290.93	14.310
291.29	11.864
291.66	14.016
292.03	12.759
292.40	13.871
292.77	13.557
293.13	11.851
293.50	11.381
293.87	11.908
294.24	12.828
294.60	11.773
294.97	13.542
295.34	12.270
295.71	12.817
296.08	13.901
296.44	9.957
296.81	12.361
297.18	12.754
297.55	13.686
297.91	11.507
298.28	13.588
298.65	12.076
299.02	13.342
299.38	10.123
299.75	11.586
300.12	11.387
300.48	10.277
300.85	13.942
301.22	10.130
301.59	8.947
301.95	12.025
302.32	11.933
302.69	11.443
303.05	10.149
303.42	11.333
303.79	10.514
304.15	11.470
304.52	9.631
304.89	9.474
305.25	10.654
305.62	9.568
305.99	10.643
306.35	10.520
306.72	9.899
307.09	11.174
307.45	10.907
307.82	8.912
308.19	10.453
308.55	10.578
308.92	11.438
309.29	9.832
309.65	11.087
310.02	9.351
310.38	10.867
310.75	10.492
311.12	11.195
311.48	10.392
311.85	10.262
312.22	9.599
312.58	10.616
312.95	10.993
313.31	8.696
313.68	10.890
314.05	9.796
314.41	10.825
314.78	11.340
315.14	12.025
315.51	11.077
315.87	10.758
316.24	12.841
316.61	12.106
316.97	12.996
317.34	12.207
317.70	12.333
318.07	12.115
318.43	11.176
318.80	13.068
319.16	13.672
319.53	15.290
319.89	14.370
320.26	13.462
320.62	14.142
320.99	13.466
321.35	13.772
321.72	15.161
322.08	15.911
322.45	14.619
322.81	15.422
323.18	14.720
323.54	16.120
323.91	15.579
324.27	17.285
324.64	16.667
325.00	17.883
325.37	18.365
325.73	17.860
326.10	18.892
326.46	18.386
326.83	20.122
327.19	20.052
327.56	20.243
327.92	20.070
328.29	19.464
328.65	20.566
329.01	22.335
329.38	23.041
329.74	21.058
330.11	21.409
330.47	21.800
330.84	21.923
331.20	23.764
331.56	23.704
331.93	24.201
332.29	24.015
332.66	22.986
333.02	23.606
333.38	24.748
333.75	25.275
334.11	23.187
334.48	24.841
334.84	24.634
335.20	25.252
335.57	23.935
335.93	23.848
336.29	24.401
336.66	25.250
337.02	24.071
337.38	25.093
337.75	25.091
338.11	25.879
338.47	25.456
338.84	25.231
339.20	25.137
339.56	25.413
339.93	26.231
340.29	25.229
340.65	26.703
341.02	26.241
341.38	24.779
341.74	26.060
342.11	25.130
342.47	26.157
342.83	26.125
343.20	25.523
343.56	24.957
343.92	25.864
344.28	27.071
344.65	25.130
345.01	25.065
345.37	25.820
345.73	26.360
346.10	27.696
346.46	25.399
346.82	24.632
347.19	25.436
347.55	24.812
347.91	25.485
348.27	25.061
348.63	25.468
349.00	25.595
349.36	25.603
349.72	26.119
350.08	26.311
350.45	26.576
350.81	25.249
351.17	25.081
351.53	25.061
351.89	25.764
352.26	24.240
352.62	26.532
352.98	25.542
353.34	24.879
353.70	26.052
354.07	25.403
354.43	25.620
354.79	25.599
355.15	26.825
355.51	26.187
355.87	26.537
356.24	25.449
356.60	25.303
356.96	26.746
357.32	26.358
357.68	24.785
358.04	25.929
358.40	25.402
358.77	27.033
359.13	25.701
359.49	25.347
359.85	25.975
360.21	25.279
360.57	25.019
360.93	26.853
361.29	25.755
361.66	26.489
362.02	27.879
362.38	27.266
362.74	25.738
363.10	27.239
363.46	27.057
363.82	27.348
364.18	26.273
364.54	25.735
364.90	26.523
365.26	26.201
365.62	27.664
365.98	26.393
366.35	27.968
366.71	26.903
367.07	27.576
367.43	26.959
367.79	26.572
368.15	27.351
368.51	26.511
368.87	27.854
369.23	25.776
369.59	26.968
369.95	27.493
370.31	26.517
370.67	26.940
371.03	28.006
371.39	27.206
371.75	28.498
372.11	28.031
372.47	27.071
372.83	28.176
373.19	27.603
373.55	27.581
373.91	26.926
374.27	28.349
374.63	29.361
374.99	27.518
375.35	29.039
375.71	28.462
376.07	28.792
376.42	29.932
376.78	29.866
377.14	29.045
377.50	28.486
377.86	30.254
378.22	30.313
378.58	29.231
378.94	29.112
379.30	29.570
379.66	30.219
380.02	29.185
380.38	28.911
380.74	30.042
381.09	31.043
381.45	30.214
381.81	30.598
382.17	30.330
382.53	30.106
382.89	30.760
383.25	31.238
383.61	31.463
383.97	31.365
384.32	30.707
384.68	30.650
385.04	30.270
385.40	30.678
385.76	32.327
386.12	31.759
386.48	31.673
386.83	31.642
387.19	31.563
387.55	32.058
387.91	31.540
388.27	31.685
388.62	32.536
388.98	32.290
389.34	32.355
389.70	33.002
390.06	31.340
390.42	31.995
390.77	33.159
391.13	31.967
391.49	32.600
391.85	32.424
392.20	32.517
392.56	32.231
392.92	32.355
393.28	32.960
393.64	31.952
393.99	33.981
394.35	31.752
394.71	33.142
395.07	32.432
395.42	32.301
395.78	34.007
396.14	32.661
396.50	33.354
396.85	33.548
397.21	33.271
397.57	32.790
397.92	32.355
398.28	32.931
398.64	31.687
399.00	32.957
399.35	32.280
399.71	33.659
400.07	33.071
400.42	32.681
400.78	33.742
401.14	32.305
401.49	32.102
401.85	32.419
402.21	32.892
402.57	33.312
402.92	32.371
403.28	32.957
403.63	33.039
403.99	32.844
404.35	32.730
404.70	32.024
405.06	33.373
405.42	32.940
405.77	32.714
406.13	32.189
406.49	32.860
406.84	33.007
407.20	33.113
407.55	32.196
407.91	31.885
408.27	32.250
408.62	32.923
408.98	32.039
409.34	32.466
409.69	32.171
410.05	32.820
410.40	32.037
410.76	32.630
411.11	32.000
411.47	32.479
411.83	32.078
412.18	33.269
412.54	32.584
412.89	31.897
413.25	32.732
413.60	32.174
413.96	31.779
414.31	31.829
414.67	31.687
415.03	31.625
415.38	32.245
415.74	33.029
416.09	33.573
416.45	32.478
416.80	32.650
417.16	33.840
417.51	32.378
417.87	31.877
418.22	33.031
418.58	33.244
418.93	33.668
419.29	31.370
419.64	32.145
420.00	34.320
420.35	33.731
420.71	33.657
421.06	32.965
421.42	32.572
421.77	33.526
422.12	33.939
422.48	33.243
422.83	32.425
423.19	33.352
423.54	32.981
423.90	33.216
424.25	33.295
424.61	33.721
424.96	34.030
425.31	33.969
425.67	33.862
426.02	34.865
426.38	34.252
426.73	34.564
427.09	34.051
427.44	33.588
427.79	33.412
428.15	34.648
428.50	35.009
428.85	33.538
429.21	35.088
429.56	34.447
429.92	33.950
430.27	35.288
430.62	34.083
430.98	33.811
431.33	34.858
431.68	34.642
432.04	34.880
432.39	34.683
432.74	34.215
433.10	35.805
433.45	35.125
433.80	34.823
434.16	34.848
434.51	34.839
434.86	35.424
435.22	34.773
435.57	35.122
435.92	35.689
436.28	34.705
436.63	35.710
436.98	34.878
437.34	35.511
437.69	36.374
438.04	35.613
438.39	35.370
438.75	36.430
439.10	35.597
439.45	37.127
439.81	35.474
440.16	36.817
440.51	37.313
440.86	37.583
441.22	36.425
441.57	36.645
441.92	37.146
442.27	37.694
442.63	36.777
442.98	36.703
443.33	36.227
443.68	37.294
444.03	37.457
444.39	37.875
444.74	37.347
445.09	37.249
445.44	36.752
445.79	38.164
446.15	36.894
446.50	36.938
446.85	37.248
447.20	36.757
447.55	37.779
447.91	38.184
448.26	38.304
448.61	37.191
448.96	37.636
449.31	37.514
449.66	37.515
450.02	36.965
450.37	38.115
450.72	37.228
451.07	39.430
451.42	36.829
451.77	37.734
452.12	37.739
452.47	37.411
452.83	38.339
453.18	36.812
453.53	38.369
453.88	38.919
454.23	37.062
454.58	38.602
454.93	38.853
455.28	37.905
455.63	38.686
455.98	38.906
456.34	38.442
456.69	38.310
457.04	38.563
457.39	38.761
457.74	38.815
458.09	38.670
458.44	39.146
458.79	38.095
459.14	38.444
459.49	39.164
459.84	39.368
460.19	39.138
460.54	39.364
460.89	39.545
461.24	39.627
461.59	39.905
461.94	38.176
462.29	40.109
462.64	38.405
462.99	39.201
463.34	38.873
463.69	38.481
464.04	38.983
464.39	38.508
464.74	40.061
465.09	38.989
465.44	39.411
465.79	39.002
466.14	39.054
466.49	39.390
466.84	39.500
467.19	38.861
467.54	39.464
467.89	39.735
468.24	38.443
468.59	39.873
468.94	37.714
469.29	38.164
469.64	39.303
469.99	40.154
470.34	38.840
470.68	39.523
471.03	39.915
471.38	40.014
471.73	39.636
472.08	38.602
472.43	39.060
472.78	38.177
473.13	39.320
473.48	40.456
473.83	39.664
474.17	40.220
474.52	39.821
474.87	41.455
475.22	39.597
475.57	39.639
475.92	39.934
476.27	39.348
476.61	40.104
476.96	38.762
477.31	39.156
477.66	39.270
478.01	39.697
478.36	39.434
478.70	39.913
479.05	39.835
479.40	40.223
479.75	38.999
480.10	39.324
480.45	39.900
480.79	40.836
481.14	39.959
481.49	39.113
481.84	40.589
482.19	39.897
482.53	39.520
482.88	39.332
483.23	39.539
483.58	39.528
483.92	38.335
484.27	38.605
484.62	39.310
484.97	38.184
485.31	38.728
485.66	39.038
486.01	39.285
486.36	39.042
486.70	39.027
487.05	39.044
487.40	38.521
487.75	39.042
488.09	38.443
488.44	38.171
488.79	38.887
489.13	39.623
489.48	38.649
489.83	40.269
490.17	38.697
490.52	39.076
490.87	38.917
491.22	40.353
491.56	40.417
491.91	39.818
492.26	39.912
492.60	39.107
492.95	41.072
493.30	39.912
493.64	39.194
493.99	39.179
494.34	39.757
494.68	39.762
495.03	39.611
495.37	40.383
495.72	40.787
496.07	40.244
496.41	39.811
496.76	40.350
497.11	38.891
497.45	40.907
497.80	40.464
498.14	39.493
498.49	40.731
498.84	39.571
499.18	39.910
499.53	40.228
499.87	39.689
500.22	39.367
500.56	40.292
500.91	39.659
501.26	40.880
501.60	39.695
501.95	40.757
502.29	40.484
502.64	40.782
502.98	40.405
503.33	40.058
503.67	39.855
504.02	41.105
504.36	40.821
504.71	39.495
505.06	40.211
505.40	41.066
505.75	40.722
506.09	40.598
506.44	41.992
506.78	41.071
507.13	40.848
507.47	39.217
507.82	40.224
508.16	40.412
508.51	41.343
508.85	40.764
509.19	40.713
509.54	40.590
509.88	39.698
510.23	39.968
510.57	41.048
510.92	39.819
511.26	39.280
511.61	40.979
511.95	41.205
512.30	40.244
512.64	40.456
512.98	40.427
513.33	41.522
513.67	40.307
514.02	42.277
514.36	41.600
514.70	41.900
515.05	41.246
515.39	42.208
515.74	41.976
516.08	41.602
516.42	42.344
516.77	41.837
517.11	41.840
517.46	41.831
517.80	41.478
518.14	41.764
518.49	41.647
518.83	42.163
519.17	41.358
519.52	41.563
519.86	41.537
520.20	42.467
520.55	43.089
520.89	42.221
521.23	41.102
521.58	42.208
521.92	41.731
522.26	42.290
522.61	41.623
522.95	43.311
523.29	41.995
523.64	42.821
523.98	42.320
524.32	41.173
524.66	42.702
525.01	42.857
525.35	42.709
525.69	42.020
526.04	42.659
526.38	43.709
526.72	40.615
527.06	42.023
527.41	41.557
527.75	41.957
528.09	42.791
528.43	44.159
528.78	42.376
529.12	41.484
529.46	42.820
529.80	42.369
530.15	43.168
530.49	41.953
530.83	43.844
531.17	41.907
531.51	42.613
531.86	42.896
532.20	43.424
532.54	41.865
532.88	44.148
533.22	43.481
533.57	43.512
533.91	44.256
534.25	42.448
534.59	42.656
534.93	42.291
535.27	41.180
535.62	42.774
535.96	42.596
536.30	43.997
536.64	42.867
536.98	44.042
537.32	44.097
537.66	43.689
538.01	43.986
538.35	42.996
538.69	42.676
539.03	42.174
539.37	42.261
539.71	43.626
540.05	41.480
540.39	43.698
540.73	42.329
541.07	43.094
541.42	42.876
541.76	43.634
542.10	43.221
542.44	43.155
542.78	42.189
543.12	43.887
543.46	42.837
543.80	43.095
544.14	41.522
544.48	41.972
544.82	43.472
545.16	43.306
545.50	42.924
545.84	42.493
546.18	44.043
546.52	42.394
546.86	43.566
547.20	44.707
547.54	42.615
547.88	42.935
548.22	41.289
548.56	43.668
548.90	43.531
549.24	43.113
549.58	43.583
549.92	42.173
550.26	43.883
550.60	44.238
550.94	42.942
551.28	43.277
551.62	44.000
551.96	43.158
552.30	44.444
552.64	43.371
552.98	43.741
553.32	43.866
553.66	43.759
554.00	44.818
554.34	43.501
554.68	43.142
555.02	44.122
555.36	43.979
555.69	43.443
556.03	42.969
556.37	42.420
556.71	44.260
557.05	44.519
557.39	42.900
557.73	43.703
558.07	44.118
558.41	43.645
558.75	45.051
559.08	45.075
559.42	44.286
559.76	44.596
560.10	44.495
560.44	43.857
560.78	45.035
561.12	43.935
561.45	45.467
561.79	44.818
562.13	44.216
562.47	43.237
562.81	44.524
563.15	42.877
563.48	45.332
563.82	45.299
564.16	45.195
564.50	44.122
564.84	43.507
565.17	43.461
565.51	45.423
565.85	44.925
566.19	44.761
566.52	44.638
566.86	44.987
567.20	44.521
567.54	44.708
567.88	44.757
568.21	45.419
568.55	44.348
568.89	45.791
569.23	45.017
569.56	44.702
569.90	44.214
570.24	43.952
570.57	44.655
570.91	43.639
571.25	43.736
571.59	43.258
571.92	42.904
572.26	43.297
572.60	43.194
572.93	42.924
573.27	42.351
573.61	43.884
573.95	43.228
574.28	43.008
574.62	42.817
574.96	42.882
575.29	42.630
575.63	41.306
575.97	42.559
576.30	42.311
576.64	42.252
576.98	43.372
577.31	43.426
577.65	43.257
577.98	43.597
578.32	42.961
578.66	42.123
578.99	42.606
579.33	42.793
579.67	42.392
580.00	42.658
580.34	42.786
580.67	42.730
581.01	43.444
581.35	43.088
581.68	43.240
582.02	43.237
582.35	43.045
582.69	43.670
583.02	43.324
583.36	42.986
583.70	43.718
584.03	43.953
584.37	44.720
584.70	43.516
585.04	43.342
585.37	42.899
585.71	43.866
586.04	43.822
586.38	43.745
586.72	44.390
587.05	43.790
587.39	44.702
587.72	44.505
588.06	43.620
588.39	44.261
588.73	44.567
589.06	44.847
589.40	44.037
589.73	44.323
590.07	44.902
590.40	44.930
590.73	45.634
591.07	45.081
591.40	44.524
591.74	45.249
592.07	45.547
592.41	45.981
592.74	45.321
593.08	43.870
593.41	45.272
593.75	45.110
594.08	44.113
594.41	44.032
594.75	45.000
595.08	44.987
595.42	45.602
595.75	45.663
596.09	45.426
596.42	45.515
596.75	45.115
597.09	44.875
597.42	45.664
597.75	45.717
598.09	44.907
598.42	44.449
598.76	44.873
599.09	45.112
599.42	45.320
599.76	44.658
600.09	44.570
600.42	45.110
600.76	44.465
601.09	44.695
601.42	44.810
601.76	44.621
602.09	45.627
602.42	45.998
602.76	45.076
603.09	45.266
603.42	46.112
603.76	45.363
604.09	45.079
604.42	45.305
604.76	45.750
605.09	44.790
605.42	46.005
605.75	45.534
606.09	45.053
606.42	44.370
606.75	45.238
607.09	45.714
607.42	44.971
607.75	45.826
608.08	44.385
608.42	44.724
608.75	45.928
609.08	46.836
609.41	45.279
609.75	45.010
610.08	46.880
610.41	45.845
610.74	45.295
611.07	46.357
611.41	46.964
611.74	47.281
612.07	45.771
612.40	46.335
612.73	46.610
613.07	46.175
613.40	46.225
613.73	46.335
614.06	46.244
614.39	47.265
614.72	46.499
615.06	47.095
615.39	45.087
615.72	45.640
616.05	47.039
616.38	45.413
616.71	47.034
617.05	46.078
617.38	47.517
617.71	47.358
618.04	48.254
618.37	47.982
618.70	47.987
619.03	48.125
619.36	47.250
619.69	48.976
620.03	48.356
620.36	47.139
620.69	47.823
621.02	46.942
621.35	48.548
621.68	47.874
622.01	49.250
622.34	47.885
622.67	48.738
623.00	46.631
623.33	47.180
623.66	47.494
623.99	46.974
624.32	48.593
624.65	46.466
624.99	48.683
625.32	47.309
625.65	49.568
625.98	48.268
626.31	47.963
626.64	49.567
626.97	49.040
627.30	48.862
627.63	48.180
627.96	50.494
628.29	49.399
628.62	49.459
628.95	49.098
629.28	49.597
629.61	48.056
629.94	48.974
630.26	47.925
630.59	50.364
630.92	49.538
631.25	47.897
631.58	50.110
631.91	48.684
632.24	50.803
632.57	50.000
632.90	49.110
633.23	49.412
633.56	51.637
633.89	48.335
634.22	50.741
634.55	50.445
634.88	50.192
635.20	49.103
635.53	50.800
635.86	50.325
636.19	51.229
636.52	50.383
636.85	49.752
637.18	49.811
637.51	49.182
637.83	49.934
638.16	52.524
638.49	50.136
638.82	49.342
639.15	51.425
639.48	49.931
639.81	49.791
640.13	52.525
640.46	50.583
640.79	49.779
641.12	50.369
641.45	50.000
641.77	49.778
642.10	51.185
642.43	52.412
642.76	50.660
643.09	49.435
643.41	49.676
643.74	52.554
644.07	50.246
644.40	50.845
644.73	52.890
645.05	51.510
645.38	51.499
645.71	50.709
646.04	52.962
646.36	51.241
646.69	52.518
647.02	54.064
647.35	52.052
647.67	50.274
648.00	52.612
648.33	49.317
648.66	52.203
648.98	50.419
649.31	50.579
649.64	49.922
649.96	51.053
650.29	50.256
650.62	52.479
650.94	51.111
651.27	52.886
651.60	52.432
651.92	51.049
652.25	51.687
652.58	51.167
652.90	55.403
653.23	50.756
653.56	51.100
653.88	48.454
654.21	52.539
654.54	49.915
654.86	53.480
655.19	50.731
655.52	51.703
655.84	47.868
656.17	53.053
656.49	71.308
656.82	74.029
657.15	55.798
657.47	41.717
657.80	31.322
658.13	30.503
658.45	47.126
658.78	46.725
659.10	45.875
659.43	46.691
659.75	47.854
660.08	47.448
660.41	50.153
660.73	50.691
661.06	51.473
661.38	51.663
661.71	48.871
662.03	53.863
662.36	53.846
662.68	51.770
663.01	52.402
663.33	54.988
663.66	52.093
663.98	53.721
664.31	52.878
664.63	52.304
664.96	52.826
665.28	51.876
665.61	50.216
665.93	51.739
666.26	53.362
666.58	55.034
666.91	52.941
667.23	54.481
667.56	53.791
667.88	54.436
668.21	54.893
668.53	54.137
668.86	53.538
669.18	52.594
669.50	53.753
669.83	50.698
670.15	52.914
670.48	52.871
670.80	50.461
671.13	52.349
671.45	49.087
671.77	51.717
672.10	52.871
672.42	51.873
672.75	52.575
673.07	52.773
673.39	52.844
673.72	49.310
674.04	49.792
674.37	51.271
674.69	51.178
675.01	54.667
675.34	51.126
675.66	53.241
675.98	53.215
676.31	51.376
676.63	53.919
676.95	55.000
677.28	53.412
677.60	56.386
677.92	53.211
678.25	54.048
678.57	52.597
678.89	53.151
679.22	54.362
679.54	51.606
679.86	50.895
680.18	54.175
680.51	53.030
680.83	52.485
681.15	53.800
681.48	54.098
681.80	52.893
682.12	54.234
682.44	49.163
682.77	53.201
683.09	50.801
683.41	52.273
683.73	53.226
684.06	53.319
684.38	52.043
684.70	51.634
685.02	50.000
685.34	52.569
685.67	53.659
685.99	51.718
686.31	50.796
686.63	51.577
686.96	51.331
687.28	48.889
687.60	50.951
687.92	53.333
688.24	50.403
688.56	51.747
688.89	53.348
689.21	53.778
689.53	52.668
689.85	51.163
690.17	52.679
690.49	50.355
690.82	51.214
691.14	51.667
691.46	55.374
691.78	50.450
692.10	53.763
692.42	50.000
692.74	53.419
693.06	50.676
693.39	51.810
693.71	52.941
694.03	48.961
694.35	50.701
694.67	55.303
694.99	54.308
695.31	54.830
695.63	50.250
695.95	51.263
696.27	51.813
696.59	54.167
696.91	52.661
697.23	49.871
697.56	55.198
697.88	54.194
698.20	52.392
698.52	54.118
698.84	49.522
699.16	50.250
699.48	54.637
699.80	48.883
700.12	51.213
700.44	52.661
700.76	50.291
701.08	52.121
701.40	52.711
701.72	57.099
702.04	54.785
702.36	55.518
702.68	53.453
703.00	53.939
703.32	51.906
703.64	49.718
703.96	55.072
704.28	55.521
704.60	55.556
704.91	52.050
705.23	52.824
705.55	59.364
705.87	59.928
706.19	54.815
706.51	52.577
706.83	55.627
707.15	53.271
707.47	53.501
707.79	48.698
708.11	56.000
708.43	52.000
708.74	49.354
709.06	53.521
709.38	60.550
709.70	52.367
710.02	52.229
710.34	57.276
710.66	50.962
710.98	52.318
711.29	56.393
711.61	57.627
711.93	57.003
712.25	57.732
712.57	54.579
712.89	58.582
713.20	52.249
713.52	53.310
713.84	50.171
714.16	59.450
714.48	51.613
714.80	54.487
715.11	52.888
715.43	54.859
715.75	52.667
716.07	52.159
716.39	54.362
716.70	50.185
717.02	53.817
717.34	53.441
717.66	55.310
717.97	55.217
718.29	54.812
718.61	57.480
718.93	54.651
719.24	56.654
719.56	55.823
719.88	50.515
720.20	50.000
720.51	55.939
720.83	48.263
721.15	55.462
721.46	50.403
721.78	54.150
722.10	51.301
722.42	53.112
722.73	52.653
723.05	58.776
723.37	59.322
723.68	56.757
724.00	52.137
724.32	52.000
724.63	60.455
724.95	60.699
725.27	62.212
725.58	57.203
725.90	51.190
726.22	58.687
726.53	53.220
726.85	57.678
727.16	60.755
727.48	51.417
727.80	55.061
728.11	54.237
728.43	51.765
728.74	52.419
729.06	57.200
729.38	57.143
729.69	53.785
730.01	50.769
730.32	59.328
730.64	56.184
730.96	53.208
731.27	54.000
731.59	54.576
731.90	51.911
732.22	57.098
732.53	55.482
732.85	58.156
733.16	54.545
733.48	51.799
733.80	54.710
734.11	45.424
734.43	56.014
734.74	47.879
735.06	54.397
735.37	55.287
735.69	56.902
736.00	52.962
736.32	50.336
736.63	54.577
736.95	51.195
737.26	54.448
737.58	54.027
737.89	57.875
738.21	57.895
738.52	55.967
738.83	54.585
739.15	57.205
739.46	50.394
739.78	51.648
740.09	50.000
740.41	54.348
740.72	53.150
741.04	59.109
741.35	53.617
741.66	55.450
741.98	54.082
742.29	50.990
742.61	56.021
742.92	52.133
743.23	55.556
743.55	54.299
743.86	53.110
744.18	53.110
744.49	56.915
744.80	52.174
745.12	59.893
745.43	52.195
745.74	58.333
746.06	58.049
746.37	52.356
746.68	54.502
747.00	55.319
747.31	53.731
747.62	53.398
747.94	55.981
748.25	56.931
748.56	60.109
748.88	57.068
749.19	57.979
749.50	59.606
749.82	49.057
750.13	53.670
750.44	53.383
750.75	55.597
751.07	56.569
751.38	57.088
751.69	50.588
752.01	56.202
752.32	51.394
752.63	54.941
752.94	59.052
753.26	58.577
753.57	57.014
753.88	53.097
754.19	53.750
754.51	51.240
754.82	55.466
755.13	56.667
755.44	56.048
755.75	57.422
756.07	56.420
756.38	54.717
756.69	56.705
757.00	49.000
757.31	54.248
757.63	52.744
757.94	49.722
758.25	51.233
758.56	48.936
758.87	52.975
759.18	53.894
759.50	52.364
759.81	56.187
760.12	56.774
760.43	50.303
760.74	55.556
761.05	53.846
761.36	51.989
761.67	55.152
761.99	58.503
762.30	51.273
762.61	52.569
762.92	58.371
763.23	51.351
763.54	50.467
763.85	54.661
764.16	54.772
764.47	53.226
764.78	49.451
765.10	59.259
765.41	53.628
765.72	53.968
766.03	51.504
766.34	57.299
766.65	55.378
766.96	58.586
767.27	58.511
767.58	54.598
767.89	53.901
768.20	48.864
768.51	48.901
768.82	53.695
769.13	49.309
769.44	54.506
769.75	52.968
770.06	50.862
770.37	54.808
770.68	60.406
770.99	47.511
771.30	62.255
771.61	57.014
771.92	58.621
772.23	57.143
772.54	54.301
772.85	57.407
773.16	52.809
773.47	69.935
773.78	66.013
774.09	55.090
774.39	60.667
774.70	55.414
775.01	59.310
775.32	55.714
775.63	54.545
775.94	62.595
776.25	52.756
776.56	57.500
776.87	53.846
777.18	55.556
777.48	62.931
777.79	53.913
778.10	49.524
778.41	59.459
778.72	52.381
779.03	52.632
779.34	53.901
779.65	51.370
779.95	50.000
780.26	57.241
780.57	44.715
780.88	61.417
781.19	56.897
781.50	60.465
781.80	55.621
782.11	50.943
782.42	66.154
782.73	54.676
783.04	54.074
783.34	54.861
783.65	48.718
783.96	61.475
784.27	57.931
784.57	50.407
784.88	49.219
785.19	57.000
785.50	67.000
785.81	55.172
786.11	56.897
786.42	56.311
786.73	55.455
787.04	59.184
787.34	43.750
787.65	60.000
787.96	61.062
788.26	56.364
788.57	58.120
788.88	52.344
789.19	57.143
789.49	48.696
789.80	62.245
790.11	49.495
790.41	46.364
790.72	55.435
791.03	59.091
791.33	65.000
791.64	47.500
791.95	55.814
792.25	51.064
792.56	56.180
792.87	60.274
793.17	52.174
793.48	50.667
793.79	65.000
794.09	70.000
794.40	56.604
794.70	54.369
795.01	49.593
795.32	49.573
795.62	51.429
795.93	55.882
796.23	65.094
796.54	51.042
796.85	60.294
797.15	57.746
797.46	56.944
797.76	57.576
798.07	56.977
798.37	57.895
798.68	40.909
798.99	59.259
799.29	50.000
799.60	42.029
799.90	56.000
800.21	73.770
800.51	53.846
800.82	66.102
801.12	49.275
801.43	37.705
801.73	84.127
802.04	68.000
802.34	49.254
802.65	80.769
802.95	62.500
803.26	48.077
803.56	72.549
803.87	56.522
804.17	48.000
804.48	60.317
804.78	64.815
805.09	58.696
805.39	48.889
805.70	59.259
806.00	26.316
806.30	45.070
806.61	48.571
806.91	47.222
807.22	46.053
807.52	50.667
807.83	69.091
808.13	52.778
808.43	60.294
808.74	52.239
809.04	62.712
809.35	48.077
809.65	53.125
809.95	13.514
810.26	29.545
810.56	43.836
810.86	59.524
811.17	54.000
811.47	57.143
811.77	76.316
812.08	47.727
812.38	35.849
812.69	67.500
812.99	54.545
813.29	68.421
813.59	65.714
813.90	47.727
814.20	46.154
814.50	40.385
814.81	49.057
815.11	36.170
815.41	55.932
815.72	73.810
816.02	54.902
816.32	41.667
816.62	48.780
816.93	27.027
817.23	42.857
817.53	58.333
817.84	36.957
818.14	50.000
818.44	50.000
818.74	56.522
819.04	45.000
819.35	59.459
819.65	47.059
819.95	72.222
820.25	45.238
820.56	90.000
820.86	34.483
821.16	90.000
821.46	53.191
821.76	47.500
822.07	67.442
822.37	51.351
822.67	78.125
822.97	57.143
823.27	50.000
823.57	60.000
823.88	40.741
824.18	78.571
824.48	35.294
824.78	48.387
825.08	134.783
825.38	66.667
825.69	58.333
825.99	55.263
826.29	47.222
826.59	106.667
826.89	19.048
827.19	43.478
827.49	40.000
827.79	65.714
828.09	114.286
828.39	69.697
828.70	89.189
829.00	35.714
829.30	52.381
829.60	70.000
829.90	59.375
830.20	26.316
830.50	7.407
830.80	26.087
831.10	63.636
831.40	100.000
831.70	58.065
832.00	85.714
832.30	57.143
832.60	83.333
832.90	55.172
833.20	30.000
833.50	72.727
833.80	62.963
834.10	92.308
834.40	96.875
834.70	44.444
835.00	68.421
835.30	76.923
835.60	80.000
835.90	67.742
836.20	18.182
836.50	89.286
836.80	11.538
837.10	46.429
837.40	233.333
837.70	50.000
838.00	36.364
838.30	60.870
838.60	7.692
838.90	86.364
839.19	85.714
839.49	83.333
839.79	92.308
840.09	58.333
840.39	85.714
840.69	89.286
840.99	19.231
841.29	10.526
841.59	70.000
841.88	63.636
842.18	190.000
842.48	106.250
842.78	80.000
843.08	25.926
843.38	60.000
843.68	47.826
843.97	100.000
844.27	46.667
844.57	30.000
844.87	105.556
845.17	66.667
845.47	113.333
845.76	66.667
846.06	88.235
846.36	40.000
846.66	57.143
846.96	26.667
847.25	12.500
847.55	28.571
847.85	75.000
848.15	-9.091
848.44	166.667
848.74	65.000
849.04	66.667
849.34	36.364
849.63	250.000
849.93	100.000
850.23	66.667
850.53	0.000
850.82	84.615
851.12	111.111
851.42	133.333
851.71	19.231
852.01	21.429
852.31	-125.000
852.61	100.000
852.90	25.000
853.20	36.842
853.50	33.333
853.79	47.826
854.09	87.500
854.39	57.895
854.68	41.667
854.98	29.032
855.28	80.769
855.57	55.000
855.87	94.444
856.17	37.037
856.46	85.714
856.76	66.667
857.05	233.333
857.35	92.000
857.65	83.333
857.94	53.846
858.24	86.207
858.53	94.444
858.83	40.741
859.13	81.818
859.42	21.739
859.72	200.000
860.01	-233.333
860.31	36.000
860.60	66.667
860.90	66.667
861.20	73.333
861.49	-150.000
861.79	53.333
862.08	50.000
862.38	120.000
862.67	100.000
862.97	-116.667
863.26	125.000
863.56	55.556
863.85	-166.667
864.15	122.222
864.44	60.000
864.74	107.143
865.03	-75.000
865.33	-40.000
865.62	200.000
865.92	8.333
866.21	-50.000
866.51	81.250
866.80	18.182
867.10	150.000
867.39	116.667
867.69	0.000
867.98	84.615
868.27	33.333
868.57	146.667
868.86	55.556
869.16	30.769
869.45	73.333
869.75	700.000
870.04	0.000
870.33	214.286
870.63	100.000
870.92	133.333
871.22	100.000
871.51	-100.000
871.80	100.000
872.10	500.000
>>>>>End Processed Spectral Data<<<<<
