SpectraSuite Data File
++++++++++++++++++++++++++++++++++++
Date: Fri May 15 17:25:28 PDT 2015
User: schluterlab
Dark Spectrum Present: Yes
Reference Spectrum Present: Yes
Number of Sampled Component Spectra: 1
Spectrometers: USB2E3373
Integration Time (usec): 3000 (USB2E3373)
Spectra Averaged: 3 (USB2E3373)
Boxcar Smoothing: 0 (USB2E3373)
Correct for Electrical Dark: No (USB2E3373)
Strobe/Lamp Enabled: No (USB2E3373)
Correct for Detector Non-linearity: No (USB2E3373)
Correct for Stray Light: No (USB2E3373)
Number of Pixels in Processed Spectrum: 2048
>>>>>Begin Processed Spectral Data<<<<<
178.53	0.000
178.91	0.000
179.29	187.500
179.67	0.000
180.04	57.143
180.42	0.000
180.80	-100.000
181.18	-233.333
181.56	-200.000
181.94	-50.000
182.31	200.000
182.69	-140.000
183.07	-366.667
183.45	40.000
183.83	83.333
184.20	136.364
184.58	55.556
184.96	-275.000
185.34	-133.333
185.72	100.000
186.09	84.615
186.47	300.000
186.85	100.000
187.23	66.667
187.61	-200.000
187.98	-266.667
188.36	77.778
188.74	133.333
189.12	64.706
189.49	66.667
189.87	0.000
190.25	71.429
190.63	350.000
191.00	-66.667
191.38	52.632
191.76	450.000
192.14	100.000
192.51	550.000
192.89	33.333
193.27	-28.571
193.65	83.333
194.02	190.909
194.40	130.000
194.78	-25.000
195.15	0.000
195.53	75.000
195.91	175.000
196.29	-125.000
196.66	53.846
197.04	85.714
197.42	-22.222
197.79	-300.000
198.17	-69.231
198.55	1100.000
198.92	-133.333
199.30	400.000
199.68	-100.000
200.05	-300.000
200.43	0.000
200.81	100.000
201.18	-133.333
201.56	-800.000
201.94	100.000
202.31	-233.333
202.69	-80.000
203.07	-0.000
203.44	400.000
203.82	0.000
204.19	50.000
204.57	-233.333
204.95	37.500
205.32	-10.000
205.70	85.714
206.08	25.000
206.45	200.000
206.83	50.000
207.20	-142.857
207.58	-500.000
207.96	-300.000
208.33	-20.000
208.71	-25.000
209.08	-100.000
209.46	-400.000
209.84	-80.000
210.21	-300.000
210.59	28.571
210.96	-150.000
211.34	-75.000
211.71	33.333
212.09	-42.857
212.46	-500.000
212.84	0.000
213.22	70.000
213.59	400.000
213.97	84.615
214.34	81.818
214.72	100.000
215.09	100.000
215.47	-61.538
215.84	-45.455
216.22	-433.333
216.59	0.000
216.97	250.000
217.34	-150.000
217.72	100.000
218.09	-25.000
218.47	50.000
218.84	-400.000
219.22	-44.444
219.59	-60.000
219.97	533.333
220.34	325.000
220.72	85.714
221.09	150.000
221.47	-200.000
221.84	-100.000
222.22	-650.000
222.59	136.364
222.97	25.000
223.34	-166.667
223.72	7.143
224.09	52.381
224.46	39.286
224.84	66.667
225.21	-20.000
225.59	53.333
225.96	100.000
226.34	300.000
226.71	0.000
227.08	-66.667
227.46	150.000
227.83	-450.000
228.21	122.222
228.58	18.182
228.95	25.000
229.33	80.000
229.70	18.750
230.08	-75.000
230.45	142.857
230.82	157.143
231.20	20.000
231.57	21.429
231.95	57.143
232.32	-60.000
232.69	35.714
233.07	0.000
233.44	-80.000
233.81	-20.000
234.19	33.333
234.56	17.647
234.93	-50.000
235.31	25.000
235.68	-100.000
236.05	-30.769
236.43	40.000
236.80	70.588
237.17	25.000
237.55	25.000
237.92	33.333
238.29	30.556
238.67	40.000
239.04	17.647
239.41	-17.073
239.79	40.000
240.16	41.463
240.53	-2.632
240.91	34.783
241.28	17.460
241.65	26.786
242.02	26.027
242.40	13.333
242.77	27.119
243.14	18.182
243.51	21.250
243.89	33.333
244.26	22.989
244.63	29.762
245.00	16.495
245.38	15.464
245.75	11.236
246.12	14.655
246.49	20.661
246.87	23.077
247.24	17.647
247.61	14.035
247.98	17.073
248.36	19.375
248.73	21.053
249.10	14.286
249.47	12.025
249.84	16.993
250.22	20.000
250.59	20.261
250.96	25.822
251.33	13.953
251.70	20.588
252.08	16.751
252.45	16.832
252.82	19.095
253.19	16.590
253.56	13.551
253.94	23.874
254.31	19.130
254.68	21.491
255.05	15.354
255.42	19.651
255.79	17.375
256.16	19.844
256.54	20.522
256.91	16.350
257.28	17.100
257.65	14.232
258.02	15.248
258.39	18.182
258.76	17.216
259.14	17.608
259.51	19.417
259.88	18.557
260.25	17.647
260.62	19.444
260.99	14.915
261.36	17.123
261.73	13.924
262.10	17.629
262.47	15.951
262.85	15.361
263.22	16.615
263.59	18.380
263.96	17.702
264.33	19.394
264.70	14.286
265.07	17.262
265.44	20.680
265.81	16.102
266.18	18.852
266.55	17.224
266.92	18.912
267.29	19.060
267.66	16.880
268.03	18.325
268.40	18.277
268.77	20.588
269.14	18.705
269.51	19.023
269.88	18.204
270.25	15.561
270.62	20.000
270.99	18.159
271.36	17.115
271.73	19.484
272.10	18.005
272.47	17.494
272.84	18.564
273.21	16.937
273.58	18.072
273.95	17.620
274.32	17.552
274.69	15.837
275.06	17.411
275.43	17.914
275.80	16.336
276.17	16.322
276.54	20.128
276.91	17.325
277.28	18.996
277.65	17.355
278.02	18.085
278.39	16.630
278.76	16.562
279.13	14.730
279.50	18.067
279.87	18.143
280.23	14.839
280.60	19.298
280.97	17.172
281.34	15.962
281.71	19.713
282.08	16.360
282.45	17.025
282.82	14.286
283.19	16.441
283.56	15.607
283.92	17.457
284.29	13.269
284.66	15.310
285.03	16.896
285.40	16.635
285.77	16.169
286.14	14.982
286.51	18.081
286.87	14.077
287.24	15.654
287.61	15.168
287.98	18.596
288.35	14.211
288.72	17.163
289.08	14.410
289.45	15.114
289.82	16.434
290.19	14.334
290.56	15.094
290.93	14.141
291.29	13.867
291.66	14.961
292.03	13.397
292.40	16.290
292.77	13.078
293.13	11.688
293.50	12.898
293.87	13.740
294.24	14.374
294.60	14.307
294.97	14.286
295.34	13.804
295.71	11.773
296.08	14.350
296.44	11.095
296.81	12.500
297.18	12.754
297.55	14.499
297.91	12.329
298.28	13.456
298.65	13.026
299.02	11.725
299.38	11.765
299.75	12.138
300.12	10.733
300.48	11.462
300.85	13.054
301.22	11.299
301.59	10.658
301.95	13.291
302.32	13.619
302.69	11.443
303.05	12.500
303.42	11.706
303.79	12.617
304.15	11.828
304.52	9.869
304.89	11.228
305.25	11.864
305.62	9.568
305.99	11.696
306.35	12.370
306.72	9.786
307.09	11.517
307.45	10.448
307.82	10.185
308.19	12.311
308.55	10.796
308.92	12.200
309.29	10.391
309.65	11.841
310.02	11.111
310.38	11.196
310.75	11.803
311.12	10.657
311.48	9.756
311.85	11.099
312.22	11.076
312.58	9.766
312.95	9.392
313.31	9.938
313.68	9.738
314.05	10.918
314.41	11.237
314.78	10.515
315.14	11.614
315.51	10.973
315.87	9.939
316.24	12.639
316.61	12.303
316.97	11.508
317.34	12.305
317.70	11.090
318.07	11.346
318.43	12.941
318.80	11.932
319.16	13.477
319.53	13.390
319.89	12.894
320.26	14.069
320.62	12.738
320.99	13.466
321.35	13.155
321.72	15.680
322.08	15.307
322.45	15.635
322.81	16.208
323.18	15.898
323.54	15.830
323.91	17.527
324.27	18.164
324.64	19.288
325.00	19.708
325.37	21.763
325.73	19.946
326.10	20.708
326.46	22.422
326.83	23.710
327.19	24.237
327.56	26.238
327.92	25.792
328.29	26.875
328.65	27.830
329.01	28.676
329.38	29.770
329.74	30.028
330.11	30.491
330.47	30.427
330.84	31.923
331.20	34.791
331.56	33.611
331.93	35.251
332.29	35.564
332.66	35.928
333.02	36.896
333.38	36.572
333.75	38.370
334.11	36.616
334.48	39.166
334.84	37.821
335.20	39.524
335.57	39.347
335.93	40.289
336.29	41.344
336.66	40.599
337.02	41.636
337.38	42.037
337.75	42.636
338.11	42.741
338.47	43.613
338.84	43.438
339.20	42.596
339.56	43.211
339.93	44.226
340.29	44.771
340.65	44.444
341.02	42.819
341.38	46.018
341.74	43.463
342.11	43.588
342.47	43.594
342.83	43.945
343.20	43.467
343.56	45.739
343.92	45.527
344.28	46.541
344.65	47.064
345.01	45.117
345.37	44.239
345.73	45.356
346.10	47.023
346.46	46.089
346.82	44.926
347.19	45.387
347.55	45.447
347.91	45.793
348.27	45.190
348.63	46.848
349.00	46.185
349.36	47.382
349.72	48.010
350.08	46.721
350.45	45.172
350.81	45.930
351.17	45.928
351.53	46.531
351.89	46.573
352.26	48.240
352.62	47.016
352.98	47.550
353.34	46.457
353.70	46.683
354.07	45.887
354.43	47.238
354.79	47.729
355.15	49.127
355.51	48.734
355.87	47.492
356.24	46.819
356.60	47.534
356.96	47.857
357.32	47.444
357.68	46.677
358.04	49.192
358.40	47.669
358.77	48.884
359.13	48.679
359.49	47.458
359.85	48.050
360.21	49.123
360.57	48.432
360.93	48.790
361.29	48.565
361.66	49.451
362.02	51.061
362.38	49.276
362.74	51.552
363.10	49.962
363.46	50.704
363.82	50.113
364.18	49.151
364.54	49.412
364.90	50.251
365.26	50.437
365.62	52.336
365.98	50.880
366.35	50.182
366.71	51.885
367.07	51.669
367.43	49.820
367.79	51.378
368.15	51.184
368.51	51.056
368.87	51.687
369.23	50.758
369.59	51.968
369.95	51.906
370.31	52.746
370.67	53.134
371.03	53.697
371.39	52.808
371.75	52.674
372.11	52.425
372.47	54.586
372.83	54.649
373.19	51.854
373.55	52.635
373.91	53.852
374.27	54.359
374.63	54.056
374.99	53.972
375.35	53.482
375.71	56.573
376.07	55.407
376.42	53.946
376.78	55.168
377.14	54.705
377.50	55.710
377.86	56.894
378.22	56.222
378.58	56.538
378.94	55.198
379.30	56.145
379.66	56.740
380.02	55.978
380.38	56.239
380.74	55.655
381.09	57.239
381.45	57.125
381.81	56.508
382.17	57.487
382.53	57.277
382.89	58.004
383.25	58.121
383.61	58.780
383.97	58.222
384.32	57.411
384.68	58.019
385.04	57.537
385.40	57.623
385.76	60.252
386.12	59.444
386.48	59.642
386.83	58.339
387.19	58.974
387.55	59.787
387.91	59.658
388.27	58.669
388.62	61.359
388.98	58.993
389.34	60.400
389.70	59.975
390.06	58.024
390.42	60.039
390.77	60.955
391.13	59.836
391.49	60.867
391.85	59.779
392.20	60.515
392.56	60.839
392.92	59.953
393.28	60.672
393.64	60.781
393.99	60.376
394.35	60.342
394.71	60.089
395.07	59.648
395.42	60.231
395.78	62.150
396.14	60.214
396.50	61.002
396.85	60.464
397.21	60.902
397.57	60.690
397.92	59.796
398.28	60.287
398.64	58.795
399.00	59.876
399.35	60.271
399.71	59.736
400.07	61.306
400.42	59.547
400.78	59.522
401.14	59.891
401.49	60.095
401.85	58.988
402.21	58.976
402.57	61.875
402.92	59.536
403.28	60.338
403.63	60.908
403.99	60.395
404.35	61.711
404.70	58.274
405.06	59.048
405.42	59.975
405.77	59.152
406.13	60.477
406.49	58.082
406.84	60.330
407.20	59.482
407.55	58.725
407.91	59.024
408.27	59.401
408.62	58.831
408.98	59.150
409.34	59.356
409.69	58.656
410.05	59.236
410.40	59.259
410.76	59.288
411.11	59.500
411.47	58.843
411.83	58.255
412.18	60.875
412.54	57.740
412.89	57.451
413.25	59.446
413.60	59.938
413.96	57.546
414.31	59.207
414.67	58.242
415.03	59.454
415.38	58.681
415.74	61.042
416.09	59.242
416.45	58.542
416.80	57.964
417.16	61.188
417.51	59.627
417.87	59.322
418.22	60.492
418.58	59.732
418.93	60.000
419.29	60.179
419.64	59.365
420.00	61.776
420.35	59.284
420.71	58.384
421.06	59.300
421.42	60.577
421.77	60.289
422.12	60.045
422.48	60.855
422.83	60.557
423.19	59.424
423.54	60.200
423.90	60.130
424.25	60.907
424.61	61.261
424.96	61.382
425.31	62.912
425.67	61.620
426.02	62.014
426.38	62.555
426.73	62.833
427.09	63.734
427.44	63.353
427.79	62.345
428.15	62.318
428.50	63.295
428.85	61.486
429.21	62.762
429.56	63.181
429.92	62.712
430.27	62.406
430.62	62.311
430.98	62.845
431.33	63.512
431.68	61.120
432.04	63.164
432.39	63.263
432.74	63.560
433.10	63.276
433.45	64.038
433.80	65.351
434.16	64.765
434.51	63.763
434.86	64.518
435.22	65.564
435.57	65.440
435.92	64.551
436.28	63.924
436.63	64.461
436.98	64.484
437.34	65.699
437.69	65.951
438.04	64.957
438.39	64.692
438.75	66.667
439.10	64.290
439.45	66.525
439.81	66.361
440.16	67.993
440.51	66.448
440.86	67.553
441.22	65.498
441.57	66.501
441.92	66.002
442.27	66.630
442.63	67.452
442.98	66.973
443.33	66.500
443.68	66.578
444.03	67.660
444.39	65.765
444.74	67.670
445.09	66.537
445.44	67.293
445.79	68.747
446.15	66.300
446.50	66.667
446.85	68.438
447.20	66.111
447.55	67.522
447.91	67.343
448.26	68.014
448.61	66.667
448.96	67.126
449.31	67.572
449.66	67.828
450.02	67.028
450.37	68.702
450.72	66.953
451.07	68.038
451.42	66.916
451.77	66.787
452.12	66.926
452.47	67.869
452.83	67.197
453.18	66.920
453.53	68.584
453.88	68.185
454.23	67.425
454.58	68.514
454.93	67.719
455.28	66.095
455.63	68.630
455.98	67.889
456.34	68.582
456.69	67.471
457.04	68.242
457.39	67.072
457.74	68.742
458.09	66.981
458.44	66.998
458.79	67.227
459.14	68.478
459.49	68.000
459.84	66.103
460.19	67.172
460.54	67.237
460.89	67.443
461.24	67.950
461.59	66.805
461.94	67.233
462.29	67.250
462.64	67.309
462.99	66.148
463.34	67.455
463.69	66.988
464.04	66.828
464.39	66.889
464.74	67.362
465.09	68.684
465.44	67.859
465.79	67.290
466.14	68.187
466.49	65.785
466.84	67.281
467.19	67.459
467.54	66.794
467.89	67.025
468.24	66.423
468.59	67.937
468.94	65.524
469.29	66.230
469.64	66.370
469.99	68.185
470.34	65.870
470.68	68.009
471.03	65.605
471.38	66.690
471.73	67.577
472.08	65.807
472.43	67.651
472.78	66.278
473.13	66.395
473.48	67.492
473.83	66.687
474.17	67.358
474.52	67.071
474.87	67.394
475.22	66.138
475.57	66.855
475.92	67.307
476.27	67.288
476.61	66.493
476.96	64.808
477.31	66.793
477.66	65.843
478.01	67.041
478.36	65.850
478.70	66.504
479.05	66.484
479.40	65.819
479.75	65.485
480.10	66.820
480.45	66.300
480.79	67.925
481.14	67.879
481.49	65.813
481.84	67.181
482.19	67.306
482.53	66.235
482.88	66.253
483.23	66.075
483.58	65.377
483.92	64.908
484.27	65.269
484.62	65.531
484.97	66.128
485.31	65.968
485.66	66.658
486.01	68.847
486.36	68.686
486.70	68.937
487.05	68.081
487.40	67.063
487.75	66.789
488.09	65.328
488.44	65.406
488.79	64.737
489.13	65.264
489.48	65.455
489.83	63.677
490.17	64.090
490.52	65.589
490.87	63.906
491.22	64.470
491.56	63.805
491.91	63.910
492.26	64.998
492.60	65.019
492.95	65.273
493.30	63.556
493.64	64.882
493.99	64.541
494.34	65.146
494.68	64.810
495.03	65.012
495.37	64.868
495.72	64.412
496.07	65.073
496.41	65.189
496.76	65.408
497.11	64.648
497.45	64.010
497.80	65.994
498.14	63.338
498.49	64.855
498.84	62.774
499.18	65.060
499.53	65.278
499.87	65.516
500.22	64.985
500.56	65.809
500.91	64.207
501.26	64.459
501.60	65.470
501.95	65.357
502.29	64.552
502.64	65.396
502.98	66.058
503.33	64.073
503.67	65.253
504.02	65.591
504.36	65.710
504.71	63.990
505.06	64.117
505.40	64.924
505.75	65.000
506.09	65.433
506.44	65.657
506.78	65.000
507.13	65.047
507.47	63.812
507.82	64.530
508.16	64.871
508.51	65.005
508.85	65.044
509.19	64.609
509.54	65.040
509.88	64.455
510.23	64.766
510.57	64.404
510.92	63.006
511.26	65.303
511.61	65.127
511.95	63.945
512.30	64.246
512.64	63.884
512.98	64.290
513.33	65.529
513.67	64.355
514.02	66.076
514.36	64.971
514.70	64.918
515.05	65.394
515.39	64.404
515.74	65.509
516.08	64.913
516.42	64.547
516.77	64.775
517.11	66.172
517.46	64.931
517.80	64.362
518.14	64.421
518.49	63.041
518.83	64.034
519.17	62.826
519.52	63.470
519.86	63.806
520.20	63.791
520.55	63.352
520.89	63.676
521.23	63.268
521.58	64.732
521.92	64.295
522.26	63.370
522.61	64.221
522.95	65.033
523.29	64.295
523.64	63.024
523.98	64.161
524.32	63.402
524.66	62.548
525.01	64.610
525.35	64.161
525.69	63.838
526.04	61.971
526.38	64.527
526.72	62.590
527.06	63.619
527.41	63.786
527.75	63.271
528.09	62.658
528.43	63.808
528.78	63.036
529.12	62.774
529.46	64.198
529.80	63.078
530.15	64.818
530.49	65.185
530.83	64.706
531.17	62.525
531.51	62.859
531.86	64.106
532.20	63.466
532.54	62.355
532.88	64.066
533.22	65.054
533.57	64.482
533.91	63.969
534.25	65.885
534.59	63.887
534.93	62.807
535.27	63.135
535.62	63.901
535.96	63.927
536.30	64.842
536.64	64.025
536.98	64.321
537.32	65.363
537.66	63.184
538.01	64.895
538.35	64.494
538.69	64.248
539.03	62.611
539.37	64.132
539.71	63.872
540.05	63.747
540.39	64.820
540.73	63.947
541.07	64.503
541.42	63.978
541.76	64.281
542.10	63.868
542.44	63.447
542.78	63.593
543.12	64.286
543.46	64.812
543.80	64.330
544.14	62.417
544.48	63.691
544.82	65.960
545.16	65.642
545.50	64.019
545.84	65.156
546.18	63.901
546.52	65.177
546.86	63.839
547.20	64.735
547.54	62.898
547.88	64.470
548.22	64.037
548.56	64.248
548.90	64.825
549.24	62.741
549.58	63.893
549.92	62.616
550.26	63.883
550.60	63.643
550.94	65.049
551.28	63.601
551.62	64.692
551.96	63.835
552.30	63.670
552.64	63.752
552.98	63.783
553.32	64.408
553.66	62.482
554.00	65.474
554.34	65.066
554.68	63.127
555.02	64.435
555.36	63.874
555.69	63.810
556.03	64.383
556.37	63.060
556.71	63.971
557.05	64.579
557.39	63.792
557.73	63.718
558.07	64.781
558.41	64.319
558.75	63.835
559.08	62.805
559.42	63.095
559.76	65.252
560.10	63.838
560.44	66.046
560.78	63.357
561.12	65.092
561.45	65.917
561.79	64.286
562.13	64.159
562.47	64.245
562.81	64.697
563.15	65.797
563.48	65.771
563.82	66.095
564.16	65.738
564.50	65.338
564.84	65.261
565.17	65.392
565.51	65.164
565.85	66.392
566.19	65.915
566.52	67.292
566.86	66.517
567.20	65.442
567.54	67.762
567.88	67.955
568.21	68.269
568.55	68.207
568.89	68.583
569.23	68.705
569.56	69.221
569.90	69.793
570.24	67.882
570.57	71.127
570.91	70.129
571.25	69.023
571.59	68.421
571.92	68.267
572.26	67.935
572.60	68.372
572.93	67.869
573.27	68.307
573.61	68.974
573.95	70.208
574.28	69.147
574.62	68.624
574.96	68.512
575.29	68.476
575.63	67.867
575.97	67.769
576.30	68.794
576.64	68.026
576.98	69.575
577.31	70.460
577.65	70.688
577.98	70.287
578.32	69.844
578.66	68.472
578.99	67.759
579.33	67.449
579.67	67.903
580.00	68.810
580.34	69.030
580.67	69.411
581.01	69.212
581.35	68.906
581.68	70.380
582.02	70.600
582.35	71.086
582.69	70.121
583.02	69.771
583.36	69.103
583.70	69.289
584.03	69.753
584.37	70.356
584.70	69.313
585.04	68.342
585.37	68.993
585.71	69.662
586.04	70.298
586.38	69.325
586.72	69.182
587.05	70.653
587.39	69.220
587.72	71.104
588.06	69.610
588.39	69.667
588.73	69.811
589.06	69.374
589.40	69.443
589.73	69.587
590.07	69.449
590.40	69.079
590.73	70.675
591.07	68.999
591.40	68.833
591.74	68.959
592.07	69.527
592.41	70.009
592.74	69.454
593.08	69.612
593.41	70.082
593.75	70.854
594.08	69.104
594.41	70.306
594.75	68.473
595.08	69.694
595.42	70.445
595.75	71.536
596.09	69.898
596.42	70.070
596.75	69.538
597.09	69.658
597.42	68.970
597.75	69.079
598.09	69.126
598.42	68.412
598.76	69.069
599.09	69.631
599.42	68.587
599.76	69.752
600.09	69.608
600.42	69.560
600.76	68.796
601.09	70.153
601.42	69.487
601.76	69.988
602.09	68.812
602.42	70.556
602.76	69.058
603.09	70.183
603.42	72.701
603.76	70.282
604.09	70.717
604.42	70.474
604.76	69.693
605.09	69.561
605.42	69.616
605.75	70.534
606.09	70.106
606.42	69.183
606.75	69.654
607.09	69.495
607.42	69.384
607.75	69.849
608.08	67.925
608.42	67.931
608.75	70.361
609.08	70.005
609.41	70.152
609.75	68.851
610.08	70.045
610.41	68.213
610.74	69.722
611.07	70.594
611.41	70.317
611.74	71.802
612.07	69.272
612.40	69.584
612.73	69.944
613.07	68.616
613.40	68.873
613.73	68.830
614.06	69.672
614.39	70.671
614.72	67.787
615.06	68.380
615.39	68.286
615.72	68.622
616.05	70.726
616.38	67.521
616.71	69.174
617.05	69.549
617.38	69.830
617.71	68.868
618.04	70.349
618.37	69.168
618.70	70.363
619.03	69.375
619.36	68.524
619.69	69.067
620.03	70.343
620.36	70.744
620.69	67.595
621.02	68.884
621.35	68.548
621.68	69.218
622.01	70.167
622.34	68.715
622.67	68.454
623.00	69.142
623.33	68.293
623.66	68.736
623.99	67.927
624.32	69.049
624.65	67.895
624.99	70.203
625.32	68.309
625.65	69.128
625.98	67.929
626.31	67.664
626.64	68.977
626.97	67.452
627.30	67.951
627.63	69.064
627.96	69.901
628.29	66.512
628.62	67.552
628.95	66.032
629.28	68.750
629.61	68.694
629.94	68.719
630.26	65.711
630.59	70.552
630.92	67.897
631.25	64.000
631.58	68.172
631.91	66.118
632.24	69.266
632.57	68.636
632.90	65.955
633.23	66.588
633.56	67.758
633.89	67.818
634.22	67.654
634.55	67.726
634.88	66.284
635.20	67.308
635.53	69.867
635.86	65.410
636.19	70.375
636.52	67.474
636.85	66.377
637.18	66.667
637.51	67.170
637.83	63.469
638.16	68.213
638.49	67.302
638.82	64.342
639.15	67.978
639.48	67.125
639.81	64.993
640.13	65.945
640.46	67.638
640.79	64.801
641.12	64.845
641.45	63.213
641.77	65.630
642.10	66.351
642.43	65.273
642.76	64.191
643.09	68.336
643.41	66.181
643.74	64.250
644.07	65.846
644.40	64.696
644.73	66.200
645.05	63.926
645.38	66.314
645.71	65.603
646.04	67.864
646.36	64.894
646.69	66.727
647.02	67.108
647.35	66.604
647.67	63.620
648.00	67.724
648.33	65.700
648.66	66.949
648.98	66.834
649.31	67.603
649.64	64.521
649.96	67.909
650.29	65.928
650.62	63.761
650.94	67.222
651.27	66.294
651.60	63.243
651.92	64.860
652.25	66.075
652.58	63.000
652.90	68.954
653.23	66.050
653.56	65.144
653.88	64.605
654.21	64.974
654.54	64.346
654.86	69.440
655.19	66.667
655.52	76.161
655.84	77.152
656.17	86.715
656.49	100.000
656.82	100.000
657.15	100.000
657.47	84.652
657.80	48.432
658.13	47.518
658.45	72.389
658.78	70.855
659.10	69.136
659.43	68.427
659.75	67.686
660.08	65.793
660.41	66.088
660.73	66.713
661.06	64.818
661.38	64.188
661.71	60.986
662.03	64.807
662.36	64.615
662.68	65.044
663.01	68.341
663.33	62.645
663.66	63.256
663.98	62.558
664.31	62.260
664.63	63.134
664.96	60.435
665.28	62.693
665.61	64.719
665.93	65.652
666.26	63.557
666.58	61.969
666.91	66.353
667.23	68.868
667.56	61.848
667.88	64.988
668.21	65.871
668.53	67.612
668.86	64.151
669.18	63.443
669.50	64.407
669.83	60.930
670.15	62.704
670.48	63.636
670.80	63.825
671.13	60.626
671.45	63.470
671.77	63.305
672.10	62.178
672.42	66.292
672.75	67.496
673.07	65.832
673.39	67.523
673.72	67.850
674.04	64.167
674.37	65.254
674.69	66.809
675.01	67.778
675.34	64.865
675.66	67.593
675.98	64.967
676.31	65.367
676.63	68.409
676.95	65.455
677.28	66.353
677.60	66.265
677.92	62.844
678.25	66.521
678.57	66.667
678.89	68.487
679.22	67.338
679.54	65.060
679.86	67.197
680.18	67.961
680.51	67.614
680.83	63.618
681.15	65.800
681.48	64.344
681.80	68.388
682.12	65.927
682.44	65.900
682.77	68.212
683.09	66.133
683.41	62.045
683.73	65.438
684.06	64.823
684.38	65.376
684.70	72.549
685.02	67.220
685.34	65.217
685.67	67.917
685.99	68.174
686.31	65.841
686.63	65.306
686.96	65.019
687.28	65.657
687.60	65.209
687.92	67.879
688.24	69.556
688.56	71.834
688.89	67.857
689.21	66.444
689.53	64.733
689.85	63.023
690.17	66.295
690.49	66.667
690.82	67.961
691.14	64.524
691.46	67.757
691.78	67.793
692.10	67.527
692.42	69.048
692.74	69.017
693.06	66.667
693.39	66.290
693.71	66.516
694.03	65.358
694.35	64.953
694.67	71.970
694.99	67.624
695.31	64.491
695.63	68.750
695.95	64.899
696.27	67.098
696.59	68.333
696.91	64.706
697.23	64.781
697.56	68.564
697.88	69.462
698.20	68.793
698.52	69.412
698.84	63.636
699.16	67.250
699.48	66.165
699.80	68.734
700.12	69.003
700.44	64.426
700.76	62.209
701.08	65.152
701.40	62.952
701.72	64.815
702.04	66.667
702.36	69.565
702.68	66.967
703.00	66.667
703.32	68.622
703.64	60.452
703.96	63.188
704.28	67.178
704.60	71.429
704.91	65.615
705.23	63.123
705.55	68.551
705.87	71.480
706.19	65.556
706.51	67.698
706.83	66.559
707.15	63.863
707.47	70.028
707.79	66.927
708.11	70.250
708.43	68.000
708.74	65.633
709.06	70.141
709.38	69.113
709.70	64.201
710.02	65.924
710.34	67.183
710.66	64.744
710.98	66.887
711.29	66.885
711.61	68.814
711.93	64.821
712.25	65.636
712.57	64.103
712.89	67.537
713.20	64.014
713.52	63.763
713.84	65.529
714.16	72.509
714.48	68.387
714.80	68.910
715.11	67.781
715.43	67.085
715.75	67.000
716.07	66.113
716.39	63.423
716.70	61.993
717.02	61.450
717.34	63.563
717.66	67.699
717.97	66.522
718.29	68.201
718.61	69.291
718.93	64.729
719.24	66.920
719.56	71.486
719.88	62.887
720.20	65.530
720.51	65.517
720.83	65.637
721.15	75.210
721.46	71.371
721.78	63.636
722.10	62.454
722.42	68.880
722.73	70.612
723.05	69.388
723.37	70.339
723.68	70.270
724.00	70.513
724.32	69.333
724.63	71.364
724.95	62.445
725.27	69.585
725.58	70.339
725.90	71.429
726.22	64.093
726.53	67.458
726.85	69.663
727.16	69.434
727.48	68.016
727.80	63.968
728.11	67.797
728.43	72.157
728.74	65.323
729.06	70.400
729.38	70.677
729.69	68.526
730.01	68.846
730.32	66.045
730.64	66.784
730.96	67.547
731.27	69.000
731.59	70.169
731.90	66.879
732.22	69.716
732.53	70.764
732.85	71.631
733.16	70.370
733.48	67.266
733.80	70.652
734.11	64.407
734.43	73.196
734.74	64.242
735.06	72.638
735.37	68.580
735.69	75.084
736.00	73.519
736.32	71.477
736.63	68.310
736.95	72.696
737.26	75.089
737.58	66.107
737.89	73.260
738.21	72.180
738.52	68.724
738.83	73.362
739.15	66.812
739.46	73.228
739.78	68.498
740.09	69.608
740.41	73.188
740.72	70.866
741.04	65.992
741.35	63.404
741.66	67.773
741.98	69.898
742.29	68.317
742.61	65.969
742.92	61.611
743.23	66.204
743.55	69.231
743.86	73.206
744.18	70.335
744.49	62.234
744.80	73.370
745.12	73.797
745.43	69.268
745.74	72.917
746.06	62.439
746.37	73.822
746.68	72.512
747.00	67.553
747.31	72.637
747.62	69.903
747.94	66.507
748.25	71.287
748.56	70.492
748.88	69.634
749.19	65.426
749.50	71.429
749.82	66.038
750.13	73.394
750.44	74.812
750.75	76.866
751.07	73.723
751.38	69.732
751.69	67.451
752.01	68.605
752.32	73.307
752.63	69.170
752.94	71.121
753.26	72.803
753.57	74.208
753.88	69.912
754.19	65.000
754.51	73.967
754.82	72.065
755.13	74.167
755.44	69.355
755.75	69.531
756.07	73.152
756.38	69.811
756.69	69.349
757.00	68.000
757.31	73.203
757.63	70.122
757.94	68.889
758.25	71.507
758.56	73.138
758.87	67.705
759.18	64.798
759.50	67.273
759.81	74.916
760.12	73.548
760.43	73.636
760.74	76.543
761.05	75.077
761.36	69.602
761.67	74.242
761.99	72.449
762.30	67.273
762.61	68.379
762.92	71.041
763.23	70.270
763.54	68.692
763.85	70.339
764.16	70.954
764.47	74.194
764.78	68.132
765.10	73.064
765.41	70.032
765.72	72.381
766.03	75.564
766.34	70.073
766.65	71.315
766.96	73.232
767.27	71.809
767.58	69.540
767.89	66.667
768.20	64.205
768.51	71.429
768.82	70.936
769.13	68.203
769.44	72.532
769.75	73.973
770.06	71.552
770.37	71.635
770.68	73.604
770.99	66.968
771.30	79.902
771.61	69.683
771.92	71.121
772.23	71.429
772.54	68.817
772.85	70.988
773.16	71.910
773.47	77.778
773.78	76.471
774.09	65.868
774.39	71.333
774.70	66.242
775.01	66.897
775.32	64.286
775.63	71.074
775.94	61.832
776.25	63.780
776.56	62.500
776.87	77.885
777.18	74.359
777.48	68.103
777.79	59.130
778.10	64.762
778.41	59.459
778.72	67.460
779.03	72.932
779.34	67.376
779.65	69.863
779.95	67.123
780.26	71.034
780.57	56.098
780.88	66.929
781.19	68.966
781.50	68.217
781.80	69.822
782.11	69.811
782.42	80.769
782.73	66.906
783.04	65.185
783.34	68.750
783.65	60.684
783.96	82.787
784.27	65.517
784.57	69.919
784.88	64.062
785.19	80.000
785.50	71.000
785.81	67.241
786.11	69.828
786.42	75.728
786.73	78.182
787.04	67.347
787.34	68.750
787.65	60.952
787.96	68.142
788.26	81.818
788.57	58.974
788.88	68.750
789.19	74.603
789.49	76.522
789.80	69.388
790.11	57.576
790.41	58.182
790.72	76.087
791.03	57.955
791.33	68.750
791.64	60.000
791.95	82.558
792.25	63.830
792.56	65.169
792.87	80.822
793.17	62.319
793.48	48.000
793.79	67.500
794.09	58.750
794.40	67.925
794.70	73.786
795.01	60.976
795.32	62.393
795.62	60.952
795.93	77.451
796.23	66.981
796.54	61.458
796.85	77.941
797.15	42.254
797.46	51.389
797.76	87.879
798.07	52.326
798.37	55.263
798.68	72.727
798.99	62.963
799.29	60.000
799.60	63.768
799.90	66.667
800.21	78.689
800.51	49.231
800.82	69.492
801.12	63.768
801.43	54.098
801.73	63.492
802.04	80.000
802.34	61.194
802.65	92.308
802.95	60.714
803.26	44.231
803.56	66.667
803.87	65.217
804.17	66.667
804.48	69.841
804.78	62.963
805.09	69.565
805.39	68.889
805.70	68.519
806.00	56.140
806.30	66.197
806.61	74.286
806.91	68.056
807.22	71.053
807.52	72.000
807.83	65.455
808.13	58.333
808.43	72.059
808.74	55.224
809.04	61.017
809.35	65.385
809.65	54.688
809.95	43.243
810.26	59.091
810.56	52.055
810.86	59.524
811.17	64.000
811.47	77.551
811.77	47.368
812.08	61.364
812.38	66.038
812.69	40.000
812.99	78.788
813.29	60.526
813.59	42.857
813.90	65.909
814.20	74.359
814.50	53.846
814.81	71.698
815.11	48.936
815.41	66.102
815.72	76.190
816.02	66.667
816.32	43.750
816.62	63.415
816.93	56.757
817.23	51.429
817.53	62.500
817.84	21.739
818.14	42.308
818.44	31.579
818.74	65.217
819.04	25.000
819.35	35.135
819.65	61.765
819.95	30.556
820.25	52.381
820.56	77.500
820.86	65.517
821.16	75.000
821.46	63.830
821.76	77.500
822.07	86.047
822.37	64.865
822.67	68.750
822.97	76.190
823.27	71.429
823.57	60.000
823.88	29.630
824.18	42.857
824.48	52.941
824.78	64.516
825.08	21.739
825.38	33.333
825.69	37.500
825.99	39.474
826.29	61.111
826.59	46.667
826.89	85.714
827.19	84.783
827.49	22.500
827.79	77.143
828.09	82.143
828.39	72.727
828.70	83.784
829.00	60.714
829.30	57.143
829.60	96.667
829.90	71.875
830.20	34.211
830.50	48.148
830.80	47.826
831.10	63.636
831.40	100.000
831.70	87.097
832.00	28.571
832.30	28.571
832.60	141.667
832.90	51.724
833.20	90.000
833.50	54.545
833.80	77.778
834.10	57.692
834.40	81.250
834.70	88.889
835.00	126.316
835.30	115.385
835.60	93.333
835.90	58.065
836.20	104.545
836.50	64.286
836.80	26.923
837.10	89.286
837.40	0.000
837.70	22.727
838.00	81.818
838.30	69.565
838.60	7.692
838.90	59.091
839.19	21.429
839.49	63.333
839.79	61.538
840.09	25.000
840.39	60.714
840.69	0.000
840.99	7.692
841.29	21.053
841.59	130.000
841.88	109.091
842.18	120.000
842.48	-6.250
842.78	40.000
843.08	62.963
843.38	10.000
843.68	78.261
843.97	40.000
844.27	-13.333
844.57	55.000
844.87	72.222
845.17	19.048
845.47	53.333
845.76	47.619
846.06	23.529
846.36	70.000
846.66	85.714
846.96	46.667
847.25	-12.500
847.55	107.143
847.85	150.000
848.15	18.182
848.44	-66.667
848.74	35.000
849.04	62.963
849.34	100.000
849.63	16.667
849.93	-80.000
850.23	61.111
850.53	190.000
850.82	-15.385
851.12	-22.222
851.42	66.667
851.71	30.769
852.01	107.143
852.31	-100.000
852.61	72.727
852.90	10.000
853.20	89.474
853.50	8.333
853.79	91.304
854.09	54.167
854.39	68.421
854.68	58.333
854.98	19.355
855.28	65.385
855.57	45.000
855.87	100.000
856.17	55.556
856.46	50.000
856.76	-20.000
857.05	155.556
857.35	76.000
857.65	5.556
857.94	53.846
858.24	58.621
858.53	100.000
858.83	59.259
859.13	95.455
859.42	60.870
859.72	250.000
860.01	-100.000
860.31	76.000
860.60	61.905
860.90	-33.333
861.20	-26.667
861.49	-100.000
861.79	66.667
862.08	50.000
862.38	193.333
862.67	180.000
862.97	33.333
863.26	-8.333
863.56	72.222
863.85	166.667
864.15	11.111
864.44	120.000
864.74	21.429
865.03	-25.000
865.33	-200.000
865.62	100.000
865.92	16.667
866.21	-150.000
866.51	31.250
866.80	63.636
867.10	50.000
867.39	125.000
867.69	0.000
867.98	84.615
868.27	166.667
868.57	60.000
868.86	27.778
869.16	23.077
869.45	126.667
869.75	-1000.000
870.04	0.000
870.33	-42.857
870.63	61.905
870.92	500.000
871.22	-20.000
871.51	300.000
871.80	266.667
872.10	-33.333
>>>>>End Processed Spectral Data<<<<<
