SpectraSuite Data File
++++++++++++++++++++++++++++++++++++
Date: Fri May 15 17:05:31 PDT 2015
User: schluterlab
Dark Spectrum Present: Yes
Reference Spectrum Present: Yes
Number of Sampled Component Spectra: 1
Spectrometers: USB2E3373
Integration Time (usec): 3000 (USB2E3373)
Spectra Averaged: 3 (USB2E3373)
Boxcar Smoothing: 0 (USB2E3373)
Correct for Electrical Dark: No (USB2E3373)
Strobe/Lamp Enabled: No (USB2E3373)
Correct for Detector Non-linearity: No (USB2E3373)
Correct for Stray Light: No (USB2E3373)
Number of Pixels in Processed Spectrum: 2048
>>>>>Begin Processed Spectral Data<<<<<
178.53	0.000
178.91	0.000
179.29	125.000
179.67	-100.000
180.04	-14.286
180.42	425.000
180.80	1400.000
181.18	-200.000
181.56	-200.000
181.94	150.000
182.31	-200.000
182.69	60.000
183.07	0.000
183.45	160.000
183.83	-0.000
184.20	36.364
184.58	-0.000
184.96	-475.000
185.34	-300.000
185.72	550.000
186.09	7.692
186.47	-900.000
186.85	16.667
187.23	77.778
187.61	-300.000
187.98	400.000
188.36	111.111
188.74	400.000
189.12	100.000
189.49	83.333
189.87	0.000
190.25	107.143
190.63	1000.000
191.00	-333.333
191.38	36.842
191.76	250.000
192.14	100.000
192.51	350.000
192.89	77.778
193.27	28.571
193.65	66.667
194.02	36.364
194.40	50.000
194.78	75.000
195.15	8.333
195.53	112.500
195.91	25.000
196.29	0.000
196.66	53.846
197.04	14.286
197.42	66.667
197.79	-100.000
198.17	-53.846
198.55	1000.000
198.92	-166.667
199.30	1300.000
199.68	60.000
200.05	200.000
200.43	0.000
200.81	100.000
201.18	0.000
201.56	100.000
201.94	150.000
202.31	-0.000
202.69	80.000
203.07	-350.000
203.44	1300.000
203.82	0.000
204.19	107.143
204.57	233.333
204.95	12.500
205.32	240.000
205.70	-57.143
206.08	200.000
206.45	288.889
206.83	50.000
207.20	-85.714
207.58	-500.000
207.96	33.333
208.33	-30.000
208.71	75.000
209.08	133.333
209.46	500.000
209.84	120.000
210.21	400.000
210.59	114.286
210.96	183.333
211.34	300.000
211.71	26.667
212.09	-28.571
212.46	-800.000
212.84	0.000
213.22	100.000
213.59	-100.000
213.97	38.462
214.34	172.727
214.72	16.667
215.09	75.000
215.47	0.000
215.84	45.455
216.22	33.333
216.59	-75.000
216.97	50.000
217.34	150.000
217.72	-120.000
218.09	100.000
218.47	-0.000
218.84	800.000
219.22	77.778
219.59	220.000
219.97	-166.667
220.34	-175.000
220.72	128.571
221.09	250.000
221.47	550.000
221.84	0.000
222.22	-450.000
222.59	136.364
222.97	158.333
223.34	300.000
223.72	100.000
224.09	33.333
224.46	32.143
224.84	400.000
225.21	90.000
225.59	100.000
225.96	0.000
226.34	275.000
226.71	-128.571
227.08	33.333
227.46	62.500
227.83	0.000
228.21	111.111
228.58	81.818
228.95	225.000
229.33	-0.000
229.70	106.250
230.08	62.500
230.45	42.857
230.82	200.000
231.20	33.333
231.57	92.857
231.95	128.571
232.32	10.000
232.69	114.286
233.07	100.000
233.44	220.000
233.81	-80.000
234.19	200.000
234.56	47.059
234.93	-100.000
235.31	225.000
235.68	-20.000
236.05	61.538
236.43	5.000
236.80	88.235
237.17	46.875
237.55	30.000
237.92	37.037
238.29	47.222
238.67	33.333
239.04	41.176
239.41	36.585
239.79	53.333
240.16	63.415
240.53	15.789
240.91	41.304
241.28	34.921
241.65	32.143
242.02	41.096
242.40	21.667
242.77	27.119
243.14	16.667
243.51	35.000
243.89	42.529
244.26	24.138
244.63	41.667
245.00	21.649
245.38	35.052
245.75	20.225
246.12	25.000
246.49	23.140
246.87	44.231
247.24	16.807
247.61	39.474
247.98	31.707
248.36	28.125
248.73	27.632
249.10	34.416
249.47	34.810
249.84	31.373
250.22	25.882
250.59	28.758
250.96	28.169
251.33	31.977
251.70	35.294
252.08	29.949
252.45	26.733
252.82	28.643
253.19	29.032
253.56	23.364
253.94	28.829
254.31	26.522
254.68	32.895
255.05	29.921
255.42	29.258
255.79	30.888
256.16	31.518
256.54	29.478
256.91	25.475
257.28	22.305
257.65	28.464
258.02	25.532
258.39	27.273
258.76	35.165
259.14	27.907
259.51	28.803
259.88	25.430
260.25	25.817
260.62	32.639
260.99	23.051
261.36	28.082
261.73	26.899
262.10	28.875
262.47	26.994
262.85	23.824
263.22	26.769
263.59	28.037
263.96	27.950
264.33	26.970
264.70	25.893
265.07	26.786
265.44	26.912
265.81	27.119
266.18	24.863
266.55	26.735
266.92	26.166
267.29	26.371
267.66	28.645
268.03	26.440
268.40	24.543
268.77	30.481
269.14	22.542
269.51	26.221
269.88	25.935
270.25	23.980
270.62	25.122
270.99	26.087
271.36	25.672
271.73	25.352
272.10	29.440
272.47	28.605
272.84	25.495
273.21	27.146
273.58	26.506
273.95	25.172
274.32	25.404
274.69	26.471
275.06	27.902
275.43	26.304
275.80	25.386
276.17	23.908
276.54	25.054
276.91	27.193
277.28	25.983
277.65	25.413
278.02	23.617
278.39	23.414
278.76	25.996
279.13	19.917
279.50	26.471
279.87	26.350
280.23	23.441
280.60	25.536
280.97	25.051
281.34	23.846
281.71	27.105
282.08	21.881
282.45	23.288
282.82	24.324
283.19	25.338
283.56	24.855
283.92	21.063
284.29	23.462
284.66	23.450
285.03	26.130
285.40	23.062
285.77	22.320
286.14	22.202
286.51	26.199
286.87	21.938
287.24	23.389
287.61	20.282
287.98	25.088
288.35	24.957
288.72	24.343
289.08	22.396
289.45	24.429
289.82	22.902
290.19	20.819
290.56	22.127
290.93	20.370
291.29	20.955
291.66	20.945
292.03	22.329
292.40	21.452
292.77	21.691
293.13	17.695
293.50	18.816
293.87	20.153
294.24	19.629
294.60	18.778
294.97	18.750
295.34	18.712
295.71	20.566
296.08	19.133
296.44	18.634
296.81	19.028
297.18	17.101
297.55	18.970
297.91	18.904
298.28	20.580
298.65	17.775
299.02	18.329
299.38	15.732
299.75	17.379
300.12	16.754
300.48	16.733
300.85	15.589
301.22	17.662
301.59	17.763
301.95	18.228
302.32	18.547
302.69	18.035
303.05	16.213
303.42	17.310
303.79	16.706
304.15	17.921
304.52	16.647
304.89	16.959
305.25	16.465
305.62	17.036
305.99	16.608
306.35	17.572
306.72	15.973
307.09	16.990
307.45	16.418
307.82	15.741
308.19	16.144
308.55	16.358
308.92	16.993
309.29	15.978
309.65	16.254
310.02	16.062
310.38	15.258
310.75	17.158
311.12	16.362
311.48	16.861
311.85	17.277
312.22	15.506
312.58	16.879
312.95	15.475
313.31	15.631
313.68	16.545
314.05	16.531
314.41	17.835
314.78	17.423
315.14	17.677
315.51	18.219
315.87	17.828
316.24	17.897
316.61	18.504
316.97	18.452
317.34	18.750
317.70	18.642
318.07	19.231
318.43	19.216
318.80	19.792
319.16	19.824
319.53	21.937
319.89	20.768
320.26	22.267
320.62	22.267
320.99	22.234
321.35	22.919
321.72	24.403
322.08	24.673
322.45	24.365
322.81	26.031
323.18	25.417
323.54	25.869
323.91	27.556
324.27	26.270
324.64	28.652
325.00	28.467
325.37	31.038
325.73	30.281
326.10	31.426
326.46	32.825
326.83	33.333
327.19	34.525
327.56	34.318
327.92	35.387
328.29	35.982
328.65	37.547
329.01	38.051
329.38	38.249
329.74	39.188
330.11	38.925
330.47	40.167
330.84	40.096
331.20	42.966
331.56	43.426
331.93	44.110
332.29	44.271
332.66	44.253
333.02	45.353
333.38	43.905
333.75	48.443
334.11	45.568
334.48	47.507
334.84	47.985
335.20	47.118
335.57	47.869
335.93	48.780
336.29	49.171
336.66	48.411
337.02	49.164
337.38	51.296
337.75	50.000
338.11	50.857
338.47	52.737
338.84	52.680
339.20	51.828
339.56	51.835
339.93	51.656
340.29	52.936
340.65	54.032
341.02	53.103
341.38	52.566
341.74	52.385
342.11	52.253
342.47	53.292
342.83	53.893
343.20	52.613
343.56	55.478
343.92	54.473
344.28	54.654
344.65	55.527
345.01	54.365
345.37	54.752
345.73	53.891
346.10	55.997
346.46	54.752
346.82	54.337
347.19	54.780
347.55	55.305
347.91	55.016
348.27	53.274
348.63	55.281
349.00	55.373
349.36	55.278
349.72	56.219
350.08	56.475
350.45	54.350
350.81	55.066
351.17	56.352
351.53	55.592
351.89	56.317
352.26	56.320
352.62	57.742
352.98	55.984
353.34	55.636
353.70	57.605
354.07	57.339
354.43	56.765
354.79	58.547
355.15	57.540
355.51	57.437
355.87	60.437
356.24	57.096
356.60	58.690
356.96	58.889
357.32	56.629
357.68	58.405
358.04	59.855
358.40	59.566
358.77	59.649
359.13	58.367
359.49	58.012
359.85	58.190
360.21	60.447
360.57	58.531
360.93	59.682
361.29	58.686
361.66	60.815
362.02	61.061
362.38	61.767
362.74	61.469
363.10	61.099
363.46	61.749
363.82	61.833
364.18	59.336
364.54	60.368
364.90	61.505
365.26	61.645
365.62	62.701
365.98	62.903
366.35	63.146
366.71	64.006
367.07	62.772
367.43	63.336
367.79	63.322
368.15	62.455
368.51	62.782
368.87	64.106
369.23	63.394
369.59	65.525
369.95	64.076
370.31	63.223
370.67	64.328
371.03	64.376
371.39	64.478
371.75	65.055
372.11	64.551
372.47	64.571
372.83	66.146
373.19	65.549
373.55	66.426
373.91	65.803
374.27	64.493
374.63	66.619
374.99	66.879
375.35	66.365
375.71	69.231
376.07	67.135
376.42	66.803
376.78	67.248
377.14	67.028
377.50	69.389
377.86	69.344
378.22	68.475
378.58	69.615
378.94	68.179
379.30	68.434
379.66	70.282
380.02	69.834
380.38	70.055
380.74	68.223
381.09	70.061
381.45	69.358
381.81	69.957
382.17	69.860
382.53	70.706
382.89	73.258
383.25	71.749
383.61	70.366
383.97	70.603
384.32	71.107
384.68	72.074
385.04	71.936
385.40	72.309
385.76	73.648
386.12	73.221
386.48	72.478
386.83	74.065
387.19	73.871
387.55	73.777
387.91	74.450
388.27	72.711
388.62	75.016
388.98	72.867
389.34	72.892
389.70	75.140
390.06	73.002
390.42	74.482
390.77	76.390
391.13	74.086
391.49	76.714
391.85	75.179
392.20	75.832
392.56	75.969
392.92	75.866
393.28	75.590
393.64	75.616
393.99	77.053
394.35	76.977
394.71	76.373
395.07	76.367
395.42	75.349
395.78	76.678
396.14	76.166
396.50	78.123
396.85	76.948
397.21	75.877
397.57	75.486
397.92	77.232
398.28	77.931
398.64	76.867
399.00	77.483
399.35	77.540
399.71	76.278
400.07	78.900
400.42	77.785
400.78	78.138
401.14	76.951
401.49	77.784
401.85	77.697
402.21	78.193
402.57	77.812
402.92	76.788
403.28	77.820
403.63	79.823
403.99	78.699
404.35	79.325
404.70	76.786
405.06	76.616
405.42	78.496
405.77	77.281
406.13	77.823
406.49	77.916
406.84	78.484
407.20	78.507
407.55	78.686
407.91	78.743
408.27	78.904
408.62	78.092
408.98	77.079
409.34	80.050
409.69	77.455
410.05	77.278
410.40	78.148
410.76	79.554
411.11	79.875
411.47	78.304
411.83	78.343
412.18	80.180
412.54	77.965
412.89	78.448
413.25	79.603
413.60	79.006
413.96	78.098
414.31	80.061
414.67	79.474
415.03	80.160
415.38	77.807
415.74	80.521
416.09	80.144
416.45	81.026
416.80	79.709
417.16	82.251
417.51	80.480
417.87	79.074
418.22	82.578
418.58	81.538
418.93	81.317
419.29	79.193
419.64	81.594
420.00	81.549
420.35	80.239
420.71	82.078
421.06	81.031
421.42	81.851
421.77	81.850
422.12	82.520
422.48	81.375
422.83	80.278
423.19	83.916
423.54	82.481
423.90	82.214
424.25	82.377
424.61	83.905
424.96	81.823
425.31	82.958
425.67	84.038
426.02	84.629
426.38	84.283
426.73	83.172
427.09	86.582
427.44	82.235
427.79	84.207
428.15	84.163
428.50	85.100
428.85	83.907
429.21	84.437
429.56	86.092
429.92	83.924
430.27	82.907
430.62	82.750
430.98	85.350
431.33	86.067
431.68	83.673
432.04	85.690
432.39	84.484
432.74	84.305
433.10	87.241
433.45	85.185
433.80	86.477
434.16	85.873
434.51	85.054
434.86	87.050
435.22	86.091
435.57	87.523
435.92	87.066
436.28	86.464
436.63	86.309
436.98	86.153
437.34	86.812
437.69	88.909
438.04	87.236
438.39	86.805
438.75	88.282
439.10	86.927
439.45	88.497
439.81	86.300
440.16	89.489
440.51	87.582
440.86	90.030
441.22	86.765
441.57	88.852
441.92	89.402
442.27	88.415
442.63	88.490
442.98	88.340
443.33	86.978
443.68	88.435
444.03	88.723
444.39	86.522
444.74	89.186
445.09	87.639
445.44	89.288
445.79	91.129
446.15	87.775
446.50	88.907
446.85	89.320
447.20	88.269
447.55	86.551
447.91	88.381
448.26	88.219
448.61	88.831
448.96	89.099
449.31	90.694
449.66	89.315
450.02	88.648
450.37	89.864
450.72	88.660
451.07	90.886
451.42	87.765
451.77	88.005
452.12	88.218
452.47	88.152
452.83	89.046
453.18	88.172
453.53	89.001
453.88	88.646
454.23	88.322
454.58	88.665
454.93	89.497
455.28	86.413
455.63	89.089
455.98	88.515
456.34	87.867
456.69	88.374
457.04	88.784
457.39	88.518
457.74	88.513
458.09	86.051
458.44	89.175
458.79	88.347
459.14	88.215
459.49	88.299
459.84	88.381
460.19	89.745
460.54	89.487
460.89	88.580
461.24	88.820
461.59	88.302
461.94	86.415
462.29	89.807
462.64	89.900
462.99	87.678
463.34	88.248
463.69	88.546
464.04	87.651
464.39	88.660
464.74	87.669
465.09	88.896
465.44	87.882
465.79	87.132
466.14	87.685
466.49	88.442
466.84	87.745
467.19	87.109
467.54	88.250
467.89	90.019
468.24	88.260
468.59	89.460
468.94	87.683
469.29	87.869
469.64	88.790
469.99	90.399
470.34	89.010
470.68	91.424
471.03	89.950
471.38	90.014
471.73	88.655
472.08	86.499
472.43	89.799
472.78	87.526
473.13	88.707
473.48	88.534
473.83	86.924
474.17	89.637
474.52	87.620
474.87	89.030
475.22	88.530
475.57	87.747
475.92	89.797
476.27	87.835
476.61	88.831
476.96	85.890
477.31	86.804
477.66	87.303
478.01	89.444
478.36	87.037
478.70	89.995
479.05	86.978
479.40	87.122
479.75	87.904
480.10	86.636
480.45	87.800
480.79	88.973
481.14	90.779
481.49	86.355
481.84	87.645
482.19	86.997
482.53	88.297
482.88	85.728
483.23	87.332
483.58	88.066
483.92	86.254
484.27	85.506
484.62	85.567
484.97	86.733
485.31	84.718
485.66	83.853
486.01	81.909
486.36	81.723
486.70	82.072
487.05	83.158
487.40	84.281
487.75	85.380
488.09	87.670
488.44	86.176
488.79	88.270
489.13	87.780
489.48	87.944
489.83	87.399
490.17	87.371
490.52	87.252
490.87	84.637
491.22	88.682
491.56	86.575
491.91	87.094
492.26	87.846
492.60	86.660
492.95	88.588
493.30	86.126
493.64	88.065
493.99	87.536
494.34	86.602
494.68	86.286
495.03	85.888
495.37	88.126
495.72	86.421
496.07	88.585
496.41	87.877
496.76	87.241
497.11	86.586
497.45	86.444
497.80	88.850
498.14	86.587
498.49	88.421
498.84	87.475
499.18	88.002
499.53	88.046
499.87	87.403
500.22	88.032
500.56	87.494
500.91	87.701
501.26	86.703
501.60	87.850
501.95	87.191
502.29	87.554
502.64	87.452
502.98	88.505
503.33	85.207
503.67	85.831
504.02	87.781
504.36	88.422
504.71	87.525
505.06	85.657
505.40	86.345
505.75	87.732
506.09	87.937
506.44	88.398
506.78	87.551
507.13	88.004
507.47	87.728
507.82	88.782
508.16	88.801
508.51	87.513
508.85	87.703
509.19	88.824
509.54	88.204
509.88	87.594
510.23	88.973
510.57	87.440
510.92	88.113
511.26	89.089
511.61	88.944
511.95	87.507
512.30	89.191
512.64	87.590
512.98	87.423
513.33	88.081
513.67	87.265
514.02	89.931
514.36	90.343
514.70	90.326
515.05	91.069
515.39	89.847
515.74	91.737
516.08	89.659
516.42	88.928
516.77	90.989
517.11	90.564
517.46	91.382
517.80	89.511
518.14	90.447
518.49	89.543
518.83	89.915
519.17	89.691
519.52	89.284
519.86	89.496
520.20	89.733
520.55	89.306
520.89	89.272
521.23	89.930
521.58	90.852
521.92	90.256
522.26	90.371
522.61	91.494
522.95	92.450
523.29	88.310
523.64	90.025
523.98	90.797
524.32	90.013
524.66	90.781
525.01	91.039
525.35	90.214
525.69	92.525
526.04	89.484
526.38	92.412
526.72	90.647
527.06	89.364
527.41	88.852
527.75	91.689
528.09	90.698
528.43	90.479
528.78	90.495
529.12	90.194
529.46	91.228
529.80	89.424
530.15	91.089
530.49	91.987
530.83	92.613
531.17	88.986
531.51	91.997
531.86	91.162
532.20	91.441
532.54	90.674
532.88	91.170
533.22	89.987
533.57	89.974
533.91	90.144
534.25	90.299
534.59	90.763
534.93	88.483
535.27	90.482
535.62	89.695
535.96	90.215
536.30	90.897
536.64	92.557
536.98	88.641
537.32	92.817
537.66	92.286
538.01	91.119
538.35	91.817
538.69	89.081
539.03	89.884
539.37	90.983
539.71	90.048
540.05	90.563
540.39	89.474
540.73	90.446
541.07	90.815
541.42	90.255
541.76	91.741
542.10	92.085
542.44	91.730
542.78	89.401
543.12	90.453
543.46	90.612
543.80	90.770
544.14	88.919
544.48	89.540
544.82	92.550
545.16	91.325
545.50	90.521
545.84	91.856
546.18	92.695
546.52	91.348
546.86	91.229
547.20	90.415
547.54	90.954
547.88	91.304
548.22	88.955
548.56	88.720
548.90	90.296
549.24	89.945
549.58	89.210
549.92	89.064
550.26	91.355
550.60	93.457
550.94	90.366
551.28	93.045
551.62	94.385
551.96	93.835
552.30	90.570
552.64	91.044
552.98	90.788
553.32	90.585
553.66	91.292
554.00	92.409
554.34	92.245
554.68	90.118
555.02	91.592
555.36	92.595
555.69	91.648
556.03	90.935
556.37	91.815
556.71	92.058
557.05	94.109
557.39	90.409
557.73	91.604
558.07	93.891
558.41	92.649
558.75	95.168
559.08	91.095
559.42	93.651
559.76	94.636
560.10	91.514
560.44	91.214
560.78	92.308
561.12	92.031
561.45	91.497
561.79	91.947
562.13	90.916
562.47	92.014
562.81	92.507
563.15	91.114
563.48	93.494
563.82	93.137
564.16	93.175
564.50	90.068
564.84	90.361
565.17	92.086
565.51	93.852
565.85	94.239
566.19	91.777
566.52	93.298
566.86	92.224
567.20	91.158
567.54	91.910
567.88	92.033
568.21	91.742
568.55	90.109
568.89	91.478
569.23	89.360
569.56	88.135
569.90	88.429
570.24	86.267
570.57	87.927
570.91	87.034
571.25	85.794
571.59	85.332
571.92	84.444
572.26	86.141
572.60	85.643
572.93	85.974
573.27	85.549
573.61	86.187
573.95	85.909
574.28	84.375
574.62	84.134
574.96	84.767
575.29	83.771
575.63	82.690
575.97	84.142
576.30	85.297
576.64	84.132
576.98	85.380
577.31	84.787
577.65	84.679
577.98	83.453
578.32	83.066
578.66	82.893
578.99	84.347
579.33	84.662
579.67	83.422
580.00	84.608
580.34	85.149
580.67	84.397
581.01	85.495
581.35	83.549
581.68	83.881
582.02	82.896
582.35	83.324
582.69	82.918
583.02	83.807
583.36	85.403
583.70	87.020
584.03	87.879
584.37	88.340
584.70	86.181
585.04	84.948
585.37	83.759
585.71	85.139
586.04	85.023
586.38	84.743
586.72	86.628
587.05	87.117
587.39	86.385
587.72	87.452
588.06	86.493
588.39	86.984
588.73	87.851
589.06	88.291
589.40	87.522
589.73	88.719
590.07	88.029
590.40	88.816
590.73	90.486
591.07	89.567
591.40	89.760
591.74	89.638
592.07	89.657
592.41	89.929
592.74	88.411
593.08	85.435
593.41	86.590
593.75	86.261
594.08	85.788
594.41	86.790
594.75	87.595
595.08	88.838
595.42	87.302
595.75	88.434
596.09	89.484
596.42	89.872
596.75	90.409
597.09	89.795
597.42	90.154
597.75	90.609
598.09	88.547
598.42	88.764
598.76	87.859
599.09	86.699
599.42	86.472
599.76	87.020
600.09	86.425
600.42	86.808
600.76	86.924
601.09	88.779
601.42	88.053
601.76	88.170
602.09	88.944
602.42	89.975
602.76	89.389
603.09	89.410
603.42	91.597
603.76	88.952
604.09	88.457
604.42	90.059
604.76	90.743
605.09	89.580
605.42	89.165
605.75	89.930
606.09	88.365
606.42	88.407
606.75	88.615
607.09	88.132
607.42	88.037
607.75	89.387
608.08	88.814
608.42	88.259
608.75	91.229
609.08	91.281
609.41	92.284
609.75	91.784
610.08	91.063
610.41	90.145
610.74	90.590
611.07	91.886
611.41	91.956
611.74	92.004
612.07	92.024
612.40	92.068
612.73	94.068
613.07	92.182
613.40	90.919
613.73	93.117
614.06	92.321
614.39	91.765
614.72	91.485
615.06	91.676
615.39	89.083
615.72	89.505
616.05	91.341
616.38	90.085
616.71	92.232
617.05	94.626
617.38	92.269
617.71	93.396
618.04	94.730
618.37	94.893
618.70	94.719
619.03	96.389
619.36	95.441
619.69	99.166
620.03	96.494
620.36	95.923
620.69	94.433
621.02	94.266
621.35	99.087
621.68	98.810
622.01	98.083
622.34	96.967
622.67	96.057
623.00	95.712
623.33	96.875
623.66	94.390
623.99	94.024
624.32	97.034
624.65	95.789
624.99	96.087
625.32	94.920
625.65	98.429
625.98	97.341
626.31	96.342
626.64	99.307
626.97	99.040
627.30	100.963
627.63	96.447
627.96	98.922
628.29	101.018
628.62	100.787
628.95	101.303
629.28	102.722
629.61	101.097
629.94	100.978
630.26	99.802
630.59	104.162
630.92	101.231
631.25	101.641
631.58	103.414
631.91	103.070
632.24	106.995
632.57	104.432
632.90	102.966
633.23	101.294
633.56	109.194
633.89	102.959
634.22	107.407
634.55	106.734
634.88	108.046
635.20	105.641
635.53	108.000
635.86	107.542
636.19	108.021
636.52	107.270
636.85	102.357
637.18	104.528
637.51	103.899
637.83	102.628
638.16	108.322
638.49	103.678
638.82	105.263
639.15	107.463
639.48	109.766
639.81	106.137
640.13	109.812
640.46	106.560
640.79	109.131
641.12	105.318
641.45	109.760
641.77	107.111
642.10	112.796
642.43	108.521
642.76	111.056
643.09	108.885
643.41	108.738
643.74	106.755
644.07	107.389
644.40	112.331
644.73	113.310
645.05	107.047
645.38	112.875
645.71	109.574
646.04	113.285
646.36	109.043
646.69	113.489
647.02	113.043
647.35	113.060
647.67	108.958
648.00	113.060
648.33	107.167
648.66	110.339
648.98	107.873
649.31	110.579
649.64	107.535
649.96	106.969
650.29	111.414
650.62	108.547
650.94	115.370
651.27	115.642
651.60	114.955
651.92	111.538
652.25	109.769
652.58	105.000
652.90	113.379
653.23	107.059
653.56	104.061
653.88	107.045
654.21	106.830
654.54	108.489
654.86	111.205
655.19	105.994
655.52	95.201
655.84	81.447
656.17	89.798
656.49	100.000
656.82	100.000
657.15	100.000
657.47	100.000
657.80	83.836
658.13	58.978
658.45	95.067
658.78	97.144
659.10	98.513
659.43	101.555
659.75	106.364
660.08	106.621
660.41	110.623
660.73	109.807
661.06	112.825
661.38	113.112
661.71	109.856
662.03	116.309
662.36	115.165
662.68	112.832
663.01	117.249
663.33	114.385
663.66	113.953
663.98	114.651
664.31	110.874
664.63	117.512
664.96	111.087
665.28	110.596
665.61	114.286
665.93	115.870
666.26	114.100
666.58	114.765
666.91	118.824
667.23	117.925
667.56	116.351
667.88	116.547
668.21	117.422
668.53	117.967
668.86	114.858
669.18	112.028
669.50	116.223
669.83	114.419
670.15	113.520
670.48	114.115
670.80	112.903
671.13	108.949
671.45	107.306
671.77	112.446
672.10	108.713
672.42	104.682
672.75	107.993
673.07	110.733
673.39	110.092
673.72	108.284
674.04	111.458
674.37	113.136
674.69	111.991
675.01	114.444
675.34	110.586
675.66	117.361
675.98	113.082
676.31	113.303
676.63	111.639
676.95	109.773
677.28	114.824
677.60	115.422
677.92	111.239
678.25	111.379
678.57	109.957
678.89	112.185
679.22	114.094
679.54	108.233
679.86	105.964
680.18	106.408
680.51	107.008
680.83	107.157
681.15	108.000
681.48	107.787
681.80	108.264
682.12	106.653
682.44	110.879
682.77	113.024
683.09	113.730
683.41	108.182
683.73	108.525
684.06	112.168
684.38	111.398
684.70	111.983
685.02	108.506
685.34	109.684
685.67	105.253
685.99	105.063
686.31	104.602
686.63	105.566
686.96	106.464
687.28	107.273
687.60	106.654
687.92	107.475
688.24	108.065
688.56	114.192
688.89	111.384
689.21	111.333
689.53	113.457
689.85	112.326
690.17	108.482
690.49	113.712
690.82	112.621
691.14	109.048
691.46	110.047
691.78	112.838
692.10	110.753
692.42	109.091
692.74	105.128
693.06	109.459
693.39	105.656
693.71	106.787
694.03	110.624
694.35	113.551
694.67	111.364
694.99	109.661
695.31	113.316
695.63	108.000
695.95	107.828
696.27	110.881
696.59	116.667
696.91	111.765
697.23	111.054
697.56	113.366
697.88	106.452
698.20	111.162
698.52	111.059
698.84	109.091
699.16	112.750
699.48	113.033
699.80	106.948
700.12	111.860
700.44	113.445
700.76	115.988
701.08	110.303
701.40	111.747
701.72	120.679
702.04	126.403
702.36	122.742
702.68	109.009
703.00	117.273
703.32	109.677
703.64	108.475
703.96	108.986
704.28	110.736
704.60	111.111
704.91	117.035
705.23	114.286
705.55	122.261
705.87	123.105
706.19	120.741
706.51	113.058
706.83	113.505
707.15	108.100
707.47	108.964
707.79	107.031
708.11	105.750
708.43	107.500
708.74	106.718
709.06	112.113
709.38	116.820
709.70	111.834
710.02	111.783
710.34	117.028
710.66	108.974
710.98	118.212
711.29	118.689
711.61	114.915
711.93	115.635
712.25	120.619
712.57	120.513
712.89	117.537
713.20	113.841
713.52	112.544
713.84	113.993
714.16	116.495
714.48	113.871
714.80	112.179
715.11	112.158
715.43	106.583
715.75	113.000
716.07	108.970
716.39	115.101
716.70	117.343
717.02	114.504
717.34	118.219
717.66	122.566
717.97	120.435
718.29	118.828
718.61	112.992
718.93	115.116
719.24	117.110
719.56	116.466
719.88	107.560
720.20	115.152
720.51	112.261
720.83	116.988
721.15	118.067
721.46	120.161
721.78	112.648
722.10	105.576
722.42	116.183
722.73	113.061
723.05	116.735
723.37	120.339
723.68	122.072
724.00	117.521
724.32	116.889
724.63	119.091
724.95	114.410
725.27	121.659
725.58	118.644
725.90	107.143
726.22	114.672
726.53	106.780
726.85	110.112
727.16	116.226
727.48	112.146
727.80	116.194
728.11	115.678
728.43	109.020
728.74	107.661
729.06	110.400
729.38	115.414
729.69	115.936
730.01	110.769
730.32	118.657
730.64	105.654
730.96	115.849
731.27	102.000
731.59	108.814
731.90	114.331
732.22	108.833
732.53	113.289
732.85	111.348
733.16	110.101
733.48	104.317
733.80	109.783
734.11	107.119
734.43	111.340
734.74	101.515
735.06	111.726
735.37	103.625
735.69	114.141
736.00	108.014
736.32	104.027
736.63	114.085
736.95	108.874
737.26	105.338
737.58	107.718
737.89	110.989
738.21	111.278
738.52	114.403
738.83	117.904
739.15	117.467
739.46	111.024
739.78	101.465
740.09	102.941
740.41	109.420
740.72	112.598
741.04	113.360
741.35	113.191
741.66	117.062
741.98	119.898
742.29	116.337
742.61	118.848
742.92	108.057
743.23	109.259
743.55	114.932
743.86	116.268
744.18	116.268
744.49	115.957
744.80	126.630
745.12	123.529
745.43	107.317
745.74	122.396
746.06	115.610
746.37	117.277
746.68	119.905
747.00	117.553
747.31	112.935
747.62	115.534
747.94	115.311
748.25	110.396
748.56	126.776
748.88	119.372
749.19	123.936
749.50	116.749
749.82	104.245
750.13	116.514
750.44	110.526
750.75	111.567
751.07	113.504
751.38	106.513
751.69	104.706
752.01	114.341
752.32	107.570
752.63	110.672
752.94	113.362
753.26	111.297
753.57	110.407
753.88	118.584
754.19	114.167
754.51	115.289
754.82	109.717
755.13	115.833
755.44	106.855
755.75	114.844
756.07	107.004
756.38	104.906
756.69	108.046
757.00	98.667
757.31	106.863
757.63	103.354
757.94	96.667
758.25	96.164
758.56	102.128
758.87	96.601
759.18	97.196
759.50	109.091
759.81	103.344
760.12	103.226
760.43	100.000
760.74	105.864
761.05	108.923
761.36	105.398
761.67	104.242
761.99	107.143
762.30	108.727
762.61	105.929
762.92	110.860
763.23	107.207
763.54	109.813
763.85	111.441
764.16	109.544
764.47	110.484
764.78	101.465
765.10	104.714
765.41	104.101
765.72	104.762
766.03	109.023
766.34	96.350
766.65	107.968
766.96	112.626
767.27	109.574
767.58	109.195
767.89	138.298
768.20	103.977
768.51	112.088
768.82	110.345
769.13	100.922
769.44	102.146
769.75	108.676
770.06	100.000
770.37	105.769
770.68	108.122
770.99	103.620
771.30	113.235
771.61	108.145
771.92	110.345
772.23	110.345
772.54	112.366
772.85	118.519
773.16	109.551
773.47	116.993
773.78	119.608
774.09	103.593
774.39	110.667
774.70	106.369
775.01	124.138
775.32	115.000
775.63	119.835
775.94	112.214
776.25	114.961
776.56	107.500
776.87	130.769
777.18	123.077
777.48	117.241
777.79	107.826
778.10	112.381
778.41	115.315
778.72	111.905
779.03	111.278
779.34	114.894
779.65	110.959
779.95	107.534
780.26	106.207
780.57	108.943
780.88	108.661
781.19	115.517
781.50	115.504
781.80	100.592
782.11	97.484
782.42	122.308
782.73	109.353
783.04	112.593
783.34	107.639
783.65	100.855
783.96	120.492
784.27	106.207
784.57	112.195
784.88	109.375
785.19	134.000
785.50	119.000
785.81	106.897
786.11	112.931
786.42	122.330
786.73	124.545
787.04	124.490
787.34	105.357
787.65	113.333
787.96	105.310
788.26	114.545
788.57	108.547
788.88	109.375
789.19	100.794
789.49	108.696
789.80	117.347
790.11	124.242
790.41	95.455
790.72	120.652
791.03	135.227
791.33	131.250
791.64	118.750
791.95	108.140
792.25	101.064
792.56	110.112
792.87	127.397
793.17	115.942
793.48	109.333
793.79	113.750
794.09	128.750
794.40	100.000
794.70	107.767
795.01	90.244
795.32	97.436
795.62	117.143
795.93	114.706
796.23	105.660
796.54	108.333
796.85	126.471
797.15	115.493
797.46	122.222
797.76	133.333
798.07	98.837
798.37	111.842
798.68	119.697
798.99	90.123
799.29	115.714
799.60	105.797
799.90	117.333
800.21	127.869
800.51	120.000
800.82	115.254
801.12	128.986
801.43	132.787
801.73	112.698
802.04	124.000
802.34	102.985
802.65	130.769
802.95	82.143
803.26	140.385
803.56	113.725
803.87	115.217
804.17	101.333
804.48	128.571
804.78	111.111
805.09	117.391
805.39	135.556
805.70	140.741
806.00	100.000
806.30	108.451
806.61	108.571
806.91	105.556
807.22	97.368
807.52	125.333
807.83	138.182
808.13	98.611
808.43	100.000
808.74	104.478
809.04	108.475
809.35	117.308
809.65	121.875
809.95	143.243
810.26	134.091
810.56	90.411
810.86	100.000
811.17	120.000
811.47	122.449
811.77	131.579
812.08	125.000
812.38	120.755
812.69	132.500
812.99	112.121
813.29	131.579
813.59	111.429
813.90	129.545
814.20	138.462
814.50	117.308
814.81	113.208
815.11	110.638
815.41	103.390
815.72	140.476
816.02	117.647
816.32	85.417
816.62	160.976
816.93	110.811
817.23	114.286
817.53	114.583
817.84	115.217
818.14	100.000
818.44	123.684
818.74	130.435
819.04	115.000
819.35	127.027
819.65	126.471
819.95	116.667
820.25	111.905
820.56	120.000
820.86	86.207
821.16	157.500
821.46	123.404
821.76	145.000
822.07	88.372
822.37	91.892
822.67	137.500
822.97	138.095
823.27	96.429
823.57	172.000
823.88	140.741
824.18	150.000
824.48	132.353
824.78	125.806
825.08	126.087
825.38	130.303
825.69	154.167
825.99	110.526
826.29	91.667
826.59	220.000
826.89	180.952
827.19	113.043
827.49	102.500
827.79	134.286
828.09	182.143
828.39	151.515
828.70	140.541
829.00	139.286
829.30	109.524
829.60	133.333
829.90	146.875
830.20	100.000
830.50	100.000
830.80	134.783
831.10	140.909
831.40	124.242
831.70	135.484
832.00	166.667
832.30	119.048
832.60	208.333
832.90	131.034
833.20	115.000
833.50	87.879
833.80	77.778
834.10	126.923
834.40	115.625
834.70	400.000
835.00	231.579
835.30	169.231
835.60	280.000
835.90	100.000
836.20	159.091
836.50	107.143
836.80	84.615
837.10	67.857
837.40	666.667
837.70	136.364
838.00	163.636
838.30	73.913
838.60	269.231
838.90	140.909
839.19	71.429
839.49	73.333
839.79	253.846
840.09	116.667
840.39	167.857
840.69	57.143
840.99	126.923
841.29	121.053
841.59	190.000
841.88	254.545
842.18	220.000
842.48	150.000
842.78	100.000
843.08	100.000
843.38	120.000
843.68	117.391
843.97	140.000
844.27	100.000
844.57	95.000
844.87	122.222
845.17	52.381
845.47	153.333
845.76	100.000
846.06	64.706
846.36	270.000
846.66	50.000
846.96	200.000
847.25	187.500
847.55	185.714
847.85	200.000
848.15	131.818
848.44	-66.667
848.74	170.000
849.04	96.296
849.34	81.818
849.63	250.000
849.93	100.000
850.23	38.889
850.53	200.000
850.82	115.385
851.12	177.778
851.42	100.000
851.71	80.769
852.01	164.286
852.31	300.000
852.61	127.273
852.90	120.000
853.20	131.579
853.50	66.667
853.79	139.130
854.09	154.167
854.39	157.895
854.68	145.833
854.98	77.419
855.28	138.462
855.57	120.000
855.87	138.889
856.17	111.111
856.46	121.429
856.76	153.333
857.05	266.667
857.35	72.000
857.65	105.556
857.94	161.538
858.24	79.310
858.53	177.778
858.83	92.593
859.13	77.273
859.42	117.391
859.72	275.000
860.01	200.000
860.31	96.000
860.60	47.619
860.90	33.333
861.20	166.667
861.49	100.000
861.79	60.000
862.08	75.000
862.38	173.333
862.67	380.000
862.97	250.000
863.26	83.333
863.56	94.444
863.85	266.667
864.15	100.000
864.44	160.000
864.74	135.714
865.03	-75.000
865.33	20.000
865.62	183.333
865.92	175.000
866.21	33.333
866.51	118.750
866.80	63.636
867.10	150.000
867.39	150.000
867.69	0.000
867.98	115.385
868.27	333.333
868.57	93.333
868.86	122.222
869.16	23.077
869.45	173.333
869.75	-500.000
870.04	0.000
870.33	57.143
870.63	104.762
870.92	-300.000
871.22	260.000
871.51	1600.000
871.80	144.444
872.10	-133.333
>>>>>End Processed Spectral Data<<<<<
