SpectraSuite Data File
++++++++++++++++++++++++++++++++++++
Date: Fri May 15 17:12:37 PDT 2015
User: schluterlab
Dark Spectrum Present: Yes
Reference Spectrum Present: Yes
Number of Sampled Component Spectra: 1
Spectrometers: USB2E3373
Integration Time (usec): 3000 (USB2E3373)
Spectra Averaged: 3 (USB2E3373)
Boxcar Smoothing: 0 (USB2E3373)
Correct for Electrical Dark: No (USB2E3373)
Strobe/Lamp Enabled: No (USB2E3373)
Correct for Detector Non-linearity: No (USB2E3373)
Correct for Stray Light: No (USB2E3373)
Number of Pixels in Processed Spectrum: 2048
>>>>>Begin Processed Spectral Data<<<<<
178.53	0.000
178.91	0.000
179.29	87.500
179.67	200.000
180.04	28.571
180.42	50.000
180.80	600.000
181.18	-500.000
181.56	-500.000
181.94	350.000
182.31	100.000
182.69	80.000
183.07	-33.333
183.45	-40.000
183.83	-166.667
184.20	27.273
184.58	11.111
184.96	-325.000
185.34	166.667
185.72	100.000
186.09	46.154
186.47	500.000
186.85	-33.333
187.23	133.333
187.61	-200.000
187.98	-233.333
188.36	0.000
188.74	-66.667
189.12	82.353
189.49	72.222
189.87	0.000
190.25	21.429
190.63	-50.000
191.00	300.000
191.38	42.105
191.76	100.000
192.14	-325.000
192.51	150.000
192.89	-33.333
193.27	-100.000
193.65	50.000
194.02	136.364
194.40	10.000
194.78	-162.500
195.15	-16.667
195.53	-75.000
195.91	175.000
196.29	-125.000
196.66	23.077
197.04	14.286
197.42	44.444
197.79	-400.000
198.17	30.769
198.55	900.000
198.92	-366.667
199.30	-300.000
199.68	-40.000
200.05	-333.333
200.43	0.000
200.81	233.333
201.18	-200.000
201.56	-400.000
201.94	-50.000
202.31	-300.000
202.69	-140.000
203.07	75.000
203.44	1300.000
203.82	0.000
204.19	78.571
204.57	-200.000
204.95	50.000
205.32	30.000
205.70	214.286
206.08	-125.000
206.45	200.000
206.83	42.857
207.20	-100.000
207.58	600.000
207.96	-200.000
208.33	-10.000
208.71	-75.000
209.08	-66.667
209.46	100.000
209.84	-40.000
210.21	-300.000
210.59	71.429
210.96	83.333
211.34	-50.000
211.71	0.000
212.09	-57.143
212.46	-1000.000
212.84	0.000
213.22	40.000
213.59	200.000
213.97	76.923
214.34	72.727
214.72	0.000
215.09	125.000
215.47	69.231
215.84	18.182
216.22	-33.333
216.59	-50.000
216.97	250.000
217.34	-150.000
217.72	-100.000
218.09	212.500
218.47	100.000
218.84	0.000
219.22	33.333
219.59	80.000
219.97	-166.667
220.34	-25.000
220.72	242.857
221.09	100.000
221.47	250.000
221.84	-400.000
222.22	-500.000
222.59	18.182
222.97	100.000
223.34	-266.667
223.72	21.429
224.09	9.524
224.46	42.857
224.84	66.667
225.21	-10.000
225.59	0.000
225.96	0.000
226.34	200.000
226.71	-28.571
227.08	-116.667
227.46	50.000
227.83	150.000
228.21	-11.111
228.58	9.091
228.95	25.000
229.33	20.000
229.70	56.250
230.08	87.500
230.45	-14.286
230.82	-57.143
231.20	40.000
231.57	35.714
231.95	42.857
232.32	-130.000
232.69	92.857
233.07	66.667
233.44	20.000
233.81	-40.000
234.19	33.333
234.56	41.176
234.93	-200.000
235.31	300.000
235.68	-80.000
236.05	-15.385
236.43	0.000
236.80	11.765
237.17	28.125
237.55	30.000
237.92	-7.407
238.29	52.778
238.67	56.667
239.04	32.353
239.41	4.878
239.79	6.667
240.16	41.463
240.53	39.474
240.91	41.304
241.28	34.921
241.65	16.071
242.02	31.507
242.40	20.000
242.77	35.593
243.14	24.242
243.51	26.250
243.89	39.080
244.26	14.943
244.63	16.667
245.00	25.773
245.38	40.206
245.75	23.596
246.12	27.586
246.49	30.579
246.87	30.769
247.24	30.252
247.61	18.421
247.98	34.959
248.36	29.375
248.73	34.868
249.10	23.377
249.47	39.241
249.84	30.719
250.22	32.353
250.59	31.373
250.96	29.108
251.33	26.163
251.70	30.588
252.08	29.442
252.45	32.673
252.82	35.176
253.19	27.650
253.56	26.636
253.94	31.982
254.31	30.435
254.68	33.772
255.05	28.740
255.42	30.568
255.79	27.027
256.16	32.296
256.54	33.582
256.91	33.080
257.28	30.112
257.65	28.464
258.02	29.787
258.39	29.966
258.76	31.502
259.14	30.565
259.51	27.832
259.88	28.866
260.25	24.837
260.62	32.292
260.99	24.746
261.36	28.767
261.73	31.013
262.10	28.875
262.47	29.448
262.85	26.019
263.22	28.308
263.59	30.218
263.96	31.366
264.33	32.424
264.70	30.952
265.07	27.976
265.44	32.578
265.81	32.203
266.18	29.235
266.55	29.306
266.92	30.052
267.29	29.243
267.66	31.202
268.03	32.723
268.40	28.982
268.77	32.888
269.14	28.058
269.51	29.563
269.88	28.928
270.25	27.551
270.62	25.854
270.99	30.179
271.36	26.650
271.73	27.934
272.10	28.710
272.47	30.969
272.84	27.475
273.21	29.466
273.58	30.361
273.95	28.604
274.32	25.404
274.69	28.281
275.06	26.339
275.43	25.850
275.80	25.607
276.17	27.586
276.54	30.621
276.91	29.167
277.28	27.948
277.65	28.099
278.02	27.021
278.39	27.790
278.76	26.834
279.13	24.481
279.50	27.731
279.87	30.454
280.23	29.247
280.60	28.655
280.97	27.879
281.34	26.538
281.71	28.747
282.08	28.834
282.45	27.006
282.82	27.606
283.19	28.240
283.56	27.168
283.92	26.376
284.29	26.346
284.66	24.612
285.03	26.326
285.40	25.709
285.77	25.132
286.14	25.632
286.51	28.229
286.87	25.777
287.24	26.703
287.61	25.573
287.98	26.140
288.35	24.437
288.72	27.145
289.08	24.479
289.45	26.011
289.82	25.699
290.19	24.744
290.56	25.386
290.93	25.421
291.29	22.650
291.66	23.307
292.03	25.359
292.40	24.355
292.77	22.967
293.13	21.753
293.50	20.789
293.87	21.985
294.24	22.411
294.60	21.013
294.97	21.875
295.34	22.239
295.71	21.162
296.08	20.628
296.44	19.915
296.81	21.389
297.18	22.174
297.55	22.493
297.91	20.685
298.28	21.108
298.65	19.674
299.02	20.485
299.38	17.921
299.75	19.862
300.12	20.419
300.48	17.655
300.85	20.406
301.22	18.701
301.59	19.211
301.95	20.759
302.32	20.363
302.69	18.781
303.05	20.297
303.42	18.929
303.79	19.393
304.15	20.430
304.52	19.025
304.89	17.544
305.25	17.676
305.62	17.736
305.99	17.661
306.35	17.457
306.72	18.335
307.09	18.472
307.45	19.288
307.82	19.329
308.19	18.815
308.55	18.103
308.92	18.736
309.29	18.883
309.65	17.653
310.02	18.922
310.38	18.222
310.75	19.454
311.12	17.653
311.48	18.664
311.85	18.429
312.22	17.405
312.58	18.153
312.95	17.076
313.31	17.495
313.68	17.487
314.05	17.143
314.41	18.041
314.78	17.629
315.14	18.191
315.51	19.048
315.87	17.213
316.24	17.998
316.61	18.209
316.97	17.460
317.34	17.578
317.70	17.878
318.07	17.885
318.43	17.647
318.80	17.235
319.16	17.676
319.53	18.613
319.89	17.224
320.26	17.308
320.62	18.756
320.99	16.806
321.35	18.397
321.72	17.238
322.08	17.221
322.45	16.650
322.81	17.780
323.18	16.977
323.54	18.243
323.91	17.332
324.27	18.066
324.64	18.258
325.00	17.062
325.37	19.376
325.73	18.132
326.10	17.439
326.46	18.117
326.83	18.723
327.19	17.524
327.56	17.984
327.92	17.165
328.29	17.143
328.65	18.113
329.01	16.728
329.38	17.972
329.74	16.714
330.11	18.350
330.47	15.492
330.84	17.019
331.20	17.681
331.56	16.667
331.93	17.626
332.29	18.332
332.66	17.828
333.02	18.030
333.38	15.399
333.75	17.491
334.11	17.099
334.48	17.135
334.84	17.491
335.20	16.743
335.57	16.591
335.93	17.254
336.29	16.483
336.66	15.895
337.02	15.892
337.38	16.296
337.75	16.727
338.11	16.772
338.47	16.606
338.84	17.560
339.20	17.093
339.56	16.697
339.93	17.726
340.29	17.339
340.65	17.473
341.02	16.667
341.38	15.487
341.74	16.078
342.11	15.078
342.47	16.014
342.83	16.696
343.20	16.289
343.56	16.174
343.92	17.095
344.28	18.019
344.65	16.667
345.01	15.817
345.37	15.980
345.73	17.908
346.10	16.739
346.46	16.400
346.82	16.776
347.19	14.796
347.55	17.210
347.91	16.667
348.27	16.734
348.63	15.417
349.00	16.079
349.36	16.791
349.72	16.998
350.08	15.984
350.45	16.042
350.81	16.113
351.17	15.717
351.53	16.000
351.89	16.102
352.26	15.680
352.62	15.968
352.98	16.386
353.34	15.459
353.70	17.557
354.07	16.210
354.43	15.612
354.79	15.607
355.15	16.746
355.51	16.456
355.87	15.615
356.24	15.498
356.60	16.168
356.96	15.635
357.32	16.613
357.68	15.637
358.04	15.347
358.40	16.801
358.77	15.550
359.13	15.292
359.49	15.177
359.85	15.913
360.21	15.072
360.57	15.302
360.93	15.280
361.29	15.332
361.66	15.361
362.02	16.136
362.38	16.222
362.74	14.989
363.10	16.178
363.46	15.271
363.82	17.205
364.18	16.310
364.54	14.926
364.90	15.556
365.26	15.866
365.62	16.642
365.98	15.616
366.35	16.315
366.71	16.778
367.07	16.763
367.43	14.450
367.79	16.254
368.15	15.578
368.51	15.659
368.87	15.147
369.23	14.874
369.59	15.816
369.95	16.202
370.31	15.173
370.67	15.970
371.03	16.355
371.39	15.974
371.75	16.337
372.11	15.692
372.47	15.533
372.83	15.472
373.19	16.976
373.55	15.523
373.91	16.055
374.27	16.300
374.63	15.147
374.99	14.823
375.35	15.111
375.71	16.364
376.07	15.379
376.42	15.306
376.78	15.503
377.14	15.708
377.50	16.003
377.86	16.198
378.22	15.826
378.58	14.808
378.94	15.312
379.30	15.284
379.66	15.423
380.02	15.819
380.38	14.851
380.74	14.961
381.09	15.521
381.45	15.535
381.81	15.423
382.17	15.355
382.53	16.552
382.89	14.815
383.25	15.495
383.61	14.695
383.97	14.921
384.32	15.510
384.68	15.356
385.04	15.441
385.40	15.868
385.76	16.038
386.12	16.365
386.48	15.900
386.83	15.092
387.19	15.751
387.55	15.935
387.91	16.320
388.27	15.079
388.62	15.670
388.98	16.145
389.34	16.115
389.70	15.413
390.06	15.293
390.42	15.415
390.77	16.547
391.13	15.700
391.49	15.524
391.85	16.309
392.20	15.694
392.56	15.702
392.92	17.029
393.28	15.920
393.64	16.396
393.99	16.803
394.35	15.370
394.71	15.964
395.07	15.085
395.42	15.179
395.78	16.482
396.14	16.267
396.50	16.550
396.85	16.162
397.21	16.040
397.57	15.611
397.92	15.458
398.28	16.034
398.64	15.843
399.00	16.084
399.35	15.463
399.71	16.083
400.07	15.719
400.42	15.667
400.78	15.983
401.14	16.152
401.49	16.617
401.85	17.063
402.21	15.723
402.57	16.375
402.92	16.186
403.28	16.416
403.63	16.141
403.99	16.008
404.35	16.927
404.70	16.131
405.06	16.157
405.42	16.097
405.77	16.037
406.13	16.123
406.49	15.453
406.84	16.137
407.20	16.978
407.55	16.484
407.91	16.310
408.27	16.444
408.62	17.662
408.98	16.759
409.34	16.667
409.69	16.021
410.05	16.379
410.40	16.728
410.76	16.767
411.11	16.813
411.47	17.291
411.83	16.761
412.18	17.117
412.54	16.854
412.89	16.256
413.25	17.268
413.60	16.211
413.96	16.687
414.31	17.012
414.67	15.908
415.03	17.044
415.38	17.298
415.74	16.808
416.09	16.917
416.45	17.218
416.80	17.581
417.16	17.749
417.51	16.389
417.87	17.145
418.22	17.163
418.58	17.659
418.93	17.743
419.29	16.901
419.64	17.304
420.00	18.325
420.35	17.493
420.71	18.348
421.06	16.820
421.42	18.149
421.77	18.092
422.12	16.572
422.48	17.271
422.83	17.517
423.19	17.381
423.54	17.460
423.90	16.902
424.25	17.738
424.61	17.258
424.96	17.305
425.31	17.678
425.67	17.840
426.02	17.668
426.38	17.157
426.73	17.978
427.09	18.101
427.44	18.118
427.79	17.678
428.15	18.386
428.50	17.626
428.85	17.629
429.21	17.827
429.56	18.706
429.92	18.387
430.27	18.045
430.62	16.937
430.98	17.887
431.33	18.297
431.68	17.792
432.04	18.446
432.39	17.741
432.74	17.559
433.10	18.793
433.45	17.682
433.80	17.818
434.16	18.172
434.51	18.172
434.86	18.235
435.22	19.013
435.57	18.590
435.92	18.144
436.28	18.724
436.63	18.026
436.98	17.439
437.34	18.088
437.69	18.485
438.04	17.721
438.39	17.593
438.75	18.579
439.10	18.223
439.45	18.077
439.81	19.021
440.16	18.290
440.51	19.104
440.86	20.121
441.22	18.948
441.57	18.543
441.92	19.675
442.27	19.401
442.63	19.647
442.98	19.586
443.33	18.364
443.68	19.098
444.03	19.722
444.39	20.020
444.74	19.732
445.09	19.209
445.44	19.316
445.79	20.423
446.15	19.604
446.50	18.968
446.85	20.404
447.20	18.665
447.55	20.592
447.91	19.910
448.26	20.376
448.61	20.092
448.96	20.539
449.31	19.538
449.66	19.628
450.02	19.795
450.37	19.917
450.72	19.645
451.07	20.443
451.42	19.975
451.77	20.313
452.12	20.634
452.47	20.476
452.83	19.494
453.18	20.557
453.53	20.038
453.88	19.794
454.23	20.959
454.58	21.411
454.93	20.425
455.28	20.254
455.63	20.273
455.98	20.325
456.34	19.923
456.69	20.584
457.04	20.983
457.39	21.142
457.74	19.952
458.09	19.482
458.44	21.358
458.79	20.000
459.14	21.281
459.49	20.896
459.84	21.038
460.19	21.359
460.54	20.477
460.89	20.966
461.24	20.497
461.59	20.309
461.94	20.440
462.29	21.472
462.64	21.728
462.99	21.259
463.34	20.654
463.69	21.042
464.04	20.702
464.39	21.164
464.74	21.534
465.09	21.273
465.44	21.639
465.79	20.862
466.14	20.810
466.49	20.184
466.84	20.702
467.19	21.777
467.54	21.137
467.89	20.594
468.24	21.533
468.59	21.587
468.94	21.587
469.29	21.902
469.64	21.668
469.99	22.705
470.34	21.297
470.68	22.371
471.03	23.496
471.38	21.469
471.73	22.619
472.08	22.185
472.43	21.544
472.78	21.659
473.13	23.061
473.48	21.498
473.83	21.793
474.17	22.280
474.52	21.761
474.87	21.879
475.22	21.782
475.57	22.191
475.92	22.436
476.27	22.526
476.61	22.106
476.96	21.417
477.31	22.715
477.66	21.348
478.01	21.617
478.36	21.242
478.70	22.077
479.05	21.648
479.40	22.893
479.75	21.794
480.10	22.017
480.45	21.750
480.79	22.407
481.14	22.439
481.49	21.773
481.84	22.104
482.19	21.422
482.53	21.823
482.88	22.005
483.23	21.929
483.58	21.368
483.92	22.120
484.27	21.331
484.62	21.470
484.97	20.854
485.31	20.918
485.66	20.956
486.01	20.114
486.36	19.145
486.70	19.532
487.05	20.192
487.40	20.476
487.75	19.944
488.09	20.519
488.44	20.564
488.79	20.844
489.13	22.236
489.48	22.488
489.83	21.883
490.17	21.618
490.52	21.894
490.87	22.397
491.22	22.111
491.56	22.486
491.91	22.323
492.26	22.654
492.60	22.457
492.95	22.774
493.30	22.374
493.64	22.790
493.99	22.947
494.34	22.524
494.68	22.238
495.03	23.114
495.37	22.522
495.72	22.514
496.07	22.780
496.41	23.538
496.76	22.248
497.11	22.310
497.45	23.198
497.80	23.713
498.14	22.504
498.49	22.956
498.84	22.754
499.18	22.540
499.53	23.661
499.87	22.763
500.22	22.552
500.56	22.542
500.91	23.243
501.26	22.739
501.60	23.069
501.95	22.950
502.29	22.712
502.64	23.214
502.98	23.236
503.33	22.574
503.67	22.699
504.02	23.216
504.36	23.107
504.71	23.485
505.06	23.603
505.40	23.401
505.75	24.072
506.09	22.757
506.44	24.076
506.78	23.163
507.13	23.992
507.47	23.238
507.82	23.024
508.16	22.662
508.51	24.239
508.85	24.071
509.19	23.310
509.54	23.592
509.88	24.056
510.23	23.884
510.57	23.624
510.92	23.721
511.26	23.350
511.61	24.532
511.95	24.603
512.30	24.335
512.64	25.097
512.98	24.705
513.33	25.014
513.67	23.820
514.02	25.343
514.36	24.914
514.70	25.524
515.05	25.264
515.39	24.734
515.74	25.629
516.08	25.463
516.42	25.265
516.77	25.688
517.11	24.154
517.46	25.075
517.80	24.732
518.14	24.617
518.49	25.300
518.83	24.301
519.17	23.833
519.52	24.393
519.86	25.090
520.20	25.273
520.55	24.328
520.89	25.910
521.23	25.269
521.58	26.057
521.92	27.949
522.26	25.764
522.61	25.779
522.95	26.689
523.29	26.620
523.64	26.302
523.98	26.118
524.32	25.451
524.66	26.697
525.01	26.299
525.35	26.896
525.69	26.532
526.04	25.463
526.38	26.654
526.72	25.638
527.06	25.486
527.41	26.385
527.75	26.072
528.09	25.781
528.43	27.076
528.78	26.073
529.12	26.452
529.46	25.211
529.80	25.902
530.15	28.053
530.49	25.926
530.83	25.992
531.17	27.199
531.51	25.376
531.86	26.173
532.20	25.400
532.54	26.821
532.88	26.694
533.22	26.344
533.57	25.885
533.91	25.979
534.25	26.823
534.59	25.722
534.93	25.928
535.27	24.492
535.62	26.053
535.96	25.766
536.30	25.792
536.64	26.120
536.98	25.505
537.32	26.529
537.66	27.279
538.01	26.853
538.35	25.520
538.69	26.165
539.03	25.632
539.37	26.581
539.71	25.835
540.05	26.341
540.39	26.316
540.73	26.569
541.07	27.003
541.42	26.075
541.76	26.084
542.10	26.497
542.44	25.782
542.78	25.327
543.12	25.000
543.46	26.217
543.80	25.815
544.14	24.499
544.48	25.716
544.82	26.452
545.16	26.776
545.50	26.969
545.84	26.841
546.18	26.809
546.52	26.244
546.86	27.247
547.20	26.538
547.54	25.795
547.88	26.019
548.22	24.589
548.56	25.726
548.90	27.291
549.24	25.964
549.58	26.023
549.92	25.518
550.26	26.740
550.60	27.509
550.94	27.334
551.28	26.816
551.62	27.462
551.96	26.617
552.30	26.243
552.64	26.798
552.98	25.668
553.32	25.892
553.66	26.270
554.00	27.007
554.34	26.883
554.68	26.844
555.02	27.530
555.36	25.729
555.69	25.788
556.03	24.625
556.37	25.552
556.71	25.704
557.05	26.547
557.39	26.617
557.73	27.061
558.07	27.979
558.41	27.259
558.75	28.371
559.08	26.950
559.42	26.587
559.76	27.942
560.10	27.599
560.44	26.359
560.78	26.154
561.12	26.234
561.45	26.564
561.79	26.541
562.13	27.395
562.47	26.259
562.81	26.513
563.15	26.587
563.48	26.874
563.82	26.836
564.16	27.019
564.50	25.811
564.84	26.305
565.17	26.090
565.51	26.639
565.85	26.337
566.19	25.928
566.52	25.603
566.86	25.835
567.20	24.969
567.54	25.669
567.88	25.835
568.21	25.735
568.55	24.185
568.89	24.641
569.23	23.736
569.56	22.986
569.90	22.858
570.24	23.148
570.57	22.364
570.91	22.900
571.25	22.098
571.59	21.426
571.92	21.393
572.26	21.256
572.60	21.395
572.93	21.776
573.27	21.129
573.61	22.017
573.95	21.737
574.28	20.922
574.62	20.951
574.96	21.042
575.29	21.025
575.63	20.472
575.97	20.710
576.30	21.113
576.64	20.477
576.98	20.978
577.31	20.447
577.65	20.803
577.98	20.351
578.32	20.250
578.66	19.772
578.99	20.496
579.33	19.935
579.67	20.691
580.00	20.506
580.34	20.522
580.67	20.500
581.01	20.605
581.35	20.349
581.68	20.055
582.02	19.710
582.35	20.037
582.69	20.043
583.02	20.167
583.36	20.511
583.70	21.469
584.03	21.101
584.37	21.598
584.70	20.879
585.04	20.881
585.37	20.614
585.71	20.785
586.04	20.978
586.38	20.912
586.72	21.004
587.05	21.404
587.39	21.471
587.72	21.186
588.06	21.118
588.39	21.020
588.73	21.337
589.06	22.016
589.40	22.364
589.73	22.599
590.07	22.734
590.40	22.755
590.73	23.188
591.07	22.646
591.40	23.553
591.74	22.805
592.07	23.469
592.41	22.924
592.74	23.059
593.08	22.319
593.41	21.845
593.75	22.080
594.08	21.490
594.41	22.052
594.75	21.641
595.08	22.474
595.42	22.451
595.75	22.569
596.09	22.478
596.42	22.530
596.75	24.112
597.09	23.052
597.42	23.126
597.75	22.584
598.09	23.495
598.42	22.744
598.76	22.394
599.09	22.436
599.42	21.751
599.76	22.047
600.09	22.474
600.42	22.290
600.76	21.434
601.09	22.099
601.42	21.582
601.76	21.794
602.09	22.236
602.42	23.126
602.76	21.817
603.09	22.550
603.42	22.868
603.76	21.452
604.09	22.236
604.42	22.885
604.76	23.142
605.09	23.355
605.42	22.889
605.75	22.942
606.09	22.251
606.42	22.227
606.75	22.900
607.09	22.769
607.42	22.020
607.75	22.602
608.08	22.102
608.42	23.253
608.75	23.277
609.08	23.119
609.41	23.249
609.75	23.942
610.08	24.164
610.41	23.527
610.74	23.549
611.07	23.411
611.41	23.871
611.74	24.574
612.07	23.394
612.40	24.453
612.73	23.220
613.07	23.116
613.40	23.796
613.73	22.720
614.06	24.374
614.39	24.817
614.72	23.081
615.06	24.302
615.39	23.690
615.72	23.950
616.05	23.966
616.38	22.963
616.71	24.098
617.05	25.510
617.38	24.639
617.71	24.591
618.04	25.968
618.37	26.166
618.70	25.479
619.03	26.389
619.36	24.168
619.69	27.445
620.03	26.516
620.36	25.894
620.69	26.624
621.02	25.841
621.35	28.382
621.68	27.211
622.01	27.333
622.34	28.252
622.67	26.735
623.00	26.799
623.33	26.601
623.66	25.954
623.99	25.416
624.32	26.616
624.65	25.789
624.99	27.540
625.32	25.398
625.65	27.730
625.98	26.511
626.31	27.265
626.64	27.296
626.97	28.098
627.30	28.897
627.63	28.076
627.96	27.403
628.29	28.770
628.62	28.810
628.95	29.860
629.28	29.839
629.61	29.212
629.94	29.130
630.26	29.348
630.59	31.738
630.92	30.564
631.25	28.615
631.58	30.947
631.91	29.605
632.24	30.046
632.57	31.591
632.90	30.605
633.23	31.294
633.56	31.738
633.89	30.703
634.22	31.852
634.55	33.799
634.88	30.651
635.20	30.641
635.53	31.467
635.86	30.819
636.19	31.436
636.52	30.102
636.85	30.521
637.18	31.572
637.51	31.572
637.83	30.880
638.16	33.561
638.49	32.561
638.82	33.684
639.15	30.529
639.48	29.986
639.81	30.126
640.13	31.169
640.46	30.029
640.79	31.517
641.12	29.985
641.45	33.634
641.77	32.296
642.10	35.545
642.43	34.084
642.76	34.653
643.09	35.703
643.41	31.715
643.74	33.937
644.07	35.304
644.40	35.304
644.73	34.501
645.05	34.732
645.38	34.921
645.71	35.106
646.04	33.932
646.36	35.816
646.69	36.511
647.02	35.161
647.35	35.261
647.67	34.918
648.00	35.261
648.33	33.618
648.66	33.051
648.98	32.161
649.31	31.074
649.64	32.653
649.96	31.442
650.29	33.560
650.62	34.017
650.94	34.630
651.27	34.078
651.60	35.315
651.92	35.315
652.25	32.682
652.58	30.833
652.90	35.506
653.23	33.950
653.56	31.641
653.88	33.162
654.21	32.224
654.54	32.767
654.86	34.295
655.19	32.164
655.52	25.232
655.84	19.215
656.17	21.272
656.49	28.325
656.82	29.344
657.15	22.885
657.47	16.762
657.80	12.645
658.13	12.410
658.45	19.077
658.78	19.252
659.10	19.304
659.43	20.325
659.75	21.658
660.08	23.103
660.41	27.273
660.73	28.729
661.06	34.835
661.38	33.659
661.71	36.345
662.03	37.339
662.36	37.582
662.68	37.832
663.01	38.865
663.33	36.659
663.66	34.186
663.98	35.349
664.31	34.755
664.63	34.793
664.96	32.391
665.28	33.996
665.61	31.385
665.93	36.957
666.26	35.141
666.58	35.347
666.91	37.412
667.23	35.377
667.56	37.441
667.88	34.772
668.21	37.470
668.53	39.007
668.86	35.849
669.18	36.321
669.50	36.804
669.83	36.977
670.15	34.033
670.48	35.646
670.80	34.562
671.13	34.899
671.45	28.767
671.77	37.768
672.10	33.267
672.42	33.146
672.75	33.748
673.07	35.242
673.39	33.945
673.72	32.347
674.04	30.625
674.37	31.356
674.69	33.833
675.01	33.333
675.34	36.712
675.66	38.889
675.98	36.585
676.31	36.927
676.63	33.017
676.95	33.864
677.28	36.941
677.60	33.976
677.92	34.862
678.25	33.917
678.57	34.848
678.89	29.412
679.22	34.228
679.54	31.526
679.86	31.412
680.18	34.175
680.51	32.576
680.83	31.213
681.15	29.200
681.48	37.090
681.80	34.298
682.12	32.863
682.44	32.845
682.77	34.658
683.09	32.037
683.41	32.500
683.73	34.101
684.06	35.177
684.38	31.828
684.70	34.423
685.02	32.573
685.34	29.644
685.67	31.895
685.99	29.837
686.31	30.619
686.63	30.612
686.96	29.468
687.28	29.091
687.60	31.179
687.92	33.737
688.24	31.855
688.56	33.624
688.89	33.929
689.21	35.111
689.53	33.643
689.85	33.023
690.17	34.375
690.49	37.352
690.82	32.524
691.14	35.476
691.46	34.112
691.78	31.081
692.10	31.613
692.42	35.065
692.74	30.769
693.06	32.658
693.39	31.674
693.71	31.900
694.03	30.716
694.35	34.579
694.67	33.586
694.99	31.332
695.31	35.509
695.63	35.750
695.95	33.333
696.27	34.715
696.59	36.111
696.91	33.894
697.23	30.591
697.56	32.921
697.88	34.194
698.20	32.118
698.52	31.765
698.84	31.100
699.16	34.500
699.48	35.840
699.80	29.777
700.12	35.849
700.44	35.014
700.76	34.302
701.08	33.939
701.40	35.843
701.72	41.049
702.04	38.284
702.36	38.127
702.68	32.432
703.00	35.455
703.32	34.604
703.64	30.508
703.96	35.362
704.28	36.196
704.60	37.143
704.91	32.808
705.23	35.880
705.55	43.816
705.87	37.184
706.19	36.296
706.51	37.113
706.83	41.479
707.15	32.710
707.47	36.134
707.79	30.469
708.11	31.500
708.43	30.500
708.74	33.075
709.06	36.620
709.38	37.309
709.70	33.728
710.02	33.439
710.34	34.365
710.66	31.090
710.98	31.126
711.29	37.377
711.61	35.254
711.93	36.482
712.25	40.893
712.57	39.560
712.89	32.836
713.20	42.561
713.52	35.540
713.84	33.106
714.16	34.021
714.48	34.839
714.80	34.615
715.11	33.435
715.43	31.975
715.75	31.667
716.07	34.219
716.39	35.235
716.70	36.162
717.02	35.496
717.34	40.486
717.66	41.593
717.97	40.435
718.29	38.075
718.61	35.433
718.93	31.783
719.24	35.361
719.56	33.333
719.88	35.052
720.20	32.955
720.51	34.100
720.83	37.452
721.15	36.555
721.46	34.677
721.78	35.178
722.10	35.688
722.42	34.025
722.73	33.061
723.05	35.102
723.37	36.864
723.68	35.135
724.00	39.744
724.32	31.556
724.63	33.182
724.95	37.991
725.27	36.406
725.58	39.831
725.90	33.730
726.22	37.066
726.53	37.288
726.85	35.581
727.16	39.245
727.48	31.579
727.80	36.032
728.11	39.831
728.43	36.471
728.74	29.839
729.06	32.400
729.38	38.346
729.69	34.661
730.01	28.462
730.32	35.448
730.64	39.576
730.96	34.717
731.27	30.000
731.59	34.576
731.90	30.255
732.22	27.760
732.53	32.890
732.85	30.851
733.16	32.660
733.48	29.856
733.80	31.522
734.11	30.847
734.43	31.271
734.74	33.636
735.06	33.550
735.37	32.024
735.69	34.343
736.00	30.314
736.32	30.537
736.63	30.634
736.95	33.106
737.26	30.249
737.58	30.201
737.89	32.967
738.21	30.451
738.52	37.449
738.83	33.188
739.15	37.991
739.46	34.252
739.78	27.473
740.09	31.046
740.41	31.884
740.72	34.252
741.04	35.223
741.35	35.319
741.66	37.915
741.98	32.653
742.29	34.158
742.61	32.461
742.92	27.962
743.23	31.944
743.55	34.842
743.86	38.278
744.18	35.885
744.49	40.426
744.80	40.217
745.12	40.642
745.43	32.683
745.74	42.708
746.06	43.902
746.37	36.126
746.68	37.441
747.00	30.319
747.31	39.303
747.62	37.379
747.94	36.364
748.25	38.119
748.56	42.077
748.88	34.555
749.19	43.617
749.50	36.946
749.82	32.075
750.13	33.028
750.44	35.338
750.75	31.343
751.07	36.131
751.38	27.969
751.69	29.804
752.01	35.659
752.32	33.865
752.63	29.644
752.94	30.603
753.26	41.423
753.57	32.579
753.88	34.071
754.19	31.250
754.51	31.818
754.82	34.413
755.13	37.917
755.44	33.871
755.75	32.812
756.07	31.518
756.38	30.566
756.69	32.950
757.00	30.000
757.31	32.680
757.63	27.744
757.94	30.556
758.25	28.493
758.56	27.660
758.87	25.779
759.18	27.726
759.50	25.818
759.81	29.097
760.12	27.097
760.43	30.000
760.74	29.938
761.05	23.692
761.36	27.273
761.67	31.515
761.99	30.272
762.30	30.909
762.61	32.411
762.92	32.127
763.23	31.081
763.54	29.907
763.85	33.051
764.16	33.195
764.47	36.290
764.78	28.571
765.10	29.966
765.41	27.760
765.72	29.524
766.03	23.308
766.34	29.927
766.65	34.661
766.96	33.838
767.27	39.362
767.58	32.184
767.89	35.461
768.20	36.364
768.51	35.714
768.82	30.049
769.13	29.032
769.44	30.043
769.75	34.703
770.06	35.345
770.37	33.173
770.68	32.995
770.99	30.769
771.30	37.255
771.61	31.674
771.92	33.190
772.23	36.946
772.54	33.871
772.85	31.481
773.16	37.079
773.47	39.216
773.78	35.294
774.09	32.934
774.39	40.000
774.70	36.306
775.01	39.310
775.32	43.571
775.63	29.752
775.94	35.878
776.25	37.008
776.56	38.333
776.87	44.231
777.18	41.026
777.48	35.345
777.79	32.174
778.10	21.905
778.41	36.937
778.72	30.952
779.03	33.083
779.34	34.752
779.65	35.616
779.95	32.877
780.26	39.310
780.57	37.398
780.88	33.071
781.19	39.655
781.50	31.783
781.80	33.136
782.11	29.560
782.42	27.692
782.73	35.971
783.04	44.444
783.34	31.250
783.65	23.077
783.96	37.705
784.27	39.310
784.57	32.520
784.88	32.031
785.19	37.000
785.50	52.000
785.81	34.483
786.11	25.862
786.42	38.835
786.73	51.818
787.04	33.673
787.34	29.464
787.65	31.429
787.96	31.858
788.26	35.455
788.57	31.624
788.88	39.844
789.19	24.603
789.49	26.957
789.80	35.714
790.11	38.384
790.41	24.545
790.72	42.391
791.03	32.955
791.33	60.000
791.64	36.250
791.95	30.233
792.25	43.617
792.56	41.573
792.87	34.247
793.17	30.435
793.48	30.667
793.79	41.250
794.09	43.750
794.40	22.642
794.70	29.126
795.01	33.333
795.32	23.077
795.62	32.381
795.93	36.275
796.23	36.792
796.54	34.375
796.85	38.235
797.15	39.437
797.46	36.111
797.76	46.970
798.07	29.070
798.37	26.316
798.68	36.364
798.99	35.802
799.29	51.429
799.60	40.580
799.90	36.000
800.21	37.705
800.51	47.692
800.82	38.983
801.12	50.725
801.43	44.262
801.73	42.857
802.04	44.000
802.34	32.836
802.65	44.231
802.95	42.857
803.26	36.538
803.56	29.412
803.87	28.261
804.17	37.333
804.48	55.556
804.78	18.519
805.09	28.261
805.39	33.333
805.70	40.741
806.00	19.298
806.30	30.986
806.61	27.143
806.91	37.500
807.22	40.789
807.52	45.333
807.83	20.000
808.13	22.222
808.43	60.294
808.74	32.836
809.04	35.593
809.35	50.000
809.65	26.563
809.95	21.622
810.26	31.818
810.56	28.767
810.86	59.524
811.17	46.000
811.47	30.612
811.77	52.632
812.08	43.182
812.38	47.170
812.69	35.000
812.99	42.424
813.29	36.842
813.59	-5.714
813.90	45.455
814.20	2.564
814.50	36.538
814.81	32.075
815.11	29.787
815.41	25.424
815.72	40.476
816.02	52.941
816.32	37.500
816.62	31.707
816.93	51.351
817.23	37.143
817.53	39.583
817.84	58.696
818.14	40.385
818.44	21.053
818.74	65.217
819.04	-2.500
819.35	54.054
819.65	58.824
819.95	13.889
820.25	28.571
820.56	55.000
820.86	-27.586
821.16	65.000
821.46	34.043
821.76	62.500
822.07	27.907
822.37	5.405
822.67	40.625
822.97	30.952
823.27	28.571
823.57	16.000
823.88	22.222
824.18	10.714
824.48	8.824
824.78	29.032
825.08	26.087
825.38	30.303
825.69	33.333
825.99	44.737
826.29	44.444
826.59	-13.333
826.89	33.333
827.19	26.087
827.49	40.000
827.79	34.286
828.09	53.571
828.39	45.455
828.70	67.568
829.00	42.857
829.30	47.619
829.60	43.333
829.90	81.250
830.20	34.211
830.50	11.111
830.80	65.217
831.10	45.455
831.40	45.455
831.70	54.839
832.00	80.952
832.30	80.952
832.60	8.333
832.90	51.724
833.20	15.000
833.50	45.455
833.80	25.926
834.10	15.385
834.40	71.875
834.70	66.667
835.00	26.316
835.30	65.385
835.60	-13.333
835.90	32.258
836.20	95.455
836.50	35.714
836.80	38.462
837.10	28.571
837.40	0.000
837.70	40.909
838.00	-45.455
838.30	56.522
838.60	23.077
838.90	68.182
839.19	7.143
839.49	43.333
839.79	0.000
840.09	-8.333
840.39	57.143
840.69	71.429
840.99	26.923
841.29	-10.526
841.59	110.000
841.88	27.273
842.18	20.000
842.48	62.500
842.78	53.333
843.08	44.444
843.38	40.000
843.68	52.174
843.97	-6.667
844.27	-13.333
844.57	50.000
844.87	111.111
845.17	-23.810
845.47	93.333
845.76	57.143
846.06	111.765
846.36	60.000
846.66	-14.286
846.96	20.000
847.25	-50.000
847.55	64.286
847.85	50.000
848.15	40.909
848.44	-133.333
848.74	55.000
849.04	59.259
849.34	45.455
849.63	-100.000
849.93	20.000
850.23	22.222
850.53	60.000
850.82	-53.846
851.12	11.111
851.42	26.667
851.71	30.769
852.01	0.000
852.31	-100.000
852.61	9.091
852.90	35.000
853.20	78.947
853.50	41.667
853.79	69.565
854.09	83.333
854.39	21.053
854.68	20.833
854.98	25.806
855.28	65.385
855.57	20.000
855.87	11.111
856.17	55.556
856.46	114.286
856.76	33.333
857.05	11.111
857.35	-8.000
857.65	55.556
857.94	23.077
858.24	48.276
858.53	72.222
858.83	51.852
859.13	63.636
859.42	17.391
859.72	-75.000
860.01	-100.000
860.31	16.000
860.60	19.048
860.90	266.667
861.20	26.667
861.49	-200.000
861.79	40.000
862.08	20.000
862.38	86.667
862.67	-120.000
862.97	0.000
863.26	50.000
863.56	88.889
863.85	-400.000
864.15	-11.111
864.44	110.000
864.74	135.714
865.03	50.000
865.33	-260.000
865.62	133.333
865.92	125.000
866.21	-150.000
866.51	106.250
866.80	72.727
867.10	250.000
867.39	58.333
867.69	0.000
867.98	69.231
868.27	-100.000
868.57	13.333
868.86	38.889
869.16	76.923
869.45	80.000
869.75	-500.000
870.04	0.000
870.33	-200.000
870.63	66.667
870.92	233.333
871.22	-120.000
871.51	400.000
871.80	155.556
872.10	366.667
>>>>>End Processed Spectral Data<<<<<
