SpectraSuite Data File
++++++++++++++++++++++++++++++++++++
Date: Fri May 15 20:05:49 PDT 2015
User: schluterlab
Dark Spectrum Present: Yes
Reference Spectrum Present: Yes
Number of Sampled Component Spectra: 1
Spectrometers: USB2E3373
Integration Time (usec): 3000 (USB2E3373)
Spectra Averaged: 3 (USB2E3373)
Boxcar Smoothing: 0 (USB2E3373)
Correct for Electrical Dark: No (USB2E3373)
Strobe/Lamp Enabled: No (USB2E3373)
Correct for Detector Non-linearity: No (USB2E3373)
Correct for Stray Light: No (USB2E3373)
Number of Pixels in Processed Spectrum: 2048
>>>>>Begin Processed Spectral Data<<<<<
178.53	0.000
178.91	0.000
179.29	100.000
179.67	-700.000
180.04	14.286
180.42	175.000
180.80	0.000
181.18	33.333
181.56	450.000
181.94	0.000
182.31	200.000
182.69	-80.000
183.07	-366.667
183.45	40.000
183.83	200.000
184.20	36.364
184.58	144.444
184.96	-0.000
185.34	33.333
185.72	-200.000
186.09	92.308
186.47	-800.000
186.85	200.000
187.23	88.889
187.61	-0.000
187.98	-166.667
188.36	55.556
188.74	200.000
189.12	29.412
189.49	44.444
189.87	0.000
190.25	28.571
190.63	-150.000
191.00	-266.667
191.38	15.789
191.76	-50.000
192.14	-100.000
192.51	100.000
192.89	0.000
193.27	-28.571
193.65	50.000
194.02	209.091
194.40	50.000
194.78	-150.000
195.15	33.333
195.53	-87.500
195.91	75.000
196.29	-50.000
196.66	61.538
197.04	128.571
197.42	-44.444
197.79	-366.667
198.17	-38.462
198.55	1500.000
198.92	33.333
199.30	-700.000
199.68	-300.000
200.05	-300.000
200.43	0.000
200.81	266.667
201.18	-33.333
201.56	100.000
201.94	-500.000
202.31	333.333
202.69	-80.000
203.07	225.000
203.44	0.000
203.82	0.000
204.19	21.429
204.57	-366.667
204.95	25.000
205.32	20.000
205.70	-85.714
206.08	-175.000
206.45	166.667
206.83	50.000
207.20	-128.571
207.58	200.000
207.96	-533.333
208.33	-40.000
208.71	-100.000
209.08	-66.667
209.46	-400.000
209.84	-160.000
210.21	-800.000
210.59	-42.857
210.96	66.667
211.34	-175.000
211.71	26.667
212.09	14.286
212.46	-1000.000
212.84	0.000
213.22	140.000
213.59	450.000
213.97	23.077
214.34	45.455
214.72	-66.667
215.09	275.000
215.47	53.846
215.84	-9.091
216.22	-166.667
216.59	75.000
216.97	150.000
217.34	-100.000
217.72	-220.000
218.09	150.000
218.47	50.000
218.84	-200.000
219.22	-33.333
219.59	60.000
219.97	-200.000
220.34	175.000
220.72	0.000
221.09	-300.000
221.47	-250.000
221.84	-700.000
222.22	-750.000
222.59	45.455
222.97	-16.667
223.34	-300.000
223.72	0.000
224.09	19.048
224.46	28.571
224.84	100.000
225.21	-90.000
225.59	-46.667
225.96	0.000
226.34	325.000
226.71	-100.000
227.08	16.667
227.46	25.000
227.83	50.000
228.21	133.333
228.58	0.000
228.95	-62.500
229.33	40.000
229.70	12.500
230.08	-150.000
230.45	28.571
230.82	-42.857
231.20	-66.667
231.57	14.286
231.95	14.286
232.32	-80.000
232.69	-7.143
233.07	-100.000
233.44	-80.000
233.81	-30.000
234.19	-100.000
234.56	47.059
234.93	50.000
235.31	-175.000
235.68	-340.000
236.05	-69.231
236.43	-40.000
236.80	-29.412
237.17	12.500
237.55	-20.000
237.92	-14.815
238.29	-5.556
238.67	16.667
239.04	0.000
239.41	-19.512
239.79	-30.000
240.16	17.073
240.53	-10.526
240.91	-13.043
241.28	-15.873
241.65	14.286
242.02	4.110
242.40	5.000
242.77	-20.339
243.14	-6.061
243.51	-5.000
243.89	8.046
244.26	-3.448
244.63	-3.571
245.00	6.186
245.38	-4.124
245.75	-5.618
246.12	-11.207
246.49	3.306
246.87	7.692
247.24	-2.521
247.61	-2.632
247.98	-5.691
248.36	-3.125
248.73	-1.316
249.10	1.299
249.47	2.532
249.84	-2.614
250.22	-1.176
250.59	1.307
250.96	4.225
251.33	-9.302
251.70	2.353
252.08	-1.523
252.45	-1.485
252.82	0.000
253.19	0.461
253.56	-1.402
253.94	-2.252
254.31	0.000
254.68	4.386
255.05	2.362
255.42	0.000
255.79	-1.931
256.16	4.669
256.54	1.866
256.91	1.901
257.28	-0.743
257.65	-3.745
258.02	-5.319
258.39	3.030
258.76	3.297
259.14	0.332
259.51	0.000
259.88	2.749
260.25	-3.268
260.62	2.431
260.99	-4.068
261.36	-0.685
261.73	-1.266
262.10	0.912
262.47	-2.454
262.85	0.000
263.22	-0.923
263.59	-1.246
263.96	1.863
264.33	0.303
264.70	-2.679
265.07	-2.679
265.44	0.000
265.81	0.282
266.18	-2.186
266.55	5.141
266.92	1.036
267.29	2.350
267.66	-3.069
268.03	0.785
268.40	-1.305
268.77	2.139
269.14	-0.240
269.51	2.314
269.88	-0.249
270.25	-3.827
270.62	-1.951
270.99	-3.325
271.36	-3.423
271.73	2.113
272.10	-0.243
272.47	2.837
272.84	0.248
273.21	0.696
273.58	1.687
273.95	0.000
274.32	-1.386
274.69	-1.357
275.06	0.893
275.43	0.680
275.80	1.104
276.17	-1.839
276.54	0.428
276.91	2.632
277.28	-0.218
277.65	1.240
278.02	1.702
278.39	1.751
278.76	-0.210
279.13	-1.245
279.50	1.471
279.87	1.512
280.23	-2.581
280.60	2.144
280.97	1.212
281.34	1.923
281.71	0.205
282.08	-2.454
282.45	-0.783
282.82	-0.193
283.19	0.967
283.56	-0.771
283.92	0.190
284.29	0.000
284.66	-1.163
285.03	2.358
285.40	0.567
285.77	-0.527
286.14	-0.722
286.51	0.369
286.87	0.366
287.24	-2.394
287.61	-1.411
287.98	2.281
288.35	-1.733
288.72	1.576
289.08	-1.910
289.45	1.230
289.82	0.175
290.19	-0.512
290.56	0.172
290.93	0.842
291.29	-0.154
291.66	1.732
292.03	1.595
292.40	-0.968
292.77	-0.478
293.13	-0.487
293.50	-0.910
293.87	0.763
294.24	0.618
294.60	0.000
294.97	1.339
295.34	0.000
295.71	1.192
296.08	-1.345
296.44	-1.707
296.81	0.694
297.18	0.145
297.55	1.626
297.91	0.685
298.28	1.979
298.65	1.357
299.02	-0.135
299.38	-1.505
299.75	0.690
300.12	-0.916
300.48	0.395
300.85	0.634
301.22	0.130
301.59	-0.921
301.95	0.380
302.32	1.686
302.69	0.995
303.05	0.124
303.42	0.498
303.79	0.701
304.15	0.478
304.52	-0.476
304.89	-0.819
305.25	0.363
305.62	-0.700
305.99	0.702
306.35	-0.347
306.72	-0.787
307.09	1.368
307.45	0.918
307.82	-1.042
308.19	1.161
308.55	-0.218
308.92	1.743
309.29	-0.112
309.65	-0.108
310.02	0.220
310.38	0.220
310.75	0.109
311.12	0.969
311.48	0.636
311.85	0.209
312.22	-1.055
312.58	0.849
312.95	-0.640
313.31	-0.518
313.68	0.209
314.05	1.122
314.41	1.546
314.78	0.825
315.14	1.953
315.51	1.553
315.87	0.512
316.24	2.427
316.61	1.083
316.97	2.579
317.34	1.953
317.70	1.912
318.07	2.308
318.43	2.647
318.80	3.030
319.16	3.613
319.53	4.179
319.89	3.248
320.26	3.441
320.62	4.814
320.99	3.758
321.35	4.008
321.72	4.984
322.08	4.632
322.45	4.873
322.81	6.483
323.18	5.790
323.54	6.467
323.91	7.011
324.27	9.570
324.64	9.551
325.00	10.310
325.37	10.652
325.73	12.058
326.10	12.534
326.46	13.453
326.83	14.086
327.19	14.037
327.56	15.204
327.92	16.021
328.29	17.143
328.65	17.830
329.01	18.382
329.38	19.631
329.74	17.658
330.11	20.667
330.47	18.924
330.84	19.135
331.20	22.909
331.56	21.759
331.93	22.283
332.29	22.731
332.66	23.982
333.02	23.513
333.38	24.198
333.75	25.733
334.11	23.814
334.48	25.657
334.84	24.817
335.20	25.618
335.57	25.839
335.93	26.468
336.29	26.980
336.66	26.703
337.02	26.115
337.38	26.389
337.75	27.273
338.11	27.412
338.47	26.277
338.84	26.987
339.20	26.325
339.56	28.716
339.93	27.305
340.29	28.165
340.65	28.943
341.02	27.394
341.38	27.611
341.74	26.943
342.11	27.730
342.47	29.359
342.83	29.498
343.20	27.265
343.56	29.391
343.92	29.052
344.28	28.523
344.65	28.152
345.01	28.349
345.37	29.016
345.73	28.536
346.10	29.594
346.46	28.091
346.82	28.396
347.19	28.263
347.55	27.652
347.91	27.913
348.27	28.860
348.63	28.109
349.00	27.646
349.36	28.595
349.72	29.768
350.08	28.197
350.45	28.891
350.81	28.738
351.17	28.339
351.53	29.306
351.89	28.489
352.26	28.400
352.62	29.194
352.98	29.558
353.34	27.697
353.70	28.560
354.07	28.952
354.43	28.343
354.79	29.397
355.15	30.714
355.51	29.509
355.87	30.097
356.24	27.896
356.60	29.103
356.96	29.683
357.32	29.553
357.68	28.616
358.04	28.837
358.40	28.698
358.77	30.144
359.13	28.183
359.49	29.430
359.85	29.017
360.21	30.383
360.57	28.309
360.93	29.803
361.29	28.776
361.66	30.094
362.02	30.985
362.38	30.084
362.74	30.886
363.10	30.248
363.46	31.060
363.82	32.532
364.18	28.856
364.54	30.221
364.90	30.896
365.26	29.840
365.62	31.387
365.98	30.499
366.35	31.391
366.71	30.673
367.07	29.681
367.43	30.554
367.79	30.530
368.15	31.658
368.51	31.755
368.87	30.940
369.23	30.325
369.59	31.560
369.95	31.232
370.31	32.009
370.67	30.448
371.03	31.068
371.39	31.510
371.75	31.282
372.11	31.241
372.47	31.509
372.83	31.299
373.19	32.240
373.55	31.986
373.91	31.605
374.27	32.318
374.63	32.807
374.99	31.631
375.35	31.058
375.71	32.937
376.07	32.935
376.42	32.177
376.78	32.953
377.14	31.889
377.50	32.271
377.86	33.869
378.22	32.929
378.58	33.333
378.94	32.892
379.30	33.001
379.66	34.734
380.02	32.986
380.38	33.049
380.74	33.393
381.09	34.233
381.45	33.761
381.81	34.423
382.17	33.820
382.53	33.417
382.89	34.275
383.25	33.603
383.61	33.841
383.97	33.143
384.32	33.646
384.68	34.365
385.04	33.885
385.40	33.852
385.76	34.591
386.12	34.864
386.48	35.057
386.83	35.003
387.19	34.921
387.55	35.320
387.91	34.474
388.27	34.554
388.62	35.557
388.98	34.807
389.34	35.290
389.70	35.177
390.06	34.802
390.42	34.845
390.77	34.859
391.13	34.615
391.49	35.058
391.85	34.893
392.20	33.647
392.56	35.219
392.92	35.232
393.28	35.142
393.64	34.294
393.99	35.862
394.35	34.598
394.71	34.291
395.07	34.507
395.42	35.094
395.78	34.658
396.14	34.552
396.50	35.701
396.85	35.673
397.21	34.461
397.57	35.172
397.92	35.111
398.28	34.885
398.64	33.735
399.00	34.932
399.35	34.086
399.71	33.831
400.07	34.341
400.42	33.843
400.78	34.783
401.14	34.180
401.49	33.353
401.85	33.272
402.21	34.458
402.57	34.750
402.92	33.501
403.28	34.023
403.63	34.741
403.99	33.036
404.35	35.041
404.70	32.619
405.06	33.020
405.42	34.431
405.77	32.946
406.13	34.226
406.49	32.504
406.84	33.252
407.20	32.932
407.55	32.131
407.91	32.821
408.27	32.823
408.62	34.092
408.98	33.395
409.34	33.457
409.69	32.429
410.05	33.374
410.40	33.148
410.76	33.353
411.11	32.562
411.47	33.333
411.83	33.271
412.18	32.432
412.54	32.147
412.89	32.081
413.25	32.491
413.60	33.106
413.96	32.577
414.31	32.866
414.67	31.430
415.03	33.555
415.38	33.029
415.74	33.029
416.09	33.377
416.45	33.423
416.80	33.179
417.16	33.633
417.51	32.845
417.87	33.312
418.22	34.067
418.58	33.244
418.93	34.483
419.29	32.778
419.64	33.247
420.00	35.202
420.35	33.433
420.71	33.414
421.06	33.886
421.42	35.457
421.77	34.451
422.12	33.201
422.48	34.218
422.83	33.353
423.19	34.932
423.54	34.098
423.90	33.569
424.25	33.352
424.61	35.312
424.96	33.508
425.31	35.817
425.67	35.211
426.02	35.453
426.38	35.755
426.73	36.017
427.09	36.203
427.44	35.000
427.79	35.415
428.15	35.558
428.50	35.433
428.85	34.644
429.21	36.333
429.56	36.388
429.92	35.850
430.27	35.789
430.62	35.703
430.98	36.093
431.33	36.383
431.68	34.746
432.04	36.333
432.39	35.938
432.74	35.899
433.10	36.667
433.45	35.424
433.80	36.680
434.16	36.620
434.51	37.097
434.86	37.340
435.22	36.680
435.57	37.617
435.92	37.485
436.28	37.567
436.63	37.422
436.98	36.385
437.34	37.084
437.69	37.627
438.04	37.892
438.39	37.385
438.75	38.191
439.10	37.521
439.45	37.432
439.81	38.165
440.16	38.539
440.51	38.806
440.86	38.792
441.22	37.217
441.57	38.521
441.92	38.825
442.27	39.967
442.63	38.758
442.98	38.771
443.33	37.952
443.68	39.045
444.03	39.245
444.39	38.515
444.74	41.193
445.09	39.198
445.44	40.000
445.79	39.814
446.15	38.546
446.50	38.769
446.85	38.682
447.20	39.677
447.55	39.230
447.91	39.763
448.26	39.784
448.61	39.839
448.96	41.021
449.31	38.382
449.66	40.360
450.02	40.217
450.37	41.020
450.72	39.233
451.07	41.203
451.42	39.014
451.77	40.687
452.12	38.756
452.47	38.764
452.83	40.577
453.18	39.975
453.53	39.949
453.88	40.559
454.23	39.828
454.58	39.736
454.93	39.497
455.28	38.921
455.63	39.616
455.98	39.988
456.34	39.080
456.69	39.644
457.04	40.454
457.39	40.522
457.74	41.354
458.09	40.082
458.44	40.433
458.79	39.104
459.14	41.304
459.49	40.299
459.84	41.173
460.19	40.413
460.54	40.954
460.89	40.682
461.24	40.311
461.59	41.093
461.94	39.434
462.29	40.169
462.64	41.395
462.99	40.894
463.34	39.360
463.69	40.476
464.04	39.891
464.39	41.116
464.74	39.816
465.09	40.736
465.44	41.604
465.79	40.193
466.14	40.935
466.49	40.253
466.84	41.106
467.19	40.864
467.54	40.358
467.89	40.177
468.24	41.727
468.59	40.127
468.94	39.873
469.29	40.590
469.64	40.260
469.99	41.345
470.34	39.659
470.68	41.984
471.03	40.764
471.38	41.013
471.73	40.896
472.08	40.570
472.43	40.268
472.78	40.850
473.13	41.361
473.48	40.000
473.83	39.041
474.17	41.321
474.52	40.459
474.87	39.758
475.22	38.804
475.57	39.977
475.92	40.867
476.27	41.094
476.61	40.394
476.96	39.766
477.31	40.346
477.66	40.281
478.01	40.539
478.36	40.795
478.70	40.402
479.05	41.209
479.40	41.070
479.75	40.198
480.10	40.041
480.45	40.700
480.79	40.937
481.14	41.137
481.49	39.606
481.84	41.023
482.19	40.926
482.53	40.959
482.88	40.382
483.23	40.691
483.58	40.472
483.92	40.319
484.27	39.198
484.62	39.713
484.97	39.635
485.31	39.306
485.66	39.683
486.01	40.346
486.36	39.593
486.70	40.414
487.05	40.004
487.40	39.840
487.75	39.465
488.09	39.431
488.44	39.924
488.79	40.082
489.13	40.064
489.48	40.231
489.83	40.493
490.17	40.180
490.52	40.092
490.87	39.704
491.22	40.974
491.56	40.323
491.91	39.962
492.26	40.885
492.60	40.259
492.95	41.318
493.30	39.179
493.64	41.454
493.99	40.531
494.34	40.340
494.68	40.286
495.03	39.708
495.37	40.285
495.72	38.970
496.07	41.024
496.41	40.047
496.76	39.567
497.11	40.102
497.45	40.955
497.80	41.019
498.14	39.940
498.49	39.868
498.84	40.319
499.18	40.562
499.53	40.823
499.87	39.446
500.22	40.307
500.56	40.192
500.91	39.408
501.26	39.446
501.60	40.039
501.95	39.689
502.29	39.903
502.64	39.865
502.98	40.109
503.33	39.385
503.67	40.386
504.02	40.225
504.36	40.376
504.71	39.798
505.06	40.010
505.40	40.964
505.75	40.309
506.09	39.128
506.44	41.273
506.78	40.969
507.13	39.659
507.47	38.747
507.82	38.942
508.16	39.725
508.51	40.346
508.85	39.613
509.19	39.862
509.54	40.107
509.88	39.374
510.23	39.537
510.57	40.460
510.92	38.859
511.26	40.644
511.61	40.099
511.95	39.616
512.30	39.357
512.64	40.623
512.98	39.304
513.33	39.340
513.67	39.568
514.02	40.847
514.36	41.200
514.70	41.492
515.05	41.128
515.39	40.555
515.74	40.659
516.08	40.466
516.42	40.459
516.77	40.609
517.11	40.297
517.46	40.934
517.80	41.299
518.14	41.029
518.49	40.865
518.83	39.672
519.17	39.478
519.52	40.675
519.86	40.696
520.20	39.490
520.55	39.775
520.89	40.464
521.23	39.899
521.58	40.757
521.92	40.513
522.26	38.582
522.61	39.805
522.95	41.391
523.29	40.470
523.64	40.216
523.98	41.218
524.32	39.884
524.66	40.653
525.01	40.779
525.35	39.987
525.69	39.125
526.04	39.352
526.38	40.856
526.72	39.372
527.06	40.208
527.41	40.237
527.75	39.209
528.09	39.203
528.43	41.526
528.78	39.472
529.12	39.355
529.46	39.701
529.80	40.722
530.15	41.122
530.49	40.135
530.83	40.150
531.17	39.825
531.51	39.603
531.86	39.021
532.20	39.040
532.54	38.938
532.88	40.315
533.22	39.583
533.57	39.515
533.91	39.426
534.25	40.299
534.59	39.705
534.93	39.522
535.27	38.832
535.62	37.978
535.96	40.117
536.30	39.248
536.64	40.110
536.98	37.491
537.32	40.469
537.66	40.463
538.01	39.580
538.35	38.904
538.69	39.614
539.03	38.072
539.37	38.493
539.71	38.446
540.05	38.968
540.39	39.958
540.73	39.331
541.07	39.848
541.42	38.844
541.76	40.606
542.10	39.160
542.44	39.055
542.78	37.164
543.12	38.874
543.46	38.804
543.80	39.903
544.14	37.917
544.48	39.507
544.82	39.234
545.16	40.164
545.50	39.519
545.84	40.156
546.18	40.000
546.52	39.221
546.86	39.109
547.20	39.557
547.54	38.304
547.88	40.014
548.22	38.067
548.56	39.248
548.90	39.218
549.24	39.876
549.58	39.492
549.92	39.528
550.26	38.608
550.60	40.818
550.94	40.553
551.28	38.872
551.62	39.462
551.96	40.000
552.30	40.132
552.64	39.422
552.98	39.381
553.32	39.658
553.66	38.171
554.00	38.978
554.34	40.399
554.68	39.381
555.02	39.435
555.36	40.165
555.69	38.095
556.03	38.901
556.37	38.648
556.71	39.350
557.05	39.001
557.39	38.290
557.73	39.580
558.07	39.894
558.41	39.357
558.75	39.439
559.08	38.140
559.42	40.873
559.76	41.553
560.10	40.138
560.44	39.241
560.78	39.371
561.12	40.197
561.45	39.635
561.79	40.546
562.13	38.680
562.47	39.712
562.81	38.833
563.15	39.210
563.48	40.736
563.82	39.671
564.16	40.669
564.50	37.703
564.84	39.157
565.17	39.302
565.51	41.325
565.85	40.329
566.19	40.782
566.52	40.416
566.86	39.781
567.20	39.851
567.54	39.964
567.88	39.484
568.21	40.950
568.55	40.163
568.89	39.682
569.23	39.576
569.56	38.398
569.90	39.626
570.24	37.998
570.57	39.709
570.91	39.073
571.25	38.244
571.59	37.714
571.92	37.096
572.26	37.591
572.60	38.047
572.93	37.904
573.27	37.241
573.61	37.470
573.95	38.039
574.28	37.871
574.62	37.096
574.96	36.998
575.29	37.506
575.63	37.056
575.97	37.246
576.30	37.363
576.64	36.715
576.98	38.069
577.31	37.773
577.65	37.477
577.98	38.145
578.32	37.059
578.66	37.051
578.99	37.225
579.33	36.997
579.67	36.740
580.00	37.468
580.34	37.637
580.67	37.290
581.01	37.992
581.35	37.295
581.68	37.965
582.02	37.823
582.35	37.753
582.69	37.631
583.02	37.407
583.36	37.497
583.70	38.448
584.03	38.004
584.37	39.046
584.70	37.857
585.04	37.150
585.37	37.592
585.71	37.768
586.04	37.796
586.38	37.823
586.72	38.881
587.05	38.937
587.39	38.384
587.72	38.600
588.06	38.694
588.39	38.878
588.73	38.919
589.06	38.976
589.40	38.507
589.73	38.481
590.07	39.048
590.40	39.822
590.73	39.745
591.07	39.567
591.40	38.068
591.74	39.910
592.07	40.492
592.41	39.929
592.74	38.909
593.08	38.805
593.41	39.110
593.75	39.221
594.08	38.586
594.41	39.192
594.75	38.244
595.08	39.122
595.42	39.455
595.75	39.917
596.09	39.171
596.42	39.148
596.75	39.964
597.09	38.724
597.42	38.934
597.75	39.533
598.09	38.660
598.42	37.861
598.76	38.953
599.09	38.702
599.42	38.727
599.76	38.412
600.09	38.839
600.42	39.158
600.76	38.744
601.09	38.206
601.42	37.407
601.76	39.023
602.09	38.531
602.42	40.227
602.76	39.686
603.09	39.120
603.42	39.339
603.76	38.831
604.09	38.801
604.42	39.382
604.76	40.187
605.09	39.260
605.42	39.684
605.75	38.091
606.09	39.321
606.42	38.032
606.75	39.177
607.09	39.297
607.42	39.123
607.75	39.387
608.08	39.398
608.42	37.825
608.75	39.904
609.08	39.761
609.41	39.289
609.75	40.020
610.08	39.641
610.41	38.937
610.74	39.054
611.07	40.258
611.41	39.180
611.74	40.885
612.07	39.989
612.40	39.168
612.73	39.492
613.07	39.539
613.40	39.223
613.73	38.948
614.06	39.955
614.39	39.255
614.72	39.776
615.06	39.441
615.39	39.028
615.72	38.536
616.05	39.441
616.38	38.291
616.71	39.939
617.05	39.592
617.38	39.095
617.71	39.245
618.04	40.698
618.37	39.470
618.70	40.924
619.03	40.278
619.36	39.508
619.69	41.092
620.03	40.541
620.36	39.700
620.69	39.900
621.02	40.520
621.35	40.581
621.68	41.412
622.01	39.250
622.34	40.543
622.67	39.274
623.00	40.046
623.33	40.396
623.66	40.389
623.99	39.334
624.32	41.521
624.65	38.872
624.99	41.159
625.32	38.741
625.65	40.927
625.98	40.854
626.31	40.648
626.64	40.295
626.97	40.838
627.30	41.243
627.63	40.641
627.96	40.701
628.29	40.981
628.62	42.281
628.95	41.182
629.28	41.129
629.61	39.382
629.94	40.665
630.26	41.107
630.59	41.831
630.92	41.333
631.25	40.923
631.58	41.850
631.91	40.680
632.24	39.679
632.57	42.159
632.90	41.281
633.23	41.294
633.56	41.184
633.89	39.951
634.22	41.975
634.55	42.186
634.88	42.656
635.20	39.744
635.53	42.800
635.86	40.182
636.19	42.303
636.52	39.541
636.85	41.811
637.18	40.503
637.51	41.006
637.83	40.079
638.16	41.473
638.49	42.234
638.82	41.316
639.15	41.927
639.48	42.916
639.81	41.283
640.13	42.424
640.46	42.274
640.79	40.795
641.12	41.802
641.45	42.342
641.77	40.296
642.10	44.076
642.43	41.318
642.76	42.079
643.09	43.134
643.41	41.424
643.74	43.163
644.07	41.051
644.40	43.750
644.73	39.930
645.05	43.792
645.38	43.386
645.71	43.794
646.04	40.934
646.36	44.504
646.69	44.245
647.02	45.936
647.35	42.910
647.67	42.779
648.00	44.216
648.33	44.369
648.66	42.203
648.98	38.358
649.31	41.818
649.64	40.345
649.96	40.357
650.29	42.589
650.62	42.906
650.94	41.296
651.27	42.272
651.60	43.784
651.92	42.657
652.25	41.741
652.58	41.167
652.90	43.396
653.23	42.185
653.56	40.440
653.88	41.924
654.21	40.455
654.54	41.256
654.86	42.275
655.19	41.082
655.52	41.176
655.84	38.999
656.17	43.319
656.49	58.475
656.82	60.102
657.15	45.395
657.47	33.336
657.80	24.685
658.13	24.123
658.45	37.398
658.78	36.647
659.10	36.336
659.43	36.203
659.75	35.323
660.08	36.690
660.41	38.815
660.73	37.983
661.06	39.688
661.38	40.117
661.71	40.041
662.03	42.489
662.36	44.396
662.68	40.265
663.01	44.541
663.33	42.691
663.66	41.860
663.98	41.163
664.31	39.019
664.63	39.401
664.96	36.957
665.28	40.618
665.61	43.074
665.93	41.739
666.26	39.913
666.58	38.926
666.91	42.118
667.23	43.632
667.56	39.810
667.88	41.966
668.21	41.050
668.53	41.135
668.86	42.217
669.18	39.387
669.50	36.562
669.83	40.233
670.15	41.026
670.48	38.756
670.80	39.401
671.13	41.163
671.45	38.128
671.77	41.416
672.10	40.990
672.42	42.884
672.75	41.563
673.07	43.649
673.39	38.716
673.72	36.095
674.04	41.042
674.37	42.585
674.69	38.972
675.01	42.667
675.34	38.964
675.66	43.056
675.98	40.133
676.31	38.991
676.63	38.955
676.95	40.227
677.28	44.941
677.60	41.205
677.92	42.661
678.25	39.606
678.57	40.260
678.89	41.807
679.22	42.058
679.54	37.349
679.86	36.978
680.18	39.612
680.51	39.962
680.83	38.171
681.15	40.800
681.48	42.828
681.80	40.702
682.12	38.508
682.44	37.866
682.77	40.839
683.09	39.817
683.41	37.955
683.73	39.862
684.06	37.611
684.38	38.280
684.70	41.830
685.02	39.004
685.34	36.364
685.67	39.775
685.99	39.060
686.31	39.115
686.63	39.147
686.96	36.122
687.28	38.182
687.60	36.502
687.92	43.030
688.24	37.702
688.56	37.991
688.89	39.062
689.21	42.000
689.53	36.659
689.85	36.977
690.17	40.625
690.49	40.898
690.82	38.350
691.14	38.333
691.46	37.617
691.78	36.486
692.10	38.925
692.42	39.610
692.74	37.607
693.06	37.613
693.39	36.878
693.71	38.235
694.03	36.259
694.35	38.084
694.67	39.141
694.99	38.381
695.31	40.470
695.63	39.250
695.95	36.364
696.27	38.860
696.59	41.389
696.91	35.574
697.23	38.046
697.56	42.574
697.88	39.140
698.20	37.358
698.52	37.176
698.84	33.493
699.16	36.000
699.48	37.594
699.80	35.236
700.12	38.544
700.44	40.616
700.76	40.116
701.08	37.576
701.40	37.349
701.72	42.593
702.04	44.224
702.36	39.799
702.68	38.438
703.00	40.606
703.32	38.710
703.64	35.311
703.96	38.841
704.28	40.798
704.60	37.143
704.91	30.599
705.23	40.199
705.55	40.283
705.87	37.545
706.19	38.889
706.51	42.268
706.83	36.334
707.15	36.449
707.47	38.095
707.79	34.896
708.11	37.750
708.43	40.750
708.74	39.018
709.06	37.746
709.38	41.590
709.70	34.911
710.02	37.898
710.34	43.963
710.66	38.782
710.98	37.086
711.29	42.623
711.61	39.322
711.93	37.459
712.25	39.519
712.57	36.996
712.89	33.209
713.20	38.754
713.52	35.540
713.84	41.980
714.16	39.519
714.48	37.097
714.80	37.179
715.11	36.170
715.43	32.602
715.75	36.667
716.07	33.887
716.39	37.584
716.70	34.686
717.02	38.168
717.34	36.842
717.66	38.938
717.97	34.348
718.29	42.678
718.61	39.370
718.93	37.597
719.24	38.023
719.56	42.972
719.88	38.144
720.20	37.500
720.51	33.716
720.83	38.610
721.15	35.714
721.46	41.129
721.78	35.573
722.10	30.855
722.42	34.440
722.73	35.102
723.05	43.673
723.37	39.831
723.68	36.937
724.00	38.462
724.32	38.667
724.63	33.636
724.95	31.004
725.27	39.171
725.58	31.356
725.90	34.921
726.22	39.768
726.53	35.593
726.85	37.828
727.16	39.245
727.48	32.794
727.80	38.866
728.11	34.746
728.43	34.510
728.74	33.871
729.06	42.000
729.38	42.105
729.69	37.052
730.01	35.000
730.32	40.299
730.64	39.223
730.96	41.132
731.27	36.333
731.59	32.203
731.90	35.669
732.22	37.539
732.53	36.877
732.85	36.525
733.16	40.404
733.48	32.734
733.80	38.406
734.11	34.576
734.43	36.770
734.74	33.333
735.06	34.202
735.37	33.233
735.69	38.384
736.00	33.798
736.32	38.255
736.63	33.451
736.95	36.177
737.26	35.943
737.58	30.872
737.89	37.363
738.21	34.962
738.52	37.037
738.83	35.371
739.15	35.808
739.46	38.189
739.78	31.502
740.09	36.928
740.41	32.609
740.72	34.646
741.04	34.818
741.35	30.213
741.66	34.597
741.98	35.714
742.29	35.149
742.61	36.126
742.92	28.436
743.23	30.556
743.55	34.389
743.86	34.450
744.18	32.057
744.49	36.170
744.80	28.261
745.12	40.107
745.43	28.780
745.74	38.542
746.06	33.171
746.37	47.120
746.68	35.545
747.00	34.043
747.31	37.313
747.62	32.524
747.94	32.057
748.25	33.663
748.56	38.251
748.88	35.079
749.19	37.766
749.50	35.468
749.82	28.302
750.13	34.404
750.44	39.098
750.75	39.179
751.07	40.876
751.38	32.950
751.69	34.118
752.01	35.271
752.32	33.068
752.63	30.830
752.94	28.448
753.26	40.167
753.57	33.937
753.88	35.841
754.19	29.167
754.51	35.537
754.82	33.603
755.13	37.083
755.44	33.871
755.75	36.328
756.07	33.074
756.38	29.811
756.69	30.651
757.00	35.667
757.31	36.601
757.63	31.402
757.94	30.833
758.25	31.233
758.56	33.245
758.87	28.612
759.18	31.153
759.50	33.091
759.81	33.445
760.12	33.226
760.43	30.303
760.74	33.025
761.05	35.385
761.36	32.955
761.67	35.455
761.99	35.374
762.30	32.000
762.61	32.411
762.92	33.937
763.23	33.333
763.54	34.579
763.85	34.746
764.16	30.290
764.47	28.629
764.78	32.234
765.10	32.323
765.41	29.968
765.72	33.333
766.03	29.323
766.34	35.036
766.65	37.052
766.96	31.313
767.27	29.787
767.58	29.310
767.89	27.660
768.20	29.545
768.51	36.264
768.82	34.975
769.13	30.876
769.44	31.330
769.75	31.963
770.06	31.897
770.37	36.538
770.68	33.503
770.99	32.127
771.30	36.275
771.61	28.507
771.92	33.621
772.23	36.946
772.54	32.796
772.85	35.802
773.16	39.326
773.47	39.869
773.78	39.216
774.09	33.533
774.39	35.333
774.70	40.127
775.01	31.724
775.32	30.714
775.63	27.273
775.94	25.954
776.25	32.283
776.56	28.333
776.87	24.038
777.18	32.479
777.48	31.034
777.79	22.609
778.10	17.143
778.41	39.640
778.72	38.095
779.03	28.571
779.34	34.043
779.65	27.397
779.95	32.192
780.26	27.586
780.57	35.772
780.88	40.157
781.19	27.586
781.50	27.907
781.80	28.994
782.11	29.560
782.42	26.154
782.73	28.777
783.04	32.593
783.34	27.778
783.65	16.239
783.96	27.869
784.27	35.862
784.57	34.959
784.88	29.688
785.19	38.000
785.50	34.000
785.81	39.655
786.11	25.862
786.42	31.068
786.73	30.909
787.04	28.571
787.34	19.643
787.65	31.429
787.96	30.088
788.26	28.182
788.57	38.462
788.88	33.594
789.19	32.540
789.49	26.087
789.80	26.531
790.11	19.192
790.41	29.091
790.72	36.957
791.03	18.182
791.33	45.000
791.64	28.750
791.95	25.581
792.25	32.979
792.56	35.955
792.87	15.068
793.17	23.188
793.48	16.000
793.79	28.750
794.09	27.500
794.40	27.358
794.70	27.184
795.01	24.390
795.32	35.043
795.62	16.190
795.93	25.490
796.23	33.962
796.54	31.250
796.85	47.059
797.15	29.577
797.46	38.889
797.76	30.303
798.07	25.581
798.37	13.158
798.68	15.152
798.99	25.926
799.29	24.286
799.60	21.739
799.90	32.000
800.21	36.066
800.51	23.077
800.82	10.169
801.12	30.435
801.43	22.951
801.73	23.810
802.04	14.000
802.34	25.373
802.65	30.769
802.95	25.000
803.26	21.154
803.56	25.490
803.87	-4.348
804.17	22.667
804.48	31.746
804.78	40.741
805.09	17.391
805.39	28.889
805.70	27.778
806.00	21.053
806.30	29.577
806.61	34.286
806.91	19.444
807.22	27.632
807.52	30.667
807.83	20.000
808.13	30.556
808.43	23.529
808.74	26.866
809.04	25.424
809.35	15.385
809.65	17.188
809.95	-13.514
810.26	-11.364
810.56	19.178
810.86	26.190
811.17	28.000
811.47	28.571
811.77	23.684
812.08	27.273
812.38	15.094
812.69	35.000
812.99	15.152
813.29	7.895
813.59	20.000
813.90	22.727
814.20	2.564
814.50	5.769
814.81	43.396
815.11	23.404
815.41	16.949
815.72	23.810
816.02	43.137
816.32	37.500
816.62	34.146
816.93	16.216
817.23	22.857
817.53	37.500
817.84	26.087
818.14	23.077
818.44	-13.158
818.74	36.957
819.04	-7.500
819.35	37.838
819.65	-5.882
819.95	8.333
820.25	0.000
820.56	20.000
820.86	-13.793
821.16	40.000
821.46	36.170
821.76	30.000
822.07	37.209
822.37	-18.919
822.67	6.250
822.97	14.286
823.27	-7.143
823.57	28.000
823.88	-7.407
824.18	3.571
824.48	11.765
824.78	38.710
825.08	26.087
825.38	0.000
825.69	-4.167
825.99	13.158
826.29	0.000
826.59	53.333
826.89	-76.190
827.19	23.913
827.49	10.000
827.79	17.143
828.09	64.286
828.39	18.182
828.70	48.649
829.00	10.714
829.30	-33.333
829.60	3.333
829.90	50.000
830.20	-2.632
830.50	11.111
830.80	-21.739
831.10	31.818
831.40	24.242
831.70	32.258
832.00	23.810
832.30	-42.857
832.60	8.333
832.90	10.345
833.20	-35.000
833.50	15.152
833.80	18.519
834.10	-15.385
834.40	18.750
834.70	-77.778
835.00	21.053
835.30	26.923
835.60	53.333
835.90	45.161
836.20	27.273
836.50	50.000
836.80	11.538
837.10	50.000
837.40	-233.333
837.70	-9.091
838.00	-72.727
838.30	-13.043
838.60	-7.692
838.90	36.364
839.19	28.571
839.49	6.667
839.79	61.538
840.09	-100.000
840.39	35.714
840.69	28.571
840.99	-19.231
841.29	-10.526
841.59	-110.000
841.88	45.455
842.18	-10.000
842.48	50.000
842.78	-13.333
843.08	18.519
843.38	-150.000
843.68	30.435
843.97	73.333
844.27	-13.333
844.57	5.000
844.87	11.111
845.17	9.524
845.47	73.333
845.76	-61.905
846.06	47.059
846.36	-90.000
846.66	-64.286
846.96	20.000
847.25	-175.000
847.55	35.714
847.85	-112.500
848.15	13.636
848.44	-433.333
848.74	40.000
849.04	40.741
849.34	54.545
849.63	-33.333
849.93	-360.000
850.23	-22.222
850.53	80.000
850.82	-38.462
851.12	22.222
851.42	-20.000
851.71	3.846
852.01	7.143
852.31	-100.000
852.61	109.091
852.90	15.000
853.20	21.053
853.50	-33.333
853.79	-8.696
854.09	41.667
854.39	36.842
854.68	-4.167
854.98	35.484
855.28	50.000
855.57	25.000
855.87	-5.556
856.17	29.630
856.46	-42.857
856.76	-6.667
857.05	77.778
857.35	20.000
857.65	-44.444
857.94	0.000
858.24	24.138
858.53	83.333
858.83	29.630
859.13	31.818
859.42	0.000
859.72	125.000
860.01	-166.667
860.31	32.000
860.60	23.810
860.90	-366.667
861.20	-20.000
861.49	-550.000
861.79	-33.333
862.08	-10.000
862.38	86.667
862.67	-280.000
862.97	16.667
863.26	-33.333
863.56	27.778
863.85	-166.667
864.15	33.333
864.44	-90.000
864.74	85.714
865.03	125.000
865.33	-200.000
865.62	116.667
865.92	8.333
866.21	-200.000
866.51	-25.000
866.80	-90.909
867.10	-250.000
867.39	-8.333
867.69	0.000
867.98	30.769
868.27	-200.000
868.57	46.667
868.86	50.000
869.16	-69.231
869.45	-20.000
869.75	-700.000
870.04	0.000
870.33	-42.857
870.63	42.857
870.92	466.667
871.22	-180.000
871.51	200.000
871.80	133.333
872.10	133.333
>>>>>End Processed Spectral Data<<<<<
