SpectraSuite Data File
++++++++++++++++++++++++++++++++++++
Date: Fri May 15 17:18:33 PDT 2015
User: schluterlab
Dark Spectrum Present: Yes
Reference Spectrum Present: Yes
Number of Sampled Component Spectra: 1
Spectrometers: USB2E3373
Integration Time (usec): 3000 (USB2E3373)
Spectra Averaged: 3 (USB2E3373)
Boxcar Smoothing: 0 (USB2E3373)
Correct for Electrical Dark: No (USB2E3373)
Strobe/Lamp Enabled: No (USB2E3373)
Correct for Detector Non-linearity: No (USB2E3373)
Correct for Stray Light: No (USB2E3373)
Number of Pixels in Processed Spectrum: 2048
>>>>>Begin Processed Spectral Data<<<<<
178.53	0.000
178.91	0.000
179.29	12.500
179.67	-150.000
180.04	-114.286
180.42	-50.000
180.80	500.000
181.18	-33.333
181.56	200.000
181.94	250.000
182.31	-100.000
182.69	60.000
183.07	133.333
183.45	160.000
183.83	-50.000
184.20	118.182
184.58	55.556
184.96	-50.000
185.34	-66.667
185.72	50.000
186.09	-38.462
186.47	600.000
186.85	-50.000
187.23	66.667
187.61	-300.000
187.98	-100.000
188.36	133.333
188.74	66.667
189.12	52.941
189.49	55.556
189.87	0.000
190.25	57.143
190.63	550.000
191.00	200.000
191.38	42.105
191.76	250.000
192.14	-100.000
192.51	500.000
192.89	44.444
193.27	-28.571
193.65	-16.667
194.02	63.636
194.40	100.000
194.78	12.500
195.15	58.333
195.53	50.000
195.91	200.000
196.29	-75.000
196.66	84.615
197.04	128.571
197.42	-22.222
197.79	-233.333
198.17	-7.692
198.55	1000.000
198.92	100.000
199.30	700.000
199.68	60.000
200.05	66.667
200.43	0.000
200.81	0.000
201.18	-66.667
201.56	300.000
201.94	250.000
202.31	-33.333
202.69	-120.000
203.07	-100.000
203.44	400.000
203.82	0.000
204.19	14.286
204.57	-133.333
204.95	137.500
205.32	40.000
205.70	171.429
206.08	125.000
206.45	166.667
206.83	142.857
207.20	-42.857
207.58	-400.000
207.96	133.333
208.33	-80.000
208.71	125.000
209.08	-16.667
209.46	-100.000
209.84	-120.000
210.21	-300.000
210.59	285.714
210.96	0.000
211.34	50.000
211.71	66.667
212.09	42.857
212.46	-600.000
212.84	0.000
213.22	130.000
213.59	500.000
213.97	76.923
214.34	100.000
214.72	0.000
215.09	250.000
215.47	-30.769
215.84	54.545
216.22	166.667
216.59	0.000
216.97	-50.000
217.34	-75.000
217.72	60.000
218.09	37.500
218.47	112.500
218.84	-1000.000
219.22	-88.889
219.59	160.000
219.97	200.000
220.34	150.000
220.72	57.143
221.09	50.000
221.47	150.000
221.84	-200.000
222.22	-700.000
222.59	163.636
222.97	66.667
223.34	-33.333
223.72	92.857
224.09	66.667
224.46	21.429
224.84	300.000
225.21	-40.000
225.59	6.667
225.96	200.000
226.34	200.000
226.71	157.143
227.08	66.667
227.46	-50.000
227.83	100.000
228.21	0.000
228.58	81.818
228.95	25.000
229.33	100.000
229.70	18.750
230.08	-50.000
230.45	57.143
230.82	185.714
231.20	40.000
231.57	64.286
231.95	114.286
232.32	0.000
232.69	121.429
233.07	233.333
233.44	200.000
233.81	-70.000
234.19	11.111
234.56	29.412
234.93	-50.000
235.31	-250.000
235.68	-60.000
236.05	-69.231
236.43	-5.000
236.80	41.176
237.17	28.125
237.55	5.000
237.92	-22.222
238.29	44.444
238.67	3.333
239.04	5.882
239.41	-24.390
239.79	-3.333
240.16	-12.195
240.53	-13.158
240.91	0.000
241.28	12.698
241.65	1.786
242.02	20.548
242.40	5.000
242.77	3.390
243.14	4.545
243.51	5.000
243.89	18.391
244.26	-10.345
244.63	5.952
245.00	7.216
245.38	7.216
245.75	3.371
246.12	3.448
246.49	10.744
246.87	6.731
247.24	0.840
247.61	-2.632
247.98	1.626
248.36	-1.875
248.73	7.237
249.10	2.597
249.47	-2.532
249.84	6.536
250.22	4.118
250.59	1.961
250.96	10.329
251.33	-0.581
251.70	7.059
252.08	4.061
252.45	0.990
252.82	5.528
253.19	5.069
253.56	5.607
253.94	6.757
254.31	4.783
254.68	7.456
255.05	3.937
255.42	5.240
255.79	5.792
256.16	7.004
256.54	4.851
256.91	2.281
257.28	3.346
257.65	0.375
258.02	0.355
258.39	5.387
258.76	3.297
259.14	3.322
259.51	7.120
259.88	0.000
260.25	1.307
260.62	2.431
260.99	0.678
261.36	0.342
261.73	3.165
262.10	4.559
262.47	0.000
262.85	0.313
263.22	3.385
263.59	2.804
263.96	3.106
264.33	3.030
264.70	3.274
265.07	0.000
265.44	3.116
265.81	2.542
266.18	3.825
266.55	3.599
266.92	4.922
267.29	1.567
267.66	2.558
268.03	2.880
268.40	-1.305
268.77	4.813
269.14	3.597
269.51	5.398
269.88	0.499
270.25	0.510
270.62	0.732
270.99	1.790
271.36	0.978
271.73	3.756
272.10	0.973
272.47	0.709
272.84	0.248
273.21	1.856
273.58	2.651
273.95	3.432
274.32	0.462
274.69	2.941
275.06	4.464
275.43	2.948
275.80	1.325
276.17	1.839
276.54	3.426
276.91	2.193
277.28	-0.655
277.65	4.545
278.02	3.830
278.39	-0.219
278.76	2.935
279.13	0.830
279.50	3.571
279.87	3.240
280.23	-1.075
280.60	3.509
280.97	2.222
281.34	1.731
281.71	1.848
282.08	0.818
282.45	0.587
282.82	2.703
283.19	1.547
283.56	0.963
283.92	0.949
284.29	0.962
284.66	2.519
285.03	3.143
285.40	-0.378
285.77	4.042
286.14	2.347
286.51	2.768
286.87	1.097
287.24	0.552
287.61	-0.882
287.98	5.263
288.35	1.213
288.72	2.627
289.08	2.083
289.45	2.812
289.82	2.448
290.19	1.024
290.56	1.372
290.93	1.010
291.29	1.079
291.66	2.520
292.03	3.668
292.40	2.742
292.77	1.595
293.13	-0.162
293.50	0.759
293.87	2.290
294.24	1.391
294.60	3.577
294.97	2.083
295.34	1.227
295.71	1.192
296.08	1.644
296.44	0.711
296.81	3.056
297.18	1.594
297.55	4.065
297.91	2.740
298.28	3.826
298.65	1.764
299.02	1.078
299.38	0.000
299.75	2.345
300.12	0.785
300.48	1.581
300.85	2.028
301.22	1.039
301.59	2.237
301.95	2.405
302.32	2.594
302.69	1.617
303.05	2.104
303.42	1.743
303.79	1.869
304.15	2.389
304.52	-0.357
304.89	1.287
305.25	0.847
305.62	0.700
305.99	1.053
306.35	1.734
306.72	-0.112
307.09	1.368
307.45	1.493
307.82	1.042
308.19	1.510
308.55	1.636
308.92	2.179
309.29	0.670
309.65	1.722
310.02	0.660
310.38	2.305
310.75	0.984
311.12	1.615
311.48	1.591
311.85	0.942
312.22	1.160
312.58	1.380
312.95	1.494
313.31	1.553
313.68	0.628
314.05	1.735
314.41	2.474
314.78	1.134
315.14	0.719
315.51	1.346
315.87	0.615
316.24	3.033
316.61	1.870
316.97	2.480
317.34	1.172
317.70	1.338
318.07	0.769
318.43	1.765
318.80	2.083
319.16	1.172
319.53	1.804
319.89	0.886
320.26	1.417
320.62	2.808
320.99	0.418
321.35	1.747
321.72	2.077
322.08	1.913
322.45	1.421
322.81	1.670
323.18	1.079
323.54	2.220
323.91	2.045
324.27	3.320
324.64	2.434
325.00	2.190
325.37	3.489
325.73	1.904
326.10	2.634
326.46	2.332
326.83	1.837
327.19	2.267
327.56	2.346
327.92	2.201
328.29	1.250
328.65	2.264
329.01	2.298
329.38	2.765
329.74	1.889
330.11	3.151
330.47	2.597
330.84	0.962
331.20	2.376
331.56	2.593
331.93	2.283
332.29	2.383
332.66	1.719
333.02	1.673
333.38	2.016
333.75	2.656
334.11	2.059
334.48	3.989
334.84	2.930
335.20	1.921
335.57	1.904
335.93	1.897
336.29	2.670
336.66	2.271
337.02	0.836
337.38	0.741
337.75	2.364
338.11	3.427
338.47	2.099
338.84	2.957
339.20	2.559
339.56	3.028
339.93	2.775
340.29	1.651
340.65	2.419
341.02	2.305
341.38	2.832
341.74	1.325
342.11	1.646
342.47	1.957
342.83	2.249
343.20	2.700
343.56	2.087
343.92	2.391
344.28	2.904
344.65	1.900
345.01	1.642
345.37	2.271
345.73	3.180
346.10	3.365
346.46	2.439
346.82	1.800
347.19	1.746
347.55	2.089
347.91	2.832
348.27	2.587
348.63	1.959
349.00	1.641
349.36	2.244
349.72	2.653
350.08	1.721
350.45	2.713
350.81	1.163
351.17	0.977
351.53	2.612
351.89	1.321
352.26	1.200
352.62	2.339
352.98	2.329
353.34	2.496
353.70	3.398
354.07	2.177
354.43	2.162
354.79	1.486
355.15	3.175
355.51	3.402
355.87	2.508
356.24	1.876
356.60	2.183
356.96	2.698
357.32	2.476
357.68	2.111
358.04	2.423
358.40	2.814
358.77	2.632
359.13	1.922
359.49	2.003
359.85	1.872
360.21	0.718
360.57	3.137
360.93	2.118
361.29	1.813
361.66	2.038
362.02	2.652
362.38	2.589
362.74	1.817
363.10	2.935
363.46	3.039
363.82	2.930
364.18	1.771
364.54	2.132
364.90	2.581
365.26	2.329
365.62	3.212
365.98	2.273
366.35	2.840
366.71	2.513
367.07	1.742
367.43	1.582
367.79	2.686
368.15	2.082
368.51	2.112
368.87	2.010
369.23	1.444
369.59	2.405
369.95	2.346
370.31	3.902
370.67	2.164
371.03	2.315
371.39	2.261
371.75	2.711
372.11	2.496
372.47	2.441
372.83	1.916
373.19	3.210
373.55	1.805
373.91	2.736
374.27	2.410
374.63	2.656
374.99	2.128
375.35	2.298
375.71	2.448
376.07	1.966
376.42	2.857
376.78	2.550
377.14	1.760
377.50	2.125
377.86	2.209
378.22	2.297
378.58	2.051
378.94	2.268
379.30	3.431
379.66	3.072
380.02	2.820
380.38	2.435
380.74	2.513
381.09	3.926
381.45	1.896
381.81	3.270
382.17	3.363
382.53	3.186
382.89	2.385
383.25	3.485
383.61	3.415
383.97	1.778
384.32	2.752
384.68	2.972
385.04	2.451
385.40	2.614
385.76	3.208
386.12	3.234
386.48	3.384
386.83	2.917
387.19	4.029
387.55	3.576
387.91	3.240
388.27	3.175
388.62	3.272
388.98	3.745
389.34	3.373
389.70	4.413
390.06	3.839
390.42	3.627
390.77	3.205
391.13	2.900
391.49	3.040
391.85	3.769
392.20	3.139
392.56	3.751
392.92	4.404
393.28	4.658
393.64	3.964
393.99	4.451
394.35	3.226
394.71	4.406
395.07	3.583
395.42	4.493
395.78	3.518
396.14	4.035
396.50	4.502
396.85	3.992
397.21	4.261
397.57	4.639
397.92	4.314
398.28	4.080
398.64	4.337
399.00	4.797
399.35	3.555
399.71	5.284
400.07	4.595
400.42	4.529
400.78	4.899
401.14	4.477
401.49	5.182
401.85	3.961
402.21	4.940
402.57	5.188
402.92	4.141
403.28	4.574
403.63	4.855
403.99	4.592
404.35	4.747
404.70	5.060
405.06	4.877
405.42	4.661
405.77	3.544
406.13	5.064
406.49	4.500
406.84	4.645
407.20	5.418
407.55	4.636
407.91	4.679
408.27	4.589
408.62	5.846
408.98	5.176
409.34	5.328
409.69	4.587
410.05	4.988
410.40	5.185
410.76	5.549
411.11	5.625
411.47	5.260
411.83	4.269
412.18	5.019
412.54	5.805
412.89	4.557
413.25	5.475
413.60	4.410
413.96	5.460
414.31	6.098
414.67	6.030
415.03	5.459
415.38	5.548
415.74	5.668
416.09	5.944
416.45	5.807
416.80	6.874
417.16	5.801
417.51	5.996
417.87	5.215
418.22	5.959
418.58	4.548
418.93	5.705
419.29	5.698
419.64	5.379
420.00	6.297
420.35	5.970
420.71	5.772
421.06	5.893
421.42	5.829
421.77	5.723
422.12	5.789
422.48	6.010
422.83	6.265
423.19	6.151
423.54	4.762
423.90	6.184
424.25	6.429
424.61	5.875
424.96	5.807
425.31	5.893
425.67	5.047
426.02	6.773
426.38	6.450
426.73	6.659
427.09	6.582
427.44	6.412
427.79	7.189
428.15	6.978
428.50	5.572
428.85	6.020
429.21	6.621
429.56	6.469
429.92	7.345
430.27	6.867
430.62	6.168
430.98	5.945
431.33	6.887
431.68	6.070
432.04	6.093
432.39	5.647
432.74	6.194
433.10	7.586
433.45	6.392
433.80	5.456
434.16	5.706
434.51	6.774
434.86	6.330
435.22	6.450
435.57	6.176
435.92	6.946
436.28	6.500
436.63	7.017
436.98	6.952
437.34	6.171
437.69	6.857
438.04	6.781
438.39	5.803
438.75	6.557
439.10	6.621
439.45	7.791
439.81	6.055
440.16	7.304
440.51	7.522
440.86	7.915
441.22	7.353
441.57	6.788
441.92	7.135
442.27	7.040
442.63	8.030
442.98	6.950
443.33	6.900
443.68	7.215
444.03	7.849
444.39	7.575
444.74	7.414
445.09	6.793
445.44	7.179
445.79	8.561
446.15	6.718
446.50	7.654
446.85	7.120
447.20	7.143
447.55	8.203
447.91	7.558
448.26	8.082
448.61	7.772
448.96	7.573
449.31	7.341
449.66	7.898
450.02	7.359
450.37	7.469
450.72	7.961
451.07	7.722
451.42	7.241
451.77	7.113
452.12	7.596
452.47	7.469
452.83	7.067
453.18	7.653
453.53	7.838
453.88	7.407
454.23	7.929
454.58	8.438
454.93	8.698
455.28	7.302
455.63	8.493
455.98	8.479
456.34	8.365
456.69	8.450
457.04	8.759
457.39	8.202
457.74	6.953
458.09	7.828
458.44	8.016
458.79	7.787
459.14	9.039
459.49	9.194
459.84	8.122
460.19	7.464
460.54	8.741
460.89	8.523
461.24	8.571
461.59	8.551
461.94	8.302
462.29	8.866
462.64	8.837
462.99	8.802
463.34	7.789
463.69	8.687
464.04	8.051
464.39	7.884
464.74	8.589
465.09	9.046
465.44	8.598
465.79	8.333
466.14	8.837
466.49	8.453
466.84	9.042
467.19	8.636
467.54	9.068
467.89	8.402
468.24	8.759
468.59	8.762
468.94	8.571
469.29	9.443
469.64	8.817
469.99	9.180
470.34	7.235
470.68	9.620
471.03	9.625
471.38	8.488
471.73	7.703
472.08	9.294
472.43	8.792
472.78	7.334
473.13	9.184
473.48	9.642
473.83	8.780
474.17	9.521
474.52	9.062
474.87	8.970
475.22	8.542
475.57	8.583
475.92	8.832
476.27	8.498
476.61	9.896
476.96	8.868
477.31	9.302
477.66	8.202
478.01	8.535
478.36	9.041
478.70	8.972
479.05	8.791
479.40	9.380
479.75	8.551
480.10	8.551
480.45	8.650
480.79	9.265
481.14	8.658
481.49	7.931
481.84	8.301
482.19	7.998
482.53	8.825
482.88	8.210
483.23	8.637
483.58	9.104
483.92	8.567
484.27	8.614
484.62	8.606
484.97	8.375
485.31	8.598
485.66	8.087
486.01	8.368
486.36	8.179
486.70	8.000
487.05	7.929
487.40	8.480
487.75	7.972
488.09	8.375
488.44	8.735
488.79	8.517
489.13	9.295
489.48	8.294
489.83	8.834
490.17	8.494
490.52	8.637
490.87	8.515
491.22	8.691
491.56	8.634
491.91	8.365
492.26	9.140
492.60	8.541
492.95	8.903
493.30	8.549
493.64	8.399
493.99	9.372
494.34	8.301
494.68	9.000
495.03	7.786
495.37	8.292
495.72	9.288
496.07	8.683
496.41	9.151
496.76	8.614
497.11	8.337
497.45	9.547
497.80	8.880
498.14	9.091
498.49	8.532
498.84	8.782
499.18	8.886
499.53	9.077
499.87	8.755
500.22	8.605
500.56	9.027
500.91	8.886
501.26	8.749
501.60	8.067
501.95	9.073
502.29	8.959
502.64	9.363
502.98	9.176
503.33	8.405
503.67	9.060
504.02	9.433
504.36	9.649
504.71	8.737
505.06	8.858
505.40	8.629
505.75	8.557
506.09	8.616
506.44	9.548
506.78	9.235
507.13	9.204
507.47	9.034
507.82	8.066
508.16	8.082
508.51	8.604
508.85	9.158
509.19	8.622
509.54	9.330
509.88	9.115
510.23	9.037
510.57	9.139
510.92	7.729
511.26	9.329
511.61	8.526
511.95	9.589
512.30	9.257
512.64	9.460
512.98	8.928
513.33	9.401
513.67	8.982
514.02	10.526
514.36	9.429
514.70	10.315
515.05	9.812
515.39	9.681
515.74	10.000
516.08	9.564
516.42	10.012
516.77	9.421
517.11	9.377
517.46	9.635
517.80	10.012
518.14	9.369
518.49	9.435
518.83	8.931
519.17	8.854
519.52	9.769
519.86	8.103
520.20	9.356
520.55	9.694
520.89	10.100
521.23	9.056
521.58	10.221
521.92	10.064
522.26	9.629
522.61	9.286
522.95	9.868
523.29	10.737
523.64	9.720
523.98	10.564
524.32	9.794
524.66	10.627
525.01	10.260
525.35	9.981
525.69	9.226
526.04	9.259
526.38	10.506
526.72	8.960
527.06	10.117
527.41	10.356
527.75	9.517
528.09	10.432
528.43	11.074
528.78	9.703
529.12	10.065
529.46	9.682
529.80	10.703
530.15	10.495
530.49	8.889
530.83	9.918
531.17	9.134
531.51	10.465
531.86	9.313
532.20	8.629
532.54	10.007
532.88	9.788
533.22	10.349
533.57	10.026
533.91	9.334
534.25	10.156
534.59	10.327
534.93	10.069
535.27	9.074
535.62	9.786
535.96	10.568
536.30	10.422
536.64	9.924
536.98	10.453
537.32	10.028
537.66	10.379
538.01	9.650
538.35	9.847
538.69	9.654
539.03	10.321
539.37	10.296
539.71	9.952
540.05	9.776
540.39	10.249
540.73	10.251
541.07	10.221
541.42	10.618
541.76	9.911
542.10	9.566
542.44	9.521
542.78	8.741
543.12	9.821
543.46	9.944
543.80	9.577
544.14	9.212
544.48	10.526
544.82	9.638
545.16	9.904
545.50	11.015
545.84	10.269
546.18	10.142
546.52	10.238
546.86	9.633
547.20	10.086
547.54	9.541
547.88	10.734
548.22	10.454
548.56	10.290
548.90	10.714
549.24	9.917
549.58	10.155
549.92	9.721
550.26	10.037
550.60	9.888
550.94	10.157
551.28	11.128
551.62	10.154
551.96	11.353
552.30	10.234
552.64	9.591
552.98	10.408
553.32	10.128
553.66	8.926
554.00	10.438
554.34	10.118
554.68	10.546
555.02	10.417
555.36	10.621
555.69	10.037
556.03	10.136
556.37	9.964
556.71	9.819
557.05	10.813
557.39	10.260
557.73	10.045
558.07	11.312
558.41	10.490
558.75	10.834
559.08	10.717
559.42	10.397
559.76	11.049
560.10	9.174
560.44	10.127
560.78	10.350
561.12	10.367
561.45	10.682
561.79	10.644
562.13	10.788
562.47	10.504
562.81	10.375
563.15	10.790
563.48	10.750
563.82	11.393
564.16	10.306
564.50	9.662
564.84	9.973
565.17	9.591
565.51	11.066
565.85	10.700
566.19	10.809
566.52	9.987
566.86	11.054
567.20	9.838
567.54	10.097
567.88	10.369
568.21	10.464
568.55	9.565
568.89	9.908
569.23	10.255
569.56	9.282
569.90	9.866
570.24	9.676
570.57	9.455
570.91	9.934
571.25	8.912
571.59	9.063
571.92	9.007
572.26	8.937
572.60	9.488
572.93	9.162
573.27	9.060
573.61	9.248
573.95	9.121
574.28	8.581
574.62	8.899
574.96	9.000
575.29	9.137
575.63	8.655
575.97	9.027
576.30	9.053
576.64	8.980
576.98	9.086
577.31	9.044
577.65	9.289
577.98	9.150
578.32	8.801
578.66	9.155
578.99	8.985
579.33	8.968
579.67	9.059
580.00	9.215
580.34	9.030
580.67	8.902
581.01	9.294
581.35	9.087
581.68	9.152
582.02	8.937
582.35	8.951
582.69	9.155
583.02	8.930
583.36	9.605
583.70	9.683
584.03	9.063
584.37	9.627
584.70	9.643
585.04	9.041
585.37	9.238
585.71	9.405
586.04	9.455
586.38	9.576
586.72	9.440
587.05	9.879
587.39	9.757
587.72	10.005
588.06	9.660
588.39	10.111
588.73	9.188
589.06	10.176
589.40	9.540
589.73	10.332
590.07	9.894
590.40	9.907
590.73	10.585
591.07	9.627
591.40	9.617
591.74	10.045
592.07	10.761
592.41	10.468
592.74	9.996
593.08	9.815
593.41	9.819
593.75	9.944
594.08	9.990
594.41	10.262
594.75	9.427
595.08	10.026
595.42	10.085
595.75	10.439
596.09	10.125
596.42	9.880
596.75	10.657
597.09	10.342
597.42	10.479
597.75	9.666
598.09	10.819
598.42	9.657
598.76	9.910
599.09	10.136
599.42	10.193
599.76	9.970
600.09	9.879
600.42	10.538
600.76	9.918
601.09	9.847
601.42	10.458
601.76	9.408
602.09	9.942
602.42	10.699
602.76	10.059
603.09	10.507
603.42	10.159
603.76	9.758
604.09	10.004
604.42	10.787
604.76	11.126
605.09	10.649
605.42	10.158
605.75	9.764
606.09	9.682
606.42	10.342
606.75	9.870
607.09	10.549
607.42	10.191
607.75	9.947
608.08	10.288
608.42	9.730
608.75	10.265
609.08	10.563
609.41	10.457
609.75	10.635
610.08	10.984
610.41	10.145
610.74	10.141
611.07	10.181
611.41	10.379
611.74	11.247
612.07	10.225
612.40	10.667
612.73	9.887
613.07	10.236
613.40	10.613
613.73	10.297
614.06	10.351
614.39	10.491
614.72	9.804
615.06	10.000
615.39	10.644
615.72	10.280
616.05	10.503
616.38	9.915
616.71	9.908
617.05	10.500
617.38	10.811
617.71	10.881
618.04	10.730
618.37	11.349
618.70	10.891
619.03	11.389
619.36	9.913
619.69	10.462
620.03	11.760
620.36	11.373
620.69	11.420
621.02	10.780
621.35	11.203
621.68	11.139
622.01	11.750
622.34	11.812
622.67	10.962
623.00	11.026
623.33	10.747
623.66	10.396
623.99	11.271
624.32	10.342
624.65	10.752
624.99	10.158
625.32	10.311
625.65	12.019
625.98	11.604
626.31	9.809
626.64	11.352
626.97	12.653
627.30	11.821
627.63	12.565
627.96	10.422
628.29	12.211
628.62	11.996
628.95	10.721
629.28	11.593
629.61	11.366
629.94	12.805
630.26	11.759
630.59	11.759
630.92	12.718
631.25	11.590
631.58	11.013
631.91	10.417
632.24	10.206
632.57	12.159
632.90	11.744
633.23	11.294
633.56	13.350
633.89	12.207
634.22	13.827
634.55	11.690
634.88	11.111
635.20	10.897
635.53	10.800
635.86	11.313
636.19	13.066
636.52	11.607
636.85	11.414
637.18	10.818
637.51	12.704
637.83	12.484
638.16	12.960
638.49	10.490
638.82	13.026
639.15	11.940
639.48	12.792
639.81	11.855
640.13	10.823
640.46	13.703
640.79	10.162
641.12	11.078
641.45	11.261
641.77	12.593
642.10	14.060
642.43	12.219
642.76	12.871
643.09	13.409
643.41	11.003
643.74	12.356
644.07	11.658
644.40	12.331
644.73	13.835
645.05	13.255
645.38	11.640
645.71	11.879
646.04	14.722
646.36	12.411
646.69	11.691
647.02	13.043
647.35	13.060
647.67	13.528
648.00	15.112
648.33	13.481
648.66	11.695
648.98	10.385
649.31	10.744
649.64	11.146
649.96	11.507
650.29	12.606
650.62	13.675
650.94	11.852
651.27	11.173
651.60	13.153
651.92	12.762
652.25	12.966
652.58	12.000
652.90	13.722
653.23	12.437
653.56	10.829
653.88	12.887
654.21	9.632
654.54	12.224
654.86	13.582
655.19	11.988
655.52	10.913
655.84	8.899
656.17	9.955
656.49	13.634
656.82	14.659
657.15	10.957
657.47	8.279
657.80	6.143
658.13	6.200
658.45	9.330
658.78	9.847
659.10	9.624
659.43	9.873
659.75	9.669
660.08	11.034
660.41	10.827
660.73	13.122
661.06	14.731
661.38	10.568
661.71	12.320
662.03	16.094
662.36	13.187
662.68	9.735
663.01	13.974
663.33	9.745
663.66	11.860
663.98	10.698
664.31	13.859
664.63	10.369
664.96	10.000
665.28	8.830
665.61	12.987
665.93	14.348
666.26	13.449
666.58	12.304
666.91	12.000
667.23	14.387
667.56	15.166
667.88	13.909
668.21	11.456
668.53	14.894
668.86	11.321
669.18	11.085
669.50	11.138
669.83	13.256
670.15	11.189
670.48	10.287
670.80	13.364
671.13	12.752
671.45	10.274
671.77	15.236
672.10	11.881
672.42	15.169
672.75	15.098
673.07	13.953
673.39	11.193
673.72	10.454
674.04	11.042
674.37	13.771
674.69	11.777
675.01	12.889
675.34	13.514
675.66	13.889
675.98	15.078
676.31	14.908
676.63	12.827
676.95	13.409
677.28	15.765
677.60	13.012
677.92	10.780
678.25	14.661
678.57	11.472
678.89	11.345
679.22	12.081
679.54	11.446
679.86	11.133
680.18	12.621
680.51	12.121
680.83	10.934
681.15	12.000
681.48	15.369
681.80	14.050
682.12	12.298
682.44	12.134
682.77	12.583
683.09	14.645
683.41	11.364
683.73	10.369
684.06	12.832
684.38	10.968
684.70	11.547
685.02	10.788
685.34	9.289
685.67	11.257
685.99	12.116
686.31	11.858
686.63	12.059
686.96	9.506
687.28	10.707
687.60	9.886
687.92	12.727
688.24	11.895
688.56	12.445
688.89	10.937
689.21	13.556
689.53	11.601
689.85	10.233
690.17	10.491
690.49	13.002
690.82	13.107
691.14	8.571
691.46	10.748
691.78	11.261
692.10	13.333
692.42	11.905
692.74	11.752
693.06	11.486
693.39	9.502
693.71	10.181
694.03	9.238
694.35	11.449
694.67	14.394
694.99	9.399
695.31	13.316
695.63	16.000
695.95	10.859
696.27	13.990
696.59	13.889
696.91	12.885
697.23	12.339
697.56	9.158
697.88	14.839
698.20	12.073
698.52	12.941
698.84	14.354
699.16	10.000
699.48	13.534
699.80	13.400
700.12	9.434
700.44	12.605
700.76	12.791
701.08	12.121
701.40	13.554
701.72	16.975
702.04	13.201
702.36	15.385
702.68	13.814
703.00	13.030
703.32	14.076
703.64	8.757
703.96	13.043
704.28	12.883
704.60	14.603
704.91	8.202
705.23	11.628
705.55	14.841
705.87	15.523
706.19	10.000
706.51	11.684
706.83	15.113
707.15	11.838
707.47	9.244
707.79	8.594
708.11	13.250
708.43	13.000
708.74	13.437
709.06	12.958
709.38	14.679
709.70	13.905
710.02	12.102
710.34	15.480
710.66	12.500
710.98	10.927
711.29	14.426
711.61	12.542
711.93	18.893
712.25	14.777
712.57	13.919
712.89	10.075
713.20	15.225
713.52	11.847
713.84	13.652
714.16	12.715
714.48	12.581
714.80	12.821
715.11	12.158
715.43	5.643
715.75	10.333
716.07	9.302
716.39	11.074
716.70	8.856
717.02	11.069
717.34	15.789
717.66	8.850
717.97	8.261
718.29	11.715
718.61	11.811
718.93	16.667
719.24	13.688
719.56	15.663
719.88	16.838
720.20	10.606
720.51	11.494
720.83	13.514
721.15	11.765
721.46	12.097
721.78	9.486
722.10	12.639
722.42	10.788
722.73	15.102
723.05	13.061
723.37	16.525
723.68	15.315
724.00	14.530
724.32	9.333
724.63	10.000
724.95	10.480
725.27	11.521
725.58	16.102
725.90	12.302
726.22	12.741
726.53	18.305
726.85	10.861
727.16	17.358
727.48	10.121
727.80	12.551
728.11	8.051
728.43	12.157
728.74	5.242
729.06	13.600
729.38	16.917
729.69	9.163
730.01	8.462
730.32	14.552
730.64	15.548
730.96	13.585
731.27	10.667
731.59	11.864
731.90	9.236
732.22	14.826
732.53	13.953
732.85	14.184
733.16	16.162
733.48	6.835
733.80	8.696
734.11	12.881
734.43	10.653
734.74	13.030
735.06	8.469
735.37	13.293
735.69	15.825
736.00	9.059
736.32	12.416
736.63	17.958
736.95	17.065
737.26	10.676
737.58	13.087
737.89	8.059
738.21	12.406
738.52	16.049
738.83	9.607
739.15	11.790
739.46	12.992
739.78	9.158
740.09	14.379
740.41	16.667
740.72	11.811
741.04	11.336
741.35	10.638
741.66	10.427
741.98	7.143
742.29	11.386
742.61	16.754
742.92	6.161
743.23	5.556
743.55	16.290
743.86	15.789
744.18	12.919
744.49	9.043
744.80	11.413
745.12	21.390
745.43	12.683
745.74	13.542
746.06	13.171
746.37	10.471
746.68	18.009
747.00	11.170
747.31	15.423
747.62	15.049
747.94	12.440
748.25	8.416
748.56	9.836
748.88	8.377
749.19	13.830
749.50	15.271
749.82	11.321
750.13	10.092
750.44	12.782
750.75	15.299
751.07	17.518
751.38	11.111
751.69	10.980
752.01	13.953
752.32	12.351
752.63	7.510
752.94	7.759
753.26	14.644
753.57	8.597
753.88	11.062
754.19	12.917
754.51	10.331
754.82	10.526
755.13	17.083
755.44	11.290
755.75	14.062
756.07	13.619
756.38	10.566
756.69	9.962
757.00	13.333
757.31	11.111
757.63	8.537
757.94	11.667
758.25	7.671
758.56	11.436
758.87	9.065
759.18	13.707
759.50	12.000
759.81	12.375
760.12	11.935
760.43	8.485
760.74	11.728
761.05	10.154
761.36	11.364
761.67	13.030
761.99	13.265
762.30	10.182
762.61	14.625
762.92	15.385
763.23	13.063
763.54	7.477
763.85	15.254
764.16	13.693
764.47	14.919
764.78	9.158
765.10	15.152
765.41	8.202
765.72	10.476
766.03	6.391
766.34	14.964
766.65	13.546
766.96	12.626
767.27	9.043
767.58	9.770
767.89	9.929
768.20	9.659
768.51	19.231
768.82	11.823
769.13	8.295
769.44	11.159
769.75	9.132
770.06	15.517
770.37	16.346
770.68	11.675
770.99	14.932
771.30	15.196
771.61	9.955
771.92	14.655
772.23	13.793
772.54	17.742
772.85	15.432
773.16	14.607
773.47	15.033
773.78	19.608
774.09	11.976
774.39	6.000
774.70	21.019
775.01	12.414
775.32	12.143
775.63	4.959
775.94	12.214
776.25	16.535
776.56	10.833
776.87	13.462
777.18	11.966
777.48	20.690
777.79	4.348
778.10	-3.810
778.41	8.108
778.72	19.841
779.03	13.534
779.34	16.312
779.65	15.753
779.95	9.589
780.26	22.069
780.57	8.130
780.88	9.449
781.19	8.621
781.50	13.178
781.80	8.284
782.11	11.321
782.42	7.692
782.73	12.950
783.04	15.556
783.34	15.278
783.65	9.402
783.96	5.738
784.27	16.552
784.57	4.065
784.88	16.406
785.19	20.000
785.50	19.000
785.81	18.103
786.11	18.103
786.42	0.971
786.73	25.455
787.04	14.286
787.34	17.857
787.65	6.667
787.96	7.965
788.26	10.909
788.57	6.838
788.88	17.969
789.19	17.460
789.49	13.913
789.80	1.020
790.11	11.111
790.41	2.727
790.72	8.696
791.03	10.227
791.33	16.250
791.64	15.000
791.95	9.302
792.25	14.894
792.56	28.090
792.87	8.219
793.17	-2.899
793.48	12.000
793.79	5.000
794.09	15.000
794.40	14.151
794.70	22.330
795.01	0.000
795.32	12.821
795.62	7.619
795.93	21.569
796.23	13.208
796.54	15.625
796.85	23.529
797.15	15.493
797.46	18.056
797.76	18.182
798.07	19.767
798.37	3.947
798.68	19.697
798.99	7.407
799.29	18.571
799.60	11.594
799.90	18.667
800.21	22.951
800.51	33.846
800.82	22.034
801.12	27.536
801.43	31.148
801.73	20.635
802.04	14.000
802.34	16.418
802.65	9.615
802.95	1.786
803.26	17.308
803.56	21.569
803.87	-6.522
804.17	28.000
804.48	26.984
804.78	14.815
805.09	13.043
805.39	-6.667
805.70	14.815
806.00	-3.509
806.30	19.718
806.61	10.000
806.91	20.833
807.22	23.684
807.52	29.333
807.83	7.273
808.13	26.389
808.43	38.235
808.74	4.478
809.04	8.475
809.35	13.462
809.65	14.062
809.95	5.405
810.26	-4.545
810.56	8.219
810.86	4.762
811.17	22.000
811.47	32.653
811.77	-2.632
812.08	4.545
812.38	22.642
812.69	-7.500
812.99	18.182
813.29	5.263
813.59	17.143
813.90	-6.818
814.20	0.000
814.50	26.923
814.81	28.302
815.11	14.894
815.41	32.203
815.72	-2.381
816.02	21.569
816.32	8.333
816.62	2.439
816.93	21.622
817.23	2.857
817.53	31.250
817.84	6.522
818.14	30.769
818.44	-7.895
818.74	30.435
819.04	-12.500
819.35	2.703
819.65	38.235
819.95	16.667
820.25	16.667
820.56	42.500
820.86	-65.517
821.16	37.500
821.46	14.894
821.76	20.000
822.07	4.651
822.37	-5.405
822.67	15.625
822.97	30.952
823.27	28.571
823.57	12.000
823.88	48.148
824.18	39.286
824.48	32.353
824.78	22.581
825.08	-39.130
825.38	30.303
825.69	-4.167
825.99	42.105
826.29	22.222
826.59	13.333
826.89	-23.810
827.19	36.957
827.49	30.000
827.79	42.857
828.09	14.286
828.39	-6.061
828.70	78.378
829.00	-7.143
829.30	-4.762
829.60	23.333
829.90	40.625
830.20	-5.263
830.50	11.111
830.80	-17.391
831.10	18.182
831.40	60.606
831.70	45.161
832.00	42.857
832.30	-14.286
832.60	-91.667
832.90	3.448
833.20	20.000
833.50	21.212
833.80	-7.407
834.10	15.385
834.40	15.625
834.70	-11.111
835.00	-31.579
835.30	42.308
835.60	26.667
835.90	64.516
836.20	18.182
836.50	-10.714
836.80	-38.462
837.10	17.857
837.40	-100.000
837.70	40.909
838.00	36.364
838.30	60.870
838.60	69.231
838.90	40.909
839.19	28.571
839.49	33.333
839.79	-7.692
840.09	-66.667
840.39	28.571
840.69	17.857
840.99	15.385
841.29	-10.526
841.59	-10.000
841.88	45.455
842.18	-40.000
842.48	68.750
842.78	20.000
843.08	29.630
843.38	-100.000
843.68	13.043
843.97	40.000
844.27	0.000
844.57	0.000
844.87	22.222
845.17	-71.429
845.47	26.667
845.76	52.381
846.06	5.882
846.36	-20.000
846.66	35.714
846.96	53.333
847.25	0.000
847.55	21.429
847.85	37.500
848.15	36.364
848.44	-266.667
848.74	35.000
849.04	88.889
849.34	-9.091
849.63	-183.333
849.93	120.000
850.23	27.778
850.53	90.000
850.82	23.077
851.12	-66.667
851.42	46.667
851.71	3.846
852.01	85.714
852.31	-25.000
852.61	81.818
852.90	0.000
853.20	57.895
853.50	58.333
853.79	56.522
854.09	62.500
854.39	21.053
854.68	45.833
854.98	29.032
855.28	92.308
855.57	15.000
855.87	105.556
856.17	59.259
856.46	-28.571
856.76	46.667
857.05	33.333
857.35	56.000
857.65	61.111
857.94	-7.692
858.24	37.931
858.53	50.000
858.83	66.667
859.13	77.273
859.42	30.435
859.72	-150.000
860.01	-266.667
860.31	56.000
860.60	47.619
860.90	-33.333
861.20	0.000
861.49	-300.000
861.79	40.000
862.08	40.000
862.38	73.333
862.67	40.000
862.97	-16.667
863.26	133.333
863.56	72.222
863.85	200.000
864.15	33.333
864.44	40.000
864.74	78.571
865.03	100.000
865.33	-140.000
865.62	83.333
865.92	25.000
866.21	-150.000
866.51	25.000
866.80	72.727
867.10	-150.000
867.39	75.000
867.69	0.000
867.98	-38.462
868.27	-133.333
868.57	20.000
868.86	50.000
869.16	-46.154
869.45	20.000
869.75	-1300.000
870.04	0.000
870.33	-14.286
870.63	42.857
870.92	300.000
871.22	-180.000
871.51	200.000
871.80	55.556
872.10	166.667
>>>>>End Processed Spectral Data<<<<<
