SpectraSuite Data File
++++++++++++++++++++++++++++++++++++
Date: Fri May 15 20:08:53 PDT 2015
User: schluterlab
Dark Spectrum Present: Yes
Reference Spectrum Present: Yes
Number of Sampled Component Spectra: 1
Spectrometers: USB2E3373
Integration Time (usec): 3000 (USB2E3373)
Spectra Averaged: 3 (USB2E3373)
Boxcar Smoothing: 0 (USB2E3373)
Correct for Electrical Dark: No (USB2E3373)
Strobe/Lamp Enabled: No (USB2E3373)
Correct for Detector Non-linearity: No (USB2E3373)
Correct for Stray Light: No (USB2E3373)
Number of Pixels in Processed Spectrum: 2048
>>>>>Begin Processed Spectral Data<<<<<
178.53	0.000
178.91	0.000
179.29	37.500
179.67	-300.000
180.04	42.857
180.42	100.000
180.80	-300.000
181.18	-0.000
181.56	150.000
181.94	-300.000
182.31	100.000
182.69	20.000
183.07	66.667
183.45	-160.000
183.83	116.667
184.20	18.182
184.58	66.667
184.96	-50.000
185.34	66.667
185.72	-500.000
186.09	7.692
186.47	-500.000
186.85	-16.667
187.23	166.667
187.61	-800.000
187.98	133.333
188.36	11.111
188.74	266.667
189.12	11.765
189.49	61.111
189.87	0.000
190.25	78.571
190.63	400.000
191.00	133.333
191.38	21.053
191.76	350.000
192.14	-150.000
192.51	350.000
192.89	-33.333
193.27	-28.571
193.65	100.000
194.02	127.273
194.40	110.000
194.78	-112.500
195.15	0.000
195.53	62.500
195.91	125.000
196.29	175.000
196.66	23.077
197.04	-0.000
197.42	0.000
197.79	-100.000
198.17	0.000
198.55	1200.000
198.92	0.000
199.30	700.000
199.68	-60.000
200.05	-233.333
200.43	0.000
200.81	433.333
201.18	200.000
201.56	1200.000
201.94	-350.000
202.31	-66.667
202.69	-180.000
203.07	125.000
203.44	1000.000
203.82	0.000
204.19	78.571
204.57	-366.667
204.95	50.000
205.32	-30.000
205.70	-114.286
206.08	-100.000
206.45	144.444
206.83	78.571
207.20	-157.143
207.58	-0.000
207.96	-366.667
208.33	-80.000
208.71	-175.000
209.08	-100.000
209.46	-400.000
209.84	-80.000
210.21	-900.000
210.59	-28.571
210.96	100.000
211.34	-25.000
211.71	86.667
212.09	-171.429
212.46	-1400.000
212.84	0.000
213.22	110.000
213.59	100.000
213.97	53.846
214.34	136.364
214.72	-33.333
215.09	500.000
215.47	7.692
215.84	9.091
216.22	-33.333
216.59	-37.500
216.97	400.000
217.34	-125.000
217.72	20.000
218.09	37.500
218.47	100.000
218.84	100.000
219.22	55.556
219.59	-100.000
219.97	266.667
220.34	150.000
220.72	57.143
221.09	-50.000
221.47	-200.000
221.84	-750.000
222.22	-700.000
222.59	72.727
222.97	41.667
223.34	-200.000
223.72	0.000
224.09	-28.571
224.46	53.571
224.84	466.667
225.21	50.000
225.59	40.000
225.96	-100.000
226.34	25.000
226.71	-100.000
227.08	-16.667
227.46	87.500
227.83	-400.000
228.21	88.889
228.58	-9.091
228.95	-25.000
229.33	50.000
229.70	31.250
230.08	-112.500
230.45	-28.571
230.82	-71.429
231.20	6.667
231.57	50.000
231.95	-14.286
232.32	0.000
232.69	50.000
233.07	233.333
233.44	-40.000
233.81	-70.000
234.19	33.333
234.56	-35.294
234.93	500.000
235.31	75.000
235.68	-140.000
236.05	-69.231
236.43	-35.000
236.80	-23.529
237.17	40.625
237.55	5.000
237.92	-3.704
238.29	2.778
238.67	-6.667
239.04	0.000
239.41	-24.390
239.79	-13.333
240.16	9.756
240.53	-18.421
240.91	-4.348
241.28	12.698
241.65	7.143
242.02	5.479
242.40	8.333
242.77	3.390
243.14	0.000
243.51	11.250
243.89	24.138
244.26	4.598
244.63	9.524
245.00	7.216
245.38	15.464
245.75	-10.112
246.12	3.448
246.49	6.612
246.87	-3.846
247.24	-3.361
247.61	-8.772
247.98	10.569
248.36	5.625
248.73	11.842
249.10	1.299
249.47	12.025
249.84	-1.307
250.22	7.647
250.59	3.268
250.96	13.146
251.33	3.488
251.70	10.000
252.08	6.599
252.45	7.426
252.82	3.015
253.19	10.599
253.56	0.467
253.94	7.658
254.31	9.130
254.68	5.263
255.05	3.937
255.42	8.734
255.79	6.950
256.16	8.560
256.54	8.955
256.91	11.027
257.28	7.063
257.65	4.120
258.02	3.901
258.39	10.774
258.76	7.326
259.14	6.645
259.51	5.502
259.88	5.498
260.25	4.575
260.62	9.375
260.99	4.407
261.36	2.397
261.73	9.494
262.10	5.167
262.47	4.908
262.85	5.016
263.22	8.615
263.59	8.100
263.96	5.280
264.33	8.788
264.70	7.143
265.07	2.381
265.44	7.649
265.81	5.932
266.18	8.470
266.55	8.483
266.92	8.031
267.29	8.094
267.66	6.650
268.03	8.377
268.40	3.916
268.77	8.556
269.14	6.475
269.51	9.512
269.88	4.489
270.25	5.102
270.62	4.634
270.99	6.138
271.36	3.667
271.73	6.573
272.10	6.326
272.47	7.565
272.84	6.188
273.21	9.049
273.58	8.193
273.95	5.721
274.32	3.002
274.69	6.109
275.06	5.357
275.43	4.082
275.80	7.947
276.17	5.977
276.54	7.066
276.91	5.482
277.28	5.022
277.65	5.579
278.02	7.021
278.39	5.470
278.76	6.918
279.13	2.905
279.50	8.403
279.87	8.423
280.23	4.516
280.60	6.043
280.97	8.283
281.34	7.308
281.71	7.803
282.08	6.135
282.45	4.501
282.82	4.826
283.19	6.770
283.56	5.202
283.92	2.467
284.29	4.038
284.66	5.814
285.03	6.287
285.40	5.482
285.77	6.327
286.14	5.415
286.51	7.011
286.87	4.388
287.24	5.525
287.61	4.762
287.98	7.368
288.35	4.333
288.72	8.406
289.08	4.340
289.45	6.678
289.82	7.517
290.19	4.437
290.56	4.288
290.93	5.219
291.29	4.777
291.66	6.299
292.03	3.987
292.40	4.194
292.77	4.785
293.13	1.461
293.50	3.338
293.87	4.427
294.24	6.337
294.60	5.812
294.97	5.060
295.34	5.368
295.71	6.110
296.08	5.531
296.44	2.418
296.81	4.167
297.18	5.797
297.55	5.420
297.91	4.384
298.28	6.069
298.65	3.664
299.02	3.908
299.38	0.410
299.75	4.000
300.12	3.665
300.48	5.797
300.85	4.689
301.22	3.506
301.59	2.895
301.95	5.190
302.32	6.355
302.69	5.473
303.05	3.837
303.42	4.608
303.79	4.907
304.15	5.974
304.52	2.735
304.89	5.497
305.25	3.269
305.62	2.917
305.99	2.807
306.35	4.624
306.72	3.712
307.09	2.851
307.45	4.592
307.82	3.241
308.19	4.297
308.55	4.253
308.92	3.922
309.29	4.469
309.65	3.875
310.02	3.520
310.38	3.183
310.75	4.153
311.12	4.198
311.48	4.666
311.85	3.455
312.22	5.485
312.58	3.822
312.95	3.308
313.31	4.141
313.68	3.979
314.05	3.469
314.41	4.536
314.78	4.021
315.14	4.214
315.51	4.348
315.87	4.611
316.24	5.966
316.61	5.512
316.97	4.167
317.34	3.906
317.70	5.258
318.07	3.846
318.43	5.196
318.80	4.830
319.16	6.152
319.53	5.128
319.89	4.626
320.26	5.466
320.62	6.520
320.99	3.967
321.35	4.830
321.72	4.984
322.08	5.539
322.45	5.990
322.81	6.090
323.18	4.318
323.54	5.695
323.91	5.842
324.27	5.762
324.64	5.899
325.00	7.026
325.37	7.897
325.73	6.981
326.10	5.995
326.46	8.161
326.83	7.962
327.19	8.282
327.56	7.993
327.92	9.067
328.29	8.036
328.65	8.868
329.01	9.191
329.38	10.876
329.74	8.971
330.11	10.565
330.47	8.998
330.84	11.058
331.20	12.357
331.56	11.944
331.93	12.237
332.29	12.649
332.66	13.213
333.02	13.383
333.38	12.466
333.75	13.736
334.11	12.802
334.48	14.597
334.84	15.018
335.20	13.907
335.57	13.327
335.93	15.357
336.29	15.009
336.66	14.351
337.02	14.033
337.38	14.352
337.75	15.455
338.11	16.231
338.47	15.146
338.84	15.342
339.20	15.996
339.56	15.138
339.93	16.562
340.29	16.147
340.65	17.384
341.02	15.426
341.38	15.841
341.74	14.929
342.11	14.645
342.47	15.569
342.83	17.042
343.20	15.679
343.56	16.696
343.92	16.386
344.28	16.909
344.65	15.803
345.01	16.595
345.37	15.643
345.73	16.820
346.10	16.652
346.46	16.737
346.82	15.957
347.19	16.126
347.55	15.205
347.91	16.343
348.27	16.411
348.63	16.865
349.00	17.473
349.36	16.542
349.72	17.247
350.08	16.639
350.45	16.919
350.81	16.113
351.17	15.961
351.53	17.878
351.89	16.102
352.26	15.360
352.62	17.177
352.98	16.305
353.34	15.620
353.70	16.343
354.07	16.290
354.43	16.333
354.79	17.011
355.15	17.381
355.51	16.060
355.87	17.314
356.24	15.824
356.60	16.492
356.96	18.254
357.32	17.093
357.68	16.185
358.04	16.559
358.40	16.318
358.77	17.305
359.13	16.974
359.49	16.641
359.85	17.317
360.21	16.826
360.57	16.373
360.93	16.717
361.29	16.239
361.66	16.850
362.02	17.197
362.38	18.279
362.74	17.411
363.10	17.081
363.46	17.050
363.82	18.407
364.18	18.450
364.54	16.838
364.90	17.348
365.26	17.103
365.62	18.613
365.98	17.155
366.35	18.427
366.71	16.925
367.07	18.433
367.43	17.685
367.79	17.314
368.15	17.444
368.51	17.626
368.87	16.080
369.23	16.679
369.59	17.857
369.95	18.255
370.31	17.558
370.67	17.463
371.03	17.849
371.39	17.214
371.75	17.509
372.11	17.546
372.47	17.899
372.83	17.672
373.19	17.903
373.55	17.473
373.91	17.567
374.27	18.498
374.63	18.593
374.99	18.440
375.35	17.340
375.71	18.112
376.07	17.135
376.42	18.027
376.78	17.919
377.14	18.213
377.50	18.194
377.86	18.340
378.22	18.953
378.58	18.141
378.94	18.084
379.30	18.341
379.66	18.871
380.02	18.210
380.38	17.468
380.74	18.791
381.09	18.037
381.45	18.654
381.81	18.014
382.17	17.957
382.53	17.427
382.89	18.456
383.25	18.233
383.61	18.110
383.97	18.349
384.32	18.449
384.68	17.399
385.04	17.647
385.40	17.735
385.76	18.931
386.12	18.758
386.48	18.135
386.83	17.755
387.19	18.803
387.55	18.319
387.91	17.543
388.27	17.338
388.62	18.565
388.98	17.986
389.34	18.051
389.70	17.651
390.06	17.873
390.42	17.293
390.77	17.789
391.13	17.024
391.49	17.982
391.85	17.414
392.20	17.640
392.56	17.864
392.92	18.321
393.28	17.217
393.64	17.357
393.99	18.056
394.35	18.280
394.71	17.752
395.07	17.348
395.42	16.636
395.78	17.264
396.14	17.844
396.50	17.628
396.85	17.579
397.21	17.857
397.57	17.367
397.92	16.896
398.28	16.552
398.64	16.687
399.00	17.156
399.35	16.817
399.71	16.772
400.07	17.170
400.42	16.646
400.78	17.269
401.14	16.636
401.49	16.736
401.85	16.758
402.21	16.205
402.57	16.625
402.92	15.433
403.28	16.729
403.63	16.709
403.99	15.434
404.35	15.990
404.70	15.655
405.06	15.394
405.42	15.600
405.77	14.933
406.13	15.308
406.49	15.690
406.84	15.587
407.20	16.135
407.55	15.003
407.91	15.575
408.27	16.061
408.62	15.815
408.98	15.219
409.34	15.551
409.69	15.245
410.05	14.347
410.40	14.691
410.76	15.501
411.11	15.125
411.47	15.187
411.83	14.124
412.18	15.251
412.54	14.669
412.89	15.271
413.25	15.463
413.60	15.155
413.96	14.479
414.31	15.854
414.67	14.689
415.03	14.714
415.38	15.144
415.74	14.984
416.09	15.676
416.45	15.598
416.80	15.995
417.16	15.539
417.51	15.923
417.87	15.645
418.22	15.415
418.58	15.385
418.93	16.677
419.29	14.853
419.64	15.165
420.00	16.310
420.35	15.522
420.71	16.768
421.06	15.899
421.42	16.166
421.77	16.358
422.12	15.891
422.48	16.676
422.83	16.473
423.19	16.196
423.54	16.696
423.90	15.607
424.25	17.336
424.61	17.013
424.96	16.783
425.31	18.140
425.67	17.606
426.02	16.961
426.38	18.096
426.73	17.918
427.09	19.114
427.44	17.529
427.79	18.209
428.15	18.507
428.50	17.505
428.85	17.568
429.21	18.506
429.56	18.544
429.92	18.541
430.27	18.446
430.62	18.714
430.98	18.418
431.33	19.401
431.68	19.048
432.04	19.173
432.39	18.882
432.74	18.340
433.10	19.828
433.45	19.594
433.80	19.443
434.16	19.114
434.51	20.753
434.86	20.151
435.22	20.135
435.57	20.462
435.92	20.778
436.28	19.917
436.63	20.593
436.98	20.800
437.34	20.750
437.69	21.228
438.04	21.481
438.39	21.014
438.75	21.494
439.10	21.336
439.45	21.668
439.81	20.673
440.16	22.090
440.51	22.090
440.86	22.900
441.22	22.342
441.57	21.909
441.92	23.085
442.27	23.004
442.63	22.966
442.98	23.320
443.33	22.315
443.68	23.554
444.03	23.646
444.39	23.610
444.74	24.526
445.09	23.831
445.44	24.217
445.79	24.600
446.15	24.504
446.50	23.184
446.85	23.964
447.20	24.088
447.55	25.502
447.91	24.422
448.26	25.270
448.61	24.467
448.96	25.072
449.31	24.451
449.66	24.681
450.02	24.929
450.37	25.074
450.72	24.570
451.07	24.937
451.42	25.468
451.77	25.196
452.12	24.222
452.47	26.401
452.83	25.736
453.18	24.541
453.53	25.537
453.88	25.987
454.23	25.814
454.58	26.134
454.93	26.224
455.28	25.333
455.63	25.480
455.98	26.639
456.34	25.670
456.69	26.112
457.04	26.339
457.39	26.063
457.74	26.904
458.09	25.603
458.44	25.629
458.79	25.882
459.14	26.144
459.49	26.627
459.84	26.565
460.19	26.820
460.54	26.895
460.89	26.989
461.24	26.708
461.59	27.197
461.94	26.478
462.29	26.900
462.64	27.442
462.99	27.759
463.34	26.495
463.69	26.577
464.04	27.542
464.39	26.501
464.74	27.914
465.09	27.823
465.44	27.813
465.79	27.041
466.14	27.480
466.49	27.545
466.84	28.079
467.19	28.849
467.54	27.395
467.89	27.795
468.24	27.190
468.59	27.873
468.94	27.175
469.29	27.934
469.64	27.888
469.99	28.101
470.34	27.440
470.68	28.635
471.03	28.804
471.38	28.531
471.73	28.571
472.08	27.748
472.43	28.456
472.78	27.896
473.13	30.068
473.48	27.427
473.83	28.082
474.17	29.598
474.52	27.569
474.87	29.091
475.22	28.798
475.57	28.797
475.92	29.676
476.27	29.627
476.61	29.225
476.96	28.388
477.31	29.367
477.66	29.438
478.01	29.253
478.36	28.322
478.70	29.418
479.05	28.956
479.40	29.518
479.75	29.093
480.10	28.776
480.45	29.250
480.79	30.413
481.14	29.559
481.49	29.261
481.84	29.681
482.19	29.420
482.53	29.017
482.88	29.881
483.23	29.511
483.58	29.434
483.92	29.235
484.27	29.125
484.62	29.045
484.97	29.602
485.31	29.046
485.66	28.829
486.01	29.346
486.36	29.294
486.70	29.261
487.05	29.462
487.40	29.343
487.75	28.535
488.09	28.925
488.44	28.851
488.79	29.772
489.13	29.487
489.48	30.483
489.83	30.135
490.17	28.719
490.52	30.115
490.87	30.403
491.22	30.181
491.56	30.076
491.91	29.971
492.26	30.141
492.60	29.990
492.95	30.595
493.30	30.044
493.64	30.452
493.99	30.338
494.34	29.660
494.68	30.000
495.03	30.608
495.37	30.471
495.72	31.146
496.07	30.732
496.41	30.283
496.76	30.677
497.11	29.762
497.45	30.549
497.80	30.121
498.14	29.955
498.49	30.320
498.84	29.840
499.18	31.677
499.53	31.101
499.87	29.961
500.22	31.058
500.56	30.913
500.91	31.175
501.26	30.796
501.60	30.743
501.95	31.198
502.29	31.235
502.64	31.033
502.98	32.264
503.33	30.932
503.67	31.614
504.02	32.160
504.36	31.865
504.71	31.212
505.06	30.599
505.40	31.624
505.75	32.062
506.09	32.641
506.44	32.238
506.78	32.704
507.13	33.299
507.47	32.010
507.82	31.250
508.16	32.805
508.51	32.634
508.85	32.862
509.19	31.719
509.54	32.976
509.88	32.686
510.23	33.351
510.57	33.458
510.92	32.409
511.26	33.333
511.61	33.058
511.95	33.534
512.30	33.592
512.64	34.112
512.98	33.520
513.33	34.471
513.67	32.916
514.02	35.698
514.36	35.371
514.70	35.548
515.05	34.841
515.39	34.652
515.74	35.808
516.08	34.190
516.42	34.276
516.77	35.459
517.11	35.549
517.46	35.548
517.80	34.982
518.14	35.517
518.49	35.457
518.83	34.629
519.17	34.142
519.52	34.813
519.86	34.694
520.20	36.027
520.55	34.772
520.89	36.575
521.23	36.479
521.58	35.647
521.92	36.410
522.26	36.174
522.61	36.753
522.95	37.086
523.29	37.039
523.64	36.849
523.98	38.172
524.32	36.340
524.66	37.068
525.01	37.597
525.35	36.811
525.69	37.104
526.04	37.169
526.38	38.521
526.72	35.971
527.06	37.224
527.41	37.797
527.75	37.332
528.09	37.342
528.43	38.960
528.78	37.888
529.12	37.871
529.46	38.532
529.80	37.745
530.15	38.416
530.49	37.845
530.83	38.988
531.17	38.214
531.51	38.509
531.86	37.661
532.20	37.578
532.54	38.189
532.88	38.261
533.22	36.962
533.57	38.467
533.91	37.467
534.25	39.844
534.59	38.294
534.93	38.200
535.27	37.183
535.62	37.071
535.96	38.030
536.30	38.852
536.64	38.870
536.98	38.328
537.32	38.762
537.66	39.271
538.01	39.231
538.35	38.627
538.69	37.949
539.03	37.799
539.37	37.954
539.71	39.741
540.05	37.542
540.39	39.958
540.73	39.121
541.07	40.055
541.42	38.306
541.76	39.849
542.10	38.816
542.44	39.680
542.78	37.371
543.12	38.393
543.46	40.125
543.80	39.070
544.14	37.517
544.48	40.040
544.82	39.781
545.16	38.866
545.50	38.785
545.84	39.943
546.18	40.426
546.52	39.654
546.86	40.043
547.20	40.486
547.54	38.940
547.88	39.130
548.22	39.842
548.56	40.501
548.90	39.623
549.24	39.601
549.58	39.563
549.92	38.099
550.26	40.000
550.60	40.520
550.94	41.225
551.28	40.804
551.62	41.231
551.96	40.977
552.30	40.643
552.64	39.704
552.98	40.014
553.32	40.942
553.66	41.074
554.00	41.825
554.34	41.433
554.68	41.593
555.02	40.774
555.36	40.987
555.69	40.586
556.03	40.614
556.37	40.427
556.71	41.372
557.05	40.716
557.39	40.892
557.73	40.855
558.07	41.931
558.41	40.735
558.75	42.089
559.08	42.002
559.42	40.952
559.76	42.434
560.10	40.673
560.44	41.996
560.78	40.979
561.12	41.185
561.45	41.883
561.79	42.227
562.13	42.370
562.47	41.151
562.81	42.939
563.15	41.255
563.48	42.291
563.82	41.386
564.16	42.061
564.50	41.554
564.84	41.633
565.17	41.583
565.51	42.418
565.85	42.181
566.19	41.512
566.52	42.694
566.86	42.416
567.20	41.781
567.54	42.032
567.88	41.476
568.21	42.081
568.55	41.359
568.89	41.581
569.23	41.839
569.56	41.156
569.90	41.129
570.24	40.194
570.57	40.800
570.91	40.397
571.25	40.579
571.59	39.676
571.92	39.467
572.26	39.946
572.60	39.566
572.93	38.751
573.27	39.248
573.61	39.469
573.95	39.787
574.28	38.718
574.62	38.393
574.96	39.217
575.29	39.147
575.63	38.171
575.97	38.872
576.30	38.853
576.64	38.437
576.98	39.691
577.31	39.789
577.65	39.633
577.98	39.603
578.32	39.583
578.66	38.857
578.99	38.044
579.33	38.071
579.67	38.708
580.00	38.911
580.34	38.731
580.67	38.872
581.01	39.097
581.35	39.492
581.68	39.579
582.02	39.769
582.35	39.443
582.69	39.092
583.02	38.966
583.36	39.744
583.70	40.498
584.03	40.423
584.37	40.599
584.70	40.852
585.04	40.000
585.37	40.713
585.71	40.484
586.04	40.645
586.38	40.544
586.72	41.492
587.05	41.334
587.39	42.102
587.72	42.017
588.06	42.043
588.39	41.071
588.73	42.521
589.06	42.498
589.40	42.067
589.73	42.242
590.07	42.825
590.40	42.957
590.73	42.792
591.07	43.384
591.40	42.431
591.74	43.167
592.07	44.666
592.41	43.993
592.74	43.090
593.08	42.578
593.41	42.900
593.75	43.670
594.08	43.357
594.41	43.013
594.75	42.939
595.08	43.549
595.42	43.982
595.75	44.424
596.09	44.292
596.42	44.274
596.75	44.272
597.09	44.100
597.42	44.399
597.75	44.297
598.09	43.368
598.42	43.186
598.76	44.015
599.09	43.630
599.42	42.213
599.76	43.679
600.09	42.986
600.42	42.911
600.76	42.645
601.09	43.168
601.42	43.792
601.76	43.946
602.09	44.513
602.42	44.693
602.76	44.143
603.09	44.684
603.42	45.192
603.76	43.629
604.09	43.904
604.42	44.120
604.76	44.637
605.09	44.013
605.42	44.786
605.75	44.790
606.09	43.949
606.42	43.328
606.75	44.199
607.09	44.044
607.42	44.395
607.75	43.384
608.08	43.217
608.42	44.038
608.75	44.386
609.08	45.192
609.41	44.162
609.75	45.413
610.08	45.582
610.41	43.575
610.74	44.807
611.07	44.703
611.41	45.719
611.74	46.695
612.07	45.128
612.40	45.460
612.73	45.650
613.07	44.432
613.40	45.952
613.73	44.600
614.06	44.964
614.39	46.362
614.72	44.370
615.06	45.475
615.39	44.050
615.72	44.295
616.05	45.140
616.38	43.590
616.71	46.055
617.05	46.387
617.38	45.946
617.71	46.164
618.04	46.794
618.37	46.658
618.70	45.479
619.03	45.694
619.36	45.297
619.69	47.688
620.03	47.845
620.36	47.210
620.69	46.324
621.02	46.713
621.35	48.714
621.68	48.810
622.01	47.333
622.34	46.848
622.67	47.161
623.00	46.248
623.33	47.027
623.66	46.896
623.99	45.764
624.32	46.236
624.65	45.940
624.99	46.426
625.32	45.868
625.65	47.211
625.98	47.945
626.31	46.633
626.64	48.007
626.97	47.208
627.30	47.986
627.63	47.487
627.96	49.865
628.29	47.734
628.62	47.394
628.95	47.194
629.28	50.000
629.61	48.853
629.94	49.560
630.26	47.431
630.59	49.740
630.92	48.615
631.25	46.974
631.58	50.881
631.91	47.697
632.24	49.771
632.57	49.659
632.90	48.636
633.23	50.588
633.56	50.882
633.89	49.815
634.22	50.000
634.55	49.809
634.88	50.958
635.20	48.205
635.53	51.067
635.86	49.155
636.19	50.194
636.52	48.724
636.85	48.883
637.18	47.673
637.51	49.560
637.83	47.700
638.16	51.160
638.49	48.774
638.82	50.789
639.15	48.575
639.48	51.032
639.81	50.349
640.13	52.092
640.46	51.458
640.79	50.074
641.12	49.188
641.45	51.051
641.77	49.926
642.10	51.501
642.43	52.090
642.76	50.825
643.09	50.242
643.41	48.867
643.74	49.423
644.07	53.038
644.40	51.520
644.73	50.438
645.05	49.664
645.38	53.263
645.71	50.177
646.04	54.937
646.36	53.014
646.69	50.540
647.02	52.930
647.35	53.918
647.67	52.834
648.00	54.104
648.33	51.877
648.66	49.153
648.98	49.916
649.31	50.248
649.64	48.352
649.96	46.677
650.29	48.722
650.62	49.573
650.94	51.481
651.27	51.397
651.60	50.631
651.92	52.972
652.25	50.799
652.58	48.500
652.90	52.487
653.23	49.580
653.56	48.054
653.88	49.828
654.21	48.862
654.54	51.443
654.86	51.613
655.19	49.708
655.52	48.142
655.84	44.850
656.17	49.749
656.49	66.806
656.82	68.688
657.15	51.393
657.47	38.481
657.80	28.536
658.13	28.126
658.45	42.988
658.78	42.290
659.10	41.975
659.43	41.953
659.75	43.710
660.08	43.586
660.41	47.089
660.73	46.271
661.06	48.873
661.38	47.162
661.71	50.308
662.03	53.863
662.36	50.330
662.68	50.221
663.01	53.275
663.33	49.884
663.66	51.395
663.98	50.000
664.31	51.599
664.63	53.456
664.96	46.957
665.28	50.110
665.61	50.000
665.93	53.043
666.26	51.410
666.58	49.888
666.91	51.294
667.23	52.594
667.56	52.844
667.88	53.957
668.21	49.881
668.53	53.428
668.86	52.594
669.18	48.821
669.50	51.090
669.83	49.535
670.15	49.184
670.48	53.589
670.80	50.000
671.13	51.007
671.45	46.347
671.77	52.575
672.10	48.119
672.42	46.816
672.75	48.490
673.07	51.342
673.39	49.358
673.72	44.576
674.04	48.750
674.37	50.424
674.69	47.752
675.01	53.333
675.34	49.099
675.66	51.620
675.98	51.885
676.31	47.706
676.63	50.594
676.95	47.500
677.28	51.294
677.60	55.181
677.92	53.211
678.25	50.109
678.57	51.299
678.89	48.950
679.22	48.993
679.54	49.598
679.86	45.527
680.18	49.320
680.51	48.295
680.83	47.714
681.15	49.000
681.48	53.074
681.80	50.207
682.12	48.387
682.44	47.908
682.77	49.890
683.09	50.572
683.41	48.182
683.73	48.848
684.06	49.558
684.38	46.667
684.70	50.109
685.02	47.303
685.34	49.802
685.67	45.779
685.99	47.378
686.31	49.912
686.63	49.536
686.96	46.958
687.28	44.848
687.60	47.338
687.92	47.879
688.24	46.774
688.56	48.253
688.89	50.223
689.21	49.333
689.53	51.044
689.85	48.372
690.17	45.089
690.49	47.281
690.82	48.058
691.14	46.667
691.46	48.832
691.78	48.649
692.10	46.882
692.42	47.619
692.74	46.368
693.06	45.721
693.39	44.796
693.71	47.964
694.03	46.651
694.35	46.262
694.67	48.232
694.99	44.648
695.31	47.520
695.63	48.500
695.95	47.475
696.27	49.223
696.59	48.056
696.91	48.179
697.23	46.530
697.56	51.485
697.88	48.172
698.20	46.241
698.52	47.765
698.84	47.608
699.16	46.000
699.48	52.130
699.80	49.380
700.12	46.361
700.44	51.821
700.76	51.163
701.08	46.364
701.40	47.590
701.72	55.556
702.04	49.175
702.36	52.843
702.68	47.748
703.00	50.303
703.32	47.214
703.64	49.153
703.96	46.667
704.28	47.853
704.60	48.571
704.91	46.688
705.23	48.173
705.55	51.237
705.87	50.903
706.19	49.259
706.51	47.423
706.83	51.447
707.15	48.598
707.47	50.420
707.79	43.490
708.11	49.000
708.43	47.250
708.74	44.444
709.06	52.958
709.38	50.459
709.70	47.929
710.02	48.089
710.34	44.892
710.66	45.833
710.98	50.993
711.29	47.541
711.61	50.847
711.93	49.837
712.25	50.172
712.57	48.718
712.89	44.403
713.20	46.021
713.52	45.993
713.84	48.464
714.16	48.110
714.48	49.355
714.80	51.282
715.11	44.073
715.43	47.962
715.75	44.667
716.07	45.847
716.39	48.322
716.70	44.649
717.02	44.656
717.34	49.393
717.66	52.655
717.97	50.000
718.29	47.699
718.61	49.606
718.93	47.287
719.24	49.810
719.56	49.398
719.88	45.017
720.20	47.727
720.51	46.360
720.83	47.876
721.15	45.798
721.46	47.581
721.78	41.897
722.10	44.610
722.42	41.079
722.73	46.531
723.05	53.469
723.37	54.661
723.68	53.604
724.00	48.291
724.32	48.000
724.63	45.455
724.95	49.782
725.27	51.152
725.58	44.492
725.90	47.222
726.22	45.560
726.53	42.373
726.85	45.318
727.16	53.585
727.48	42.105
727.80	47.368
728.11	47.881
728.43	45.490
728.74	41.935
729.06	50.000
729.38	49.248
729.69	49.004
730.01	42.308
730.32	45.149
730.64	45.936
730.96	52.830
731.27	37.667
731.59	44.407
731.90	48.089
732.22	46.057
732.53	46.844
732.85	43.972
733.16	51.515
733.48	38.849
733.80	42.754
734.11	48.136
734.43	44.674
734.74	46.667
735.06	47.231
735.37	47.734
735.69	44.781
736.00	42.857
736.32	46.980
736.63	45.775
736.95	44.369
737.26	41.281
737.58	42.617
737.89	44.322
738.21	43.233
738.52	48.560
738.83	46.725
739.15	42.358
739.46	43.307
739.78	38.095
740.09	42.810
740.41	44.203
740.72	39.764
741.04	42.510
741.35	49.787
741.66	40.284
741.98	53.061
742.29	42.079
742.61	43.455
742.92	38.389
743.23	41.667
743.55	41.629
743.86	44.498
744.18	43.541
744.49	44.681
744.80	43.478
745.12	50.802
745.43	40.488
745.74	52.604
746.06	49.756
746.37	46.597
746.68	46.445
747.00	40.957
747.31	52.239
747.62	46.602
747.94	43.062
748.25	49.010
748.56	48.087
748.88	45.550
749.19	52.128
749.50	47.291
749.82	40.094
750.13	42.202
750.44	45.113
750.75	45.149
751.07	45.620
751.38	40.230
751.69	40.784
752.01	38.760
752.32	43.426
752.63	41.107
752.94	43.966
753.26	51.883
753.57	48.869
753.88	45.133
754.19	43.750
754.51	40.496
754.82	40.081
755.13	47.500
755.44	43.952
755.75	44.922
756.07	45.914
756.38	44.151
756.69	42.529
757.00	37.667
757.31	42.484
757.63	40.549
757.94	40.278
758.25	39.452
758.56	38.830
758.87	37.110
759.18	39.875
759.50	39.273
759.81	41.472
760.12	44.839
760.43	40.303
760.74	40.123
761.05	38.154
761.36	40.341
761.67	42.121
761.99	45.238
762.30	41.818
762.61	40.711
762.92	42.534
763.23	44.595
763.54	43.925
763.85	41.102
764.16	41.909
764.47	39.919
764.78	45.055
765.10	45.455
765.41	37.855
765.72	39.048
766.03	40.977
766.34	39.416
766.65	42.231
766.96	40.909
767.27	39.894
767.58	36.782
767.89	37.589
768.20	44.318
768.51	42.308
768.82	41.872
769.13	45.622
769.44	37.339
769.75	40.639
770.06	44.828
770.37	43.269
770.68	45.685
770.99	37.557
771.30	50.000
771.61	37.557
771.92	43.966
772.23	38.916
772.54	41.398
772.85	46.914
773.16	41.573
773.47	50.327
773.78	48.366
774.09	40.120
774.39	33.333
774.70	38.217
775.01	44.828
775.32	35.714
775.63	42.975
775.94	42.748
776.25	39.370
776.56	40.000
776.87	50.962
777.18	41.026
777.48	40.517
777.79	33.913
778.10	38.095
778.41	33.333
778.72	51.587
779.03	42.105
779.34	48.227
779.65	45.205
779.95	34.932
780.26	45.517
780.57	39.837
780.88	43.307
781.19	45.690
781.50	43.411
781.80	32.544
782.11	34.591
782.42	43.077
782.73	41.727
783.04	42.963
783.34	36.111
783.65	25.641
783.96	31.967
784.27	34.483
784.57	47.967
784.88	32.812
785.19	50.000
785.50	60.000
785.81	43.103
786.11	33.621
786.42	37.864
786.73	49.091
787.04	32.653
787.34	37.500
787.65	39.048
787.96	41.593
788.26	38.182
788.57	38.462
788.88	43.750
789.19	37.302
789.49	36.522
789.80	39.796
790.11	37.374
790.41	38.182
790.72	28.261
791.03	42.045
791.33	56.250
791.64	30.000
791.95	32.558
792.25	41.489
792.56	47.191
792.87	42.466
793.17	44.928
793.48	33.333
793.79	31.250
794.09	58.750
794.40	36.792
794.70	47.573
795.01	39.837
795.32	28.205
795.62	34.286
795.93	44.118
796.23	35.849
796.54	38.542
796.85	26.471
797.15	40.845
797.46	40.278
797.76	50.000
798.07	29.070
798.37	35.526
798.68	46.970
798.99	41.975
799.29	40.000
799.60	46.377
799.90	44.000
800.21	37.705
800.51	52.308
800.82	37.288
801.12	56.522
801.43	21.311
801.73	55.556
802.04	20.000
802.34	35.821
802.65	25.000
802.95	26.786
803.26	38.462
803.56	21.569
803.87	26.087
804.17	30.667
804.48	53.968
804.78	37.037
805.09	23.913
805.39	28.889
805.70	40.741
806.00	19.298
806.30	30.986
806.61	44.286
806.91	20.833
807.22	47.368
807.52	46.667
807.83	32.727
808.13	43.056
808.43	41.176
808.74	37.313
809.04	23.729
809.35	34.615
809.65	32.812
809.95	24.324
810.26	13.636
810.56	34.247
810.86	33.333
811.17	24.000
811.47	26.531
811.77	34.211
812.08	36.364
812.38	28.302
812.69	17.500
812.99	45.455
813.29	13.158
813.59	17.143
813.90	22.727
814.20	17.949
814.50	40.385
814.81	28.302
815.11	31.915
815.41	33.898
815.72	28.571
816.02	33.333
816.32	22.917
816.62	29.268
816.93	35.135
817.23	8.571
817.53	16.667
817.84	15.217
818.14	40.385
818.44	36.842
818.74	43.478
819.04	2.500
819.35	18.919
819.65	11.765
819.95	-8.333
820.25	14.286
820.56	32.500
820.86	-6.897
821.16	72.500
821.46	46.809
821.76	25.000
822.07	23.256
822.37	0.000
822.67	46.875
822.97	45.238
823.27	17.857
823.57	20.000
823.88	33.333
824.18	28.571
824.48	11.765
824.78	41.935
825.08	21.739
825.38	18.182
825.69	-12.500
825.99	39.474
826.29	41.667
826.59	100.000
826.89	14.286
827.19	36.957
827.49	27.500
827.79	45.714
828.09	57.143
828.39	66.667
828.70	59.459
829.00	0.000
829.30	38.095
829.60	20.000
829.90	40.625
830.20	21.053
830.50	-14.815
830.80	30.435
831.10	27.273
831.40	69.697
831.70	41.935
832.00	52.381
832.30	-23.810
832.60	-16.667
832.90	37.931
833.20	10.000
833.50	24.242
833.80	22.222
834.10	30.769
834.40	15.625
834.70	66.667
835.00	36.842
835.30	61.538
835.60	46.667
835.90	3.226
836.20	27.273
836.50	42.857
836.80	30.769
837.10	32.143
837.40	-166.667
837.70	9.091
838.00	-36.364
838.30	43.478
838.60	7.692
838.90	40.909
839.19	14.286
839.49	40.000
839.79	84.615
840.09	0.000
840.39	28.571
840.69	25.000
840.99	-3.846
841.29	10.526
841.59	-30.000
841.88	0.000
842.18	0.000
842.48	62.500
842.78	13.333
843.08	74.074
843.38	-100.000
843.68	21.739
843.97	60.000
844.27	20.000
844.57	40.000
844.87	11.111
845.17	0.000
845.47	113.333
845.76	-4.762
846.06	0.000
846.36	30.000
846.66	35.714
846.96	20.000
847.25	-150.000
847.55	71.429
847.85	12.500
848.15	-50.000
848.44	-400.000
848.74	-5.000
849.04	66.667
849.34	72.727
849.63	-100.000
849.93	60.000
850.23	-5.556
850.53	110.000
850.82	23.077
851.12	-22.222
851.42	40.000
851.71	-19.231
852.01	35.714
852.31	-250.000
852.61	54.545
852.90	-10.000
853.20	0.000
853.50	-75.000
853.79	52.174
854.09	54.167
854.39	5.263
854.68	29.167
854.98	41.935
855.28	34.615
855.57	35.000
855.87	50.000
856.17	51.852
856.46	21.429
856.76	66.667
857.05	100.000
857.35	44.000
857.65	44.444
857.94	84.615
858.24	31.034
858.53	16.667
858.83	51.852
859.13	31.818
859.42	4.348
859.72	225.000
860.01	0.000
860.31	20.000
860.60	57.143
860.90	-433.333
861.20	13.333
861.49	-300.000
861.79	6.667
862.08	20.000
862.38	66.667
862.67	-120.000
862.97	66.667
863.26	83.333
863.56	11.111
863.85	-566.667
864.15	33.333
864.44	-60.000
864.74	85.714
865.03	-100.000
865.33	20.000
865.62	-33.333
865.92	25.000
866.21	-150.000
866.51	56.250
866.80	9.091
867.10	100.000
867.39	91.667
867.69	0.000
867.98	-38.462
868.27	-66.667
868.57	66.667
868.86	61.111
869.16	15.385
869.45	53.333
869.75	-400.000
870.04	0.000
870.33	-85.714
870.63	-14.286
870.92	133.333
871.22	-20.000
871.51	-700.000
871.80	55.556
872.10	500.000
>>>>>End Processed Spectral Data<<<<<
