SpectraSuite Data File
++++++++++++++++++++++++++++++++++++
Date: Fri May 15 20:03:43 PDT 2015
User: schluterlab
Dark Spectrum Present: Yes
Reference Spectrum Present: Yes
Number of Sampled Component Spectra: 1
Spectrometers: USB2E3373
Integration Time (usec): 3000 (USB2E3373)
Spectra Averaged: 3 (USB2E3373)
Boxcar Smoothing: 0 (USB2E3373)
Correct for Electrical Dark: No (USB2E3373)
Strobe/Lamp Enabled: No (USB2E3373)
Correct for Detector Non-linearity: No (USB2E3373)
Correct for Stray Light: No (USB2E3373)
Number of Pixels in Processed Spectrum: 2048
>>>>>Begin Processed Spectral Data<<<<<
178.53	0.000
178.91	0.000
179.29	50.000
179.67	-150.000
180.04	100.000
180.42	75.000
180.80	500.000
181.18	-66.667
181.56	150.000
181.94	50.000
182.31	700.000
182.69	20.000
183.07	300.000
183.45	-140.000
183.83	250.000
184.20	27.273
184.58	133.333
184.96	-200.000
185.34	-66.667
185.72	-200.000
186.09	53.846
186.47	800.000
186.85	316.667
187.23	177.778
187.61	-200.000
187.98	100.000
188.36	44.444
188.74	-466.667
189.12	52.941
189.49	38.889
189.87	0.000
190.25	85.714
190.63	250.000
191.00	100.000
191.38	78.947
191.76	800.000
192.14	-75.000
192.51	200.000
192.89	44.444
193.27	28.571
193.65	100.000
194.02	200.000
194.40	20.000
194.78	-100.000
195.15	41.667
195.53	125.000
195.91	75.000
196.29	-150.000
196.66	38.462
197.04	-28.571
197.42	11.111
197.79	-33.333
198.17	-15.385
198.55	300.000
198.92	100.000
199.30	0.000
199.68	120.000
200.05	66.667
200.43	0.000
200.81	-66.667
201.18	33.333
201.56	700.000
201.94	-50.000
202.31	66.667
202.69	-220.000
203.07	300.000
203.44	500.000
203.82	0.000
204.19	28.571
204.57	-366.667
204.95	25.000
205.32	90.000
205.70	85.714
206.08	75.000
206.45	266.667
206.83	157.143
207.20	-42.857
207.58	-500.000
207.96	166.667
208.33	-30.000
208.71	-150.000
209.08	-116.667
209.46	100.000
209.84	60.000
210.21	200.000
210.59	185.714
210.96	83.333
211.34	-50.000
211.71	106.667
212.09	-85.714
212.46	-1200.000
212.84	0.000
213.22	70.000
213.59	50.000
213.97	53.846
214.34	18.182
214.72	-50.000
215.09	275.000
215.47	-61.538
215.84	18.182
216.22	-333.333
216.59	50.000
216.97	450.000
217.34	250.000
217.72	-120.000
218.09	125.000
218.47	100.000
218.84	-600.000
219.22	22.222
219.59	40.000
219.97	300.000
220.34	275.000
220.72	0.000
221.09	-150.000
221.47	150.000
221.84	-50.000
222.22	-450.000
222.59	-18.182
222.97	16.667
223.34	-100.000
223.72	42.857
224.09	33.333
224.46	3.571
224.84	100.000
225.21	120.000
225.59	-13.333
225.96	300.000
226.34	350.000
226.71	-128.571
227.08	50.000
227.46	50.000
227.83	-450.000
228.21	-33.333
228.58	-9.091
228.95	12.500
229.33	70.000
229.70	81.250
230.08	-37.500
230.45	42.857
230.82	228.571
231.20	13.333
231.57	14.286
231.95	71.429
232.32	-20.000
232.69	71.429
233.07	-133.333
233.44	-80.000
233.81	-40.000
234.19	55.556
234.56	5.882
234.93	50.000
235.31	75.000
235.68	-240.000
236.05	-38.462
236.43	-5.000
236.80	35.294
237.17	50.000
237.55	35.000
237.92	-29.630
238.29	55.556
238.67	20.000
239.04	11.765
239.41	9.756
239.79	50.000
240.16	58.537
240.53	44.737
240.91	43.478
241.28	49.206
241.65	44.643
242.02	28.767
242.40	53.333
242.77	44.068
243.14	25.758
243.51	38.750
243.89	41.379
244.26	34.483
244.63	45.238
245.00	40.206
245.38	47.423
245.75	34.831
246.12	27.586
246.49	42.149
246.87	45.192
247.24	24.370
247.61	38.596
247.98	36.585
248.36	34.375
248.73	42.105
249.10	34.416
249.47	43.671
249.84	41.176
250.22	41.176
250.59	45.098
250.96	45.540
251.33	36.628
251.70	41.176
252.08	45.178
252.45	40.099
252.82	44.221
253.19	38.710
253.56	39.252
253.94	43.243
254.31	43.043
254.68	45.614
255.05	38.976
255.42	43.668
255.79	44.015
256.16	41.634
256.54	44.030
256.91	41.825
257.28	39.405
257.65	37.453
258.02	38.298
258.39	42.424
258.76	42.857
259.14	43.189
259.51	38.835
259.88	42.612
260.25	36.928
260.62	44.792
260.99	37.288
261.36	40.068
261.73	42.089
262.10	39.514
262.47	40.491
262.85	38.871
263.22	41.231
263.59	42.679
263.96	42.547
264.33	43.939
264.70	38.988
265.07	39.583
265.44	42.776
265.81	42.938
266.18	40.437
266.55	39.332
266.92	40.155
267.29	40.731
267.66	40.665
268.03	40.838
268.40	39.687
268.77	47.059
269.14	35.971
269.51	42.931
269.88	42.145
270.25	36.480
270.62	40.244
270.99	40.153
271.36	39.364
271.73	40.610
272.10	38.686
272.47	43.735
272.84	39.851
273.21	41.067
273.58	41.205
273.95	40.503
274.32	38.799
274.69	37.557
275.06	38.170
275.43	38.322
275.80	39.956
276.17	39.770
276.54	38.116
276.91	41.667
277.28	37.555
277.65	37.190
278.02	39.149
278.39	39.606
278.76	39.832
279.13	38.797
279.50	42.857
279.87	40.173
280.23	38.280
280.60	39.376
280.97	37.576
281.34	37.692
281.71	40.452
282.08	36.196
282.45	38.943
282.82	36.486
283.19	38.298
283.56	35.067
283.92	38.899
284.29	36.731
284.66	35.465
285.03	36.149
285.40	34.783
285.77	33.743
286.14	36.823
286.51	40.959
286.87	36.015
287.24	36.280
287.61	34.921
287.98	38.772
288.35	36.395
288.72	36.252
289.08	34.201
289.45	35.501
289.82	34.615
290.19	32.935
290.56	33.105
290.93	32.660
291.29	30.971
291.66	31.811
292.03	34.131
292.40	30.968
292.77	30.463
293.13	27.922
293.50	28.528
293.87	31.298
294.24	32.767
294.60	31.297
294.97	30.357
295.34	29.141
295.71	30.999
296.08	29.148
296.44	27.738
296.81	29.583
297.18	28.986
297.55	29.539
297.91	29.589
298.28	29.683
298.65	27.408
299.02	27.898
299.38	26.539
299.75	28.690
300.12	26.309
300.48	25.955
300.85	26.489
301.22	26.883
301.59	26.053
301.95	29.367
302.32	27.756
302.69	28.234
303.05	27.723
303.42	25.903
303.79	26.168
304.15	26.404
304.52	25.803
304.89	24.678
305.25	24.939
305.62	24.621
305.99	25.614
306.35	24.393
306.72	25.309
307.09	24.971
307.45	25.718
307.82	25.463
308.19	27.758
308.55	24.100
308.92	26.906
309.29	26.592
309.65	24.004
310.02	26.293
310.38	26.674
310.75	25.902
311.12	25.188
311.48	25.451
311.85	24.712
312.22	24.473
312.58	25.902
312.95	24.653
313.31	24.845
313.68	25.654
314.05	24.796
314.41	26.082
314.78	25.464
315.14	25.694
315.51	27.226
315.87	24.898
316.24	26.997
316.61	25.689
316.97	26.687
317.34	26.465
317.70	26.482
318.07	26.731
318.43	26.863
318.80	27.178
319.16	27.637
319.53	27.445
319.89	28.051
320.26	28.036
320.62	27.382
320.99	27.035
321.35	28.366
321.72	29.699
322.08	28.802
322.45	28.934
322.81	29.862
323.18	28.361
323.54	28.475
323.91	30.477
324.27	30.859
324.64	31.929
325.00	30.931
325.37	33.242
325.73	30.644
326.10	33.243
326.46	33.004
326.83	33.683
327.19	33.653
327.56	34.926
327.92	35.387
328.29	33.571
328.65	35.377
329.01	36.673
329.38	35.760
329.74	35.788
330.11	35.867
330.47	36.549
330.84	35.673
331.20	37.643
331.56	35.000
331.93	38.356
332.29	38.130
332.66	36.380
333.02	37.825
333.38	36.572
333.75	38.095
334.11	35.989
334.48	39.166
334.84	38.736
335.20	39.524
335.57	38.259
335.93	38.753
336.29	38.122
336.66	37.239
337.02	37.639
337.38	38.056
337.75	39.091
338.11	38.593
338.47	37.682
338.84	40.018
339.20	37.843
339.56	38.532
339.93	37.959
340.29	38.716
340.65	38.351
341.02	37.500
341.38	35.841
341.74	37.191
342.11	36.742
342.47	38.078
342.83	37.716
343.20	38.240
343.56	38.870
343.92	37.378
344.28	37.831
344.65	37.478
345.01	38.289
345.37	37.847
345.73	39.331
346.10	37.791
346.46	38.604
346.82	36.334
347.19	36.825
347.55	38.262
347.91	37.460
348.27	36.540
348.63	38.160
349.00	38.474
349.36	38.071
349.72	37.645
350.08	37.787
350.45	37.590
350.81	37.126
351.17	37.215
351.53	38.449
351.89	38.150
352.26	38.240
352.62	37.742
352.98	37.751
353.34	37.198
353.70	38.511
354.07	37.500
354.43	38.110
354.79	38.811
355.15	38.095
355.51	38.528
355.87	38.754
356.24	37.765
356.60	38.076
356.96	38.413
357.32	38.179
357.68	37.608
358.04	37.561
358.40	37.058
358.77	38.836
359.13	37.470
359.49	37.442
359.85	38.924
360.21	38.836
360.57	37.567
360.93	38.729
361.29	38.444
361.66	38.088
362.02	39.318
362.38	37.928
362.74	38.607
363.10	39.353
363.46	38.769
363.82	38.317
364.18	38.598
364.54	38.309
364.90	38.351
365.26	39.010
365.62	39.708
365.98	39.516
366.35	39.767
366.71	39.616
367.07	40.276
367.43	38.821
367.79	38.940
368.15	38.981
368.51	40.204
368.87	39.627
369.23	38.773
369.59	40.525
369.95	40.762
370.31	40.824
370.67	40.821
371.03	38.984
371.39	40.190
371.75	40.000
372.11	40.086
372.47	40.385
372.83	40.241
373.19	40.870
373.55	40.289
373.91	40.461
374.27	41.673
374.63	42.211
374.99	41.135
375.35	42.201
375.71	42.517
376.07	42.907
376.42	42.925
376.78	41.812
377.14	42.451
377.50	41.899
377.86	41.566
378.22	42.693
378.58	43.590
378.94	42.155
379.30	41.609
379.66	44.953
380.02	43.532
380.38	43.518
380.74	42.849
381.09	44.785
381.45	44.159
381.81	44.170
382.17	44.543
382.53	44.160
382.89	46.955
383.25	45.986
383.61	45.549
383.97	45.968
384.32	45.028
384.68	45.759
385.04	45.404
385.40	45.613
385.76	47.358
386.12	47.477
386.48	47.063
386.83	46.037
387.19	47.253
387.55	47.302
387.91	46.822
388.27	48.168
388.62	47.892
388.98	47.330
389.34	48.032
389.70	48.167
390.06	46.696
390.42	48.575
390.77	47.090
391.13	48.108
391.49	48.189
391.85	49.318
392.20	49.027
392.56	48.125
392.92	48.326
393.28	49.764
393.64	49.429
393.99	49.404
394.35	49.209
394.71	49.170
395.07	48.020
395.42	47.845
395.78	49.707
396.14	48.045
396.50	49.334
396.85	49.710
397.21	49.812
397.57	49.279
397.92	48.892
398.28	49.080
398.64	48.916
399.00	50.226
399.35	49.718
399.71	49.512
400.07	50.302
400.42	48.654
400.78	50.214
401.14	49.425
401.49	49.672
401.85	49.787
402.21	49.759
402.57	50.375
402.92	49.561
403.28	49.624
403.63	50.441
403.99	49.681
404.35	50.468
404.70	49.048
405.06	49.001
405.42	49.658
405.77	50.203
406.13	50.815
406.49	50.385
406.84	51.284
407.20	49.428
407.55	49.259
407.91	50.000
408.27	48.693
408.62	49.046
408.98	49.723
409.34	51.239
409.69	49.354
410.05	48.768
410.40	49.630
410.76	50.181
411.11	49.250
411.47	49.967
411.83	50.596
412.18	50.515
412.54	49.189
412.89	49.200
413.25	49.639
413.60	48.882
413.96	48.344
414.31	50.183
414.67	48.557
415.03	49.401
415.38	49.608
415.74	49.186
416.09	50.425
416.45	50.506
416.80	50.165
417.16	51.243
417.51	49.300
417.87	50.391
418.22	50.130
418.58	49.833
418.93	51.411
419.29	47.951
419.64	51.199
420.00	51.889
420.35	50.925
420.71	50.122
421.06	50.583
421.42	50.781
421.77	50.867
422.12	50.568
422.48	50.839
422.83	50.812
423.19	50.282
423.54	51.499
423.90	50.589
424.25	51.837
424.61	51.714
424.96	50.871
425.31	52.686
425.67	52.406
426.02	53.004
426.38	53.976
426.73	52.542
427.09	52.848
427.44	53.000
427.79	51.856
428.15	52.549
428.50	51.423
428.85	52.150
429.21	53.424
429.56	53.962
429.92	52.183
430.27	51.729
430.62	51.856
430.98	53.609
431.33	51.893
431.68	51.596
432.04	53.102
432.39	53.280
432.74	52.375
433.10	53.563
433.45	51.732
433.80	53.627
434.16	52.410
434.51	53.333
434.86	53.600
435.22	52.271
435.57	54.273
435.92	52.874
436.28	52.594
436.63	53.508
436.98	52.317
437.34	53.781
437.69	54.562
438.04	53.675
438.39	53.757
438.75	53.613
439.10	54.726
439.45	53.865
439.81	53.639
440.16	54.572
440.51	54.030
440.86	54.743
441.22	53.224
441.57	54.029
441.92	54.407
442.27	54.047
442.63	55.567
442.98	54.968
443.33	54.146
443.68	55.544
444.03	55.092
444.39	54.943
444.74	55.909
445.09	55.067
445.44	55.442
445.79	55.235
446.15	54.130
446.50	54.077
446.85	55.685
447.20	54.171
447.55	55.636
447.91	54.822
448.26	55.265
448.61	55.786
448.96	55.077
449.31	55.549
449.66	55.749
450.02	56.361
450.37	56.728
450.72	54.868
451.07	56.139
451.42	55.306
451.77	55.696
452.12	54.187
452.47	54.797
452.83	54.535
453.18	54.396
453.53	55.563
453.88	56.284
454.23	54.333
454.58	57.872
454.93	54.832
455.28	54.921
455.63	54.991
455.98	56.284
456.34	56.258
456.69	55.591
457.04	55.703
457.39	56.075
457.74	56.288
458.09	54.149
458.44	56.758
458.79	54.510
459.14	56.236
459.49	55.881
459.84	56.458
460.19	56.007
460.54	55.257
460.89	55.852
461.24	56.087
461.59	55.344
461.94	54.214
462.29	56.634
462.64	57.409
462.99	55.924
463.34	55.076
463.69	56.242
464.04	55.751
464.39	55.428
464.74	54.847
465.09	56.207
465.44	56.261
465.79	54.989
466.14	56.385
466.49	56.067
466.84	56.514
467.19	56.195
467.54	55.172
467.89	56.286
468.24	55.961
468.59	57.651
468.94	55.429
469.29	55.803
469.64	56.459
469.99	56.342
470.34	55.495
470.68	57.420
471.03	54.989
471.38	57.632
471.73	55.742
472.08	56.174
472.43	57.718
472.78	55.723
473.13	55.918
473.48	56.352
473.83	55.666
474.17	57.966
474.52	56.860
474.87	57.515
475.22	57.413
475.57	56.352
475.92	56.939
476.27	57.043
476.61	57.465
476.96	55.772
477.31	55.814
477.66	56.292
478.01	56.822
478.36	55.719
478.70	56.824
479.05	57.308
479.40	57.181
479.75	56.152
480.10	56.528
480.45	56.650
480.79	57.654
481.14	58.299
481.49	56.847
481.84	57.288
482.19	57.437
482.53	57.554
482.88	56.659
483.23	56.910
483.58	55.613
483.92	55.518
484.27	55.925
484.62	56.208
484.97	56.385
485.31	57.045
485.66	56.018
486.01	57.140
486.36	57.303
486.70	57.820
487.05	57.248
487.40	57.239
487.75	57.352
488.09	56.119
488.44	56.327
488.79	57.116
489.13	56.611
489.48	56.990
489.83	56.906
490.17	56.045
490.52	56.166
490.87	55.993
491.22	57.116
491.56	55.408
491.91	56.166
492.26	57.657
492.60	56.430
492.95	57.649
493.30	56.619
493.64	57.318
493.99	56.570
494.34	57.136
494.68	57.143
495.03	56.156
495.37	57.213
495.72	56.436
496.07	57.122
496.41	56.415
496.76	57.070
497.11	55.985
497.45	56.229
497.80	57.518
498.14	56.234
498.49	57.390
498.84	56.337
499.18	56.928
499.53	56.349
499.87	55.350
500.22	56.083
500.56	57.237
500.91	57.129
501.26	56.649
501.60	57.354
501.95	57.108
502.29	57.143
502.64	57.529
502.98	58.658
503.33	57.109
503.67	56.819
504.02	58.651
504.36	58.041
504.71	56.263
505.06	57.323
505.40	57.817
505.75	58.041
506.09	56.665
506.44	57.546
506.78	56.837
507.13	57.859
507.47	56.240
507.82	56.677
508.16	57.422
508.51	57.817
508.85	58.137
509.19	57.690
509.54	56.676
509.88	56.904
510.23	57.827
510.57	58.097
510.92	55.917
511.26	57.392
511.61	58.196
511.95	57.644
512.30	58.315
512.64	57.206
512.98	57.440
513.33	57.415
513.67	58.272
514.02	59.096
514.36	60.457
514.70	59.149
515.05	59.283
515.39	59.091
515.74	60.120
516.08	59.354
516.42	59.128
516.77	59.040
517.11	59.585
517.46	59.007
517.80	58.343
518.14	59.645
518.49	58.353
518.83	58.870
519.17	58.096
519.52	58.851
519.86	58.944
520.20	59.964
520.55	58.724
520.89	58.783
521.23	59.278
521.58	60.126
521.92	59.679
522.26	59.336
522.61	59.675
522.95	60.464
523.29	59.657
523.64	57.814
523.98	60.791
524.32	60.374
524.66	59.731
525.01	59.740
525.35	59.041
525.69	60.000
526.04	60.251
526.38	60.700
526.72	57.489
527.06	59.663
527.41	59.367
527.75	59.316
528.09	59.203
528.43	61.242
528.78	59.670
529.12	60.194
529.46	59.714
529.80	57.758
530.15	60.462
530.49	60.067
530.83	61.081
531.17	59.839
531.51	59.781
531.86	60.367
532.20	60.125
532.54	59.905
532.88	60.301
533.22	60.349
533.57	60.288
533.91	58.812
534.25	60.221
534.59	59.397
534.93	59.408
535.27	58.693
535.62	59.041
535.96	60.470
536.30	59.697
536.64	62.509
536.98	59.861
537.32	60.455
537.66	61.080
538.01	60.769
538.35	59.639
538.69	59.987
539.03	59.193
539.37	61.104
539.71	59.918
540.05	59.878
540.39	60.249
540.73	59.205
541.07	60.152
541.42	59.610
541.76	61.321
542.10	60.427
542.44	60.111
542.78	58.156
543.12	60.783
543.46	60.153
543.80	60.236
544.14	58.144
544.48	59.893
544.82	60.834
545.16	61.885
545.50	60.013
545.84	59.773
546.18	61.702
546.52	60.562
546.86	60.029
547.20	60.515
547.54	59.859
547.88	60.598
548.22	59.829
548.56	60.092
548.90	60.445
549.24	59.573
549.58	59.732
549.92	58.256
550.26	58.755
550.60	59.182
550.94	61.165
551.28	60.124
551.62	61.231
551.96	59.474
552.30	62.061
552.64	59.732
552.98	60.408
553.32	60.485
553.66	59.869
554.00	60.876
554.34	61.965
554.68	59.440
555.02	61.384
555.36	59.985
555.69	60.952
556.03	60.457
556.37	59.715
556.71	60.361
557.05	61.074
557.39	58.364
557.73	60.495
558.07	60.784
558.41	60.260
558.75	60.951
559.08	60.599
559.42	60.159
559.76	62.050
560.10	59.480
560.44	59.419
560.78	59.441
561.12	60.578
561.45	62.263
561.79	61.275
562.13	61.533
562.47	60.647
562.81	61.023
563.15	59.661
563.48	61.386
563.82	61.771
564.16	61.560
564.50	59.324
564.84	60.040
565.17	60.295
565.51	62.227
565.85	60.974
566.19	61.273
566.52	62.466
566.86	61.183
567.20	60.212
567.54	60.766
567.88	62.449
568.21	60.577
568.55	60.598
568.89	61.088
569.23	62.253
569.56	60.508
569.90	61.348
570.24	61.518
570.57	61.164
570.91	62.740
571.25	60.178
571.59	59.794
571.92	60.000
572.26	60.900
572.60	60.403
572.93	60.527
573.27	59.655
573.61	60.352
573.95	60.459
574.28	60.726
574.62	60.285
574.96	59.811
575.29	59.793
575.63	58.461
575.97	59.772
576.30	59.657
576.64	59.788
576.98	60.335
577.31	61.072
577.65	60.115
577.98	60.123
578.32	60.271
578.66	59.703
578.99	59.920
579.33	59.181
579.67	59.021
580.00	59.468
580.34	59.801
580.67	59.570
581.01	60.207
581.35	60.078
581.68	59.929
582.02	60.268
582.35	60.409
582.69	60.343
583.02	60.778
583.36	59.380
583.70	60.981
584.03	60.745
584.37	61.434
584.70	60.385
585.04	59.404
585.37	59.951
585.71	60.035
586.04	60.414
586.38	60.123
586.72	60.086
587.05	61.670
587.39	61.784
587.72	61.482
588.06	60.753
588.39	60.837
588.73	60.501
589.06	61.252
589.40	60.387
589.73	60.277
590.07	61.292
590.40	60.797
590.73	61.409
591.07	60.305
591.40	60.819
591.74	60.679
592.07	61.410
592.41	60.822
592.74	60.335
593.08	58.400
593.41	59.736
593.75	60.124
594.08	59.870
594.41	60.153
594.75	60.687
595.08	60.689
595.42	60.839
595.75	61.247
596.09	61.298
596.42	60.521
596.75	60.968
597.09	61.185
597.42	60.434
597.75	61.200
598.09	59.620
598.42	60.244
598.76	59.717
599.09	59.776
599.42	59.303
599.76	59.556
600.09	60.784
600.42	59.894
600.76	59.398
601.09	60.153
601.42	60.400
601.76	60.381
602.09	60.644
602.42	60.110
602.76	60.187
603.09	61.005
603.42	62.960
603.76	59.960
604.09	60.834
604.42	60.660
604.76	61.059
605.09	60.603
605.42	59.368
605.75	60.289
606.09	59.618
606.42	60.217
606.75	60.303
607.09	59.692
607.42	59.725
607.75	59.414
608.08	59.524
608.42	59.296
608.75	60.723
609.08	61.036
609.41	60.711
609.75	60.232
610.08	59.860
610.41	59.710
610.74	60.751
611.07	60.465
611.41	60.820
611.74	61.727
612.07	58.030
612.40	60.832
612.73	61.356
613.07	59.561
613.40	60.120
613.73	60.660
614.06	60.211
614.39	60.801
614.72	60.112
615.06	60.838
615.39	58.570
615.72	59.580
616.05	59.832
616.38	60.000
616.71	59.878
617.05	60.964
617.38	60.779
617.71	58.868
618.04	61.016
618.37	60.971
618.70	60.528
619.03	60.764
619.36	59.262
619.69	61.713
620.03	61.870
620.36	60.300
620.69	60.171
621.02	60.550
621.35	59.585
621.68	60.799
622.01	61.333
622.34	59.617
622.67	60.174
623.00	58.576
623.33	59.299
623.66	59.761
623.99	60.061
624.32	59.848
624.65	60.526
624.99	59.443
625.32	59.515
625.65	60.801
625.98	59.468
626.31	59.684
626.64	62.045
626.97	61.257
627.30	58.932
627.63	60.399
627.96	60.467
628.29	60.407
628.62	58.899
628.95	59.820
629.28	61.290
629.61	59.920
629.94	59.824
630.26	59.190
630.59	62.747
630.92	58.154
631.25	57.744
631.58	60.132
631.91	59.211
632.24	59.977
632.57	61.136
632.90	60.142
633.23	59.882
633.56	62.343
633.89	60.666
634.22	61.975
634.55	61.753
634.88	58.748
635.20	59.744
635.53	60.000
635.86	56.957
636.19	59.767
636.52	61.097
636.85	57.940
637.18	59.497
637.51	58.994
637.83	60.972
638.16	60.573
638.49	59.809
638.82	60.789
639.15	60.923
639.48	59.972
639.81	60.251
640.13	61.039
640.46	61.079
640.79	60.677
641.12	61.004
641.45	59.009
641.77	60.593
642.10	62.875
642.43	59.164
642.76	61.716
643.09	60.258
643.41	57.929
643.74	58.320
644.07	57.635
644.40	59.459
644.73	61.296
645.05	58.557
645.38	62.081
645.71	58.333
646.04	61.041
646.36	60.106
646.69	61.691
647.02	60.870
647.35	59.142
647.67	60.329
648.00	59.701
648.33	58.874
648.66	59.322
648.98	57.286
649.31	59.835
649.64	59.341
649.96	58.671
650.29	59.114
650.62	57.265
650.94	61.852
651.27	58.287
651.60	60.721
651.92	59.441
652.25	60.924
652.58	57.667
652.90	62.093
653.23	57.143
653.56	58.206
653.88	60.137
654.21	61.296
654.54	58.234
654.86	59.423
655.19	59.649
655.52	62.771
655.84	59.908
656.17	65.758
656.49	88.353
656.82	91.329
657.15	70.546
657.47	52.278
657.80	39.162
658.13	37.981
658.45	59.101
658.78	58.500
659.10	57.155
659.43	56.311
659.75	57.375
660.08	55.862
660.41	59.142
660.73	56.906
661.06	58.406
661.38	59.687
661.71	59.548
662.03	58.798
662.36	57.363
662.68	57.301
663.01	61.790
663.33	56.845
663.66	58.605
663.98	56.977
664.31	58.209
664.63	60.369
664.96	56.522
665.28	56.733
665.61	57.792
665.93	60.000
666.26	59.653
666.58	59.060
666.91	61.412
667.23	61.321
667.56	59.242
667.88	61.151
668.21	57.041
668.53	61.229
668.86	59.434
669.18	55.425
669.50	59.564
669.83	54.419
670.15	59.907
670.48	56.699
670.80	59.447
671.13	56.823
671.45	53.653
671.77	58.155
672.10	58.218
672.42	57.678
672.75	58.437
673.07	57.961
673.39	56.514
673.72	55.621
674.04	58.333
674.37	58.263
674.69	59.957
675.01	58.222
675.34	55.180
675.66	61.111
675.98	58.537
676.31	58.028
676.63	57.482
676.95	55.909
677.28	57.647
677.60	61.205
677.92	62.844
678.25	56.674
678.57	59.740
678.89	59.034
679.22	59.732
679.54	55.823
679.86	55.467
680.18	58.058
680.51	57.765
680.83	56.461
681.15	58.600
681.48	57.377
681.80	59.504
682.12	58.266
682.44	56.276
682.77	55.629
683.09	58.581
683.41	55.227
683.73	55.991
684.06	55.310
684.38	56.344
684.70	60.784
685.02	56.432
685.34	56.126
685.67	57.223
685.99	56.781
686.31	57.168
686.63	56.586
686.96	56.844
687.28	56.566
687.60	56.654
687.92	59.596
688.24	56.653
688.56	56.769
688.89	58.036
689.21	56.222
689.53	54.060
689.85	54.419
690.17	55.580
690.49	57.210
690.82	55.583
691.14	57.143
691.46	60.280
691.78	54.505
692.10	56.344
692.42	53.680
692.74	57.265
693.06	56.306
693.39	52.715
693.71	57.240
694.03	57.275
694.35	56.542
694.67	56.566
694.99	54.569
695.31	55.352
695.63	54.500
695.95	55.303
696.27	54.663
696.59	57.222
696.91	55.462
697.23	55.527
697.56	57.426
697.88	57.634
698.20	56.036
698.52	58.824
698.84	52.392
699.16	55.500
699.48	57.644
699.80	54.591
700.12	55.256
700.44	54.342
700.76	58.140
701.08	53.636
701.40	56.627
701.72	61.728
702.04	58.746
702.36	60.870
702.68	55.856
703.00	57.576
703.32	55.718
703.64	51.977
703.96	56.232
704.28	56.748
704.60	60.952
704.91	56.151
705.23	53.821
705.55	57.951
705.87	56.318
706.19	57.037
706.51	49.828
706.83	55.949
707.15	50.467
707.47	55.742
707.79	55.208
708.11	57.000
708.43	53.250
708.74	54.522
709.06	56.620
709.38	62.080
709.70	53.254
710.02	58.917
710.34	53.560
710.66	48.077
710.98	53.642
711.29	61.311
711.61	55.254
711.93	55.049
712.25	61.856
712.57	57.509
712.89	53.358
713.20	50.865
713.52	55.401
713.84	56.314
714.16	55.670
714.48	51.613
714.80	56.410
715.11	55.015
715.43	48.903
715.75	50.333
716.07	51.495
716.39	54.698
716.70	52.768
717.02	53.053
717.34	54.251
717.66	58.850
717.97	46.957
718.29	55.230
718.61	53.937
718.93	51.938
719.24	54.753
719.56	57.028
719.88	51.546
720.20	59.091
720.51	50.958
720.83	53.282
721.15	56.723
721.46	50.403
721.78	53.755
722.10	52.788
722.42	52.697
722.73	53.469
723.05	57.551
723.37	58.898
723.68	61.261
724.00	51.282
724.32	51.556
724.63	53.182
724.95	54.148
725.27	55.760
725.58	53.390
725.90	50.794
726.22	53.668
726.53	52.203
726.85	52.809
727.16	57.358
727.48	50.202
727.80	53.036
728.11	55.932
728.43	55.294
728.74	50.806
729.06	52.800
729.38	55.639
729.69	52.988
730.01	51.538
730.32	51.866
730.64	51.237
730.96	55.094
731.27	55.667
731.59	54.915
731.90	49.682
732.22	51.420
732.53	55.482
732.85	52.128
733.16	52.525
733.48	51.799
733.80	55.072
734.11	55.932
734.43	54.296
734.74	50.303
735.06	53.094
735.37	51.964
735.69	54.209
736.00	52.265
736.32	52.685
736.63	53.873
736.95	52.560
737.26	50.890
737.58	48.658
737.89	53.480
738.21	55.639
738.52	59.259
738.83	53.712
739.15	54.585
739.46	53.937
739.78	54.212
740.09	49.020
740.41	53.261
740.72	54.331
741.04	51.012
741.35	48.511
741.66	54.028
741.98	58.163
742.29	54.455
742.61	52.880
742.92	46.919
743.23	53.241
743.55	54.299
743.86	50.239
744.18	49.761
744.49	48.936
744.80	51.630
745.12	59.893
745.43	43.415
745.74	55.729
746.06	55.610
746.37	53.927
746.68	54.976
747.00	51.064
747.31	55.721
747.62	47.573
747.94	58.373
748.25	50.990
748.56	61.202
748.88	55.497
749.19	54.255
749.50	55.172
749.82	51.415
750.13	54.128
750.44	56.015
750.75	48.507
751.07	54.745
751.38	52.874
751.69	47.843
752.01	54.264
752.32	54.980
752.63	51.779
752.94	50.000
753.26	54.812
753.57	50.679
753.88	58.407
754.19	48.333
754.51	49.587
754.82	47.773
755.13	57.083
755.44	46.371
755.75	54.687
756.07	55.253
756.38	50.566
756.69	50.575
757.00	48.667
757.31	52.614
757.63	48.476
757.94	50.278
758.25	49.315
758.56	53.191
758.87	44.759
759.18	48.910
759.50	52.000
759.81	51.505
760.12	52.258
760.43	53.030
760.74	52.160
761.05	55.077
761.36	52.273
761.67	53.939
761.99	56.463
762.30	48.000
762.61	50.988
762.92	50.679
763.23	54.054
763.54	51.869
763.85	51.271
764.16	48.548
764.47	52.823
764.78	47.619
765.10	50.505
765.41	49.211
765.72	50.159
766.03	50.376
766.34	51.825
766.65	51.793
766.96	56.566
767.27	51.064
767.58	50.000
767.89	48.227
768.20	43.182
768.51	48.901
768.82	52.709
769.13	48.387
769.44	48.927
769.75	47.489
770.06	44.828
770.37	50.962
770.68	50.761
770.99	48.869
771.30	55.882
771.61	52.941
771.92	53.879
772.23	53.202
772.54	55.376
772.85	54.938
773.16	53.371
773.47	59.477
773.78	46.405
774.09	45.509
774.39	47.333
774.70	48.408
775.01	46.897
775.32	55.714
775.63	47.934
775.94	43.511
776.25	42.520
776.56	52.500
776.87	53.846
777.18	51.282
777.48	49.138
777.79	46.957
778.10	39.048
778.41	48.649
778.72	45.238
779.03	51.880
779.34	52.482
779.65	58.219
779.95	34.247
780.26	53.103
780.57	47.967
780.88	44.094
781.19	51.724
781.50	51.163
781.80	49.704
782.11	45.912
782.42	50.000
782.73	44.604
783.04	51.111
783.34	36.806
783.65	52.137
783.96	40.984
784.27	50.345
784.57	55.285
784.88	43.750
785.19	58.000
785.50	57.000
785.81	53.448
786.11	55.172
786.42	58.252
786.73	58.182
787.04	45.918
787.34	40.179
787.65	56.190
787.96	53.982
788.26	44.545
788.57	50.427
788.88	51.563
789.19	56.349
789.49	45.217
789.80	54.082
790.11	47.475
790.41	43.636
790.72	63.043
791.03	43.182
791.33	58.750
791.64	46.250
791.95	48.837
792.25	54.255
792.56	55.056
792.87	38.356
793.17	50.725
793.48	41.333
793.79	51.250
794.09	57.500
794.40	36.792
794.70	45.631
795.01	47.154
795.32	47.009
795.62	42.857
795.93	41.176
796.23	46.226
796.54	42.708
796.85	52.941
797.15	52.113
797.46	48.611
797.76	59.091
798.07	33.721
798.37	42.105
798.68	27.273
798.99	48.148
799.29	30.000
799.60	34.783
799.90	42.667
800.21	63.934
800.51	33.846
800.82	47.458
801.12	36.232
801.43	44.262
801.73	41.270
802.04	46.000
802.34	46.269
802.65	63.462
802.95	46.429
803.26	46.154
803.56	49.020
803.87	54.348
804.17	36.000
804.48	44.444
804.78	62.963
805.09	28.261
805.39	22.222
805.70	44.444
806.00	24.561
806.30	46.479
806.61	50.000
806.91	34.722
807.22	51.316
807.52	52.000
807.83	61.818
808.13	43.056
808.43	36.765
808.74	43.284
809.04	55.932
809.35	32.692
809.65	42.187
809.95	18.919
810.26	36.364
810.56	43.836
810.86	61.905
811.17	42.000
811.47	59.184
811.77	44.737
812.08	52.273
812.38	26.415
812.69	40.000
812.99	42.424
813.29	36.842
813.59	34.286
813.90	25.000
814.20	30.769
814.50	38.462
814.81	52.830
815.11	19.149
815.41	45.763
815.72	42.857
816.02	45.098
816.32	43.750
816.62	34.146
816.93	51.351
817.23	17.143
817.53	33.333
817.84	32.609
818.14	59.615
818.44	39.474
818.74	23.913
819.04	25.000
819.35	45.946
819.65	52.941
819.95	44.444
820.25	61.905
820.56	65.000
820.86	10.345
821.16	65.000
821.46	46.809
821.76	47.500
822.07	51.163
822.37	13.514
822.67	46.875
822.97	54.762
823.27	28.571
823.57	16.000
823.88	14.815
824.18	42.857
824.48	52.941
824.78	38.710
825.08	30.435
825.38	24.242
825.69	29.167
825.99	36.842
826.29	2.778
826.59	80.000
826.89	38.095
827.19	50.000
827.49	50.000
827.79	51.429
828.09	42.857
828.39	45.455
828.70	51.351
829.00	39.286
829.30	28.571
829.60	33.333
829.90	56.250
830.20	26.316
830.50	-18.519
830.80	30.435
831.10	36.364
831.40	51.515
831.70	80.645
832.00	42.857
832.30	38.095
832.60	41.667
832.90	51.724
833.20	-15.000
833.50	63.636
833.80	40.741
834.10	11.538
834.40	40.625
834.70	11.111
835.00	47.368
835.30	84.615
835.60	100.000
835.90	67.742
836.20	100.000
836.50	42.857
836.80	7.692
837.10	35.714
837.40	-33.333
837.70	63.636
838.00	9.091
838.30	21.739
838.60	46.154
838.90	77.273
839.19	17.857
839.49	50.000
839.79	-38.462
840.09	-25.000
840.39	28.571
840.69	28.571
840.99	23.077
841.29	-5.263
841.59	-90.000
841.88	36.364
842.18	50.000
842.48	25.000
842.78	33.333
843.08	11.111
843.38	-30.000
843.68	52.174
843.97	73.333
844.27	-26.667
844.57	20.000
844.87	66.667
845.17	4.762
845.47	60.000
845.76	28.571
846.06	52.941
846.36	0.000
846.66	35.714
846.96	20.000
847.25	-12.500
847.55	121.429
847.85	62.500
848.15	-18.182
848.44	-300.000
848.74	65.000
849.04	14.815
849.34	90.909
849.63	-83.333
849.93	-160.000
850.23	0.000
850.53	100.000
850.82	23.077
851.12	33.333
851.42	66.667
851.71	38.462
852.01	71.429
852.31	150.000
852.61	-63.636
852.90	35.000
853.20	31.579
853.50	-33.333
853.79	21.739
854.09	50.000
854.39	42.105
854.68	37.500
854.98	29.032
855.28	69.231
855.57	35.000
855.87	83.333
856.17	51.852
856.46	-50.000
856.76	33.333
857.05	11.111
857.35	8.000
857.65	11.111
857.94	92.308
858.24	51.724
858.53	66.667
858.83	40.741
859.13	40.909
859.42	21.739
859.72	125.000
860.01	-200.000
860.31	8.000
860.60	52.381
860.90	-100.000
861.20	20.000
861.49	-500.000
861.79	0.000
862.08	95.000
862.38	120.000
862.67	0.000
862.97	-66.667
863.26	41.667
863.56	83.333
863.85	-500.000
864.15	72.222
864.44	-50.000
864.74	100.000
865.03	-0.000
865.33	40.000
865.62	100.000
865.92	116.667
866.21	-150.000
866.51	100.000
866.80	18.182
867.10	0.000
867.39	83.333
867.69	0.000
867.98	46.154
868.27	100.000
868.57	20.000
868.86	33.333
869.16	-7.692
869.45	53.333
869.75	-1300.000
870.04	0.000
870.33	42.857
870.63	52.381
870.92	100.000
871.22	40.000
871.51	-1000.000
871.80	88.889
872.10	133.333
>>>>>End Processed Spectral Data<<<<<
