SpectraSuite Data File
++++++++++++++++++++++++++++++++++++
Date: Fri May 15 17:11:19 PDT 2015
User: schluterlab
Dark Spectrum Present: Yes
Reference Spectrum Present: Yes
Number of Sampled Component Spectra: 1
Spectrometers: USB2E3373
Integration Time (usec): 3000 (USB2E3373)
Spectra Averaged: 3 (USB2E3373)
Boxcar Smoothing: 0 (USB2E3373)
Correct for Electrical Dark: No (USB2E3373)
Strobe/Lamp Enabled: No (USB2E3373)
Correct for Detector Non-linearity: No (USB2E3373)
Correct for Stray Light: No (USB2E3373)
Number of Pixels in Processed Spectrum: 2048
>>>>>Begin Processed Spectral Data<<<<<
178.53	0.000
178.91	0.000
179.29	175.000
179.67	-350.000
180.04	-128.571
180.42	50.000
180.80	200.000
181.18	-166.667
181.56	-0.000
181.94	-200.000
182.31	400.000
182.69	160.000
183.07	-100.000
183.45	140.000
183.83	66.667
184.20	27.273
184.58	100.000
184.96	-100.000
185.34	-133.333
185.72	-450.000
186.09	-0.000
186.47	-100.000
186.85	-16.667
187.23	-55.556
187.61	-600.000
187.98	100.000
188.36	44.444
188.74	-133.333
189.12	58.824
189.49	11.111
189.87	0.000
190.25	92.857
190.63	750.000
191.00	33.333
191.38	21.053
191.76	450.000
192.14	100.000
192.51	550.000
192.89	0.000
193.27	-100.000
193.65	33.333
194.02	90.909
194.40	30.000
194.78	-62.500
195.15	25.000
195.53	-12.500
195.91	75.000
196.29	-100.000
196.66	7.692
197.04	-114.286
197.42	88.889
197.79	0.000
198.17	15.385
198.55	500.000
198.92	-333.333
199.30	-400.000
199.68	20.000
200.05	33.333
200.43	0.000
200.81	-33.333
201.18	100.000
201.56	1500.000
201.94	-200.000
202.31	-233.333
202.69	-120.000
203.07	175.000
203.44	1100.000
203.82	0.000
204.19	50.000
204.57	-233.333
204.95	62.500
205.32	70.000
205.70	42.857
206.08	-100.000
206.45	200.000
206.83	85.714
207.20	-14.286
207.58	800.000
207.96	66.667
208.33	-90.000
208.71	175.000
209.08	-233.333
209.46	-100.000
209.84	-60.000
210.21	-500.000
210.59	285.714
210.96	33.333
211.34	50.000
211.71	53.333
212.09	-71.429
212.46	-1500.000
212.84	0.000
213.22	80.000
213.59	100.000
213.97	92.308
214.34	27.273
214.72	50.000
215.09	200.000
215.47	-53.846
215.84	9.091
216.22	-100.000
216.59	112.500
216.97	100.000
217.34	50.000
217.72	-220.000
218.09	100.000
218.47	25.000
218.84	100.000
219.22	-66.667
219.59	160.000
219.97	300.000
220.34	-125.000
220.72	14.286
221.09	-100.000
221.47	500.000
221.84	-500.000
222.22	-1050.000
222.59	54.545
222.97	66.667
223.34	100.000
223.72	78.571
224.09	85.714
224.46	17.857
224.84	500.000
225.21	40.000
225.59	40.000
225.96	0.000
226.34	-0.000
226.71	-100.000
227.08	116.667
227.46	175.000
227.83	-300.000
228.21	55.556
228.58	54.545
228.95	25.000
229.33	70.000
229.70	18.750
230.08	-187.500
230.45	0.000
230.82	200.000
231.20	6.667
231.57	50.000
231.95	57.143
232.32	10.000
232.69	57.143
233.07	66.667
233.44	80.000
233.81	10.000
234.19	100.000
234.56	-11.765
234.93	650.000
235.31	150.000
235.68	-340.000
236.05	-15.385
236.43	-35.000
236.80	76.471
237.17	9.375
237.55	10.000
237.92	0.000
238.29	47.222
238.67	46.667
239.04	2.941
239.41	-7.317
239.79	0.000
240.16	39.024
240.53	0.000
240.91	13.043
241.28	4.762
241.65	25.000
242.02	31.507
242.40	11.667
242.77	18.644
243.14	0.000
243.51	2.500
243.89	19.540
244.26	6.897
244.63	5.952
245.00	0.000
245.38	13.402
245.75	5.618
246.12	4.310
246.49	9.091
246.87	20.192
247.24	-0.840
247.61	5.263
247.98	12.195
248.36	9.375
248.73	9.211
249.10	10.390
249.47	15.823
249.84	2.614
250.22	12.353
250.59	7.843
250.96	12.676
251.33	0.581
251.70	9.412
252.08	9.645
252.45	7.426
252.82	5.528
253.19	15.207
253.56	5.607
253.94	9.910
254.31	9.565
254.68	7.895
255.05	9.449
255.42	13.974
255.79	5.792
256.16	4.669
256.54	8.209
256.91	9.506
257.28	9.665
257.65	9.363
258.02	8.156
258.39	14.141
258.76	10.256
259.14	11.296
259.51	10.032
259.88	7.216
260.25	7.843
260.62	7.986
260.99	10.508
261.36	3.767
261.73	8.228
262.10	8.207
262.47	8.896
262.85	9.718
263.22	8.615
263.59	10.280
263.96	12.733
264.33	11.515
264.70	6.548
265.07	6.250
265.44	11.048
265.81	9.040
266.18	7.923
266.55	13.882
266.92	8.290
267.29	9.922
267.66	8.440
268.03	6.545
268.40	8.094
268.77	12.567
269.14	10.312
269.51	9.512
269.88	8.479
270.25	7.653
270.62	9.512
270.99	7.673
271.36	9.780
271.73	8.216
272.10	8.273
272.47	9.929
272.84	8.911
273.21	11.601
273.58	10.120
273.95	8.924
274.32	9.700
274.69	5.656
275.06	10.268
275.43	9.297
275.80	9.934
276.17	6.207
276.54	10.921
276.91	9.649
277.28	8.515
277.65	11.364
278.02	10.000
278.39	9.190
278.76	8.176
279.13	6.224
279.50	9.454
279.87	9.287
280.23	6.882
280.60	10.136
280.97	7.677
281.34	7.500
281.71	11.294
282.08	7.771
282.45	8.806
282.82	7.722
283.19	9.865
283.56	8.478
283.92	7.021
284.29	7.500
284.66	6.783
285.03	8.251
285.40	6.616
285.77	8.436
286.14	8.664
286.51	9.225
286.87	6.947
287.24	8.103
287.61	6.878
287.98	10.000
288.35	8.492
288.72	8.231
289.08	6.597
289.45	9.490
289.82	7.517
290.19	6.997
290.56	5.317
290.93	7.407
291.29	6.471
291.66	8.189
292.03	7.018
292.40	6.452
292.77	7.656
293.13	4.058
293.50	7.891
293.87	7.939
294.24	7.573
294.60	6.408
294.97	8.333
295.34	7.362
295.71	8.793
296.08	8.969
296.44	5.832
296.81	7.639
297.18	7.971
297.55	9.079
297.91	6.164
298.28	7.388
298.65	6.649
299.02	7.817
299.38	5.062
299.75	6.897
300.12	5.105
300.48	5.665
300.85	6.464
301.22	7.662
301.59	5.132
301.95	8.101
302.32	7.393
302.69	6.468
303.05	6.436
303.42	6.227
303.79	7.477
304.15	6.332
304.52	5.470
304.89	5.614
305.25	5.327
305.62	5.251
305.99	4.795
306.35	5.434
306.72	5.287
307.09	5.245
307.45	5.166
307.82	4.977
308.19	4.530
308.55	5.234
308.92	7.625
309.29	5.251
309.65	4.844
310.02	5.171
310.38	6.806
310.75	5.574
311.12	5.167
311.48	4.454
311.85	5.236
312.22	4.747
312.58	4.883
312.95	5.443
313.31	4.451
313.68	5.550
314.05	4.694
314.41	5.670
314.78	6.186
315.14	5.550
315.51	7.867
315.87	5.533
316.24	5.460
316.61	6.299
316.97	5.655
317.34	5.762
317.70	4.971
318.07	5.481
318.43	5.294
318.80	5.019
319.16	6.738
319.53	5.223
319.89	5.610
320.26	5.870
320.62	5.717
320.99	5.115
321.35	5.550
321.72	5.088
322.08	6.747
322.45	5.482
322.81	6.680
323.18	5.692
323.54	5.792
323.91	5.161
324.27	5.273
324.64	6.554
325.00	6.569
325.37	7.346
325.73	5.802
326.10	6.630
326.46	6.278
326.83	6.299
327.19	6.452
327.56	7.124
327.92	6.866
328.29	6.875
328.65	5.943
329.01	6.618
329.38	6.912
329.74	6.138
330.11	6.673
330.47	6.215
330.84	6.058
331.20	7.605
331.56	5.556
331.93	6.758
332.29	7.516
332.66	7.602
333.02	7.714
333.38	6.508
333.75	7.967
334.11	6.088
334.48	7.072
334.84	7.875
335.20	6.770
335.57	7.253
335.93	7.407
336.29	6.630
336.66	7.266
337.02	7.063
337.38	6.389
337.75	6.909
338.11	7.845
338.47	6.843
338.84	6.562
339.20	7.038
339.56	7.339
339.93	7.431
340.29	6.514
340.65	8.154
341.02	6.649
341.38	7.965
341.74	6.272
342.11	6.239
342.47	7.562
342.83	6.920
343.20	5.226
343.56	6.696
343.92	6.820
344.28	7.430
344.65	6.736
345.01	6.914
345.37	7.401
345.73	8.285
346.10	7.679
346.46	6.897
346.82	7.201
347.19	6.650
347.55	7.853
347.91	7.282
348.27	6.710
348.63	7.411
349.00	6.645
349.36	6.567
349.72	7.546
350.08	6.475
350.45	7.981
350.81	6.478
351.17	6.107
351.53	7.347
351.89	5.945
352.26	7.520
352.62	7.016
352.98	7.470
353.34	7.649
353.70	8.414
354.07	7.581
354.43	7.526
354.79	6.689
355.15	7.857
355.51	7.278
355.87	7.120
356.24	6.444
356.60	6.791
356.96	8.016
357.32	7.348
357.68	6.724
358.04	6.300
358.40	7.476
358.77	7.895
359.13	6.966
359.49	7.011
359.85	7.254
360.21	6.699
360.57	7.116
360.93	7.489
361.29	6.798
361.66	7.367
362.02	8.106
362.38	7.692
362.74	6.964
363.10	7.374
363.46	6.820
363.82	9.016
364.18	8.118
364.54	7.132
364.90	5.806
365.26	6.769
365.62	9.197
365.98	7.625
366.35	7.502
366.71	7.908
367.07	8.128
367.43	6.973
367.79	7.420
368.15	7.466
368.51	7.866
368.87	6.676
369.23	7.509
369.59	7.289
369.95	7.918
370.31	7.803
370.67	7.239
371.03	6.871
371.39	7.002
371.75	7.179
372.11	7.561
372.47	7.470
372.83	8.020
373.19	8.060
373.55	7.581
373.91	8.639
374.27	8.788
374.63	8.471
374.99	8.014
375.35	8.426
375.71	8.112
376.07	8.006
376.42	8.571
376.78	8.121
377.14	8.463
377.50	7.703
377.86	8.367
378.22	8.934
378.58	7.692
378.94	8.444
379.30	8.609
379.66	8.589
380.02	8.522
380.38	8.643
380.74	8.438
381.09	8.405
381.45	8.379
381.81	8.267
382.17	8.185
382.53	8.120
382.89	8.412
383.25	8.587
383.61	8.841
383.97	8.508
384.32	8.568
384.68	8.669
385.04	8.272
385.40	8.587
385.76	9.371
386.12	8.862
386.48	10.217
386.83	8.370
387.19	8.608
387.55	9.159
387.91	8.924
388.27	9.158
388.62	8.370
388.98	9.699
389.34	9.369
389.70	9.012
390.06	9.125
390.42	9.197
390.77	10.072
391.13	8.260
391.49	8.732
391.85	9.487
392.20	9.416
392.56	9.472
392.92	10.217
393.28	9.080
393.64	10.210
393.99	9.279
394.35	9.108
394.71	10.089
395.07	9.114
395.42	8.804
395.78	9.707
396.14	9.836
396.50	10.273
396.85	9.788
397.21	9.962
397.57	9.969
397.92	9.766
398.28	9.425
398.64	8.795
399.00	9.989
399.35	9.086
399.71	10.052
400.07	10.157
400.42	10.220
400.78	10.410
401.14	9.498
401.49	10.542
401.85	9.445
402.21	10.361
402.57	9.875
402.92	10.100
403.28	10.840
403.63	9.584
403.99	9.311
404.35	10.931
404.70	10.238
405.06	9.753
405.42	9.882
405.77	9.587
406.13	9.604
406.49	10.184
406.84	10.208
407.20	9.392
407.55	9.466
407.91	9.091
408.27	9.751
408.62	10.646
408.98	10.228
409.34	10.347
409.69	9.496
410.05	9.236
410.40	9.630
410.76	10.133
411.11	10.188
411.47	10.717
411.83	10.044
412.18	9.974
412.54	9.988
412.89	9.667
413.25	11.131
413.60	10.186
413.96	9.264
414.31	10.061
414.67	10.263
415.03	9.720
415.38	9.922
415.74	10.489
416.09	9.928
416.45	10.061
416.80	9.848
417.16	10.635
417.51	11.059
417.87	10.561
418.22	10.946
418.58	9.431
418.93	11.223
419.29	8.707
419.64	10.564
420.00	11.020
420.35	9.433
420.71	10.510
421.06	10.006
421.42	10.998
421.77	10.578
422.12	9.989
422.48	10.070
422.83	10.789
423.19	11.005
423.54	10.523
423.90	9.717
424.25	10.792
424.61	10.526
424.96	10.743
425.31	10.976
425.67	10.153
426.02	11.366
426.38	10.582
426.73	11.320
427.09	11.835
427.44	11.118
427.79	11.255
428.15	11.772
428.50	10.539
428.85	10.381
429.21	10.979
429.56	10.620
429.92	11.454
430.27	10.727
430.62	9.462
430.98	11.359
431.33	11.094
431.68	10.937
432.04	10.620
432.39	10.839
432.74	11.064
433.10	11.897
433.45	10.992
433.80	10.621
434.16	10.471
434.51	11.129
434.86	10.918
435.22	11.161
435.57	11.042
435.92	11.018
436.28	10.912
436.63	11.010
436.98	10.950
437.34	11.434
437.69	11.688
438.04	10.940
438.39	10.812
438.75	11.536
439.10	11.602
439.45	12.112
439.81	11.498
440.16	11.580
440.51	11.881
440.86	12.266
441.22	11.482
441.57	10.872
441.92	12.172
442.27	11.585
442.63	11.884
442.98	11.775
443.33	11.630
443.68	11.777
444.03	12.320
444.39	11.412
444.74	11.538
445.09	11.470
445.44	11.909
445.79	12.481
446.15	11.178
446.50	10.704
446.85	11.849
447.20	11.522
447.55	12.612
447.91	11.844
448.26	12.521
448.61	12.263
448.96	12.163
449.31	11.561
449.66	11.092
450.02	11.523
450.37	11.618
450.72	11.913
451.07	12.342
451.42	11.798
451.77	12.417
452.12	11.304
452.47	11.848
452.83	12.132
453.18	11.132
453.53	12.705
453.88	11.840
454.23	11.985
454.58	12.531
454.93	12.436
455.28	11.619
455.63	11.717
455.98	11.786
456.34	12.197
456.69	12.262
457.04	12.161
457.39	12.454
457.74	12.576
458.09	11.536
458.44	11.352
458.79	11.317
459.14	12.700
459.49	12.179
459.84	12.352
460.19	11.590
460.54	12.347
460.89	12.045
461.24	11.988
461.59	12.411
461.94	12.516
462.29	12.907
462.64	12.957
462.99	12.661
463.34	11.335
463.69	11.519
464.04	12.893
464.39	11.340
464.74	12.699
465.09	11.603
465.44	12.118
465.79	12.132
466.14	12.087
466.49	11.271
466.84	12.790
467.19	12.954
467.54	12.771
467.89	12.192
468.24	13.078
468.59	12.254
468.94	12.571
469.29	12.721
469.64	12.235
469.99	13.455
470.34	11.877
470.68	12.006
471.03	13.022
471.38	11.840
471.73	13.095
472.08	12.347
472.43	11.611
472.78	12.269
473.13	11.905
473.48	12.052
473.83	11.706
474.17	12.565
474.52	13.082
474.87	11.636
475.22	11.775
475.57	11.519
475.92	12.178
476.27	12.165
476.61	11.979
476.96	12.549
477.31	12.493
477.66	12.865
478.01	11.791
478.36	11.710
478.70	12.561
479.05	12.692
479.40	12.613
479.75	11.940
480.10	13.057
480.45	11.800
480.79	12.588
481.14	12.961
481.49	11.970
481.84	12.114
482.19	11.880
482.53	12.134
482.88	11.838
483.23	12.572
483.58	12.358
483.92	12.101
484.27	12.397
484.62	12.640
484.97	11.940
485.31	11.633
485.66	11.338
486.01	11.353
486.36	11.551
486.70	11.694
487.05	11.771
487.40	11.841
487.75	12.225
488.09	12.330
488.44	12.792
488.79	12.178
489.13	13.542
489.48	12.698
489.83	13.004
490.17	12.584
490.52	12.102
490.87	11.985
491.22	12.369
491.56	13.046
491.91	12.141
492.26	12.251
492.60	12.572
492.95	13.428
493.30	12.262
493.64	13.163
493.99	12.271
494.34	11.942
494.68	12.048
495.03	12.555
495.37	12.807
495.72	12.216
496.07	13.317
496.41	13.066
496.76	12.437
497.11	11.924
497.45	13.604
497.80	12.815
498.14	12.121
498.49	12.392
498.84	12.275
499.18	12.701
499.53	12.847
499.87	12.062
500.22	12.364
500.56	12.658
500.91	12.400
501.26	12.061
501.60	12.346
501.95	13.003
502.29	12.446
502.64	12.790
502.98	12.432
503.33	11.912
503.67	12.916
504.02	12.512
504.36	13.607
504.71	13.081
505.06	12.783
505.40	12.944
505.75	12.887
506.09	12.620
506.44	12.731
506.78	13.214
507.13	12.616
507.47	12.533
507.82	12.821
508.16	12.942
508.51	12.382
508.85	13.239
509.19	13.199
509.54	12.922
509.88	12.082
510.23	12.534
510.57	12.774
510.92	12.527
511.26	13.093
511.61	12.046
511.95	13.370
512.30	12.805
512.64	13.077
512.98	12.128
513.33	14.102
513.67	13.189
514.02	13.902
514.36	13.714
514.70	13.462
515.05	13.043
515.39	13.223
515.74	13.234
516.08	13.808
516.42	14.429
516.77	12.990
517.11	13.175
517.46	13.345
517.80	13.468
518.14	13.350
518.49	13.161
518.83	14.034
519.17	12.614
519.52	13.203
519.86	12.785
520.20	12.940
520.55	12.883
520.89	13.676
521.23	13.806
521.58	14.385
521.92	13.462
522.26	13.923
522.61	13.442
522.95	13.709
523.29	14.041
523.64	13.787
523.98	13.934
524.32	12.500
524.66	15.045
525.01	13.636
525.35	13.869
525.69	13.401
526.04	13.558
526.38	14.786
526.72	13.146
527.06	13.294
527.41	14.248
527.75	13.003
528.09	14.153
528.43	14.585
528.78	14.059
529.12	14.258
529.46	14.230
529.80	14.376
530.15	14.587
530.49	13.670
530.83	13.885
531.17	13.700
531.51	13.748
531.86	13.324
532.20	13.361
532.54	13.887
532.88	14.853
533.22	13.978
533.57	14.155
533.91	12.990
534.25	14.323
534.59	12.893
534.93	13.908
535.27	13.261
535.62	13.804
535.96	13.372
536.30	14.842
536.64	13.508
536.98	13.659
537.32	14.438
537.66	13.464
538.01	13.706
538.35	13.800
538.69	13.582
539.03	14.286
539.37	13.863
539.71	13.701
540.05	14.189
540.39	15.374
540.73	13.598
541.07	14.019
541.42	14.718
541.76	14.935
542.10	13.833
542.44	15.080
542.78	13.352
543.12	13.736
543.46	15.299
543.80	14.226
544.14	12.817
544.48	13.591
544.82	13.534
545.16	14.139
545.50	14.219
545.84	14.802
546.18	15.035
546.52	14.636
546.86	14.019
547.20	13.948
547.54	13.640
547.88	14.538
548.22	13.544
548.56	14.116
548.90	14.218
549.24	14.325
549.58	13.752
549.92	13.438
550.26	14.505
550.60	14.944
550.94	15.086
551.28	14.142
551.62	14.385
551.96	14.211
552.30	14.327
552.64	14.175
552.98	13.361
553.32	14.123
553.66	14.369
554.00	13.723
554.34	14.623
554.68	14.307
555.02	14.062
555.36	14.286
555.69	13.553
556.03	13.919
556.37	14.306
556.71	15.957
557.05	14.616
557.39	13.829
557.73	14.918
558.07	14.857
558.41	15.467
558.75	14.108
559.08	14.657
559.42	14.127
559.76	14.091
560.10	14.144
560.44	13.850
560.78	14.685
561.12	13.752
561.45	15.039
561.79	14.986
562.13	15.330
562.47	13.957
562.81	14.337
563.15	14.386
563.48	14.074
563.82	15.374
564.16	14.276
564.50	13.581
564.84	15.395
565.17	15.023
565.51	15.096
565.85	14.609
566.19	15.053
566.52	15.483
566.86	15.167
567.20	15.068
567.54	14.538
567.88	14.528
568.21	15.498
568.55	14.022
568.89	14.630
569.23	14.348
569.56	13.835
569.90	14.089
570.24	13.584
570.57	13.600
570.91	14.047
571.25	13.417
571.59	13.485
571.92	13.393
572.26	13.406
572.60	13.581
572.93	14.057
573.27	13.950
573.61	13.097
573.95	13.708
574.28	13.639
574.62	12.891
574.96	13.513
575.29	13.150
575.63	13.397
575.97	13.554
576.30	13.719
576.64	13.086
576.98	13.153
577.31	13.713
577.65	13.922
577.98	13.208
578.32	13.118
578.66	13.239
578.99	13.617
579.33	13.640
579.67	13.449
580.00	13.722
580.34	13.234
580.67	13.675
581.01	13.689
581.35	13.243
581.68	13.462
582.02	13.140
582.35	13.333
582.69	13.654
583.02	13.544
583.36	14.029
583.70	14.123
584.03	14.206
584.37	14.568
584.70	13.901
585.04	13.679
585.37	14.275
585.71	13.774
586.04	13.918
586.38	13.524
586.72	14.146
587.05	14.183
587.39	14.565
587.72	14.954
588.06	14.392
588.39	13.956
588.73	14.591
589.06	15.068
589.40	14.656
589.73	15.553
590.07	15.483
590.40	14.899
590.73	15.774
591.07	15.182
591.40	14.960
591.74	15.520
592.07	15.399
592.41	15.371
592.74	14.576
593.08	14.321
593.41	14.069
593.75	14.655
594.08	14.349
594.41	15.102
594.75	14.885
595.08	14.983
595.42	15.164
595.75	14.870
596.09	15.285
596.42	16.122
596.75	15.675
597.09	15.945
597.42	15.989
597.75	15.025
598.09	15.392
598.42	14.892
598.76	15.230
599.09	14.744
599.42	14.134
599.76	14.296
600.09	14.517
600.42	14.936
600.76	14.450
601.09	14.733
601.42	15.080
601.76	15.204
602.09	15.182
602.42	15.838
602.76	15.959
603.09	14.867
603.42	16.054
603.76	14.597
604.09	14.459
604.42	15.948
604.76	15.665
605.09	15.265
605.42	15.485
605.75	15.806
606.09	15.159
606.42	15.471
606.75	15.455
607.09	15.560
607.42	15.241
607.75	15.142
608.08	15.229
608.42	14.710
608.75	16.048
609.08	15.446
609.41	15.736
609.75	16.079
610.08	16.425
610.41	15.556
610.74	15.310
611.07	15.711
611.41	15.309
611.74	16.898
612.07	14.936
612.40	15.591
612.73	15.367
613.07	15.861
613.40	16.302
613.73	14.661
614.06	15.971
614.39	15.962
614.72	15.966
615.06	15.754
615.39	15.830
615.72	16.362
616.05	16.034
616.38	14.929
616.71	15.780
617.05	16.615
617.38	16.342
617.71	16.352
618.04	17.270
618.37	16.709
618.70	17.162
619.03	16.875
619.36	16.208
619.69	17.134
620.03	16.435
620.36	16.524
620.69	17.202
621.02	16.667
621.35	16.929
621.68	17.262
622.01	17.250
622.34	17.877
622.67	16.562
623.00	17.228
623.33	16.387
623.66	16.679
623.99	16.490
624.32	16.274
624.65	16.241
624.99	16.780
625.32	15.618
625.65	17.989
625.98	17.083
626.31	17.207
626.64	18.111
626.97	17.452
627.30	17.426
627.63	17.678
627.96	17.430
628.29	18.316
628.62	18.387
628.95	17.234
629.28	18.347
629.61	17.149
629.94	18.573
630.26	17.194
630.59	17.898
630.92	17.744
631.25	17.436
631.58	18.833
631.91	16.776
632.24	17.317
632.57	18.295
632.90	18.980
633.23	18.824
633.56	17.884
633.89	18.249
634.22	18.025
634.55	17.408
634.88	18.391
635.20	17.436
635.53	17.867
635.86	17.555
636.19	18.887
636.52	17.730
636.85	14.640
637.18	16.478
637.51	19.371
637.83	19.185
638.16	18.827
638.49	18.256
638.82	19.079
639.15	19.674
639.48	17.056
639.81	19.665
640.13	19.481
640.46	18.950
640.79	18.262
641.12	19.055
641.45	18.018
641.77	18.222
642.10	19.273
642.43	20.257
642.76	18.977
643.09	19.709
643.41	20.065
643.74	18.122
644.07	21.675
644.40	20.439
644.73	19.264
645.05	20.134
645.38	20.635
645.71	17.376
646.04	21.185
646.36	20.567
646.69	22.842
647.02	19.849
647.35	21.455
647.67	20.658
648.00	21.269
648.33	18.430
648.66	19.153
648.98	16.750
649.31	18.512
649.64	18.524
649.96	18.152
650.29	19.080
650.62	18.974
650.94	17.593
651.27	17.691
651.60	19.279
651.92	20.105
652.25	19.538
652.58	19.833
652.90	19.554
653.23	20.336
653.56	17.766
653.88	19.588
654.21	17.513
654.54	18.846
654.86	18.846
655.19	19.006
655.52	17.647
655.84	13.533
656.17	14.800
656.49	20.592
656.82	22.862
657.15	18.344
657.47	14.079
657.80	10.498
658.13	10.720
658.45	17.366
658.78	18.091
659.10	18.406
659.43	18.987
659.75	19.290
660.08	20.069
660.41	20.225
660.73	21.409
661.06	21.144
661.38	16.830
661.71	17.864
662.03	22.747
662.36	20.879
662.68	20.796
663.01	22.489
663.33	18.561
663.66	18.372
663.98	20.000
664.31	22.814
664.63	17.512
664.96	19.130
665.28	18.322
665.61	22.078
665.93	19.130
666.26	22.343
666.58	18.345
666.91	19.529
667.23	19.575
667.56	21.327
667.88	19.185
668.21	22.196
668.53	21.749
668.86	18.632
669.18	19.811
669.50	18.644
669.83	19.070
670.15	22.145
670.48	19.378
670.80	20.737
671.13	19.911
671.45	19.635
671.77	22.103
672.10	19.406
672.42	18.914
672.75	20.426
673.07	22.540
673.39	20.000
673.72	16.174
674.04	20.208
674.37	20.975
674.69	18.844
675.01	20.889
675.34	18.694
675.66	24.537
675.98	21.286
676.31	19.954
676.63	18.052
676.95	19.545
677.28	21.882
677.60	20.241
677.92	19.495
678.25	18.600
678.57	18.615
678.89	18.277
679.22	19.687
679.54	20.281
679.86	19.085
680.18	19.417
680.51	20.833
680.83	18.091
681.15	20.000
681.48	21.721
681.80	21.074
682.12	21.371
682.44	21.339
682.77	20.088
683.09	20.824
683.41	17.955
683.73	22.120
684.06	19.912
684.38	18.065
684.70	20.261
685.02	18.880
685.34	17.787
685.67	18.574
685.99	19.530
686.31	18.407
686.63	17.996
686.96	16.920
687.28	15.152
687.60	18.061
687.92	19.596
688.24	22.782
688.56	21.179
688.89	20.312
689.21	22.444
689.53	18.794
689.85	17.209
690.17	20.982
690.49	19.622
690.82	19.175
691.14	19.048
691.46	19.626
691.78	18.694
692.10	18.710
692.42	19.048
692.74	19.444
693.06	18.468
693.39	19.910
693.71	17.421
694.03	17.090
694.35	20.561
694.67	19.697
694.99	19.321
695.31	25.849
695.63	19.000
695.95	19.949
696.27	20.466
696.59	20.278
696.91	17.367
697.23	16.967
697.56	18.812
697.88	19.140
698.20	21.412
698.52	18.824
698.84	19.617
699.16	16.500
699.48	18.797
699.80	18.114
700.12	21.563
700.44	17.647
700.76	20.640
701.08	18.485
701.40	21.084
701.72	22.840
702.04	22.442
702.36	22.074
702.68	16.216
703.00	20.303
703.32	19.062
703.64	17.232
703.96	20.000
704.28	15.951
704.60	21.587
704.91	19.243
705.23	16.279
705.55	22.968
705.87	19.134
706.19	21.852
706.51	23.024
706.83	19.293
707.15	15.576
707.47	20.448
707.79	17.708
708.11	20.500
708.43	19.000
708.74	19.380
709.06	21.690
709.38	21.101
709.70	21.302
710.02	21.656
710.34	20.743
710.66	15.385
710.98	18.874
711.29	21.639
711.61	18.305
711.93	20.847
712.25	23.368
712.57	21.245
712.89	19.030
713.20	23.529
713.52	21.603
713.84	20.137
714.16	16.151
714.48	18.065
714.80	17.949
715.11	21.277
715.43	16.928
715.75	19.667
716.07	19.934
716.39	19.799
716.70	15.867
717.02	17.176
717.34	21.053
717.66	18.584
717.97	19.130
718.29	20.921
718.61	24.409
718.93	20.543
719.24	21.673
719.56	21.285
719.88	20.275
720.20	15.909
720.51	16.092
720.83	23.552
721.15	21.008
721.46	23.790
721.78	16.996
722.10	17.844
722.42	17.842
722.73	21.224
723.05	23.673
723.37	25.000
723.68	21.622
724.00	20.513
724.32	15.111
724.63	15.455
724.95	17.031
725.27	19.355
725.58	22.458
725.90	17.460
726.22	23.166
726.53	22.712
726.85	21.348
727.16	21.132
727.48	20.648
727.80	19.028
728.11	19.915
728.43	15.686
728.74	14.113
729.06	17.200
729.38	24.060
729.69	19.124
730.01	12.692
730.32	19.403
730.64	20.848
730.96	23.774
731.27	17.333
731.59	14.915
731.90	16.242
732.22	20.189
732.53	18.937
732.85	21.277
733.16	17.508
733.48	14.748
733.80	17.754
734.11	22.034
734.43	20.275
734.74	18.485
735.06	17.264
735.37	21.148
735.69	19.529
736.00	17.073
736.32	18.792
736.63	20.070
736.95	19.454
737.26	18.861
737.58	14.765
737.89	18.681
738.21	16.541
738.52	18.519
738.83	22.271
739.15	12.227
739.46	20.079
739.78	18.681
740.09	16.667
740.41	18.116
740.72	20.079
741.04	18.623
741.35	17.021
741.66	18.009
741.98	18.878
742.29	19.802
742.61	20.419
742.92	16.114
743.23	12.500
743.55	22.624
743.86	15.311
744.18	17.225
744.49	14.894
744.80	13.587
745.12	19.786
745.43	17.561
745.74	20.312
746.06	20.488
746.37	16.230
746.68	25.118
747.00	18.085
747.31	23.383
747.62	16.019
747.94	18.660
748.25	19.307
748.56	15.847
748.88	16.754
749.19	21.809
749.50	19.704
749.82	17.453
750.13	11.927
750.44	25.188
750.75	23.507
751.07	23.358
751.38	15.709
751.69	12.157
752.01	19.380
752.32	17.131
752.63	18.972
752.94	14.655
753.26	25.523
753.57	20.814
753.88	18.584
754.19	15.833
754.51	19.008
754.82	18.219
755.13	24.167
755.44	15.726
755.75	19.141
756.07	19.066
756.38	16.981
756.69	14.943
757.00	19.333
757.31	16.013
757.63	16.768
757.94	16.667
758.25	14.247
758.56	17.287
758.87	14.164
759.18	18.692
759.50	15.273
759.81	17.391
760.12	18.065
760.43	16.667
760.74	16.049
761.05	19.385
761.36	17.614
761.67	22.424
761.99	19.388
762.30	22.182
762.61	20.949
762.92	17.195
763.23	18.919
763.54	12.617
763.85	19.915
764.16	19.917
764.47	15.323
764.78	18.681
765.10	17.508
765.41	12.618
765.72	17.778
766.03	9.023
766.34	16.423
766.65	16.335
766.96	21.717
767.27	15.426
767.58	21.839
767.89	14.894
768.20	15.341
768.51	13.736
768.82	18.719
769.13	11.521
769.44	15.021
769.75	13.242
770.06	13.793
770.37	21.154
770.68	18.274
770.99	15.837
771.30	17.157
771.61	19.457
771.92	18.534
772.23	22.167
772.54	19.355
772.85	22.222
773.16	12.360
773.47	22.222
773.78	15.686
774.09	19.760
774.39	12.667
774.70	15.924
775.01	19.310
775.32	18.571
775.63	9.917
775.94	17.557
776.25	18.110
776.56	20.000
776.87	21.154
777.18	16.239
777.48	17.241
777.79	20.000
778.10	24.762
778.41	17.117
778.72	23.810
779.03	21.053
779.34	17.730
779.65	21.233
779.95	15.068
780.26	19.310
780.57	9.756
780.88	22.047
781.19	21.552
781.50	15.504
781.80	14.793
782.11	14.465
782.42	20.000
782.73	15.108
783.04	14.815
783.34	12.500
783.65	10.256
783.96	19.672
784.27	22.069
784.57	19.512
784.88	20.313
785.19	27.000
785.50	26.000
785.81	22.414
786.11	12.069
786.42	14.563
786.73	23.636
787.04	15.306
787.34	16.071
787.65	21.905
787.96	17.699
788.26	30.000
788.57	18.803
788.88	20.312
789.19	11.111
789.49	12.174
789.80	19.388
790.11	25.253
790.41	24.545
790.72	29.348
791.03	13.636
791.33	31.250
791.64	18.750
791.95	15.116
792.25	15.957
792.56	23.596
792.87	1.370
793.17	14.493
793.48	10.667
793.79	11.250
794.09	25.000
794.40	8.491
794.70	17.476
795.01	12.195
795.32	17.949
795.62	15.238
795.93	27.451
796.23	27.358
796.54	18.750
796.85	27.941
797.15	22.535
797.46	27.778
797.76	24.242
798.07	15.116
798.37	25.000
798.68	22.727
798.99	14.815
799.29	37.143
799.60	15.942
799.90	21.333
800.21	19.672
800.51	32.308
800.82	20.339
801.12	15.942
801.43	6.557
801.73	14.286
802.04	2.000
802.34	14.925
802.65	38.462
802.95	16.071
803.26	-1.923
803.56	13.725
803.87	-10.870
804.17	26.667
804.48	26.984
804.78	3.704
805.09	17.391
805.39	15.556
805.70	14.815
806.00	17.544
806.30	16.901
806.61	24.286
806.91	-1.389
807.22	30.263
807.52	30.667
807.83	21.818
808.13	29.167
808.43	29.412
808.74	10.448
809.04	20.339
809.35	-3.846
809.65	21.875
809.95	-16.216
810.26	9.091
810.56	23.288
810.86	16.667
811.17	34.000
811.47	30.612
811.77	26.316
812.08	11.364
812.38	35.849
812.69	7.500
812.99	9.091
813.29	15.789
813.59	-8.571
813.90	20.455
814.20	10.256
814.50	13.462
814.81	24.528
815.11	17.021
815.41	37.288
815.72	26.190
816.02	33.333
816.32	35.417
816.62	9.756
816.93	-8.108
817.23	17.143
817.53	43.750
817.84	-8.696
818.14	42.308
818.44	-13.158
818.74	26.087
819.04	-7.500
819.35	40.541
819.65	14.706
819.95	16.667
820.25	21.429
820.56	25.000
820.86	-3.448
821.16	35.000
821.46	38.298
821.76	15.000
822.07	16.279
822.37	16.216
822.67	31.250
822.97	23.810
823.27	-7.143
823.57	28.000
823.88	11.111
824.18	32.143
824.48	0.000
824.78	0.000
825.08	-13.043
825.38	12.121
825.69	12.500
825.99	18.421
826.29	-5.556
826.59	-60.000
826.89	-14.286
827.19	4.348
827.49	12.500
827.79	14.286
828.09	7.143
828.39	33.333
828.70	59.459
829.00	14.286
829.30	52.381
829.60	-10.000
829.90	53.125
830.20	23.684
830.50	11.111
830.80	4.348
831.10	45.455
831.40	69.697
831.70	22.581
832.00	4.762
832.30	4.762
832.60	200.000
832.90	-6.897
833.20	25.000
833.50	27.273
833.80	37.037
834.10	26.923
834.40	0.000
834.70	-33.333
835.00	10.526
835.30	61.538
835.60	73.333
835.90	22.581
836.20	36.364
836.50	42.857
836.80	-15.385
837.10	32.143
837.40	100.000
837.70	50.000
838.00	72.727
838.30	21.739
838.60	-46.154
838.90	59.091
839.19	17.857
839.49	43.333
839.79	92.308
840.09	-25.000
840.39	10.714
840.69	7.143
840.99	3.846
841.29	-10.526
841.59	0.000
841.88	45.455
842.18	170.000
842.48	12.500
842.78	33.333
843.08	48.148
843.38	60.000
843.68	17.391
843.97	-13.333
844.27	-46.667
844.57	0.000
844.87	83.333
845.17	33.333
845.47	86.667
845.76	28.571
846.06	17.647
846.36	-60.000
846.66	-57.143
846.96	-6.667
847.25	-12.500
847.55	92.857
847.85	112.500
848.15	9.091
848.44	-266.667
848.74	60.000
849.04	37.037
849.34	72.727
849.63	-16.667
849.93	-100.000
850.23	16.667
850.53	90.000
850.82	-7.692
851.12	100.000
851.42	0.000
851.71	57.692
852.01	21.429
852.31	-50.000
852.61	100.000
852.90	65.000
853.20	42.105
853.50	-8.333
853.79	47.826
854.09	45.833
854.39	57.895
854.68	4.167
854.98	35.484
855.28	34.615
855.57	10.000
855.87	77.778
856.17	33.333
856.46	142.857
856.76	-46.667
857.05	122.222
857.35	48.000
857.65	22.222
857.94	7.692
858.24	55.172
858.53	50.000
858.83	14.815
859.13	31.818
859.42	52.174
859.72	-25.000
860.01	-233.333
860.31	60.000
860.60	9.524
860.90	66.667
861.20	-26.667
861.49	-750.000
861.79	13.333
862.08	15.000
862.38	126.667
862.67	-60.000
862.97	-16.667
863.26	25.000
863.56	27.778
863.85	-366.667
864.15	66.667
864.44	30.000
864.74	71.429
865.03	250.000
865.33	-40.000
865.62	33.333
865.92	50.000
866.21	-66.667
866.51	75.000
866.80	-45.455
867.10	-300.000
867.39	100.000
867.69	0.000
867.98	53.846
868.27	100.000
868.57	33.333
868.86	27.778
869.16	-84.615
869.45	66.667
869.75	100.000
870.04	0.000
870.33	-85.714
870.63	23.810
870.92	366.667
871.22	-40.000
871.51	-100.000
871.80	133.333
872.10	-166.667
>>>>>End Processed Spectral Data<<<<<
