SpectraSuite Data File
++++++++++++++++++++++++++++++++++++
Date: Fri May 15 17:24:00 PDT 2015
User: schluterlab
Dark Spectrum Present: Yes
Reference Spectrum Present: Yes
Number of Sampled Component Spectra: 1
Spectrometers: USB2E3373
Integration Time (usec): 3000 (USB2E3373)
Spectra Averaged: 3 (USB2E3373)
Boxcar Smoothing: 0 (USB2E3373)
Correct for Electrical Dark: No (USB2E3373)
Strobe/Lamp Enabled: No (USB2E3373)
Correct for Detector Non-linearity: No (USB2E3373)
Correct for Stray Light: No (USB2E3373)
Number of Pixels in Processed Spectrum: 2048
>>>>>Begin Processed Spectral Data<<<<<
178.53	0.000
178.91	0.000
179.29	150.000
179.67	-300.000
180.04	-157.143
180.42	225.000
180.80	500.000
181.18	-133.333
181.56	300.000
181.94	600.000
182.31	-500.000
182.69	0.000
183.07	-133.333
183.45	340.000
183.83	-0.000
184.20	54.545
184.58	33.333
184.96	-0.000
185.34	-300.000
185.72	-200.000
186.09	92.308
186.47	0.000
186.85	83.333
187.23	-66.667
187.61	-200.000
187.98	-100.000
188.36	66.667
188.74	-100.000
189.12	11.765
189.49	72.222
189.87	0.000
190.25	57.143
190.63	200.000
191.00	66.667
191.38	31.579
191.76	50.000
192.14	-175.000
192.51	100.000
192.89	0.000
193.27	-171.429
193.65	66.667
194.02	127.273
194.40	0.000
194.78	-150.000
195.15	41.667
195.53	-62.500
195.91	-75.000
196.29	-150.000
196.66	53.846
197.04	114.286
197.42	-33.333
197.79	-233.333
198.17	-69.231
198.55	800.000
198.92	100.000
199.30	600.000
199.68	0.000
200.05	-133.333
200.43	0.000
200.81	-100.000
201.18	66.667
201.56	100.000
201.94	0.000
202.31	-233.333
202.69	-80.000
203.07	-200.000
203.44	500.000
203.82	0.000
204.19	107.143
204.57	-366.667
204.95	100.000
205.32	70.000
205.70	57.143
206.08	50.000
206.45	155.556
206.83	128.571
207.20	28.571
207.58	600.000
207.96	-166.667
208.33	30.000
208.71	-50.000
209.08	0.000
209.46	-600.000
209.84	-80.000
210.21	0.000
210.59	128.571
210.96	33.333
211.34	125.000
211.71	6.667
212.09	28.571
212.46	-1200.000
212.84	0.000
213.22	110.000
213.59	-0.000
213.97	53.846
214.34	118.182
214.72	100.000
215.09	275.000
215.47	-30.769
215.84	-45.455
216.22	-66.667
216.59	100.000
216.97	500.000
217.34	-25.000
217.72	-20.000
218.09	87.500
218.47	162.500
218.84	200.000
219.22	-11.111
219.59	40.000
219.97	400.000
220.34	50.000
220.72	-42.857
221.09	75.000
221.47	500.000
221.84	-700.000
222.22	-200.000
222.59	100.000
222.97	91.667
223.34	166.667
223.72	21.429
224.09	42.857
224.46	10.714
224.84	300.000
225.21	90.000
225.59	53.333
225.96	-200.000
226.34	250.000
226.71	-100.000
227.08	33.333
227.46	187.500
227.83	-450.000
228.21	33.333
228.58	54.545
228.95	-87.500
229.33	-10.000
229.70	-25.000
230.08	-62.500
230.45	-14.286
230.82	57.143
231.20	-26.667
231.57	92.857
231.95	71.429
232.32	-160.000
232.69	100.000
233.07	133.333
233.44	0.000
233.81	-30.000
234.19	22.222
234.56	35.294
234.93	200.000
235.31	175.000
235.68	-200.000
236.05	-30.769
236.43	-35.000
236.80	35.294
237.17	3.125
237.55	30.000
237.92	11.111
238.29	19.444
238.67	16.667
239.04	5.882
239.41	-24.390
239.79	0.000
240.16	7.317
240.53	26.316
240.91	-10.870
241.28	12.698
241.65	16.071
242.02	10.959
242.40	23.333
242.77	-5.085
243.14	-22.727
243.51	7.500
243.89	19.540
244.26	-5.747
244.63	-2.381
245.00	6.186
245.38	16.495
245.75	-5.618
246.12	-1.724
246.49	4.959
246.87	-1.923
247.24	-1.681
247.61	2.632
247.98	0.000
248.36	3.125
248.73	7.237
249.10	2.597
249.47	-0.633
249.84	0.654
250.22	2.353
250.59	-1.961
250.96	12.676
251.33	-0.581
251.70	4.118
252.08	0.000
252.45	5.941
252.82	1.005
253.19	3.226
253.56	-1.869
253.94	3.153
254.31	0.870
254.68	3.509
255.05	1.181
255.42	1.747
255.79	3.861
256.16	4.280
256.54	5.224
256.91	2.662
257.28	1.859
257.65	3.371
258.02	0.355
258.39	7.744
258.76	4.029
259.14	4.319
259.51	4.531
259.88	0.687
260.25	1.307
260.62	2.083
260.99	-1.017
261.36	-1.712
261.73	1.266
262.10	3.040
262.47	3.988
262.85	0.313
263.22	0.923
263.59	3.115
263.96	0.311
264.33	1.212
264.70	1.488
265.07	-0.893
265.44	5.099
265.81	3.672
266.18	3.279
266.55	3.856
266.92	0.777
267.29	1.567
267.66	3.581
268.03	3.665
268.40	1.828
268.77	2.674
269.14	2.878
269.51	2.057
269.88	0.748
270.25	5.102
270.62	0.732
270.99	1.023
271.36	2.934
271.73	2.817
272.10	0.730
272.47	3.546
272.84	1.733
273.21	3.016
273.58	3.133
273.95	1.144
274.32	0.924
274.69	0.000
275.06	1.563
275.43	2.268
275.80	1.987
276.17	3.908
276.54	1.499
276.91	2.193
277.28	0.655
277.65	4.545
278.02	0.213
278.39	2.626
278.76	-0.210
279.13	-0.622
279.50	3.782
279.87	1.728
280.23	0.000
280.60	2.729
280.97	1.212
281.34	-1.154
281.71	3.696
282.08	2.249
282.45	2.348
282.82	0.000
283.19	1.161
283.56	3.083
283.92	0.000
284.29	1.346
284.66	3.295
285.03	1.375
285.40	2.836
285.77	1.054
286.14	4.152
286.51	3.506
286.87	1.280
287.24	0.368
287.61	2.822
287.98	2.456
288.35	2.253
288.72	2.277
289.08	1.910
289.45	3.339
289.82	3.497
290.19	1.365
290.56	-0.172
290.93	1.178
291.29	0.924
291.66	2.520
292.03	1.276
292.40	1.290
292.77	0.478
293.13	-0.325
293.50	1.669
293.87	2.290
294.24	1.391
294.60	2.235
294.97	2.679
295.34	1.687
295.71	1.937
296.08	0.897
296.44	0.142
296.81	1.389
297.18	0.145
297.55	1.897
297.91	1.096
298.28	3.166
298.65	1.900
299.02	2.022
299.38	-0.547
299.75	0.000
300.12	1.047
300.48	0.922
300.85	1.267
301.22	1.688
301.59	0.395
301.95	2.278
302.32	2.075
302.69	1.368
303.05	0.124
303.42	1.743
303.79	2.570
304.15	2.151
304.52	-0.595
304.89	1.287
305.25	1.211
305.62	1.284
305.99	0.819
306.35	0.809
306.72	1.237
307.09	0.912
307.45	2.067
307.82	0.347
308.19	1.626
308.55	2.181
308.92	3.159
309.29	0.559
309.65	1.507
310.02	1.760
310.38	1.207
310.75	2.404
311.12	1.399
311.48	1.909
311.85	1.361
312.22	3.165
312.58	2.442
312.95	2.028
313.31	2.277
313.68	2.618
314.05	2.857
314.41	2.990
314.78	3.196
315.14	3.803
315.51	4.141
315.87	2.459
316.24	5.561
316.61	4.823
316.97	4.266
317.34	3.711
317.70	6.023
318.07	4.904
318.43	4.314
318.80	5.019
319.16	5.566
319.53	6.078
319.89	6.890
320.26	5.668
320.62	6.720
320.99	6.472
321.35	8.633
321.72	9.657
322.08	7.956
322.45	7.411
322.81	9.332
323.18	9.028
323.54	9.459
323.91	9.932
324.27	10.547
324.64	11.330
325.00	13.230
325.37	12.580
325.73	12.602
326.10	13.079
326.46	14.619
326.83	14.523
327.19	15.083
327.56	17.463
327.92	16.725
328.29	16.071
328.65	16.226
329.01	16.636
329.38	18.618
329.74	17.280
330.11	19.926
330.47	18.182
330.84	18.942
331.20	22.053
331.56	19.815
331.93	21.187
332.29	22.090
332.66	21.086
333.02	22.584
333.38	21.540
333.75	23.443
334.11	22.919
334.48	23.391
334.84	23.352
335.20	23.605
335.57	23.844
335.93	24.300
336.29	23.573
336.66	23.615
337.02	22.955
337.38	24.537
337.75	23.727
338.11	25.428
338.47	24.635
338.84	25.601
339.20	24.863
339.56	24.954
339.93	25.604
340.29	25.596
340.65	24.014
341.02	24.468
341.38	25.044
341.74	24.205
342.11	24.177
342.47	23.843
342.83	24.394
343.20	24.042
343.56	24.609
343.92	26.218
344.28	25.192
344.65	24.611
345.01	24.460
345.37	22.960
345.73	24.268
346.10	25.453
346.46	24.306
346.82	23.732
347.19	24.190
347.55	24.060
347.91	24.272
348.27	23.605
348.63	24.276
349.00	25.595
349.36	25.021
349.72	24.461
350.08	23.689
350.45	24.102
350.81	23.173
351.17	24.104
351.53	24.571
351.89	23.947
352.26	23.520
352.62	24.516
352.98	24.418
353.34	23.430
353.70	25.324
354.07	24.355
354.43	23.219
354.79	24.030
355.15	23.571
355.51	24.367
355.87	24.919
356.24	22.757
356.60	23.929
356.96	25.873
357.32	23.962
357.68	23.925
358.04	24.475
358.40	23.714
358.77	24.721
359.13	24.099
359.49	23.112
359.85	22.855
360.21	23.445
360.57	23.871
360.93	24.660
361.29	23.263
361.66	25.313
362.02	24.091
362.38	24.905
362.74	23.997
363.10	24.605
363.46	24.759
363.82	25.019
364.18	24.207
364.54	22.721
364.90	23.584
365.26	23.726
365.62	25.328
365.98	25.073
366.35	26.001
366.71	25.721
367.07	24.383
367.43	24.083
367.79	24.170
368.15	24.767
368.51	24.836
368.87	23.905
369.23	24.621
369.59	25.364
369.95	24.413
370.31	25.000
370.67	23.955
371.03	24.197
371.39	24.362
371.75	24.762
372.11	25.178
372.47	24.334
372.83	25.621
373.19	26.462
373.55	24.549
373.91	24.910
374.27	25.089
374.63	25.054
374.99	25.532
375.35	25.209
375.71	25.734
376.07	26.545
376.42	25.918
376.78	25.503
377.14	26.608
377.50	26.029
377.86	26.037
378.22	25.782
378.58	26.282
378.94	26.024
379.30	26.638
379.66	27.022
380.02	25.996
380.38	25.989
380.74	26.152
381.09	28.037
381.45	26.055
381.81	27.144
382.17	25.952
382.53	26.858
382.89	26.805
383.25	27.007
383.61	27.134
383.97	27.111
384.32	27.017
384.68	27.059
385.04	26.777
385.40	26.820
385.76	27.484
386.12	27.684
386.48	27.586
386.83	27.140
387.19	27.656
387.55	28.670
387.91	28.729
388.27	26.862
388.62	27.879
388.98	27.072
389.34	27.545
389.70	28.341
390.06	26.809
390.42	28.109
390.77	26.946
391.13	27.238
391.49	27.361
391.85	28.200
392.20	27.181
392.56	28.163
392.92	27.657
393.28	27.535
393.64	27.868
393.99	28.589
394.35	27.388
394.71	28.480
395.07	27.404
395.42	27.626
395.78	27.752
396.14	26.797
396.50	28.155
396.85	27.882
397.21	26.441
397.57	27.147
397.92	26.603
398.28	27.529
398.64	26.627
399.00	26.693
399.35	26.242
399.71	26.249
400.07	27.388
400.42	26.744
400.78	26.393
401.14	26.739
401.49	27.159
401.85	26.508
402.21	26.928
402.57	28.312
402.92	26.412
403.28	27.506
403.63	27.112
403.99	26.849
404.35	26.858
404.70	25.952
405.06	26.263
405.42	25.979
405.77	25.392
406.13	25.786
406.49	25.933
406.84	26.039
407.20	26.490
407.55	26.658
407.91	27.340
408.27	26.195
408.62	26.708
408.98	26.371
409.34	26.456
409.69	26.292
410.05	25.431
410.40	25.494
410.76	26.538
411.11	26.000
411.47	26.298
411.83	25.424
412.18	26.062
412.54	25.343
412.89	24.938
413.25	26.053
413.60	27.267
413.96	25.276
414.31	27.195
414.67	25.978
415.03	24.967
415.38	26.501
415.74	26.254
416.09	26.519
416.45	25.996
416.80	25.843
417.16	25.967
417.51	26.449
417.87	25.880
418.22	26.619
418.58	26.488
418.93	27.147
419.29	25.352
419.64	27.155
420.00	27.393
420.35	26.567
420.71	26.792
421.06	25.783
421.42	27.103
421.77	26.705
422.12	26.617
422.48	26.205
422.83	27.204
423.19	27.822
423.54	27.102
423.90	26.914
424.25	27.727
424.61	27.968
424.96	27.294
425.31	28.481
425.67	29.108
426.02	29.446
426.38	28.303
426.73	27.966
427.09	30.000
427.44	28.118
427.79	28.992
428.15	28.883
428.50	28.952
428.85	28.010
429.21	27.844
429.56	28.895
429.92	29.327
430.27	28.872
430.62	28.280
430.98	29.618
431.33	29.548
431.68	29.880
432.04	29.234
432.39	29.606
432.74	28.743
433.10	29.425
433.45	29.510
433.80	30.876
434.16	29.363
434.51	29.946
434.86	29.849
435.22	30.791
435.57	31.004
435.92	30.180
436.28	29.398
436.63	29.720
436.98	29.838
437.34	30.551
437.69	31.485
438.04	31.054
438.39	30.116
438.75	31.208
439.10	31.353
439.45	31.710
439.81	31.070
440.16	32.067
440.51	33.015
440.86	32.931
441.22	31.731
441.57	32.395
441.92	32.004
442.27	32.705
442.63	32.655
442.98	33.084
443.33	32.721
443.68	32.520
444.03	33.433
444.39	32.514
444.74	33.222
445.09	33.129
445.44	32.251
445.79	33.677
446.15	32.985
446.50	32.169
446.85	34.060
447.20	32.795
447.55	33.371
447.91	33.785
448.26	33.694
448.61	33.564
448.96	33.276
449.31	34.798
449.66	34.030
450.02	33.714
450.37	33.966
450.72	33.620
451.07	34.747
451.42	33.583
451.77	33.755
452.12	33.911
452.47	33.677
452.83	33.746
453.18	33.839
453.53	34.134
453.88	35.398
454.23	34.972
454.58	33.942
454.93	35.631
455.28	34.032
455.63	36.392
455.98	35.899
456.34	34.866
456.69	35.133
457.04	36.169
457.39	35.419
457.74	35.611
458.09	33.843
458.44	34.523
458.79	35.798
459.14	36.327
459.49	35.940
459.84	35.702
460.19	35.619
460.54	35.758
460.89	35.625
461.24	35.963
461.59	36.461
461.94	35.409
462.29	36.671
462.64	36.146
462.99	35.748
463.34	34.284
463.69	35.135
464.04	36.259
464.39	36.082
464.74	35.767
465.09	37.056
465.44	36.699
465.79	36.224
466.14	36.944
466.49	36.285
466.84	37.240
467.19	37.171
467.54	36.335
467.89	37.208
468.24	36.922
468.59	37.270
468.94	36.508
469.29	37.049
469.64	38.004
469.99	38.332
470.34	35.631
470.68	36.689
471.03	37.863
471.38	38.017
471.73	37.815
472.08	36.974
472.43	37.450
472.78	37.012
473.13	38.639
473.48	38.632
473.83	37.796
474.17	38.666
474.52	37.652
474.87	38.121
475.22	37.889
475.57	37.098
475.92	39.331
476.27	37.893
476.61	39.005
476.96	36.698
477.31	38.183
477.66	38.258
478.01	37.844
478.36	38.453
478.70	38.554
479.05	38.681
479.40	38.951
479.75	37.800
480.10	38.556
480.45	39.450
480.79	40.282
481.14	39.139
481.49	39.015
481.84	38.562
482.19	39.008
482.53	39.712
482.88	38.663
483.23	39.731
483.58	38.868
483.92	38.480
484.27	39.107
484.62	39.086
484.97	39.013
485.31	38.656
485.66	39.414
486.01	39.914
486.36	39.643
486.70	39.279
487.05	39.625
487.40	39.297
487.75	39.493
488.09	38.566
488.44	38.858
488.79	39.410
489.13	39.744
489.48	39.504
489.83	39.283
490.17	39.506
490.52	39.584
490.87	39.010
491.22	40.210
491.56	39.896
491.91	39.962
492.26	40.301
492.60	40.547
492.95	41.171
493.30	40.205
493.64	40.914
493.99	40.870
494.34	40.874
494.68	41.000
495.03	40.389
495.37	41.119
495.72	40.535
496.07	40.634
496.41	40.802
496.76	40.995
497.11	40.382
497.45	41.050
497.80	41.322
498.14	41.232
498.49	41.290
498.84	40.868
499.18	41.767
499.53	41.617
499.87	41.148
500.22	41.296
500.56	42.410
500.91	41.767
501.26	42.215
501.60	42.056
501.95	41.630
502.29	41.598
502.64	42.133
502.98	42.329
503.33	41.499
503.67	42.458
504.02	42.278
504.36	41.564
504.71	40.657
505.06	41.319
505.40	41.777
505.75	42.113
506.09	42.220
506.44	43.224
506.78	42.245
507.13	43.175
507.47	41.305
507.82	42.415
508.16	42.155
508.51	42.550
508.85	42.334
509.19	42.044
509.54	42.842
509.88	42.287
510.23	42.980
510.57	43.453
510.92	40.618
511.26	41.353
511.61	43.454
511.95	41.425
512.30	42.849
512.64	42.905
512.98	41.887
513.33	43.816
513.67	42.865
514.02	43.707
514.36	43.714
514.70	44.114
515.05	44.242
515.39	43.388
515.74	45.629
516.08	43.634
516.42	45.289
516.77	44.646
517.11	42.493
517.46	45.063
517.80	44.338
518.14	43.968
518.49	43.149
518.83	43.621
519.17	43.117
519.52	44.642
519.86	44.118
520.20	44.350
520.55	43.089
520.89	44.166
521.23	43.952
521.58	44.984
521.92	44.808
522.26	44.958
522.61	44.221
522.95	44.834
523.29	44.917
523.64	43.774
523.98	44.913
524.32	45.361
524.66	45.262
525.01	44.026
525.35	44.977
525.69	44.512
526.04	43.254
526.38	45.266
526.72	43.427
527.06	45.136
527.41	44.855
527.75	44.638
528.09	43.787
528.43	44.970
528.78	45.875
529.12	44.000
529.46	44.250
529.80	44.015
530.15	45.545
530.49	45.455
530.83	45.828
531.17	44.527
531.51	46.170
531.86	44.935
532.20	46.347
532.54	45.541
532.88	46.475
533.22	45.497
533.57	45.609
533.91	45.627
534.25	47.266
534.59	44.516
534.93	44.116
535.27	44.987
535.62	44.588
535.96	45.597
536.30	45.119
536.64	45.348
536.98	44.808
537.32	46.017
537.66	45.863
538.01	46.154
538.35	46.117
538.69	44.607
539.03	46.001
539.37	45.491
539.71	45.331
540.05	45.893
540.39	45.845
540.73	45.607
541.07	47.859
541.42	45.565
541.76	46.456
542.10	45.836
542.44	47.116
542.78	45.079
543.12	46.154
543.46	47.357
543.80	47.120
544.14	45.527
544.48	47.035
544.82	46.753
545.16	46.858
545.50	45.527
545.84	47.805
546.18	47.376
546.52	46.575
546.86	45.794
547.20	46.996
547.54	46.290
547.88	46.739
548.22	46.022
548.56	46.636
548.90	46.900
549.24	46.006
549.58	45.628
549.92	45.604
550.26	47.619
550.60	46.914
550.94	46.751
551.28	46.522
551.62	47.615
551.96	46.090
552.30	48.026
552.64	46.121
552.98	47.539
553.32	46.719
553.66	47.242
554.00	48.321
554.34	47.194
554.68	47.419
555.02	47.991
555.36	47.868
555.69	47.766
556.03	47.323
556.37	46.263
556.71	47.365
557.05	47.875
557.39	45.799
557.73	48.876
558.07	47.662
558.41	49.081
558.75	49.104
559.08	47.991
559.42	47.937
559.76	49.560
560.10	46.942
560.44	47.878
560.78	47.832
561.12	49.718
561.45	49.403
561.79	47.759
562.13	48.474
562.47	48.705
562.81	48.343
563.15	48.378
563.48	47.808
563.82	49.966
564.16	47.145
564.50	47.365
564.84	48.394
565.17	48.424
565.51	50.342
565.85	50.617
566.19	48.342
566.52	49.129
566.86	49.679
567.20	47.696
567.54	49.331
567.88	49.619
568.21	48.416
568.55	49.402
568.89	49.076
569.23	49.543
569.56	48.818
569.90	49.086
570.24	48.418
570.57	49.600
570.91	49.007
571.25	48.306
571.59	48.458
571.92	47.526
572.26	48.158
572.60	48.093
572.93	47.411
573.27	47.492
573.61	48.479
573.95	48.498
574.28	48.517
574.62	47.318
574.96	47.270
575.29	47.426
575.63	46.541
575.97	46.571
576.30	46.978
576.64	47.576
576.98	48.649
577.31	48.808
577.65	49.037
577.98	48.077
578.32	48.092
578.66	47.303
578.99	47.520
579.33	47.165
579.67	47.540
580.00	47.797
580.34	47.886
580.67	47.008
581.01	48.199
581.35	47.868
581.68	48.337
582.02	48.413
582.35	48.468
582.69	48.072
583.02	48.173
583.36	48.143
583.70	48.546
584.03	48.735
584.37	49.407
584.70	47.527
585.04	47.902
585.37	48.575
585.71	48.902
586.04	48.790
586.38	47.719
586.72	48.752
587.05	48.816
587.39	49.567
587.72	49.508
588.06	48.796
588.39	48.932
588.73	49.206
589.06	50.228
589.40	49.015
589.73	49.361
590.07	50.000
590.40	49.381
590.73	50.412
591.07	49.703
591.40	49.110
591.74	49.819
592.07	50.371
592.41	50.795
592.74	49.144
593.08	49.598
593.41	50.181
593.75	49.460
594.08	49.125
594.41	49.017
594.75	49.122
595.08	49.716
595.42	50.350
595.75	50.056
596.09	49.844
596.42	49.690
596.75	49.645
597.09	51.162
597.42	49.864
597.75	49.565
598.09	49.977
598.42	49.143
598.76	49.507
599.09	49.519
599.42	49.147
599.76	49.887
600.09	50.075
600.42	48.522
600.76	49.629
601.09	49.008
601.42	49.393
601.76	48.869
602.09	49.752
602.42	50.211
602.76	49.406
603.09	50.042
603.42	50.962
603.76	49.677
604.09	50.385
604.42	50.550
604.76	49.889
605.09	49.634
605.42	49.977
605.75	50.394
606.09	49.639
606.42	49.333
606.75	49.654
607.09	49.451
607.42	49.402
607.75	49.512
608.08	49.146
608.42	48.698
608.75	51.133
609.08	50.972
609.41	50.812
609.75	50.302
610.08	50.924
610.41	49.710
610.74	50.804
611.07	50.388
611.41	50.752
611.74	50.906
612.07	48.929
612.40	50.985
612.73	50.339
613.07	50.112
613.40	51.094
613.73	50.308
614.06	50.473
614.39	51.495
614.72	50.084
615.06	50.950
615.39	49.509
615.72	50.215
616.05	50.838
616.38	48.547
616.71	49.419
617.05	50.649
617.38	51.351
617.71	50.377
618.04	50.984
618.37	51.765
618.70	50.693
619.03	52.153
619.36	50.289
619.69	51.630
620.03	53.178
620.36	51.931
620.69	50.535
621.02	50.459
621.35	51.701
621.68	50.595
622.01	52.000
622.34	50.439
622.67	51.341
623.00	50.306
623.33	50.915
623.66	50.337
623.99	49.470
624.32	51.635
624.65	50.677
624.99	50.414
625.32	49.280
625.65	51.689
625.98	51.894
626.31	50.042
626.64	51.820
626.97	51.920
627.30	52.189
627.63	51.213
627.96	49.775
628.29	51.341
628.62	50.442
628.95	49.098
629.28	54.133
629.61	49.452
629.94	51.711
630.26	49.111
630.59	52.341
630.92	52.000
631.25	50.769
631.58	52.974
631.91	51.316
632.24	51.147
632.57	52.727
632.90	49.822
633.23	49.529
633.56	53.401
633.89	51.418
634.22	53.086
634.55	52.097
634.88	50.064
635.20	50.897
635.53	52.533
635.86	51.756
636.19	53.040
636.52	51.913
636.85	49.876
637.18	50.063
637.51	51.447
637.83	49.803
638.16	51.842
638.49	49.591
638.82	51.316
639.15	50.475
639.48	52.270
639.81	51.325
640.13	53.102
640.46	50.437
640.79	53.608
641.12	49.631
641.45	51.051
641.77	50.519
642.10	53.081
642.43	51.768
642.76	52.145
643.09	53.635
643.41	50.324
643.74	52.059
644.07	51.232
644.40	52.027
644.73	53.415
645.05	52.013
645.38	52.557
645.71	52.660
646.04	52.603
646.36	52.128
646.69	53.237
647.02	53.308
647.35	52.239
647.67	50.274
648.00	54.664
648.33	52.218
648.66	52.881
648.98	50.251
649.31	52.066
649.64	49.922
649.96	49.271
650.29	52.981
650.62	52.991
650.94	53.889
651.27	51.583
651.60	51.351
651.92	50.350
652.25	50.977
652.58	49.667
652.90	54.031
653.23	52.605
653.56	49.915
653.88	50.515
654.21	48.862
654.54	50.934
654.86	52.971
655.19	50.292
655.52	53.715
655.84	51.809
656.17	57.132
656.49	77.046
656.82	77.913
657.15	58.601
657.47	43.139
657.80	32.030
658.13	31.147
658.45	47.603
658.78	45.425
659.10	44.893
659.43	43.472
659.75	44.894
660.08	44.345
660.41	47.497
660.73	49.033
661.06	50.780
661.38	50.294
661.71	48.460
662.03	54.506
662.36	51.868
662.68	50.221
663.01	51.965
663.33	50.348
663.66	51.860
663.98	54.651
664.31	50.746
664.63	51.382
664.96	47.609
665.28	51.435
665.61	51.948
665.93	49.130
666.26	52.278
666.58	50.783
666.91	48.941
667.23	51.179
667.56	51.185
667.88	50.839
668.21	49.881
668.53	52.009
668.86	50.000
669.18	48.585
669.50	49.637
669.83	48.372
670.15	51.049
670.48	54.067
670.80	51.843
671.13	48.993
671.45	51.598
671.77	51.502
672.10	50.297
672.42	49.438
672.75	49.201
673.07	53.131
673.39	50.826
673.72	48.521
674.04	50.417
674.37	48.517
674.69	50.535
675.01	54.000
675.34	50.450
675.66	51.852
675.98	49.667
676.31	51.606
676.63	50.356
676.95	47.955
677.28	48.941
677.60	54.699
677.92	50.917
678.25	50.109
678.57	50.216
678.89	49.790
679.22	50.112
679.54	46.988
679.86	49.503
680.18	49.515
680.51	50.947
680.83	49.105
681.15	50.400
681.48	49.795
681.80	49.174
682.12	49.798
682.44	48.536
682.77	50.110
683.09	48.970
683.41	47.500
683.73	48.157
684.06	50.000
684.38	49.032
684.70	52.723
685.02	47.303
685.34	48.024
685.67	48.218
685.99	47.559
686.31	47.434
686.63	48.423
686.96	45.437
687.28	47.273
687.60	48.479
687.92	51.313
688.24	49.395
688.56	50.437
688.89	48.214
689.21	51.333
689.53	47.796
689.85	50.698
690.17	49.107
690.49	45.863
690.82	47.087
691.14	49.286
691.46	50.000
691.78	47.973
692.10	47.312
692.42	46.320
692.74	50.641
693.06	45.495
693.39	44.796
693.71	40.950
694.03	47.575
694.35	47.664
694.67	47.980
694.99	47.258
695.31	48.825
695.63	48.500
695.95	45.960
696.27	48.705
696.59	50.556
696.91	50.700
697.23	44.473
697.56	48.267
697.88	48.602
698.20	45.103
698.52	49.176
698.84	46.890
699.16	47.750
699.48	49.875
699.80	46.154
700.12	47.978
700.44	47.339
700.76	47.674
701.08	44.545
701.40	46.988
701.72	51.235
702.04	47.525
702.36	51.505
702.68	45.946
703.00	49.394
703.32	45.161
703.64	43.785
703.96	49.855
704.28	46.012
704.60	49.524
704.91	49.211
705.23	45.515
705.55	48.763
705.87	48.736
706.19	48.148
706.51	46.048
706.83	49.518
707.15	46.729
707.47	47.899
707.79	45.052
708.11	44.750
708.43	48.250
708.74	48.320
709.06	51.268
709.38	50.459
709.70	46.450
710.02	43.631
710.34	45.201
710.66	42.628
710.98	45.364
711.29	48.525
711.61	47.797
711.93	45.277
712.25	51.203
712.57	49.084
712.89	44.030
713.20	46.713
713.52	46.341
713.84	48.464
714.16	46.735
714.48	44.516
714.80	50.641
715.11	46.505
715.43	45.768
715.75	45.000
716.07	45.847
716.39	46.309
716.70	43.542
717.02	48.092
717.34	51.012
717.66	46.460
717.97	46.522
718.29	43.515
718.61	44.094
718.93	50.388
719.24	45.247
719.56	43.373
719.88	41.237
720.20	45.455
720.51	43.678
720.83	48.649
721.15	49.160
721.46	47.984
721.78	41.502
722.10	44.610
722.42	46.058
722.73	43.673
723.05	46.939
723.37	48.729
723.68	46.396
724.00	51.282
724.32	44.889
724.63	41.364
724.95	41.485
725.27	46.083
725.58	47.034
725.90	42.063
726.22	45.946
726.53	42.373
726.85	46.067
727.16	47.925
727.48	46.154
727.80	42.915
728.11	44.068
728.43	43.137
728.74	41.129
729.06	46.400
729.38	48.872
729.69	47.012
730.01	39.231
730.32	42.537
730.64	50.177
730.96	49.057
731.27	42.667
731.59	44.068
731.90	43.631
732.22	44.164
732.53	46.179
732.85	46.099
733.16	48.822
733.48	39.568
733.80	46.377
734.11	44.746
734.43	40.206
734.74	43.636
735.06	45.603
735.37	44.713
735.69	45.791
736.00	41.463
736.32	41.611
736.63	41.549
736.95	41.638
737.26	42.349
737.58	39.262
737.89	44.689
738.21	41.353
738.52	46.091
738.83	44.105
739.15	42.358
739.46	48.819
739.78	41.392
740.09	38.562
740.41	44.203
740.72	40.945
741.04	38.057
741.35	40.851
741.66	44.550
741.98	41.837
742.29	45.545
742.61	42.408
742.92	38.863
743.23	34.722
743.55	45.249
743.86	45.455
744.18	42.584
744.49	38.830
744.80	44.022
745.12	49.198
745.43	43.902
745.74	44.792
746.06	41.951
746.37	45.026
746.68	48.815
747.00	42.021
747.31	40.299
747.62	47.573
747.94	49.282
748.25	39.109
748.56	40.984
748.88	41.885
749.19	43.085
749.50	43.350
749.82	36.321
750.13	42.661
750.44	43.985
750.75	47.015
751.07	44.891
751.38	40.230
751.69	43.529
752.01	43.411
752.32	39.044
752.63	42.292
752.94	40.517
753.26	44.770
753.57	44.344
753.88	45.133
754.19	39.583
754.51	40.909
754.82	35.223
755.13	40.833
755.44	45.968
755.75	39.453
756.07	44.747
756.38	41.509
756.69	39.847
757.00	42.333
757.31	41.176
757.63	37.195
757.94	39.444
758.25	37.808
758.56	37.500
758.87	38.244
759.18	38.318
759.50	39.636
759.81	40.803
760.12	43.226
760.43	39.091
760.74	40.741
761.05	36.923
761.36	42.614
761.67	39.394
761.99	41.837
762.30	39.273
762.61	41.502
762.92	39.367
763.23	32.432
763.54	42.523
763.85	40.254
764.16	41.494
764.47	35.887
764.78	33.700
765.10	44.108
765.41	39.748
765.72	39.048
766.03	35.338
766.34	37.956
766.65	39.442
766.96	42.424
767.27	38.830
767.58	33.908
767.89	41.844
768.20	31.818
768.51	34.615
768.82	37.438
769.13	41.475
769.44	40.343
769.75	34.703
770.06	39.655
770.37	37.019
770.68	40.102
770.99	32.579
771.30	39.706
771.61	39.367
771.92	43.966
772.23	40.394
772.54	37.634
772.85	46.914
773.16	42.135
773.47	50.327
773.78	39.869
774.09	35.928
774.39	36.667
774.70	35.032
775.01	48.966
775.32	38.571
775.63	38.843
775.94	43.511
776.25	43.307
776.56	37.500
776.87	42.308
777.18	40.171
777.48	48.276
777.79	43.478
778.10	40.000
778.41	39.640
778.72	39.683
779.03	45.865
779.34	41.135
779.65	40.411
779.95	32.877
780.26	41.379
780.57	34.146
780.88	31.496
781.19	40.517
781.50	37.209
781.80	34.911
782.11	33.962
782.42	43.846
782.73	38.849
783.04	37.037
783.34	34.028
783.65	27.350
783.96	40.984
784.27	42.759
784.57	33.333
784.88	36.719
785.19	51.000
785.50	45.000
785.81	42.241
786.11	36.207
786.42	42.718
786.73	43.636
787.04	27.551
787.34	24.107
787.65	30.476
787.96	42.478
788.26	40.000
788.57	39.316
788.88	42.188
789.19	38.095
789.49	27.826
789.80	51.020
790.11	39.394
790.41	30.909
790.72	41.304
791.03	38.636
791.33	33.750
791.64	35.000
791.95	24.419
792.25	39.362
792.56	43.820
792.87	30.137
793.17	33.333
793.48	33.333
793.79	26.250
794.09	51.250
794.40	30.189
794.70	26.214
795.01	28.455
795.32	22.222
795.62	38.095
795.93	43.137
796.23	37.736
796.54	40.625
796.85	36.765
797.15	23.944
797.46	27.778
797.76	40.909
798.07	29.070
798.37	38.158
798.68	45.455
798.99	40.741
799.29	40.000
799.60	28.986
799.90	38.667
800.21	37.705
800.51	43.077
800.82	33.898
801.12	55.072
801.43	40.984
801.73	42.857
802.04	42.000
802.34	23.881
802.65	51.923
802.95	21.429
803.26	21.154
803.56	35.294
803.87	21.739
804.17	41.333
804.48	34.921
804.78	33.333
805.09	43.478
805.39	42.222
805.70	50.000
806.00	22.807
806.30	35.211
806.61	52.857
806.91	27.778
807.22	52.632
807.52	36.000
807.83	21.818
808.13	34.722
808.43	47.059
808.74	26.866
809.04	11.864
809.35	28.846
809.65	28.125
809.95	-13.514
810.26	43.182
810.56	39.726
810.86	21.429
811.17	16.000
811.47	40.816
811.77	31.579
812.08	29.545
812.38	20.755
812.69	27.500
812.99	36.364
813.29	28.947
813.59	5.714
813.90	47.727
814.20	38.462
814.50	30.769
814.81	32.075
815.11	12.766
815.41	22.034
815.72	40.476
816.02	39.216
816.32	35.417
816.62	31.707
816.93	2.703
817.23	8.571
817.53	20.833
817.84	45.652
818.14	28.846
818.44	0.000
818.74	47.826
819.04	15.000
819.35	54.054
819.65	35.294
819.95	33.333
820.25	35.714
820.56	65.000
820.86	-24.138
821.16	40.000
821.46	51.064
821.76	22.500
822.07	51.163
822.37	10.811
822.67	25.000
822.97	54.762
823.27	-21.429
823.57	28.000
823.88	59.259
824.18	53.571
824.48	38.235
824.78	32.258
825.08	8.696
825.38	48.485
825.69	-12.500
825.99	31.579
826.29	38.889
826.59	66.667
826.89	19.048
827.19	54.348
827.49	17.500
827.79	57.143
828.09	14.286
828.39	27.273
828.70	43.243
829.00	25.000
829.30	33.333
829.60	20.000
829.90	40.625
830.20	39.474
830.50	33.333
830.80	39.130
831.10	45.455
831.40	57.576
831.70	74.194
832.00	38.095
832.30	-9.524
832.60	8.333
832.90	24.138
833.20	-25.000
833.50	36.364
833.80	3.704
834.10	42.308
834.40	37.500
834.70	33.333
835.00	21.053
835.30	50.000
835.60	46.667
835.90	38.710
836.20	36.364
836.50	46.429
836.80	3.846
837.10	28.571
837.40	-100.000
837.70	63.636
838.00	27.273
838.30	4.348
838.60	7.692
838.90	4.545
839.19	10.714
839.49	26.667
839.79	7.692
840.09	25.000
840.39	75.000
840.69	32.143
840.99	-15.385
841.29	-26.316
841.59	-70.000
841.88	-9.091
842.18	40.000
842.48	56.250
842.78	40.000
843.08	18.519
843.38	-70.000
843.68	60.870
843.97	66.667
844.27	-26.667
844.57	40.000
844.87	27.778
845.17	4.762
845.47	33.333
845.76	-14.286
846.06	111.765
846.36	120.000
846.66	0.000
846.96	86.667
847.25	-87.500
847.55	71.429
847.85	137.500
848.15	-9.091
848.44	-400.000
848.74	70.000
849.04	22.222
849.34	54.545
849.63	66.667
849.93	-100.000
850.23	38.889
850.53	-20.000
850.82	100.000
851.12	44.444
851.42	80.000
851.71	26.923
852.01	35.714
852.31	-75.000
852.61	0.000
852.90	5.000
853.20	84.211
853.50	-8.333
853.79	8.696
854.09	33.333
854.39	26.316
854.68	20.833
854.98	61.290
855.28	15.385
855.57	40.000
855.87	16.667
856.17	40.741
856.46	85.714
856.76	-53.333
857.05	166.667
857.35	52.000
857.65	77.778
857.94	7.692
858.24	31.034
858.53	77.778
858.83	40.741
859.13	45.455
859.42	26.087
859.72	175.000
860.01	-266.667
860.31	88.000
860.60	-4.762
860.90	33.333
861.20	-73.333
861.49	-350.000
861.79	-20.000
862.08	70.000
862.38	66.667
862.67	40.000
862.97	-33.333
863.26	16.667
863.56	50.000
863.85	-366.667
864.15	44.444
864.44	0.000
864.74	114.286
865.03	125.000
865.33	-120.000
865.62	16.667
865.92	150.000
866.21	-100.000
866.51	56.250
866.80	-27.273
867.10	250.000
867.39	33.333
867.69	0.000
867.98	69.231
868.27	-66.667
868.57	13.333
868.86	66.667
869.16	-15.385
869.45	60.000
869.75	-600.000
870.04	0.000
870.33	114.286
870.63	52.381
870.92	333.333
871.22	100.000
871.51	1100.000
871.80	122.222
872.10	166.667
>>>>>End Processed Spectral Data<<<<<
