SpectraSuite Data File
++++++++++++++++++++++++++++++++++++
Date: Fri May 15 20:02:11 PDT 2015
User: schluterlab
Dark Spectrum Present: Yes
Reference Spectrum Present: Yes
Number of Sampled Component Spectra: 1
Spectrometers: USB2E3373
Integration Time (usec): 3000 (USB2E3373)
Spectra Averaged: 3 (USB2E3373)
Boxcar Smoothing: 0 (USB2E3373)
Correct for Electrical Dark: No (USB2E3373)
Strobe/Lamp Enabled: No (USB2E3373)
Correct for Detector Non-linearity: No (USB2E3373)
Correct for Stray Light: No (USB2E3373)
Number of Pixels in Processed Spectrum: 2048
>>>>>Begin Processed Spectral Data<<<<<
178.53	0.000
178.91	0.000
179.29	37.500
179.67	-300.000
180.04	-71.429
180.42	175.000
180.80	100.000
181.18	33.333
181.56	-50.000
181.94	400.000
182.31	400.000
182.69	100.000
183.07	-166.667
183.45	-20.000
183.83	183.333
184.20	27.273
184.58	11.111
184.96	-100.000
185.34	66.667
185.72	-350.000
186.09	61.538
186.47	400.000
186.85	116.667
187.23	66.667
187.61	-100.000
187.98	-33.333
188.36	144.444
188.74	-200.000
189.12	35.294
189.49	5.556
189.87	0.000
190.25	92.857
190.63	250.000
191.00	33.333
191.38	68.421
191.76	0.000
192.14	-50.000
192.51	300.000
192.89	44.444
193.27	-100.000
193.65	66.667
194.02	54.545
194.40	50.000
194.78	-100.000
195.15	-66.667
195.53	-75.000
195.91	325.000
196.29	-125.000
196.66	169.231
197.04	-57.143
197.42	-11.111
197.79	-333.333
198.17	-30.769
198.55	1100.000
198.92	-233.333
199.30	500.000
199.68	-120.000
200.05	-33.333
200.43	0.000
200.81	-66.667
201.18	333.333
201.56	700.000
201.94	200.000
202.31	-266.667
202.69	-40.000
203.07	150.000
203.44	300.000
203.82	0.000
204.19	50.000
204.57	-366.667
204.95	37.500
205.32	60.000
205.70	85.714
206.08	150.000
206.45	122.222
206.83	128.571
207.20	-71.429
207.58	-300.000
207.96	-400.000
208.33	-70.000
208.71	-200.000
209.08	16.667
209.46	-200.000
209.84	-140.000
210.21	200.000
210.59	-57.143
210.96	0.000
211.34	0.000
211.71	80.000
212.09	-85.714
212.46	-1300.000
212.84	0.000
213.22	-20.000
213.59	600.000
213.97	0.000
214.34	9.091
214.72	-33.333
215.09	375.000
215.47	-38.462
215.84	-27.273
216.22	-33.333
216.59	12.500
216.97	50.000
217.34	-200.000
217.72	-280.000
218.09	12.500
218.47	100.000
218.84	100.000
219.22	-22.222
219.59	-100.000
219.97	333.333
220.34	150.000
220.72	85.714
221.09	0.000
221.47	400.000
221.84	-700.000
222.22	-50.000
222.59	0.000
222.97	83.333
223.34	33.333
223.72	14.286
224.09	33.333
224.46	28.571
224.84	200.000
225.21	20.000
225.59	6.667
225.96	150.000
226.34	150.000
226.71	-114.286
227.08	-33.333
227.46	0.000
227.83	-200.000
228.21	77.778
228.58	0.000
228.95	100.000
229.33	-20.000
229.70	156.250
230.08	37.500
230.45	-128.571
230.82	28.571
231.20	-20.000
231.57	100.000
231.95	57.143
232.32	-130.000
232.69	7.143
233.07	-100.000
233.44	0.000
233.81	40.000
234.19	-33.333
234.56	-23.529
234.93	50.000
235.31	-25.000
235.68	-60.000
236.05	-15.385
236.43	-40.000
236.80	35.294
237.17	34.375
237.55	5.000
237.92	25.926
238.29	19.444
238.67	20.000
239.04	-11.765
239.41	-2.439
239.79	-23.333
240.16	29.268
240.53	10.526
240.91	8.696
241.28	15.873
241.65	25.000
242.02	13.699
242.40	10.000
242.77	13.559
243.14	12.121
243.51	13.750
243.89	21.839
244.26	16.092
244.63	14.286
245.00	22.680
245.38	32.990
245.75	3.371
246.12	11.207
246.49	12.397
246.87	28.846
247.24	14.286
247.61	7.895
247.98	11.382
248.36	17.500
248.73	17.105
249.10	18.831
249.47	13.291
249.84	12.418
250.22	17.647
250.59	13.725
250.96	23.944
251.33	9.302
251.70	15.294
252.08	18.274
252.45	20.297
252.82	19.095
253.19	17.512
253.56	12.150
253.94	14.414
254.31	19.130
254.68	21.930
255.05	19.291
255.42	18.777
255.79	18.533
256.16	18.677
256.54	21.269
256.91	15.209
257.28	15.242
257.65	11.985
258.02	18.794
258.39	18.519
258.76	22.344
259.14	20.598
259.51	19.094
259.88	14.777
260.25	15.359
260.62	22.917
260.99	17.627
261.36	14.041
261.73	15.506
262.10	15.805
262.47	16.258
262.85	16.614
263.22	18.154
263.59	20.561
263.96	20.497
264.33	20.606
264.70	15.774
265.07	16.667
265.44	21.246
265.81	17.797
266.18	15.027
266.55	19.023
266.92	16.580
267.29	16.971
267.66	16.113
268.03	18.063
268.40	16.188
268.77	19.519
269.14	17.026
269.51	20.051
269.88	15.461
270.25	11.480
270.62	16.098
270.99	15.345
271.36	16.137
271.73	15.962
272.10	17.762
272.47	17.021
272.84	11.881
273.21	17.401
273.58	13.976
273.95	16.934
274.32	11.316
274.69	14.027
275.06	19.196
275.43	15.873
275.80	15.894
276.17	12.644
276.54	14.989
276.91	16.009
277.28	17.686
277.65	15.702
278.02	14.681
278.39	17.287
278.76	16.771
279.13	11.826
279.50	18.908
279.87	16.415
280.23	11.398
280.60	16.764
280.97	17.374
281.34	15.769
281.71	19.302
282.08	15.133
282.45	13.112
282.82	14.286
283.19	15.861
283.56	17.341
283.92	14.421
284.29	14.231
284.66	16.279
285.03	15.128
285.40	17.391
285.77	12.830
286.14	16.787
286.51	17.528
286.87	13.711
287.24	13.996
287.61	12.875
287.98	16.140
288.35	14.038
288.72	16.287
289.08	14.236
289.45	15.817
289.82	14.336
290.19	13.993
290.56	14.237
290.93	14.310
291.29	14.484
291.66	16.535
292.03	15.152
292.40	14.355
292.77	14.035
293.13	12.013
293.50	11.533
293.87	14.046
294.24	15.456
294.60	14.903
294.97	13.839
295.34	15.184
295.71	14.903
296.08	13.752
296.44	11.522
296.81	13.472
297.18	13.913
297.55	15.041
297.91	14.932
298.28	15.567
298.65	13.433
299.02	12.668
299.38	10.260
299.75	14.207
300.12	12.565
300.48	14.888
300.85	14.956
301.22	12.338
301.59	13.158
301.95	14.177
302.32	15.175
302.69	13.557
303.05	12.005
303.42	12.578
303.79	14.369
304.15	13.740
304.52	13.080
304.89	13.216
305.25	13.196
305.62	12.252
305.99	12.632
306.35	12.948
306.72	12.261
307.09	13.341
307.45	13.662
307.82	12.269
308.19	13.473
308.55	12.868
308.92	14.488
309.29	12.402
309.65	12.487
310.02	13.311
310.38	13.063
310.75	13.224
311.12	12.809
311.48	11.347
311.85	13.194
312.22	13.502
312.58	13.588
312.95	11.846
313.31	11.077
313.68	12.984
314.05	11.122
314.41	12.990
314.78	13.196
315.14	13.155
315.51	14.286
315.87	13.934
316.24	14.459
316.61	13.583
316.97	12.698
317.34	13.477
317.70	13.002
318.07	11.250
318.43	14.118
318.80	13.163
319.16	12.598
319.53	12.726
319.89	13.878
320.26	12.753
320.62	13.541
320.99	10.647
321.35	13.258
321.72	13.915
322.08	15.106
322.45	13.604
322.81	14.244
323.18	12.856
323.54	13.320
323.91	12.658
324.27	14.941
324.64	13.390
325.00	14.051
325.37	14.968
325.73	13.055
326.10	12.988
326.46	15.874
326.83	13.823
327.19	14.298
327.56	14.596
327.92	15.053
328.29	14.732
328.65	15.283
329.01	16.452
329.38	14.470
329.74	14.164
330.11	15.755
330.47	15.306
330.84	14.327
331.20	16.920
331.56	16.111
331.93	16.164
332.29	16.224
332.66	15.928
333.02	16.171
333.38	15.949
333.75	16.392
334.11	16.025
334.48	16.682
334.84	17.125
335.20	17.109
335.57	16.047
335.93	16.893
336.29	16.114
336.66	15.895
337.02	16.543
337.38	16.574
337.75	17.091
338.11	17.403
338.47	17.153
338.84	17.560
339.20	15.905
339.56	17.523
339.93	17.368
340.29	16.789
340.65	17.294
341.02	16.401
341.38	15.310
341.74	15.194
342.11	16.464
342.47	17.972
342.83	16.609
343.20	16.551
343.56	16.783
343.92	16.032
344.28	16.823
344.65	14.853
345.01	16.076
345.37	16.989
345.73	17.824
346.10	16.307
346.46	16.569
346.82	16.367
347.19	15.544
347.55	17.126
347.91	17.718
348.27	15.279
348.63	16.951
349.00	16.407
349.36	16.209
349.72	16.667
350.08	16.066
350.45	17.558
350.81	15.116
351.17	16.042
351.53	15.510
351.89	15.772
352.26	16.080
352.62	16.694
352.98	15.823
353.34	16.103
353.70	16.343
354.07	16.210
354.43	16.974
354.79	15.111
355.15	16.587
355.51	16.930
355.87	16.909
356.24	15.742
356.60	15.764
356.96	16.984
357.32	16.214
357.68	16.263
358.04	16.478
358.40	16.801
358.77	17.065
359.13	16.493
359.49	15.948
359.85	16.381
360.21	16.906
360.57	16.144
360.93	17.020
361.29	15.559
361.66	16.693
362.02	16.288
362.38	16.603
362.74	15.746
363.10	16.479
363.46	15.567
363.82	17.731
364.18	16.015
364.54	15.882
364.90	16.129
365.26	16.230
365.62	18.102
365.98	17.595
366.35	16.897
366.71	16.482
367.07	16.473
367.43	16.391
367.79	16.820
368.15	17.085
368.51	16.824
368.87	16.798
369.23	17.184
369.59	17.128
369.95	16.935
370.31	17.486
370.67	17.537
371.03	15.907
371.39	16.849
371.75	17.289
372.11	17.118
372.47	17.899
372.83	18.382
373.19	17.618
373.55	17.690
373.91	18.143
374.27	17.364
374.63	18.306
374.99	17.801
375.35	17.061
375.71	18.462
376.07	18.329
376.42	17.959
376.78	18.523
377.14	18.213
377.50	18.459
377.86	18.608
378.22	18.379
378.58	18.654
378.94	18.021
379.30	18.528
379.66	19.812
380.02	18.700
380.38	18.685
380.74	18.312
381.09	19.755
381.45	18.287
381.81	19.679
382.17	19.924
382.53	19.300
382.89	20.339
383.25	20.784
383.61	20.244
383.97	19.492
384.32	20.138
384.68	19.567
385.04	20.098
385.40	19.540
385.76	20.755
386.12	20.505
386.48	21.584
386.83	20.799
387.19	21.184
387.55	22.020
387.91	20.844
388.27	21.184
388.62	21.523
388.98	21.670
389.34	21.674
389.70	22.561
390.06	20.516
390.42	21.762
390.77	21.714
391.13	21.248
391.49	21.475
391.85	21.832
392.20	21.846
392.56	22.314
392.92	21.726
393.28	22.524
393.64	22.162
393.99	23.323
394.35	22.644
394.71	23.180
395.07	22.690
395.42	22.404
395.78	23.518
396.14	23.266
396.50	22.765
396.85	22.988
397.21	22.556
397.57	23.009
397.92	23.427
398.28	23.218
398.64	22.892
399.00	22.404
399.35	22.404
399.71	21.941
400.07	23.640
400.42	22.889
400.78	23.209
401.14	23.049
401.49	23.883
401.85	22.608
402.21	23.795
402.57	23.875
402.92	22.396
403.28	23.622
403.63	23.834
403.99	23.023
404.35	24.297
404.70	22.321
405.06	22.914
405.42	22.933
405.77	22.255
406.13	22.817
406.49	22.854
406.84	23.655
407.20	23.961
407.55	23.181
407.91	24.131
408.27	22.626
408.62	23.631
408.98	23.229
409.34	23.854
409.69	23.643
410.05	23.214
410.40	22.407
410.76	23.884
411.11	23.250
411.47	22.551
411.83	23.352
412.18	23.938
412.54	22.659
412.89	23.399
413.25	23.586
413.60	23.602
413.96	22.761
414.31	24.207
414.67	23.220
415.03	23.435
415.38	22.650
415.74	24.300
416.09	23.122
416.45	23.160
416.80	23.397
417.16	24.171
417.51	23.451
417.87	23.468
418.22	23.899
418.58	23.813
418.93	23.636
419.29	23.111
419.64	23.202
420.00	24.181
420.35	22.806
420.71	23.390
421.06	23.696
421.42	24.279
421.77	23.410
422.12	22.588
422.48	23.768
422.83	23.086
423.19	23.984
423.54	22.340
423.90	24.205
424.25	23.307
424.61	23.990
424.96	23.868
425.31	24.552
425.67	23.298
426.02	23.616
426.38	24.421
426.73	24.576
427.09	24.937
427.44	24.176
427.79	23.925
428.15	23.968
428.50	24.228
428.85	23.649
429.21	24.392
429.56	24.474
429.92	24.602
430.27	23.459
430.62	23.105
430.98	23.779
431.33	24.238
431.68	23.496
432.04	24.595
432.39	23.731
432.74	23.752
433.10	25.460
433.45	22.939
433.80	23.680
434.16	23.934
434.51	23.871
434.86	24.448
435.22	24.790
435.57	24.454
435.92	23.832
436.28	23.494
436.63	24.358
436.98	24.508
437.34	24.803
437.69	25.164
438.04	24.103
438.39	23.580
438.75	25.319
439.10	24.392
439.45	24.467
439.81	23.853
440.16	24.822
440.51	24.776
440.86	25.196
441.22	23.360
441.57	25.000
441.92	24.921
442.27	24.501
442.63	24.358
442.98	25.043
443.33	24.151
443.68	24.138
444.03	25.087
444.39	24.102
444.74	25.697
445.09	24.555
445.44	24.843
445.79	24.858
446.15	25.330
446.50	24.515
446.85	24.920
447.20	24.400
447.55	25.558
447.91	23.407
448.26	25.043
448.61	24.410
448.96	25.990
449.31	24.798
449.66	24.913
450.02	24.130
450.37	24.541
450.72	24.857
451.07	26.076
451.42	24.345
451.77	24.593
452.12	24.462
452.47	24.211
452.83	24.499
453.18	25.111
453.53	25.601
453.88	24.954
454.23	24.278
454.58	24.559
454.93	25.580
455.28	23.365
455.63	24.799
455.98	24.714
456.34	24.457
456.69	25.159
457.04	25.268
457.39	25.152
457.74	25.091
458.09	23.779
458.44	24.342
458.79	24.314
459.14	24.828
459.49	24.776
459.84	24.647
460.19	24.697
460.54	24.633
460.89	25.057
461.24	25.093
461.59	24.584
461.94	24.151
462.29	25.452
462.64	25.249
462.99	25.931
463.34	23.713
463.69	25.418
464.04	24.818
464.39	24.439
464.74	24.724
465.09	24.267
465.44	24.235
465.79	24.773
466.14	24.857
466.49	24.899
466.84	25.461
467.19	25.156
467.54	24.138
467.89	24.321
468.24	24.696
468.59	25.524
468.94	24.190
469.29	24.393
469.64	25.632
469.99	26.419
470.34	24.778
470.68	26.174
471.03	25.619
471.38	24.750
471.73	25.350
472.08	24.695
472.43	25.101
472.78	24.949
473.13	25.102
473.48	25.407
473.83	25.467
474.17	25.453
474.52	24.825
474.87	25.273
475.22	25.320
475.57	24.901
475.92	26.001
476.27	26.019
476.61	26.389
476.96	24.596
477.31	26.122
477.66	24.888
478.01	24.874
478.36	24.237
478.70	25.285
479.05	25.385
479.40	25.861
479.75	24.192
480.10	24.629
480.45	25.350
480.79	26.284
481.14	26.281
481.49	24.433
481.84	25.579
482.19	23.573
482.53	25.947
482.88	25.776
483.23	25.768
483.58	24.906
483.92	25.024
484.27	24.157
484.62	25.549
484.97	24.171
485.31	25.036
485.66	23.939
486.01	23.826
486.36	23.452
486.70	24.000
487.05	24.436
487.40	24.845
487.75	24.845
488.09	24.845
488.44	25.516
488.79	25.252
489.13	26.002
489.48	26.336
489.83	25.022
490.17	25.124
490.52	25.173
490.87	24.942
491.22	25.645
491.56	25.142
491.91	25.000
492.26	25.474
492.60	25.192
492.95	26.660
493.30	25.354
493.64	25.688
493.99	25.604
494.34	25.097
494.68	25.476
495.03	24.720
495.37	25.957
495.72	25.745
496.07	25.463
496.41	25.849
496.76	25.933
497.11	24.592
497.45	25.871
497.80	26.337
498.14	25.683
498.49	26.054
498.84	26.347
499.18	25.954
499.53	25.446
499.87	25.292
500.22	25.618
500.56	25.719
500.91	25.251
501.26	25.902
501.60	25.086
501.95	25.376
502.29	25.763
502.64	25.434
502.98	25.999
503.33	25.696
503.67	25.639
504.02	26.197
504.36	25.433
504.71	26.061
505.06	25.516
505.40	25.685
505.75	26.031
506.09	25.900
506.44	26.181
506.78	26.071
507.13	25.129
507.47	25.849
507.82	25.267
508.16	25.674
508.51	26.495
508.85	26.112
509.19	25.279
509.54	26.166
509.88	26.321
510.23	26.735
510.57	26.777
510.92	24.840
511.26	25.259
511.61	25.853
511.95	26.849
512.30	26.996
512.64	26.266
512.98	26.053
513.33	25.853
513.67	25.469
514.02	27.231
514.36	27.029
514.70	26.807
515.05	27.027
515.39	26.269
515.74	27.006
516.08	27.735
516.42	27.267
516.77	27.092
517.11	26.944
517.46	27.648
517.80	26.877
518.14	26.761
518.49	25.962
518.83	26.306
519.17	25.349
519.52	27.057
519.86	27.131
520.20	26.974
520.55	26.892
520.89	27.541
521.23	26.789
521.58	27.445
521.92	27.500
522.26	26.675
522.61	27.143
522.95	28.079
523.29	27.255
523.64	26.684
523.98	27.155
524.32	25.902
524.66	27.977
525.01	27.273
525.35	28.321
525.69	27.205
526.04	26.720
526.38	28.664
526.72	26.422
527.06	27.886
527.41	27.704
527.75	26.139
528.09	27.243
528.43	27.887
528.78	27.327
529.12	27.613
529.46	27.680
529.80	27.486
530.15	27.459
530.49	28.418
530.83	27.633
531.17	26.394
531.51	27.839
531.86	26.988
532.20	27.209
532.54	26.821
532.88	28.268
533.22	26.815
533.57	26.540
533.91	26.175
534.25	28.320
534.59	27.838
534.93	27.627
535.27	27.094
535.62	27.673
535.96	27.854
536.30	27.573
536.64	28.601
536.98	26.481
537.32	27.881
537.66	28.050
538.01	28.112
538.35	27.947
538.69	27.696
539.03	27.068
539.37	26.783
539.71	26.653
540.05	27.834
540.39	28.186
540.73	27.197
541.07	27.831
541.42	27.352
541.76	27.805
542.10	26.979
542.44	27.658
542.78	26.497
543.12	26.854
543.46	26.217
543.80	27.967
544.14	26.101
544.48	26.516
544.82	27.409
545.16	28.210
545.50	27.971
545.84	28.116
546.18	28.014
546.52	26.604
546.86	27.965
547.20	27.611
547.54	26.855
547.88	27.242
548.22	26.890
548.56	26.715
548.90	28.706
549.24	26.515
549.58	27.786
549.92	26.662
550.26	27.179
550.60	28.401
550.94	27.782
551.28	27.589
551.62	28.538
551.96	28.647
552.30	28.143
552.64	26.869
552.98	28.129
553.32	27.461
553.66	26.778
554.00	28.029
554.34	27.474
554.68	28.024
555.02	28.199
555.36	27.898
555.69	26.447
556.03	27.052
556.37	24.982
556.71	26.931
557.05	26.622
557.39	27.286
557.73	27.586
558.07	27.903
558.41	27.029
558.75	27.514
559.08	28.132
559.42	26.587
559.76	27.782
560.10	27.523
560.44	26.508
560.78	27.832
561.12	27.504
561.45	28.110
561.79	26.891
562.13	27.466
562.47	26.906
562.81	28.026
563.15	27.715
563.48	27.228
563.82	29.032
564.16	26.602
564.50	26.824
564.84	27.041
565.17	26.626
565.51	27.937
565.85	27.984
566.19	27.586
566.52	28.217
566.86	27.699
567.20	26.401
567.54	27.494
567.88	27.065
568.21	27.771
568.55	26.630
568.89	26.951
569.23	25.951
569.56	26.095
569.90	26.391
570.24	25.679
570.57	25.745
570.91	26.595
571.25	24.992
571.59	24.852
571.92	24.622
572.26	24.728
572.60	25.271
572.93	25.259
573.27	25.455
573.61	25.328
573.95	24.932
574.28	24.815
574.62	24.714
574.96	24.557
575.29	24.584
575.63	23.892
575.97	24.478
576.30	25.021
576.64	24.397
576.98	24.865
577.31	24.748
577.65	24.771
577.98	24.239
578.32	24.484
578.66	23.533
578.99	24.286
579.33	24.706
579.67	24.577
580.00	24.911
580.34	24.527
580.67	24.407
581.01	24.808
581.35	24.268
581.68	23.499
582.02	24.133
582.35	23.621
582.69	24.679
583.02	24.055
583.36	24.273
583.70	24.948
584.03	25.132
584.37	25.325
584.70	25.027
585.04	24.197
585.37	24.816
585.71	24.340
586.04	24.433
586.38	24.193
586.72	24.677
587.05	24.523
587.39	24.825
587.72	25.178
588.06	25.187
588.39	24.466
588.73	24.878
589.06	25.506
589.40	24.715
589.73	25.995
590.07	25.604
590.40	25.387
590.73	26.153
591.07	25.233
591.40	25.245
591.74	25.249
592.07	26.299
592.41	25.751
592.74	25.289
593.08	24.520
593.41	24.975
593.75	24.501
594.08	24.271
594.41	24.563
594.75	25.115
595.08	25.161
595.42	24.954
595.75	25.685
596.09	24.980
596.42	25.878
596.75	25.533
597.09	25.376
597.42	25.474
597.75	25.378
598.09	24.627
598.42	25.135
598.76	24.582
599.09	25.120
599.42	24.252
599.76	24.379
600.09	24.736
600.42	24.640
600.76	24.368
601.09	24.924
601.42	24.481
601.76	24.454
602.09	24.464
602.42	25.653
602.76	25.127
603.09	24.792
603.42	25.836
603.76	24.476
604.09	24.747
604.42	24.831
604.76	25.456
605.09	25.548
605.42	25.237
605.75	24.650
606.09	24.883
606.42	24.729
606.75	24.848
607.09	25.187
607.42	24.900
607.75	24.556
608.08	24.978
608.42	24.303
608.75	25.398
609.08	25.112
609.41	25.431
609.75	25.101
610.08	25.062
610.41	24.831
610.74	25.597
611.07	25.581
611.41	25.739
611.74	26.333
612.07	24.839
612.40	25.219
612.73	25.028
613.07	25.309
613.40	25.492
613.73	24.790
614.06	26.489
614.39	25.494
614.72	25.378
615.06	25.196
615.39	25.218
615.72	24.435
616.05	25.251
616.38	24.957
616.71	26.972
617.05	26.127
617.38	27.216
617.71	26.101
618.04	25.714
618.37	26.482
618.70	26.865
619.03	26.875
619.36	25.543
619.69	26.535
620.03	27.611
620.36	27.325
620.69	25.767
621.02	25.841
621.35	26.888
621.68	27.381
622.01	26.750
622.34	26.337
622.67	27.050
623.00	25.727
623.33	25.305
623.66	25.954
623.99	26.399
624.32	26.692
624.65	26.015
624.99	26.110
625.32	25.322
625.65	27.180
625.98	27.558
626.31	25.935
626.64	27.903
626.97	26.614
627.30	27.408
627.63	26.516
627.96	27.044
628.29	26.179
628.62	27.139
628.95	27.655
629.28	28.327
629.61	25.723
629.94	27.273
630.26	27.174
630.59	28.096
630.92	28.000
631.25	26.154
631.58	28.524
631.91	25.987
632.24	27.179
632.57	28.864
632.90	26.216
633.23	29.059
633.56	28.967
633.89	29.223
634.22	26.790
634.55	29.098
634.88	28.736
635.20	26.795
635.53	28.533
635.86	27.048
636.19	29.237
636.52	26.913
636.85	26.179
637.18	27.044
637.51	28.805
637.83	27.332
638.16	29.604
638.49	26.158
638.82	29.737
639.15	29.308
639.48	25.722
639.81	29.010
640.13	28.860
640.46	28.571
640.79	27.099
641.12	29.099
641.45	29.730
641.77	27.407
642.10	28.752
642.43	29.260
642.76	29.538
643.09	30.533
643.41	27.832
643.74	28.171
644.07	28.900
644.40	30.743
644.73	29.947
645.05	29.530
645.38	30.864
645.71	28.191
646.04	30.162
646.36	29.787
646.69	30.755
647.02	30.624
647.35	29.291
647.67	28.702
648.00	32.463
648.33	29.010
648.66	28.814
648.98	26.131
649.31	28.430
649.64	28.885
649.96	26.904
650.29	30.664
650.62	28.205
650.94	26.852
651.27	27.374
651.60	31.892
651.92	30.420
652.25	27.886
652.58	27.833
652.90	30.017
653.23	27.227
653.56	27.073
653.88	30.069
654.21	25.569
654.54	29.372
654.86	30.221
655.19	27.339
655.52	27.709
655.84	22.402
656.17	24.253
656.49	33.075
656.82	34.719
657.15	26.889
657.47	20.305
657.80	15.491
658.13	15.463
658.45	24.528
658.78	24.385
659.10	24.635
659.43	25.027
659.75	26.196
660.08	25.517
660.41	29.213
660.73	26.381
661.06	31.023
661.38	27.593
661.71	27.310
662.03	30.901
662.36	27.912
662.68	31.195
663.01	31.004
663.33	28.538
663.66	27.442
663.98	30.465
664.31	28.358
664.63	27.419
664.96	26.739
665.28	27.815
665.61	27.922
665.93	30.435
666.26	30.803
666.58	25.727
666.91	29.176
667.23	29.717
667.56	30.332
667.88	31.415
668.21	28.878
668.53	32.388
668.86	30.660
669.18	29.717
669.50	27.361
669.83	28.605
670.15	31.235
670.48	30.144
670.80	28.111
671.13	25.056
671.45	25.571
671.77	28.755
672.10	28.713
672.42	29.588
672.75	31.083
673.07	30.590
673.39	28.624
673.72	26.627
674.04	25.625
674.37	29.237
674.69	30.407
675.01	27.778
675.34	30.180
675.66	31.019
675.98	29.047
676.31	27.064
676.63	27.078
676.95	29.091
677.28	27.765
677.60	31.084
677.92	31.193
678.25	27.571
678.57	26.407
678.89	26.471
679.22	29.530
679.54	25.502
679.86	27.634
680.18	27.379
680.51	25.947
680.83	27.634
681.15	29.200
681.48	29.713
681.80	29.132
682.12	27.218
682.44	28.243
682.77	28.035
683.09	25.858
683.41	27.045
683.73	29.263
684.06	28.540
684.38	27.097
684.70	30.719
685.02	24.689
685.34	25.692
685.67	24.765
685.99	26.944
686.31	27.788
686.63	26.902
686.96	27.186
687.28	24.848
687.60	28.897
687.92	28.283
688.24	26.210
688.56	25.109
688.89	31.250
689.21	27.778
689.53	27.378
689.85	27.442
690.17	25.893
690.49	28.369
690.82	27.670
691.14	26.429
691.46	26.869
691.78	27.703
692.10	26.022
692.42	25.974
692.74	26.496
693.06	29.054
693.39	25.792
693.71	26.018
694.03	27.483
694.35	27.103
694.67	27.273
694.99	25.065
695.31	28.198
695.63	28.500
695.95	26.263
696.27	26.425
696.59	29.167
696.91	26.050
697.23	26.735
697.56	26.733
697.88	27.527
698.20	23.235
698.52	25.647
698.84	25.359
699.16	26.500
699.48	27.569
699.80	24.814
700.12	26.685
700.44	28.291
700.76	23.837
701.08	24.848
701.40	29.819
701.72	30.556
702.04	26.073
702.36	26.756
702.68	26.727
703.00	29.091
703.32	27.859
703.64	25.989
703.96	28.406
704.28	26.074
704.60	26.667
704.91	23.028
705.23	32.890
705.55	32.509
705.87	32.852
706.19	25.185
706.51	25.086
706.83	30.225
707.15	21.495
707.47	30.532
707.79	25.781
708.11	27.750
708.43	27.750
708.74	27.390
709.06	27.042
709.38	29.664
709.70	29.586
710.02	27.389
710.34	27.554
710.66	24.679
710.98	25.166
711.29	28.852
711.61	25.763
711.93	28.664
712.25	26.117
712.57	30.037
712.89	25.000
713.20	29.066
713.52	26.829
713.84	28.669
714.16	25.430
714.48	26.774
714.80	29.167
715.11	29.483
715.43	25.078
715.75	26.000
716.07	26.910
716.39	25.503
716.70	25.092
717.02	26.336
717.34	31.579
717.66	28.319
717.97	26.957
718.29	31.381
718.61	25.984
718.93	25.194
719.24	31.559
719.56	28.916
719.88	24.399
720.20	28.409
720.51	26.437
720.83	28.185
721.15	28.571
721.46	28.629
721.78	26.482
722.10	26.394
722.42	19.917
722.73	24.490
723.05	31.429
723.37	28.814
723.68	28.378
724.00	29.487
724.32	28.000
724.63	22.273
724.95	24.454
725.27	26.728
725.58	25.000
725.90	23.810
726.22	26.641
726.53	28.475
726.85	27.341
727.16	29.434
727.48	23.887
727.80	27.935
728.11	27.119
728.43	25.882
728.74	21.371
729.06	24.400
729.38	31.955
729.69	23.904
730.01	23.077
730.32	26.866
730.64	24.735
730.96	27.547
731.27	24.667
731.59	24.407
731.90	24.522
732.22	24.921
732.53	29.900
732.85	27.660
733.16	29.630
733.48	25.540
733.80	25.725
734.11	25.763
734.43	26.117
734.74	21.818
735.06	22.801
735.37	27.190
735.69	26.263
736.00	20.557
736.32	26.174
736.63	24.296
736.95	26.621
737.26	25.979
737.58	23.826
737.89	25.641
738.21	26.316
738.52	31.276
738.83	26.638
739.15	26.638
739.46	24.409
739.78	26.740
740.09	27.778
740.41	23.188
740.72	23.622
741.04	28.340
741.35	27.234
741.66	22.749
741.98	22.959
742.29	28.218
742.61	25.131
742.92	25.118
743.23	17.593
743.55	27.602
743.86	27.751
744.18	26.794
744.49	26.596
744.80	22.826
745.12	33.155
745.43	20.976
745.74	26.042
746.06	27.317
746.37	30.366
746.68	25.592
747.00	29.787
747.31	30.348
747.62	22.330
747.94	27.273
748.25	27.723
748.56	22.951
748.88	25.654
749.19	30.851
749.50	25.616
749.82	22.170
750.13	32.110
750.44	25.940
750.75	27.612
751.07	26.642
751.38	26.437
751.69	20.000
752.01	25.581
752.32	26.295
752.63	20.553
752.94	26.293
753.26	30.126
753.57	22.172
753.88	25.221
754.19	21.667
754.51	19.008
754.82	24.696
755.13	30.417
755.44	24.194
755.75	25.781
756.07	26.459
756.38	21.887
756.69	20.690
757.00	25.667
757.31	27.451
757.63	22.866
757.94	22.778
758.25	21.370
758.56	22.606
758.87	22.663
759.18	21.184
759.50	23.636
759.81	24.415
760.12	24.839
760.43	23.333
760.74	23.148
761.05	20.308
761.36	23.864
761.67	24.242
761.99	26.531
762.30	24.000
762.61	26.087
762.92	22.172
763.23	22.072
763.54	20.561
763.85	23.305
764.16	23.651
764.47	27.016
764.78	23.443
765.10	25.253
765.41	23.975
765.72	24.444
766.03	18.797
766.34	26.642
766.65	30.279
766.96	28.788
767.27	23.936
767.58	20.690
767.89	29.787
768.20	23.864
768.51	19.780
768.82	24.138
769.13	23.502
769.44	23.605
769.75	21.005
770.06	25.862
770.37	23.077
770.68	29.442
770.99	24.887
771.30	27.941
771.61	27.602
771.92	27.586
772.23	24.138
772.54	26.344
772.85	33.951
773.16	25.843
773.47	38.562
773.78	30.719
774.09	27.545
774.39	29.333
774.70	29.299
775.01	25.517
775.32	27.857
775.63	20.661
775.94	32.061
776.25	36.220
776.56	26.667
776.87	27.885
777.18	17.094
777.48	29.310
777.79	27.826
778.10	29.524
778.41	26.126
778.72	30.159
779.03	27.820
779.34	24.113
779.65	26.027
779.95	21.918
780.26	26.207
780.57	24.390
780.88	24.409
781.19	22.414
781.50	20.930
781.80	21.893
782.11	21.384
782.42	22.308
782.73	14.388
783.04	25.185
783.34	22.222
783.65	22.222
783.96	23.770
784.27	28.966
784.57	36.585
784.88	28.906
785.19	25.000
785.50	41.000
785.81	31.034
786.11	26.724
786.42	18.447
786.73	30.909
787.04	24.490
787.34	30.357
787.65	25.714
787.96	13.274
788.26	30.000
788.57	25.641
788.88	22.656
789.19	19.048
789.49	23.478
789.80	19.388
790.11	26.263
790.41	20.909
790.72	25.000
791.03	25.000
791.33	23.750
791.64	13.750
791.95	23.256
792.25	22.340
792.56	33.708
792.87	24.658
793.17	28.986
793.48	17.333
793.79	6.250
794.09	28.750
794.40	32.075
794.70	26.214
795.01	17.886
795.32	29.060
795.62	26.667
795.93	21.569
796.23	20.755
796.54	36.458
796.85	44.118
797.15	25.352
797.46	36.111
797.76	31.818
798.07	26.744
798.37	27.632
798.68	22.727
798.99	29.630
799.29	21.429
799.60	21.739
799.90	29.333
800.21	31.148
800.51	30.769
800.82	15.254
801.12	34.783
801.43	4.918
801.73	50.794
802.04	34.000
802.34	41.791
802.65	28.846
802.95	17.857
803.26	15.385
803.56	29.412
803.87	41.304
804.17	38.667
804.48	47.619
804.78	16.667
805.09	23.913
805.39	37.778
805.70	29.630
806.00	7.018
806.30	23.944
806.61	12.857
806.91	18.056
807.22	30.263
807.52	26.667
807.83	20.000
808.13	18.056
808.43	23.529
808.74	17.910
809.04	25.424
809.35	1.923
809.65	25.000
809.95	-2.703
810.26	-9.091
810.56	24.658
810.86	16.667
811.17	32.000
811.47	34.694
811.77	34.211
812.08	27.273
812.38	32.075
812.69	7.500
812.99	33.333
813.29	23.684
813.59	-17.143
813.90	13.636
814.20	33.333
814.50	38.462
814.81	33.962
815.11	-2.128
815.41	35.593
815.72	45.238
816.02	45.098
816.32	20.833
816.62	7.317
816.93	10.811
817.23	48.571
817.53	31.250
817.84	10.870
818.14	21.154
818.44	26.316
818.74	30.435
819.04	10.000
819.35	24.324
819.65	38.235
819.95	13.889
820.25	9.524
820.56	50.000
820.86	-27.586
821.16	52.500
821.46	21.277
821.76	12.500
822.07	30.233
822.37	18.919
822.67	37.500
822.97	45.238
823.27	10.714
823.57	32.000
823.88	3.704
824.18	14.286
824.48	32.353
824.78	16.129
825.08	43.478
825.38	9.091
825.69	29.167
825.99	26.316
826.29	5.556
826.59	20.000
826.89	-33.333
827.19	50.000
827.49	40.000
827.79	20.000
828.09	64.286
828.39	33.333
828.70	48.649
829.00	-3.571
829.30	33.333
829.60	26.667
829.90	46.875
830.20	2.632
830.50	3.704
830.80	-4.348
831.10	31.818
831.40	30.303
831.70	58.065
832.00	19.048
832.30	9.524
832.60	66.667
832.90	-13.793
833.20	-10.000
833.50	27.273
833.80	25.926
834.10	65.385
834.40	40.625
834.70	-122.222
835.00	36.842
835.30	57.692
835.60	66.667
835.90	38.710
836.20	22.727
836.50	14.286
836.80	-7.692
837.10	14.286
837.40	100.000
837.70	0.000
838.00	-27.273
838.30	60.870
838.60	-38.462
838.90	-4.545
839.19	21.429
839.49	56.667
839.79	23.077
840.09	-33.333
840.39	39.286
840.69	35.714
840.99	7.692
841.29	-5.263
841.59	-130.000
841.88	36.364
842.18	-30.000
842.48	-25.000
842.78	20.000
843.08	22.222
843.38	20.000
843.68	47.826
843.97	-13.333
844.27	0.000
844.57	55.000
844.87	50.000
845.17	38.095
845.47	26.667
845.76	-14.286
846.06	5.882
846.36	20.000
846.66	42.857
846.96	33.333
847.25	-62.500
847.55	50.000
847.85	-25.000
848.15	-9.091
848.44	-166.667
848.74	60.000
849.04	44.444
849.34	45.455
849.63	83.333
849.93	-180.000
850.23	38.889
850.53	100.000
850.82	23.077
851.12	11.111
851.42	66.667
851.71	0.000
852.01	-14.286
852.31	-250.000
852.61	63.636
852.90	50.000
853.20	42.105
853.50	-66.667
853.79	8.696
854.09	100.000
854.39	-5.263
854.68	16.667
854.98	22.581
855.28	26.923
855.57	-40.000
855.87	38.889
856.17	55.556
856.46	-28.571
856.76	-33.333
857.05	111.111
857.35	-8.000
857.65	50.000
857.94	-30.769
858.24	10.345
858.53	27.778
858.83	62.963
859.13	54.545
859.42	-8.696
859.72	50.000
860.01	-200.000
860.31	28.000
860.60	28.571
860.90	66.667
861.20	-26.667
861.49	-350.000
861.79	-26.667
862.08	10.000
862.38	93.333
862.67	-60.000
862.97	33.333
863.26	91.667
863.56	94.444
863.85	-166.667
864.15	44.444
864.44	0.000
864.74	92.857
865.03	75.000
865.33	-180.000
865.62	83.333
865.92	16.667
866.21	-166.667
866.51	118.750
866.80	-81.818
867.10	-150.000
867.39	125.000
867.69	0.000
867.98	46.154
868.27	100.000
868.57	-13.333
868.86	-11.111
869.16	53.846
869.45	66.667
869.75	-300.000
870.04	0.000
870.33	-42.857
870.63	52.381
870.92	233.333
871.22	-20.000
871.51	200.000
871.80	88.889
872.10	133.333
>>>>>End Processed Spectral Data<<<<<
