SpectraSuite Data File
++++++++++++++++++++++++++++++++++++
Date: Fri May 15 20:07:32 PDT 2015
User: schluterlab
Dark Spectrum Present: Yes
Reference Spectrum Present: Yes
Number of Sampled Component Spectra: 1
Spectrometers: USB2E3373
Integration Time (usec): 3000 (USB2E3373)
Spectra Averaged: 3 (USB2E3373)
Boxcar Smoothing: 0 (USB2E3373)
Correct for Electrical Dark: No (USB2E3373)
Strobe/Lamp Enabled: No (USB2E3373)
Correct for Detector Non-linearity: No (USB2E3373)
Correct for Stray Light: No (USB2E3373)
Number of Pixels in Processed Spectrum: 2048
>>>>>Begin Processed Spectral Data<<<<<
178.53	0.000
178.91	0.000
179.29	62.500
179.67	-200.000
180.04	57.143
180.42	125.000
180.80	0.000
181.18	-100.000
181.56	-200.000
181.94	-100.000
182.31	900.000
182.69	40.000
183.07	-66.667
183.45	-240.000
183.83	183.333
184.20	-27.273
184.58	155.556
184.96	50.000
185.34	66.667
185.72	-250.000
186.09	107.692
186.47	100.000
186.85	33.333
187.23	100.000
187.61	800.000
187.98	0.000
188.36	155.556
188.74	366.667
189.12	41.176
189.49	38.889
189.87	0.000
190.25	35.714
190.63	-150.000
191.00	-100.000
191.38	26.316
191.76	-100.000
192.14	-75.000
192.51	-50.000
192.89	-66.667
193.27	-28.571
193.65	150.000
194.02	154.545
194.40	50.000
194.78	-75.000
195.15	50.000
195.53	-50.000
195.91	175.000
196.29	-50.000
196.66	92.308
197.04	71.429
197.42	0.000
197.79	-466.667
198.17	-107.692
198.55	2000.000
198.92	-66.667
199.30	-200.000
199.68	0.000
200.05	-466.667
200.43	0.000
200.81	-333.333
201.18	-100.000
201.56	800.000
201.94	-100.000
202.31	-66.667
202.69	-60.000
203.07	-0.000
203.44	-200.000
203.82	0.000
204.19	-35.714
204.57	-166.667
204.95	162.500
205.32	0.000
205.70	157.143
206.08	200.000
206.45	222.222
206.83	57.143
207.20	-157.143
207.58	700.000
207.96	-133.333
208.33	-20.000
208.71	-100.000
209.08	-216.667
209.46	300.000
209.84	180.000
210.21	-400.000
210.59	100.000
210.96	83.333
211.34	-50.000
211.71	80.000
212.09	-85.714
212.46	-1600.000
212.84	0.000
213.22	70.000
213.59	400.000
213.97	84.615
214.34	27.273
214.72	33.333
215.09	350.000
215.47	23.077
215.84	18.182
216.22	133.333
216.59	125.000
216.97	-50.000
217.34	50.000
217.72	20.000
218.09	-37.500
218.47	75.000
218.84	-800.000
219.22	-22.222
219.59	-20.000
219.97	100.000
220.34	325.000
220.72	200.000
221.09	-50.000
221.47	100.000
221.84	0.000
222.22	-350.000
222.59	109.091
222.97	33.333
223.34	166.667
223.72	-50.000
224.09	33.333
224.46	35.714
224.84	166.667
225.21	0.000
225.59	0.000
225.96	300.000
226.34	150.000
226.71	-28.571
227.08	-33.333
227.46	0.000
227.83	100.000
228.21	-11.111
228.58	0.000
228.95	-37.500
229.33	120.000
229.70	25.000
230.08	-25.000
230.45	-85.714
230.82	0.000
231.20	26.667
231.57	164.286
231.95	28.571
232.32	-30.000
232.69	150.000
233.07	100.000
233.44	-100.000
233.81	-60.000
234.19	33.333
234.56	35.294
234.93	-0.000
235.31	175.000
235.68	-120.000
236.05	-7.692
236.43	10.000
236.80	23.529
237.17	37.500
237.55	15.000
237.92	11.111
238.29	8.333
238.67	-23.333
239.04	-20.588
239.41	-9.756
239.79	-10.000
240.16	-2.439
240.53	23.684
240.91	0.000
241.28	14.286
241.65	25.000
242.02	16.438
242.40	21.667
242.77	11.864
243.14	6.061
243.51	15.000
243.89	29.885
244.26	10.345
244.63	17.857
245.00	18.557
245.38	9.278
245.75	8.989
246.12	12.069
246.49	16.529
246.87	13.462
247.24	8.403
247.61	7.895
247.98	14.634
248.36	16.875
248.73	15.132
249.10	8.442
249.47	13.291
249.84	22.222
250.22	15.294
250.59	16.340
250.96	20.657
251.33	16.279
251.70	20.000
252.08	12.690
252.45	12.376
252.82	15.075
253.19	14.747
253.56	11.682
253.94	13.964
254.31	18.261
254.68	17.105
255.05	15.748
255.42	17.904
255.79	18.147
256.16	17.899
256.54	17.164
256.91	17.871
257.28	14.498
257.65	16.479
258.02	15.248
258.39	21.212
258.76	16.117
259.14	13.953
259.51	17.799
259.88	12.715
260.25	14.052
260.62	17.014
260.99	13.220
261.36	13.014
261.73	17.722
262.10	17.933
262.47	18.405
262.85	15.987
263.22	16.308
263.59	16.511
263.96	15.528
264.33	13.636
264.70	14.881
265.07	17.560
265.44	16.147
265.81	16.667
266.18	17.486
266.55	16.710
266.92	19.948
267.29	15.144
267.66	15.601
268.03	15.707
268.40	14.360
268.77	16.578
269.14	16.067
269.51	17.224
269.88	15.711
270.25	14.286
270.62	13.415
270.99	13.299
271.36	14.914
271.73	16.901
272.10	15.815
272.47	14.657
272.84	15.099
273.21	19.490
273.58	16.627
273.95	14.416
274.32	15.473
274.69	14.480
275.06	17.857
275.43	13.605
275.80	16.777
276.17	15.632
276.54	16.274
276.91	14.474
277.28	13.974
277.65	16.942
278.02	16.596
278.39	14.004
278.76	16.352
279.13	14.108
279.50	16.807
279.87	15.767
280.23	14.409
280.60	17.544
280.97	15.960
281.34	14.423
281.71	16.838
282.08	14.519
282.45	15.264
282.82	14.093
283.19	14.894
283.56	15.992
283.92	14.231
284.29	15.000
284.66	13.953
285.03	12.770
285.40	13.611
285.77	13.533
286.14	13.177
286.51	16.236
286.87	13.711
287.24	13.996
287.61	13.757
287.98	16.491
288.35	13.518
288.72	16.112
289.08	13.021
289.45	14.938
289.82	13.636
290.19	14.846
290.56	13.722
290.93	13.805
291.29	12.481
291.66	15.276
292.03	14.354
292.40	13.710
292.77	12.600
293.13	10.877
293.50	12.140
293.87	14.504
294.24	13.447
294.60	14.158
294.97	12.649
295.34	10.583
295.71	12.370
296.08	12.407
296.44	11.807
296.81	12.222
297.18	10.725
297.55	14.363
297.91	11.918
298.28	11.873
298.65	10.855
299.02	11.860
299.38	9.576
299.75	11.448
300.12	11.126
300.48	10.672
300.85	11.280
301.22	10.779
301.59	10.263
301.95	12.278
302.32	12.970
302.69	9.701
303.05	9.777
303.42	11.955
303.79	12.500
304.15	11.708
304.52	10.107
304.89	11.111
305.25	10.654
305.62	11.552
305.99	10.877
306.35	10.867
306.72	9.674
307.09	12.657
307.45	10.448
307.82	10.069
308.19	12.427
308.55	11.232
308.92	10.893
309.29	11.397
309.65	9.580
310.02	10.671
310.38	10.209
310.75	10.492
311.12	12.271
311.48	12.089
311.85	13.089
312.22	11.814
312.58	12.314
312.95	10.566
313.31	13.147
313.68	12.356
314.05	12.857
314.41	14.124
314.78	13.505
315.14	14.800
315.51	13.975
315.87	13.525
316.24	15.268
316.61	15.650
316.97	14.782
317.34	15.820
317.70	15.966
318.07	16.827
318.43	17.157
318.80	17.140
319.16	17.969
319.53	17.379
319.89	17.520
320.26	18.320
320.62	19.358
320.99	19.102
321.35	21.994
321.72	21.391
322.08	20.846
322.45	22.944
322.81	22.790
323.18	23.651
323.54	24.131
323.91	25.024
324.27	25.977
324.64	26.966
325.00	28.102
325.37	30.395
325.73	28.921
326.10	30.972
326.46	31.839
326.83	33.333
327.19	33.043
327.56	35.882
327.92	35.915
328.29	36.429
328.65	36.698
329.01	38.511
329.38	39.263
329.74	39.282
330.11	40.686
330.47	42.022
330.84	42.404
331.20	46.388
331.56	43.796
331.93	45.205
332.29	45.646
332.66	45.068
333.02	45.911
333.38	44.271
333.75	47.436
334.11	45.210
334.48	46.872
334.84	46.612
335.20	46.844
335.57	46.056
335.93	47.064
336.29	47.790
336.66	47.866
337.02	47.491
337.38	48.704
337.75	48.727
338.11	49.053
338.47	49.909
338.84	48.706
339.20	49.086
339.56	50.367
339.93	49.955
340.29	49.908
340.65	49.373
341.02	48.759
341.38	49.115
341.74	49.293
342.11	47.487
342.47	50.178
342.83	50.865
343.20	48.955
343.56	50.348
343.92	51.373
344.28	48.933
344.65	52.073
345.01	50.389
345.37	50.126
345.73	50.209
346.10	49.871
346.46	49.874
346.82	50.818
347.19	49.875
347.55	49.791
347.91	50.890
348.27	49.798
348.63	52.726
349.00	51.189
349.36	50.873
349.72	50.746
350.08	51.639
350.45	50.120
350.81	50.415
351.17	49.674
351.53	51.020
351.89	49.133
352.26	50.880
352.62	51.935
352.98	50.040
353.34	49.839
353.70	50.647
354.07	50.242
354.43	49.560
354.79	51.941
355.15	51.746
355.51	52.927
355.87	49.757
356.24	50.163
356.60	50.849
356.96	51.429
357.32	51.278
357.68	51.134
358.04	52.666
358.40	51.286
358.77	51.994
359.13	52.362
359.49	50.231
359.85	52.106
360.21	51.834
360.57	51.415
360.93	51.967
361.29	50.000
361.66	52.586
362.02	53.561
362.38	52.171
362.74	53.444
363.10	54.402
363.46	53.818
363.82	53.268
364.18	51.513
364.54	52.647
364.90	53.047
365.26	52.766
365.62	54.088
365.98	53.372
366.35	53.969
366.71	54.693
367.07	53.193
367.43	53.846
367.79	53.004
368.15	52.907
368.51	54.698
368.87	54.343
369.23	52.347
369.59	54.883
369.95	55.865
370.31	53.107
370.67	54.179
371.03	53.547
371.39	54.486
371.75	55.311
372.11	54.137
372.47	55.991
372.83	56.707
373.19	55.278
373.55	54.513
373.91	55.652
374.27	56.272
374.63	55.851
374.99	56.099
375.35	54.526
375.71	57.972
376.07	57.303
376.42	57.211
376.78	56.980
377.14	55.315
377.50	58.167
377.86	57.631
378.22	57.371
378.58	58.141
378.94	56.459
379.30	57.704
379.66	57.053
380.02	57.265
380.38	57.882
380.74	57.211
381.09	59.693
381.45	57.370
381.81	58.853
382.17	58.503
382.53	58.463
382.89	60.013
383.25	59.303
383.61	58.902
383.97	58.921
384.32	59.037
384.68	59.319
385.04	58.824
385.40	59.925
385.76	62.138
386.12	61.514
386.48	61.239
386.83	60.558
387.19	61.233
387.55	60.226
387.91	60.636
388.27	60.256
388.62	59.534
388.98	59.975
389.34	61.524
389.70	61.094
390.06	59.157
390.42	61.140
390.77	61.674
391.13	60.656
391.49	62.613
391.85	60.819
392.20	60.326
392.56	61.793
392.92	61.010
393.28	61.733
393.64	61.261
393.99	62.571
394.35	62.366
394.71	62.133
395.07	60.528
395.42	60.656
395.78	62.671
396.14	60.404
396.50	62.777
396.85	61.558
397.21	60.276
397.57	60.627
397.92	60.575
398.28	61.264
398.64	59.518
399.00	61.682
399.35	60.779
399.71	58.587
400.07	60.218
400.42	60.343
400.78	61.176
401.14	61.162
401.49	61.048
401.85	61.243
402.21	61.205
402.57	62.437
402.92	59.285
403.28	60.652
403.63	61.917
403.99	60.332
404.35	60.025
404.70	59.286
405.06	59.342
405.42	60.037
405.77	60.023
406.13	60.477
406.49	60.391
406.84	61.491
407.20	60.144
407.55	59.948
407.91	60.829
408.27	59.975
408.62	59.815
408.98	59.519
409.34	61.029
409.69	58.979
410.05	59.544
410.40	60.556
410.76	60.193
411.11	61.125
411.47	60.421
411.83	60.013
412.18	60.618
412.54	58.864
412.89	58.374
413.25	59.747
413.60	59.627
413.96	58.650
414.31	58.902
414.67	59.461
415.03	59.321
415.38	59.334
415.74	59.609
416.09	59.961
416.45	59.622
416.80	59.352
417.16	61.050
417.51	60.893
417.87	59.126
418.22	61.334
418.58	61.605
418.93	61.129
419.29	58.771
419.64	60.467
420.00	61.272
420.35	60.955
420.71	61.179
421.06	60.405
421.42	59.615
421.77	61.156
422.12	59.932
422.48	59.827
422.83	60.093
423.19	61.287
423.54	61.258
423.90	61.190
424.25	62.342
424.61	62.546
424.96	61.731
425.31	62.218
425.67	62.207
426.02	63.015
426.38	63.056
426.73	62.409
427.09	63.608
427.44	63.882
427.79	63.052
428.15	62.985
428.50	63.174
428.85	62.285
429.21	63.328
429.56	63.073
429.92	62.969
430.27	61.203
430.62	62.938
430.98	63.482
431.33	64.196
431.68	63.161
432.04	64.897
432.39	64.404
432.74	62.117
433.10	64.310
433.45	64.277
433.80	65.061
434.16	64.044
434.51	64.462
434.86	66.144
435.22	65.564
435.57	66.625
435.92	66.228
436.28	63.864
436.63	64.917
436.98	63.152
437.34	65.457
437.69	65.414
438.04	66.097
438.39	66.707
438.75	66.485
439.10	65.308
439.45	67.255
439.81	65.749
440.16	67.815
440.51	67.164
440.86	67.190
441.22	66.912
441.57	67.384
441.92	67.209
442.27	66.685
442.63	66.863
442.98	67.030
443.33	66.889
443.68	67.003
444.03	68.008
444.39	66.896
444.74	68.841
445.09	66.592
445.44	68.148
445.79	68.901
446.15	67.401
446.50	66.833
446.85	67.960
447.20	67.987
447.55	69.252
447.91	68.246
448.26	67.843
448.61	69.142
448.96	69.421
449.31	68.613
449.66	68.235
450.02	68.454
450.37	68.702
450.72	68.328
451.07	69.177
451.42	68.414
451.77	67.631
452.12	66.866
452.47	67.804
452.83	67.491
453.18	67.995
453.53	68.647
453.88	69.824
454.23	68.838
454.58	69.521
454.93	69.394
455.28	65.651
455.63	69.932
455.98	69.693
456.34	69.413
456.69	68.806
457.04	70.006
457.39	69.198
457.74	69.105
458.09	67.569
458.44	69.924
458.79	68.179
459.14	69.394
459.49	69.015
459.84	69.656
460.19	70.267
460.54	69.132
460.89	70.114
461.24	70.932
461.59	69.834
461.94	69.748
462.29	69.481
462.64	71.694
462.99	69.939
463.34	69.680
463.69	69.434
464.04	68.644
464.39	70.224
464.74	69.202
465.09	71.803
465.44	71.033
465.79	68.367
466.14	69.612
466.49	69.523
466.84	69.601
467.19	70.463
467.54	70.754
467.89	71.320
468.24	69.586
468.59	70.794
468.94	70.222
469.29	69.377
469.64	70.608
469.99	72.390
470.34	69.420
470.68	70.694
471.03	70.984
471.38	70.899
471.73	71.989
472.08	70.556
472.43	71.007
472.78	69.979
473.13	71.837
473.48	70.554
473.83	69.676
474.17	70.078
474.52	69.943
474.87	70.970
475.22	69.616
475.57	70.582
475.92	70.269
476.27	71.362
476.61	71.875
476.96	68.823
477.31	71.823
477.66	70.449
478.01	71.589
478.36	69.717
478.70	71.724
479.05	70.604
479.40	71.489
479.75	70.125
480.10	70.917
480.45	72.150
480.79	72.256
481.14	71.414
481.49	70.837
481.84	70.608
482.19	70.299
482.53	71.319
482.88	71.360
483.23	71.497
483.58	70.519
483.92	70.136
484.27	69.417
484.62	71.224
484.97	71.310
485.31	70.845
485.66	68.189
486.01	69.456
486.36	69.554
486.70	70.523
487.05	71.454
487.40	70.967
487.75	70.732
488.09	70.519
488.44	70.392
488.79	71.199
489.13	71.434
489.48	71.740
489.83	70.762
490.17	70.787
490.52	70.485
490.87	70.847
491.22	71.347
491.56	70.256
491.91	70.220
492.26	72.533
492.60	71.305
492.95	72.651
493.30	69.761
493.64	71.562
493.99	71.208
494.34	71.165
494.68	71.857
495.03	70.024
495.37	71.099
495.72	71.075
496.07	72.244
496.41	69.906
496.76	71.580
497.11	70.098
497.45	72.267
497.80	73.360
498.14	70.045
498.49	71.661
498.84	72.006
499.18	72.440
499.53	71.131
499.87	71.547
500.22	71.958
500.56	72.668
500.91	72.540
501.26	71.379
501.60	71.520
501.95	71.033
502.29	71.864
502.64	70.994
502.98	72.373
503.33	70.701
503.67	72.000
504.02	71.408
504.36	73.330
504.71	71.667
505.06	72.521
505.40	72.081
505.75	73.144
506.09	71.211
506.44	72.844
506.78	73.724
507.13	71.665
507.47	71.123
507.82	71.421
508.16	71.632
508.51	72.141
508.85	71.743
509.19	71.794
509.54	71.850
509.88	72.114
510.23	73.642
510.57	73.757
510.92	69.883
511.26	72.504
511.61	72.992
511.95	73.260
512.30	73.448
512.64	72.677
512.98	72.712
513.33	72.524
513.67	71.745
514.02	73.799
514.36	72.857
514.70	74.767
515.05	73.796
515.39	73.377
515.74	73.653
516.08	72.744
516.42	73.498
516.77	73.493
517.11	74.303
517.46	74.446
517.80	73.421
518.14	73.791
518.49	71.454
518.83	72.783
519.17	72.832
519.52	71.758
519.86	72.749
520.20	73.998
520.55	73.984
520.89	74.529
521.23	74.414
521.58	74.511
521.92	73.974
522.26	72.544
522.61	73.182
522.95	76.424
523.29	73.189
523.64	73.253
523.98	75.373
524.32	73.518
524.66	74.904
525.01	73.831
525.35	73.558
525.69	75.354
526.04	74.537
526.38	74.254
526.72	72.793
527.06	72.827
527.41	75.396
527.75	74.531
528.09	72.691
528.43	74.477
528.78	73.333
529.12	72.387
529.46	74.984
529.80	72.704
530.15	73.663
530.49	74.276
530.83	76.197
531.17	73.136
531.51	74.145
531.86	73.215
532.20	74.391
532.54	72.498
532.88	72.964
533.22	74.664
533.57	71.822
533.91	73.433
534.25	74.805
534.59	72.931
534.93	72.058
535.27	73.223
535.62	74.012
535.96	73.646
536.30	73.417
536.64	73.191
536.98	72.125
537.32	74.964
537.66	72.370
538.01	73.706
538.35	73.232
538.69	72.503
539.03	72.659
539.37	70.794
539.71	72.870
540.05	75.017
540.39	72.091
540.73	74.128
541.07	73.412
541.42	72.513
541.76	72.608
542.10	72.058
542.44	74.566
542.78	71.714
543.12	73.626
543.46	73.366
543.80	73.144
544.14	70.561
544.48	72.885
544.82	73.342
545.16	73.770
545.50	71.228
545.84	74.079
546.18	73.546
546.52	72.531
546.86	74.047
547.20	73.605
547.54	71.661
547.88	73.777
548.22	71.072
548.56	72.625
548.90	73.181
549.24	72.934
549.58	72.638
549.92	73.052
550.26	73.480
550.60	72.862
550.94	73.488
551.28	74.034
551.62	76.538
551.96	73.835
552.30	74.561
552.64	72.496
552.98	72.785
553.32	74.108
553.66	72.714
554.00	74.453
554.34	74.594
554.68	73.673
555.02	73.958
555.36	74.720
555.69	74.432
556.03	73.590
556.37	73.594
556.71	72.996
557.05	74.870
557.39	72.268
557.73	75.187
558.07	73.831
558.41	75.268
558.75	74.435
559.08	74.310
559.42	73.810
559.76	76.141
560.10	74.618
560.44	75.279
560.78	75.455
561.12	74.824
561.45	75.966
561.79	75.210
562.13	75.302
562.47	74.820
562.81	75.720
563.15	73.484
563.48	75.318
563.82	73.644
564.16	73.468
564.50	72.635
564.84	74.565
565.17	72.502
565.51	74.727
565.85	75.309
566.19	73.475
566.52	74.531
566.86	73.843
567.20	73.412
567.54	75.426
567.88	74.224
568.21	74.321
568.55	74.402
568.89	73.101
569.23	74.194
569.56	72.811
569.90	73.366
570.24	71.232
570.57	72.255
570.91	72.325
571.25	71.095
571.59	71.006
571.92	70.163
572.26	70.894
572.60	71.845
572.93	70.286
573.27	71.129
573.61	70.436
573.95	70.617
574.28	70.683
574.62	70.175
574.96	69.833
575.29	70.040
575.63	69.604
575.97	70.019
576.30	70.509
576.64	69.722
576.98	70.734
577.31	70.804
577.65	70.986
577.98	70.013
578.32	69.677
578.66	69.590
578.99	69.864
579.33	69.523
579.67	69.493
580.00	70.278
580.34	70.721
580.67	70.252
581.01	70.197
581.35	69.940
581.68	70.065
582.02	69.591
582.35	70.121
582.69	70.666
583.02	70.305
583.36	70.925
583.70	71.288
584.03	72.310
584.37	72.671
584.70	71.401
585.04	70.259
585.37	70.246
585.71	71.266
586.04	70.373
586.38	70.872
586.72	72.425
587.05	72.559
587.39	72.211
587.72	72.854
588.06	72.239
588.39	72.857
588.73	72.222
589.06	73.386
589.40	73.142
589.73	73.494
590.07	73.565
590.40	73.181
590.73	74.135
591.07	73.198
591.40	73.464
591.74	74.434
592.07	74.814
592.41	73.454
592.74	72.362
593.08	71.079
593.41	72.224
593.75	72.457
594.08	71.644
594.41	72.744
594.75	73.321
595.08	72.796
595.42	74.015
595.75	74.202
596.09	73.808
596.42	74.452
596.75	73.668
597.09	74.305
597.42	73.351
597.75	74.301
598.09	72.974
598.42	71.886
598.76	71.943
599.09	72.516
599.42	71.353
599.76	72.235
600.09	71.983
600.42	72.934
600.76	72.957
601.09	72.252
601.42	72.425
601.76	72.052
602.09	73.267
602.42	74.558
602.76	73.430
603.09	74.128
603.42	74.457
603.76	72.863
604.09	73.107
604.42	73.731
604.76	73.965
605.09	74.177
605.42	72.506
605.75	72.723
606.09	72.696
606.42	72.477
606.75	71.688
607.09	72.132
607.42	73.062
607.75	72.425
608.08	71.024
608.42	72.407
608.75	74.747
609.08	74.340
609.41	74.061
609.75	73.034
610.08	74.588
610.41	73.816
610.74	74.305
611.07	74.574
611.41	76.025
611.74	75.160
612.07	74.465
612.40	73.906
612.73	75.537
613.07	74.241
613.40	73.742
613.73	73.755
614.06	74.124
614.39	73.322
614.72	73.613
615.06	73.520
615.39	73.308
615.72	72.228
616.05	74.246
616.38	72.934
616.71	75.780
617.05	75.664
617.38	74.419
617.71	75.031
618.04	75.048
618.37	74.212
618.70	76.172
619.03	75.139
619.36	74.964
619.69	76.497
620.03	77.429
620.36	75.393
620.69	74.732
621.02	75.306
621.35	77.925
621.68	77.636
622.01	77.667
622.34	76.856
622.67	76.735
623.00	76.646
623.33	76.220
623.66	75.393
623.99	75.416
624.32	75.513
624.65	76.992
624.99	74.417
625.32	74.071
625.65	77.376
625.98	77.679
626.31	74.065
626.64	76.690
626.97	75.131
627.30	75.832
627.63	75.823
627.96	76.819
628.29	76.596
628.62	79.548
628.95	76.854
629.28	80.444
629.61	77.667
629.94	77.028
630.26	76.383
630.59	77.836
630.92	76.410
631.25	77.128
631.58	78.524
631.91	78.509
632.24	79.014
632.57	79.432
632.90	80.071
633.23	76.588
633.56	82.242
633.89	80.641
634.22	82.593
634.55	80.686
634.88	79.949
635.20	80.000
635.53	79.467
635.86	80.364
636.19	80.078
636.52	82.526
636.85	79.529
637.18	76.604
637.51	76.478
637.83	78.844
638.16	83.356
638.49	78.883
638.82	79.474
639.15	79.783
639.48	81.843
639.81	77.964
640.13	79.798
640.46	82.070
640.79	81.591
641.12	77.843
641.45	80.931
641.77	79.704
642.10	82.464
642.43	79.582
642.76	82.013
643.09	78.029
643.41	78.964
643.74	78.254
644.07	82.266
644.40	81.250
644.73	80.035
645.05	79.195
645.38	84.480
645.71	81.560
646.04	82.765
646.36	80.319
646.69	83.633
647.02	83.554
647.35	80.970
647.67	79.525
648.00	82.090
648.33	77.133
648.66	82.373
648.98	78.224
649.31	79.835
649.64	77.865
649.96	78.930
650.29	80.239
650.62	76.581
650.94	80.926
651.27	79.330
651.60	79.820
651.92	78.671
652.25	77.620
652.58	78.000
652.90	80.789
653.23	77.143
653.56	78.173
653.88	79.725
654.21	77.058
654.54	77.080
654.86	81.154
655.19	75.292
655.52	75.542
655.84	69.022
656.17	75.858
656.49	99.275
656.82	100.000
657.15	87.211
657.47	61.136
657.80	46.336
658.13	45.944
658.45	71.394
658.78	72.155
659.10	70.847
659.43	71.392
659.75	73.902
660.08	72.483
660.41	75.383
660.73	75.967
661.06	80.069
661.38	78.865
661.71	76.181
662.03	81.545
662.36	81.758
662.68	81.858
663.01	82.969
663.33	81.439
663.66	82.326
663.98	81.860
664.31	77.612
664.63	80.645
664.96	74.783
665.28	77.704
665.61	79.004
665.93	81.087
666.26	79.610
666.58	80.537
666.91	83.529
667.23	81.132
667.56	80.332
667.88	78.417
668.21	78.282
668.53	80.615
668.86	79.953
669.18	77.594
669.50	78.208
669.83	79.070
670.15	78.788
670.48	78.230
670.80	76.498
671.13	76.734
671.45	76.712
671.77	79.185
672.10	74.851
672.42	78.090
672.75	75.666
673.07	77.281
673.39	77.064
673.72	74.359
674.04	76.250
674.37	77.542
674.69	78.373
675.01	79.111
675.34	76.351
675.66	79.630
675.98	75.831
676.31	79.128
676.63	80.998
676.95	76.364
677.28	79.294
677.60	80.241
677.92	77.294
678.25	77.462
678.57	77.273
678.89	77.521
679.22	83.445
679.54	74.699
679.86	73.559
680.18	74.757
680.51	73.106
680.83	75.746
681.15	73.800
681.48	77.459
681.80	78.512
682.12	75.403
682.44	76.360
682.77	79.470
683.09	74.828
683.41	72.273
683.73	77.189
684.06	73.894
684.38	78.280
684.70	79.521
685.02	76.763
685.34	75.889
685.67	74.484
685.99	75.407
686.31	74.867
686.63	75.139
686.96	70.913
687.28	76.364
687.60	72.624
687.92	75.556
688.24	74.798
688.56	77.729
688.89	75.670
689.21	78.444
689.53	73.550
689.85	76.512
690.17	75.893
690.49	75.650
690.82	79.369
691.14	73.571
691.46	78.271
691.78	77.027
692.10	72.688
692.42	72.511
692.74	73.077
693.06	72.973
693.39	75.792
693.71	73.529
694.03	75.058
694.35	74.533
694.67	77.273
694.99	74.674
695.31	78.329
695.63	74.250
695.95	76.010
696.27	76.684
696.59	78.889
696.91	73.950
697.23	75.321
697.56	75.495
697.88	70.753
698.20	71.982
698.52	72.000
698.84	74.163
699.16	74.000
699.48	73.183
699.80	74.194
700.12	71.429
700.44	73.669
700.76	72.965
701.08	70.303
701.40	73.494
701.72	79.938
702.04	75.578
702.36	81.605
702.68	72.973
703.00	81.515
703.32	72.434
703.64	73.446
703.96	73.623
704.28	74.540
704.60	78.095
704.91	77.287
705.23	72.425
705.55	80.565
705.87	79.422
706.19	71.111
706.51	72.509
706.83	78.457
707.15	71.028
707.47	73.109
707.79	73.958
708.11	72.500
708.43	71.000
708.74	70.801
709.06	75.775
709.38	77.064
709.70	73.964
710.02	71.656
710.34	73.065
710.66	70.833
710.98	70.861
711.29	78.361
711.61	75.593
711.93	74.919
712.25	76.632
712.57	75.824
712.89	73.134
713.20	71.280
713.52	71.429
713.84	73.038
714.16	71.134
714.48	71.935
714.80	72.436
715.11	70.517
715.43	71.160
715.75	74.333
716.07	71.096
716.39	68.792
716.70	72.694
717.02	70.611
717.34	75.709
717.66	74.779
717.97	71.304
718.29	76.987
718.61	68.898
718.93	69.380
719.24	73.004
719.56	77.108
719.88	65.979
720.20	70.833
720.51	70.498
720.83	69.884
721.15	72.269
721.46	74.194
721.78	67.984
722.10	64.684
722.42	67.635
722.73	73.469
723.05	77.143
723.37	78.390
723.68	71.622
724.00	70.085
724.32	69.333
724.63	70.909
724.95	75.109
725.27	73.272
725.58	73.305
725.90	70.238
726.22	76.062
726.53	63.390
726.85	72.285
727.16	77.358
727.48	65.182
727.80	74.089
728.11	72.881
728.43	75.294
728.74	66.129
729.06	70.800
729.38	72.180
729.69	67.729
730.01	63.077
730.32	73.881
730.64	71.378
730.96	70.566
731.27	66.333
731.59	65.763
731.90	66.561
732.22	70.347
732.53	68.771
732.85	69.149
733.16	68.687
733.48	70.863
733.80	67.391
734.11	62.712
734.43	69.072
734.74	64.545
735.06	69.381
735.37	67.372
735.69	73.737
736.00	71.080
736.32	64.430
736.63	71.831
736.95	66.894
737.26	67.616
737.58	62.416
737.89	64.835
738.21	68.421
738.52	73.251
738.83	67.686
739.15	68.122
739.46	69.685
739.78	63.004
740.09	65.359
740.41	68.478
740.72	65.354
741.04	70.850
741.35	67.234
741.66	66.825
741.98	67.857
742.29	71.287
742.61	70.157
742.92	62.559
743.23	58.333
743.55	64.253
743.86	68.421
744.18	67.464
744.49	69.681
744.80	70.109
745.12	73.797
745.43	66.829
745.74	71.875
746.06	65.366
746.37	72.251
746.68	65.877
747.00	68.617
747.31	76.119
747.62	69.417
747.94	64.115
748.25	67.822
748.56	75.956
748.88	72.775
749.19	71.277
749.50	66.995
749.82	66.981
750.13	65.596
750.44	67.669
750.75	70.149
751.07	71.168
751.38	66.667
751.69	63.922
752.01	65.504
752.32	64.542
752.63	70.751
752.94	66.379
753.26	73.222
753.57	67.421
753.88	64.159
754.19	65.000
754.51	67.769
754.82	64.777
755.13	70.000
755.44	64.516
755.75	67.578
756.07	66.148
756.38	64.906
756.69	67.433
757.00	59.333
757.31	61.765
757.63	59.146
757.94	57.778
758.25	59.726
758.56	60.638
758.87	58.074
759.18	59.502
759.50	62.182
759.81	64.883
760.12	60.968
760.43	62.727
760.74	67.284
761.05	63.077
761.36	62.500
761.67	64.545
761.99	64.286
762.30	57.818
762.61	59.289
762.92	64.706
763.23	61.261
763.54	62.617
763.85	63.559
764.16	58.921
764.47	64.516
764.78	57.143
765.10	63.973
765.41	59.621
765.72	60.952
766.03	60.526
766.34	59.489
766.65	69.721
766.96	67.172
767.27	62.766
767.58	59.195
767.89	58.865
768.20	59.659
768.51	65.385
768.82	62.562
769.13	60.829
769.44	55.794
769.75	62.557
770.06	57.759
770.37	62.981
770.68	63.452
770.99	57.466
771.30	71.569
771.61	62.443
771.92	55.603
772.23	67.488
772.54	66.129
772.85	67.901
773.16	61.236
773.47	76.471
773.78	73.856
774.09	60.479
774.39	60.000
774.70	60.510
775.01	68.276
775.32	62.857
775.63	61.983
775.94	55.725
776.25	66.929
776.56	57.500
776.87	66.346
777.18	59.829
777.48	56.034
777.79	59.130
778.10	60.952
778.41	55.856
778.72	61.111
779.03	53.383
779.34	56.738
779.65	65.068
779.95	58.219
780.26	55.172
780.57	58.537
780.88	68.504
781.19	71.552
781.50	60.465
781.80	59.172
782.11	59.119
782.42	64.615
782.73	67.626
783.04	59.259
783.34	59.028
783.65	49.573
783.96	60.656
784.27	68.276
784.57	56.911
784.88	51.562
785.19	68.000
785.50	65.000
785.81	56.897
786.11	55.172
786.42	62.136
786.73	60.000
787.04	59.184
787.34	56.250
787.65	52.381
787.96	50.442
788.26	52.727
788.57	59.829
788.88	60.156
789.19	57.143
789.49	56.522
789.80	62.245
790.11	62.626
790.41	56.364
790.72	63.043
791.03	51.136
791.33	75.000
791.64	67.500
791.95	56.977
792.25	63.830
792.56	65.169
792.87	38.356
793.17	68.116
793.48	45.333
793.79	48.750
794.09	58.750
794.40	67.925
794.70	54.369
795.01	49.593
795.32	49.573
795.62	65.714
795.93	57.843
796.23	56.604
796.54	60.417
796.85	70.588
797.15	43.662
797.46	69.444
797.76	63.636
798.07	58.140
798.37	48.684
798.68	48.485
798.99	54.321
799.29	54.286
799.60	65.217
799.90	58.667
800.21	68.852
800.51	53.846
800.82	54.237
801.12	60.870
801.43	72.131
801.73	76.190
802.04	62.000
802.34	53.731
802.65	28.846
802.95	33.929
803.26	42.308
803.56	45.098
803.87	36.957
804.17	53.333
804.48	60.317
804.78	48.148
805.09	60.870
805.39	64.444
805.70	57.407
806.00	40.351
806.30	46.479
806.61	64.286
806.91	41.667
807.22	64.474
807.52	42.667
807.83	49.091
808.13	56.944
808.43	60.294
808.74	47.761
809.04	54.237
809.35	67.308
809.65	56.250
809.95	32.432
810.26	40.909
810.56	31.507
810.86	50.000
811.17	66.000
811.47	55.102
811.77	81.579
812.08	36.364
812.38	39.623
812.69	47.500
812.99	54.545
813.29	86.842
813.59	62.857
813.90	52.273
814.20	69.231
814.50	57.692
814.81	56.604
815.11	36.170
815.41	55.932
815.72	45.238
816.02	39.216
816.32	58.333
816.62	19.512
816.93	59.459
817.23	60.000
817.53	39.583
817.84	52.174
818.14	50.000
818.44	39.474
818.74	60.870
819.04	27.500
819.35	35.135
819.65	55.882
819.95	33.333
820.25	64.286
820.56	47.500
820.86	51.724
821.16	57.500
821.46	57.447
821.76	65.000
822.07	44.186
822.37	24.324
822.67	75.000
822.97	83.333
823.27	60.714
823.57	68.000
823.88	77.778
824.18	64.286
824.48	64.706
824.78	54.839
825.08	0.000
825.38	48.485
825.69	8.333
825.99	44.737
826.29	33.333
826.59	66.667
826.89	33.333
827.19	41.304
827.49	47.500
827.79	34.286
828.09	39.286
828.39	48.485
828.70	56.757
829.00	50.000
829.30	4.762
829.60	56.667
829.90	59.375
830.20	47.368
830.50	40.741
830.80	43.478
831.10	36.364
831.40	69.697
831.70	41.935
832.00	52.381
832.30	4.762
832.60	8.333
832.90	34.483
833.20	-15.000
833.50	66.667
833.80	51.852
834.10	76.923
834.40	62.500
834.70	144.444
835.00	26.316
835.30	107.692
835.60	46.667
835.90	58.065
836.20	127.273
836.50	50.000
836.80	0.000
837.10	21.429
837.40	0.000
837.70	18.182
838.00	54.545
838.30	78.261
838.60	138.462
838.90	95.455
839.19	50.000
839.49	60.000
839.79	-46.154
840.09	-8.333
840.39	85.714
840.69	28.571
840.99	-7.692
841.29	10.526
841.59	10.000
841.88	45.455
842.18	30.000
842.48	93.750
842.78	60.000
843.08	55.556
843.38	-70.000
843.68	56.522
843.97	33.333
844.27	6.667
844.57	35.000
844.87	33.333
845.17	-9.524
845.47	60.000
845.76	0.000
846.06	64.706
846.36	50.000
846.66	50.000
846.96	93.333
847.25	-37.500
847.55	35.714
847.85	25.000
848.15	-4.545
848.44	-200.000
848.74	35.000
849.04	62.963
849.34	90.909
849.63	-166.667
849.93	40.000
850.23	44.444
850.53	60.000
850.82	53.846
851.12	133.333
851.42	66.667
851.71	30.769
852.01	42.857
852.31	50.000
852.61	-18.182
852.90	15.000
853.20	-10.526
853.50	0.000
853.79	39.130
854.09	66.667
854.39	31.579
854.68	62.500
854.98	32.258
855.28	73.077
855.57	50.000
855.87	72.222
856.17	70.370
856.46	35.714
856.76	0.000
857.05	77.778
857.35	60.000
857.65	22.222
857.94	0.000
858.24	65.517
858.53	33.333
858.83	74.074
859.13	-9.091
859.42	8.696
859.72	-225.000
860.01	166.667
860.31	60.000
860.60	19.048
860.90	-433.333
861.20	-20.000
861.49	-150.000
861.79	40.000
862.08	10.000
862.38	113.333
862.67	-200.000
862.97	33.333
863.26	100.000
863.56	77.778
863.85	-300.000
864.15	144.444
864.44	60.000
864.74	71.429
865.03	175.000
865.33	-180.000
865.62	50.000
865.92	-33.333
866.21	-100.000
866.51	18.750
866.80	27.273
867.10	-50.000
867.39	91.667
867.69	0.000
867.98	38.462
868.27	33.333
868.57	-6.667
868.86	-11.111
869.16	53.846
869.45	46.667
869.75	-900.000
870.04	0.000
870.33	-42.857
870.63	76.190
870.92	466.667
871.22	-220.000
871.51	400.000
871.80	122.222
872.10	200.000
>>>>>End Processed Spectral Data<<<<<
