SpectraSuite Data File
++++++++++++++++++++++++++++++++++++
Date: Fri May 15 20:03:32 PDT 2015
User: schluterlab
Dark Spectrum Present: Yes
Reference Spectrum Present: Yes
Number of Sampled Component Spectra: 1
Spectrometers: USB2E3373
Integration Time (usec): 3000 (USB2E3373)
Spectra Averaged: 3 (USB2E3373)
Boxcar Smoothing: 0 (USB2E3373)
Correct for Electrical Dark: No (USB2E3373)
Strobe/Lamp Enabled: No (USB2E3373)
Correct for Detector Non-linearity: No (USB2E3373)
Correct for Stray Light: No (USB2E3373)
Number of Pixels in Processed Spectrum: 2048
>>>>>Begin Processed Spectral Data<<<<<
178.53	0.000
178.91	0.000
179.29	62.500
179.67	-450.000
180.04	-100.000
180.42	175.000
180.80	-500.000
181.18	-100.000
181.56	-300.000
181.94	-50.000
182.31	300.000
182.69	100.000
183.07	33.333
183.45	-80.000
183.83	-16.667
184.20	127.273
184.58	122.222
184.96	-275.000
185.34	-166.667
185.72	0.000
186.09	15.385
186.47	200.000
186.85	-66.667
187.23	55.556
187.61	-800.000
187.98	166.667
188.36	133.333
188.74	-33.333
189.12	100.000
189.49	55.556
189.87	0.000
190.25	71.429
190.63	250.000
191.00	200.000
191.38	47.368
191.76	600.000
192.14	75.000
192.51	100.000
192.89	55.556
193.27	-14.286
193.65	-16.667
194.02	81.818
194.40	30.000
194.78	-100.000
195.15	33.333
195.53	-175.000
195.91	325.000
196.29	-50.000
196.66	76.923
197.04	100.000
197.42	33.333
197.79	-233.333
198.17	-15.385
198.55	800.000
198.92	0.000
199.30	700.000
199.68	60.000
200.05	66.667
200.43	0.000
200.81	33.333
201.18	-66.667
201.56	400.000
201.94	0.000
202.31	-300.000
202.69	-60.000
203.07	100.000
203.44	900.000
203.82	0.000
204.19	35.714
204.57	-200.000
204.95	12.500
205.32	50.000
205.70	-28.571
206.08	100.000
206.45	133.333
206.83	135.714
207.20	-57.143
207.58	-100.000
207.96	-200.000
208.33	-30.000
208.71	175.000
209.08	-116.667
209.46	-900.000
209.84	200.000
210.21	-300.000
210.59	171.429
210.96	-33.333
211.34	175.000
211.71	20.000
212.09	57.143
212.46	-1400.000
212.84	0.000
213.22	140.000
213.59	400.000
213.97	107.692
214.34	227.273
214.72	33.333
215.09	400.000
215.47	-46.154
215.84	9.091
216.22	333.333
216.59	12.500
216.97	300.000
217.34	75.000
217.72	-260.000
218.09	125.000
218.47	100.000
218.84	0.000
219.22	11.111
219.59	40.000
219.97	166.667
220.34	100.000
220.72	142.857
221.09	50.000
221.47	150.000
221.84	-350.000
222.22	-250.000
222.59	72.727
222.97	66.667
223.34	33.333
223.72	0.000
224.09	38.095
224.46	39.286
224.84	133.333
225.21	-60.000
225.59	26.667
225.96	550.000
226.34	275.000
226.71	-14.286
227.08	-133.333
227.46	12.500
227.83	-400.000
228.21	66.667
228.58	63.636
228.95	0.000
229.33	80.000
229.70	0.000
230.08	-37.500
230.45	-57.143
230.82	100.000
231.20	33.333
231.57	57.143
231.95	14.286
232.32	-40.000
232.69	0.000
233.07	-33.333
233.44	-80.000
233.81	30.000
234.19	66.667
234.56	5.882
234.93	-100.000
235.31	275.000
235.68	-220.000
236.05	-23.077
236.43	-5.000
236.80	58.824
237.17	53.125
237.55	30.000
237.92	33.333
238.29	47.222
238.67	36.667
239.04	29.412
239.41	4.878
239.79	40.000
240.16	26.829
240.53	42.105
240.91	32.609
241.28	23.810
241.65	41.071
242.02	47.945
242.40	53.333
242.77	33.898
243.14	18.182
243.51	26.250
243.89	41.379
244.26	33.333
244.63	38.095
245.00	30.928
245.38	44.330
245.75	25.843
246.12	19.828
246.49	35.537
246.87	35.577
247.24	27.731
247.61	24.561
247.98	35.772
248.36	35.625
248.73	38.158
249.10	28.571
249.47	39.873
249.84	37.908
250.22	38.235
250.59	33.987
250.96	35.211
251.33	33.721
251.70	37.059
252.08	36.041
252.45	34.653
252.82	33.166
253.19	37.327
253.56	30.374
253.94	31.532
254.31	37.391
254.68	39.035
255.05	32.283
255.42	37.555
255.79	34.363
256.16	34.630
256.54	32.836
256.91	37.643
257.28	31.227
257.65	29.963
258.02	33.688
258.39	34.343
258.76	38.462
259.14	35.880
259.51	36.246
259.88	35.739
260.25	34.314
260.62	34.375
260.99	31.864
261.36	32.534
261.73	38.924
262.10	39.818
262.47	36.196
262.85	34.483
263.22	29.231
263.59	36.137
263.96	39.752
264.33	30.606
264.70	32.143
265.07	37.202
265.44	37.960
265.81	38.136
266.18	36.066
266.55	32.905
266.92	34.456
267.29	37.076
267.66	34.783
268.03	34.031
268.40	32.115
268.77	40.374
269.14	34.053
269.51	35.733
269.88	34.165
270.25	34.949
270.62	33.902
270.99	35.294
271.36	31.296
271.73	33.803
272.10	35.036
272.47	34.515
272.84	33.911
273.21	35.963
273.58	33.494
273.95	32.952
274.32	33.949
274.69	32.353
275.06	34.821
275.43	29.932
275.80	34.658
276.17	37.241
276.54	31.263
276.91	36.623
277.28	33.406
277.65	32.851
278.02	32.979
278.39	33.042
278.76	33.753
279.13	29.461
279.50	34.664
279.87	32.829
280.23	30.753
280.60	31.579
280.97	34.545
281.34	31.923
281.71	35.934
282.08	33.742
282.45	30.920
282.82	30.888
283.19	31.528
283.56	30.636
283.92	29.602
284.29	32.500
284.66	31.783
285.03	32.220
285.40	32.514
285.77	28.647
286.14	31.588
286.51	34.317
286.87	28.154
287.24	32.044
287.61	29.982
287.98	32.281
288.35	31.023
288.72	30.648
289.08	29.167
289.45	31.283
289.82	30.420
290.19	29.693
290.56	28.816
290.93	28.788
291.29	26.965
291.66	27.874
292.03	26.794
292.40	29.516
292.77	25.359
293.13	25.812
293.50	25.493
293.87	27.634
294.24	26.893
294.60	26.080
294.97	26.935
295.34	25.153
295.71	26.230
296.08	23.318
296.44	24.609
296.81	25.417
297.18	25.507
297.55	25.881
297.91	23.699
298.28	26.385
298.65	23.881
299.02	23.720
299.38	24.077
299.75	24.828
300.12	23.953
300.48	23.584
300.85	24.461
301.22	22.597
301.59	24.211
301.95	24.557
302.32	25.162
302.69	22.886
303.05	22.772
303.42	24.284
303.79	24.650
304.15	24.612
304.52	22.473
304.89	22.339
305.25	22.760
305.62	21.820
305.99	22.807
306.35	23.237
306.72	22.610
307.09	24.287
307.45	22.273
307.82	23.727
308.19	24.158
308.55	23.446
308.92	24.837
309.29	24.469
309.65	24.220
310.02	24.312
310.38	25.796
310.75	25.464
311.12	25.296
311.48	24.602
311.85	24.084
312.22	24.578
312.58	26.433
312.95	26.681
313.31	26.708
313.68	24.921
314.05	27.959
314.41	27.320
314.78	26.495
315.14	26.824
315.51	29.089
315.87	27.357
316.24	30.131
316.61	29.823
316.97	29.365
317.34	29.102
317.70	30.115
318.07	30.769
318.43	31.765
318.80	32.008
319.16	33.203
319.53	33.048
319.89	33.169
320.26	34.211
320.62	34.704
320.99	34.551
321.35	34.635
321.72	35.722
322.08	36.556
322.45	37.563
322.81	37.525
323.18	36.605
323.54	38.127
323.91	38.462
324.27	42.871
324.64	43.446
325.00	44.069
325.37	45.730
325.73	45.603
326.10	47.502
326.46	48.789
326.83	47.944
327.19	50.044
327.56	50.217
327.92	52.025
328.29	52.232
328.65	54.528
329.01	54.688
329.38	55.853
329.74	55.430
330.11	58.943
330.47	56.030
330.84	57.788
331.20	62.452
331.56	59.074
331.93	63.196
332.29	60.953
332.66	60.905
333.02	62.082
333.38	61.412
333.75	63.004
334.11	63.205
334.48	64.733
334.84	62.637
335.20	65.782
335.57	62.647
335.93	65.312
336.29	66.298
336.66	64.759
337.02	65.799
337.38	63.241
337.75	67.091
338.11	66.727
338.47	68.704
338.84	69.039
339.20	67.185
339.56	68.991
339.93	66.697
340.29	68.991
340.65	68.011
341.02	68.706
341.38	67.168
341.74	67.138
342.11	67.504
342.47	68.772
342.83	68.945
343.20	67.596
343.56	69.391
343.92	69.265
344.28	68.659
344.65	69.516
345.01	68.539
345.37	68.545
345.73	67.448
346.10	69.629
346.46	68.966
346.82	68.331
347.19	67.747
347.55	69.089
347.91	69.579
348.27	67.583
348.63	69.165
349.00	68.253
349.36	69.576
349.72	69.983
350.08	70.574
350.45	69.354
350.81	70.764
351.17	68.893
351.53	71.918
351.89	69.282
352.26	68.320
352.62	71.371
352.98	68.273
353.34	67.874
353.70	68.608
354.07	69.516
354.43	69.255
354.79	68.126
355.15	70.079
355.51	71.044
355.87	70.874
356.24	69.739
356.60	68.715
356.96	71.746
357.32	70.527
357.68	69.898
358.04	72.052
358.40	70.016
358.77	71.212
359.13	70.456
359.49	70.108
359.85	72.153
360.21	71.850
360.57	70.467
360.93	72.466
361.29	70.997
361.66	70.925
362.02	72.045
362.38	71.820
362.74	73.051
363.10	73.514
363.46	72.350
363.82	71.976
364.18	71.513
364.54	71.397
364.90	72.043
365.26	72.489
365.62	74.015
365.98	72.727
366.35	73.416
366.71	74.575
367.07	73.585
367.43	74.047
367.79	72.792
368.15	74.228
368.51	75.455
368.87	72.936
369.23	71.697
369.59	74.854
369.95	74.707
370.31	74.855
370.67	76.343
371.03	75.280
371.39	75.638
371.75	75.165
372.11	75.250
372.47	76.109
372.83	75.656
373.19	76.248
373.55	75.235
373.91	76.674
374.27	76.045
374.63	77.172
374.99	76.454
375.35	77.089
375.71	78.462
376.07	76.966
376.42	77.823
376.78	78.121
377.14	77.251
377.50	79.681
377.86	77.912
378.22	77.920
378.58	79.423
378.94	78.639
379.30	78.041
379.66	78.871
380.02	77.376
380.38	77.906
380.74	78.815
381.09	79.816
381.45	78.471
381.81	80.568
382.17	78.997
382.53	78.826
382.89	81.670
383.25	81.767
383.61	81.159
383.97	80.825
384.32	80.550
384.68	80.867
385.04	80.760
385.40	80.212
385.76	82.767
386.12	83.312
386.48	83.653
386.83	82.435
387.19	81.197
387.55	82.685
387.91	82.457
388.27	81.807
388.62	83.700
388.98	82.873
389.34	82.886
389.70	84.152
390.06	81.120
390.42	82.902
390.77	83.846
391.13	81.904
391.49	83.441
391.85	83.431
392.20	82.486
392.56	83.789
392.92	83.793
393.28	82.842
393.64	83.844
393.99	85.078
394.35	84.820
394.71	84.163
395.07	82.778
395.42	82.574
395.78	83.062
396.14	82.724
396.50	82.815
396.85	83.838
397.21	82.895
397.57	81.881
397.92	82.744
398.28	85.000
398.64	81.687
399.00	82.788
399.35	83.465
399.71	81.964
400.07	85.127
400.42	83.293
400.78	85.119
401.14	81.307
401.49	83.085
401.85	82.206
402.21	82.711
402.57	84.188
402.92	81.179
403.28	82.769
403.63	83.354
403.99	82.844
404.35	84.135
404.70	81.667
405.06	83.549
405.42	82.909
405.77	82.162
406.13	83.411
406.49	80.995
406.84	83.741
407.20	81.457
407.55	80.489
407.91	83.623
408.27	81.517
408.62	80.431
408.98	80.530
409.34	82.280
409.69	80.620
410.05	80.542
410.40	81.420
410.76	82.087
411.11	81.125
411.47	83.366
411.83	81.230
412.18	82.947
412.54	81.648
412.89	79.433
413.25	82.190
413.60	81.118
413.96	80.736
414.31	81.402
414.67	81.270
415.03	80.826
415.38	80.483
415.74	80.847
416.09	82.103
416.45	82.579
416.80	80.370
417.16	82.459
417.51	82.145
417.87	82.725
418.22	83.549
418.58	82.809
418.93	83.197
419.29	81.114
419.64	83.992
420.00	83.879
420.35	82.567
420.71	83.171
421.06	83.671
421.42	83.954
421.77	83.931
422.12	84.563
422.48	82.729
422.83	84.455
423.19	83.916
423.54	83.774
423.90	82.744
424.25	84.386
424.61	85.557
424.96	82.811
425.31	86.424
425.67	85.153
426.02	86.042
426.38	87.602
426.73	87.107
427.09	88.354
427.44	86.647
427.79	86.034
428.15	86.286
428.50	87.220
428.85	85.872
429.21	87.097
429.56	89.704
429.92	87.725
430.27	87.419
430.62	87.297
430.98	89.013
431.33	88.170
431.68	87.546
432.04	88.373
432.39	86.766
432.74	86.290
433.10	88.161
433.45	87.873
433.80	89.089
434.16	90.194
434.51	89.301
434.86	88.444
435.22	89.456
435.57	90.206
435.92	88.204
436.28	88.909
436.63	90.816
436.98	88.470
437.34	89.716
437.69	90.698
438.04	90.427
438.39	89.310
438.75	92.593
439.10	90.662
439.45	91.783
439.81	90.948
440.16	93.468
440.51	89.493
440.86	94.683
441.22	92.364
441.57	93.488
441.92	93.494
442.27	92.683
442.63	92.131
442.98	92.131
443.33	92.154
443.68	92.095
444.03	92.996
444.39	92.966
444.74	93.757
445.09	92.984
445.44	94.074
445.79	93.605
446.15	90.749
446.50	92.402
446.85	92.880
447.20	92.961
447.55	94.252
447.91	93.288
448.26	93.284
448.61	92.631
448.96	92.484
449.31	93.873
449.66	92.799
450.02	93.098
450.37	94.606
450.72	94.044
451.07	95.253
451.42	93.633
451.77	92.405
452.12	92.524
452.47	92.853
452.83	93.168
453.18	92.600
453.53	94.248
453.88	93.746
454.23	93.055
454.58	93.388
454.93	94.008
455.28	92.381
455.63	93.366
455.98	94.708
456.34	93.742
456.69	93.583
457.04	93.888
457.39	94.168
457.74	95.707
458.09	93.643
458.44	94.441
458.79	93.894
459.14	95.824
459.49	94.507
459.84	94.924
460.19	94.782
460.54	95.110
460.89	96.193
461.24	94.969
461.59	93.765
461.94	93.208
462.29	93.667
462.64	95.083
462.99	95.531
463.34	94.089
463.69	92.407
464.04	93.947
464.39	94.482
464.74	94.110
465.09	95.571
465.44	95.961
465.79	93.934
466.14	96.237
466.49	94.135
466.84	95.538
467.19	94.618
467.54	95.658
467.89	94.630
468.24	94.100
468.59	96.063
468.94	93.143
469.29	94.295
469.64	93.985
469.99	95.375
470.34	94.949
470.68	95.377
471.03	95.046
471.38	95.078
471.73	95.098
472.08	93.487
472.43	94.832
472.78	93.420
473.13	95.578
473.48	94.788
473.83	92.839
474.17	95.920
474.52	94.384
474.87	95.030
475.22	96.400
475.57	95.370
475.92	96.105
476.27	94.237
476.61	96.412
476.96	93.028
477.31	95.565
477.66	94.270
478.01	95.227
478.36	94.826
478.70	96.900
479.05	95.879
479.40	95.072
479.75	93.587
480.10	95.853
480.45	95.750
480.79	97.080
481.14	97.746
481.49	96.355
481.84	96.863
482.19	96.679
482.53	95.588
482.88	93.747
483.23	94.626
483.58	95.047
483.92	93.078
484.27	92.844
484.62	95.249
484.97	96.725
485.31	95.448
485.66	98.872
486.01	101.100
486.36	101.786
486.70	100.342
487.05	99.397
487.40	97.647
487.75	96.141
488.09	93.109
488.44	92.125
488.79	93.650
489.13	94.030
489.48	93.117
489.83	93.543
490.17	93.573
490.52	94.919
490.87	91.624
491.22	95.033
491.56	94.782
491.91	93.881
492.26	96.986
492.60	93.858
492.95	96.114
493.30	93.307
493.64	95.776
493.99	94.589
494.34	95.194
494.68	94.524
495.03	92.993
495.37	94.553
495.72	95.053
496.07	96.927
496.41	94.764
496.76	95.947
497.11	95.016
497.45	94.893
497.80	95.207
498.14	92.151
498.49	92.991
498.84	94.162
499.18	95.331
499.53	94.940
499.87	93.628
500.22	94.708
500.56	96.167
500.91	93.524
501.26	94.068
501.60	94.393
501.95	94.663
502.29	96.368
502.64	96.042
502.98	97.237
503.33	94.188
503.67	96.289
504.02	95.210
504.36	95.002
504.71	96.313
505.06	93.709
505.40	95.025
505.75	96.186
506.09	94.526
506.44	96.047
506.78	95.969
507.13	95.760
507.47	92.637
507.82	94.551
508.16	94.400
508.51	95.226
508.85	94.401
509.19	95.476
509.54	95.013
509.88	94.606
510.23	94.190
510.57	93.426
510.92	91.525
511.26	95.035
511.61	95.270
511.95	94.630
512.30	92.738
512.64	92.265
512.98	94.554
513.33	94.292
513.67	95.225
514.02	95.023
514.36	95.371
514.70	94.814
515.05	95.593
515.39	93.684
515.74	94.671
516.08	95.995
516.42	95.347
516.77	95.143
517.11	95.252
517.46	94.794
517.80	93.981
518.14	94.182
518.49	93.329
518.83	93.682
519.17	93.633
519.52	93.310
519.86	93.938
520.20	93.013
520.55	91.745
520.89	93.726
521.23	94.110
521.58	94.826
521.92	93.526
522.26	91.932
522.61	93.117
522.95	95.828
523.29	93.583
523.64	93.583
523.98	95.593
524.32	93.041
524.66	93.662
525.01	94.805
525.35	94.686
525.69	94.074
526.04	92.857
526.38	94.682
526.72	90.713
527.06	93.450
527.41	94.459
527.75	93.968
528.09	92.226
528.43	96.691
528.78	95.842
529.12	94.452
529.46	96.361
529.80	92.970
530.15	95.446
530.49	95.623
530.83	95.349
531.17	92.612
531.51	94.254
531.86	95.853
532.20	95.268
532.54	93.125
532.88	93.498
533.22	95.699
533.57	94.364
533.91	97.389
534.25	96.419
534.59	95.189
534.93	94.021
535.27	94.226
535.62	95.139
535.96	94.716
536.30	93.734
536.64	94.693
536.98	93.380
537.32	95.661
537.66	94.460
538.01	94.615
538.35	95.284
538.69	94.208
539.03	93.780
539.37	94.482
539.71	94.274
540.05	94.229
540.39	94.806
540.73	94.630
541.07	94.682
541.42	93.011
541.76	95.114
542.10	95.320
542.44	95.483
542.78	92.429
543.12	94.849
543.46	94.576
543.80	95.628
544.14	92.056
544.48	95.137
544.82	96.992
545.16	96.516
545.50	93.324
545.84	97.380
546.18	95.816
546.52	96.179
546.86	94.752
547.20	94.206
547.54	95.830
547.88	96.671
548.22	95.332
548.56	95.844
548.90	97.911
549.24	94.215
549.58	95.205
549.92	92.995
550.26	93.919
550.60	95.167
550.94	94.623
551.28	93.972
551.62	97.385
551.96	96.241
552.30	96.637
552.64	95.063
552.98	94.515
553.32	93.866
553.66	95.138
554.00	96.642
554.34	95.864
554.68	92.773
555.02	93.676
555.36	93.942
555.69	94.579
556.03	94.789
556.37	94.804
556.71	95.162
557.05	96.271
557.39	93.309
557.73	94.453
558.07	95.400
558.41	95.559
558.75	95.090
559.08	93.617
559.42	95.000
559.76	95.997
560.10	94.648
560.44	97.394
560.78	95.734
561.12	97.038
561.45	99.086
561.79	96.359
562.13	96.097
562.47	95.612
562.81	95.749
563.15	94.076
563.48	96.818
563.82	96.568
564.16	96.170
564.50	95.000
564.84	95.181
565.17	96.311
565.51	100.273
565.85	97.805
566.19	96.684
566.52	96.448
566.86	97.044
567.20	97.198
567.54	101.217
567.88	100.937
568.21	101.131
568.55	101.087
568.89	101.181
569.23	102.600
569.56	102.758
569.90	105.603
570.24	102.382
570.57	105.782
570.91	105.333
571.25	103.551
571.59	104.204
571.92	103.052
572.26	102.838
572.60	101.147
572.93	100.565
573.27	101.348
573.61	103.192
573.95	102.977
574.28	103.549
574.62	103.077
574.96	102.967
575.29	103.004
575.63	100.985
575.97	101.843
576.30	102.783
576.64	102.172
576.98	104.118
577.31	104.301
577.65	105.046
577.98	105.938
578.32	105.318
578.66	102.815
578.99	102.737
579.33	102.473
579.67	100.580
580.00	103.038
580.34	102.587
580.67	101.385
581.01	103.482
581.35	104.522
581.68	105.609
582.02	106.386
582.35	103.863
582.69	104.558
583.02	103.418
583.36	103.288
583.70	102.025
584.03	102.446
584.37	102.626
584.70	101.758
585.04	102.021
585.37	103.735
585.71	104.740
586.04	103.354
586.38	104.134
586.72	104.189
587.05	103.957
587.39	104.138
587.72	105.905
588.06	103.598
588.39	102.706
588.73	103.755
589.06	103.686
589.40	101.279
589.73	102.118
590.07	103.097
590.40	102.361
590.73	102.512
591.07	101.357
591.40	102.493
591.74	101.855
592.07	102.737
592.41	101.943
592.74	104.022
593.08	103.633
593.41	106.030
593.75	104.187
594.08	102.643
594.41	103.130
594.75	102.137
595.08	103.519
595.42	103.312
595.75	104.243
596.09	102.893
596.42	103.059
596.75	101.732
597.09	101.777
597.42	103.342
597.75	103.207
598.09	100.543
598.42	101.354
598.76	102.488
599.09	105.529
599.42	104.282
599.76	103.649
600.09	103.130
600.42	103.904
600.76	102.340
601.09	102.824
601.42	101.763
601.76	103.374
602.09	101.980
602.42	103.580
602.76	102.716
603.09	101.869
603.42	106.522
603.76	102.984
604.09	103.281
604.42	103.511
604.76	103.115
605.09	103.291
605.42	102.167
605.75	102.452
606.09	104.586
606.42	102.502
606.75	101.082
607.09	103.033
607.42	100.930
607.75	102.709
608.08	100.584
608.42	99.406
608.75	103.229
609.08	102.192
609.41	101.675
609.75	101.462
610.08	103.095
610.41	101.836
610.74	102.340
611.07	105.271
611.41	101.557
611.74	103.518
612.07	101.231
612.40	100.438
612.73	103.616
613.07	101.462
613.40	100.602
613.73	102.518
614.06	101.002
614.39	101.918
614.72	99.664
615.06	101.061
615.39	100.000
615.72	100.915
616.05	101.173
616.38	99.601
616.71	100.550
617.05	99.938
617.38	100.377
617.71	100.189
618.04	102.286
618.37	102.648
618.70	101.188
619.03	101.042
619.36	98.915
619.69	100.758
620.03	100.584
620.36	102.432
620.69	98.644
621.02	96.560
621.35	97.676
621.68	99.490
622.01	100.333
622.34	97.366
622.67	97.950
623.00	98.392
623.33	99.543
623.66	101.496
623.99	98.638
624.32	100.076
624.65	101.128
624.99	100.301
625.32	97.119
625.65	98.272
625.98	98.469
626.31	98.337
626.64	98.614
626.97	99.825
627.30	98.249
627.63	97.227
627.96	98.113
628.29	95.745
628.62	95.575
628.95	93.988
629.28	98.891
629.61	99.701
629.94	95.894
630.26	97.332
630.59	97.399
630.92	98.256
631.25	92.923
631.58	96.035
631.91	95.066
632.24	95.986
632.57	96.136
632.90	95.492
633.23	92.471
633.56	97.985
633.89	95.191
634.22	96.173
634.55	96.569
634.88	92.976
635.20	92.692
635.53	96.267
635.86	93.758
636.19	93.790
636.52	97.704
636.85	95.533
637.18	94.088
637.51	92.327
637.83	90.013
638.16	95.225
638.49	91.008
638.82	93.289
639.15	95.251
639.48	94.223
639.81	94.421
640.13	93.362
640.46	93.732
640.79	94.256
641.12	92.467
641.45	91.592
641.77	91.407
642.10	93.523
642.43	90.193
642.76	91.584
643.09	89.984
643.41	89.806
643.74	89.621
644.07	92.939
644.40	91.723
644.73	93.345
645.05	88.423
645.38	92.769
645.71	90.603
646.04	92.101
646.36	88.652
646.69	92.266
647.02	91.115
647.35	88.806
647.67	85.740
648.00	91.231
648.33	90.444
648.66	95.085
648.98	92.295
649.31	94.380
649.64	90.895
649.96	94.165
650.29	94.719
650.62	90.598
650.94	94.815
651.27	92.179
651.60	91.532
651.92	91.259
652.25	93.606
652.58	92.333
652.90	94.683
653.23	92.605
653.56	91.371
653.88	94.674
654.21	91.243
654.54	91.851
654.86	97.114
655.19	94.737
655.52	112.693
655.84	118.507
656.17	100.000
656.49	100.000
656.82	100.000
657.15	100.000
657.47	100.000
657.80	100.000
658.13	105.218
658.45	95.763
658.78	93.823
659.10	89.001
659.43	86.655
659.75	86.828
660.08	84.690
660.41	85.904
660.73	83.564
661.06	87.348
661.38	84.932
661.71	85.421
662.03	89.914
662.36	88.352
662.68	92.257
663.01	92.795
663.33	90.951
663.66	86.977
663.98	87.907
664.31	84.648
664.63	89.631
664.96	84.783
665.28	86.534
665.61	91.126
665.93	91.304
666.26	89.371
666.58	88.591
666.91	86.824
667.23	89.858
667.56	84.360
667.88	85.372
668.21	86.874
668.53	89.835
668.86	85.849
669.18	85.377
669.50	87.167
669.83	85.349
670.15	87.646
670.48	89.713
670.80	88.479
671.13	87.472
671.45	86.530
671.77	92.489
672.10	90.693
672.42	95.880
672.75	92.540
673.07	92.844
673.39	90.459
673.72	87.179
674.04	90.000
674.37	87.076
674.69	91.006
675.01	87.111
675.34	85.135
675.66	87.500
675.98	85.588
676.31	89.450
676.63	92.874
676.95	86.136
677.28	89.176
677.60	91.084
677.92	89.450
678.25	91.685
678.57	93.074
678.89	89.916
679.22	94.407
679.54	88.353
679.86	87.873
680.18	95.340
680.51	91.477
680.83	91.054
681.15	92.200
681.48	92.008
681.80	91.736
682.12	92.137
682.44	90.377
682.77	92.936
683.09	89.931
683.41	86.136
683.73	91.935
684.06	90.929
684.38	87.742
684.70	98.911
685.02	92.116
685.34	91.700
685.67	96.435
685.99	94.394
686.31	91.150
686.63	92.950
686.96	90.304
687.28	88.485
687.60	86.692
687.92	94.747
688.24	90.927
688.56	90.830
688.89	91.518
689.21	91.556
689.53	91.415
689.85	93.023
690.17	90.625
690.49	92.671
690.82	92.961
691.14	90.238
691.46	93.692
691.78	92.793
692.10	94.409
692.42	89.610
692.74	88.889
693.06	89.414
693.39	85.747
693.71	93.213
694.03	93.072
694.35	90.187
694.67	90.657
694.99	87.206
695.31	90.601
695.63	86.500
695.95	91.667
696.27	84.715
696.59	88.889
696.91	86.275
697.23	86.118
697.56	92.822
697.88	92.258
698.20	92.027
698.52	93.882
698.84	88.038
699.16	88.250
699.48	88.221
699.80	88.834
700.12	90.027
700.44	88.235
700.76	87.500
701.08	86.667
701.40	87.349
701.72	89.815
702.04	90.429
702.36	95.318
702.68	87.688
703.00	91.818
703.32	91.202
703.64	86.441
703.96	87.536
704.28	84.049
704.60	87.302
704.91	84.227
705.23	87.375
705.55	86.926
705.87	89.170
706.19	84.074
706.51	86.254
706.83	84.887
707.15	88.162
707.47	93.557
707.79	92.969
708.11	95.750
708.43	91.250
708.74	87.855
709.06	89.296
709.38	89.908
709.70	86.982
710.02	85.032
710.34	86.687
710.66	83.333
710.98	89.073
711.29	89.836
711.61	90.847
711.93	84.039
712.25	89.003
712.57	92.308
712.89	89.552
713.20	87.197
713.52	86.063
713.84	89.078
714.16	92.440
714.48	93.548
714.80	94.231
715.11	86.930
715.43	86.520
715.75	90.333
716.07	86.379
716.39	82.886
716.70	86.716
717.02	83.969
717.34	86.640
717.66	91.150
717.97	86.087
718.29	91.213
718.61	90.551
718.93	86.047
719.24	89.354
719.56	89.960
719.88	85.223
720.20	90.152
720.51	80.843
720.83	90.347
721.15	94.118
721.46	94.758
721.78	90.909
722.10	85.502
722.42	87.137
722.73	88.980
723.05	88.980
723.37	87.288
723.68	95.045
724.00	92.735
724.32	90.667
724.63	85.455
724.95	87.773
725.27	94.470
725.58	88.983
725.90	86.508
726.22	90.734
726.53	86.102
726.85	92.884
727.16	92.830
727.48	84.211
727.80	88.664
728.11	84.746
728.43	84.706
728.74	88.306
729.06	90.000
729.38	87.594
729.69	86.853
730.01	86.538
730.32	94.403
730.64	86.219
730.96	99.245
731.27	88.667
731.59	88.475
731.90	89.809
732.22	93.691
732.53	94.020
732.85	93.617
733.16	92.929
733.48	92.446
733.80	96.739
734.11	89.831
734.43	96.220
734.74	96.364
735.06	99.023
735.37	89.124
735.69	97.306
736.00	92.683
736.32	88.255
736.63	92.958
736.95	88.396
737.26	91.815
737.58	89.262
737.89	98.168
738.21	95.865
738.52	91.770
738.83	90.830
739.15	84.716
739.46	99.213
739.78	96.337
740.09	87.582
740.41	97.464
740.72	98.031
741.04	86.235
741.35	85.957
741.66	92.417
741.98	85.204
742.29	83.168
742.61	91.623
742.92	81.991
743.23	89.815
743.55	90.498
743.86	86.603
744.18	89.474
744.49	87.234
744.80	85.870
745.12	95.722
745.43	83.902
745.74	93.750
746.06	89.756
746.37	92.670
746.68	89.573
747.00	90.426
747.31	86.567
747.62	86.893
747.94	89.952
748.25	87.624
748.56	98.907
748.88	89.529
749.19	98.404
749.50	87.192
749.82	94.340
750.13	90.826
750.44	95.489
750.75	96.642
751.07	98.175
751.38	93.870
751.69	92.157
752.01	91.085
752.32	95.618
752.63	94.071
752.94	89.224
753.26	87.448
753.57	93.665
753.88	93.363
754.19	92.083
754.51	92.975
754.82	92.713
755.13	87.917
755.44	89.516
755.75	92.578
756.07	91.051
756.38	92.075
756.69	94.253
757.00	91.667
757.31	94.771
757.63	90.244
757.94	93.889
758.25	91.507
758.56	88.298
758.87	87.819
759.18	85.358
759.50	93.091
759.81	92.642
760.12	98.710
760.43	89.697
760.74	95.988
761.05	96.308
761.36	92.614
761.67	90.303
761.99	96.599
762.30	89.091
762.61	86.166
762.92	93.213
763.23	90.541
763.54	92.523
763.85	97.458
764.16	87.137
764.47	87.500
764.78	87.546
765.10	95.623
765.41	94.953
765.72	88.889
766.03	95.489
766.34	91.971
766.65	87.251
766.96	90.909
767.27	84.574
767.58	87.931
767.89	87.943
768.20	84.091
768.51	84.066
768.82	84.236
769.13	88.018
769.44	90.129
769.75	86.758
770.06	86.207
770.37	83.173
770.68	90.863
770.99	84.163
771.30	99.510
771.61	94.570
771.92	95.690
772.23	95.567
772.54	93.548
772.85	91.358
773.16	85.955
773.47	101.961
773.78	96.078
774.09	81.437
774.39	96.667
774.70	84.713
775.01	95.862
775.32	97.857
775.63	88.430
775.94	80.916
776.25	81.890
776.56	84.167
776.87	86.538
777.18	70.085
777.48	85.345
777.79	88.696
778.10	68.571
778.41	81.982
778.72	90.476
779.03	81.955
779.34	92.199
779.65	95.205
779.95	78.082
780.26	90.345
780.57	82.114
780.88	81.102
781.19	88.793
781.50	92.248
781.80	89.941
782.11	86.164
782.42	96.923
782.73	87.770
783.04	88.889
783.34	73.611
783.65	70.940
783.96	88.525
784.27	80.690
784.57	91.057
784.88	86.719
785.19	95.000
785.50	84.000
785.81	87.931
786.11	92.241
786.42	76.699
786.73	83.636
787.04	88.776
787.34	75.000
787.65	98.095
787.96	83.186
788.26	96.364
788.57	88.889
788.88	83.594
789.19	92.857
789.49	89.565
789.80	90.816
790.11	90.909
790.41	70.909
790.72	86.957
791.03	78.409
791.33	91.250
791.64	80.000
791.95	74.419
792.25	76.596
792.56	93.258
792.87	86.301
793.17	82.609
793.48	70.667
793.79	77.500
794.09	98.750
794.40	87.736
794.70	100.000
795.01	80.488
795.32	88.889
795.62	93.333
795.93	92.157
796.23	90.566
796.54	66.667
796.85	92.647
797.15	74.648
797.46	72.222
797.76	103.030
798.07	63.953
798.37	72.368
798.68	66.667
798.99	77.778
799.29	90.000
799.60	79.710
799.90	81.333
800.21	80.328
800.51	61.538
800.82	79.661
801.12	63.768
801.43	85.246
801.73	77.778
802.04	68.000
802.34	61.194
802.65	80.769
802.95	67.857
803.26	51.923
803.56	78.431
803.87	100.000
804.17	66.667
804.48	103.175
804.78	100.000
805.09	65.217
805.39	77.778
805.70	77.778
806.00	68.421
806.30	78.873
806.61	87.143
806.91	69.444
807.22	92.105
807.52	86.667
807.83	98.182
808.13	68.056
808.43	69.118
808.74	62.687
809.04	84.746
809.35	94.231
809.65	92.188
809.95	72.973
810.26	72.727
810.56	58.904
810.86	80.952
811.17	64.000
811.47	77.551
811.77	71.053
812.08	65.909
812.38	62.264
812.69	75.000
812.99	63.636
813.29	52.632
813.59	57.143
813.90	106.818
814.20	74.359
814.50	84.615
814.81	92.453
815.11	61.702
815.41	76.271
815.72	97.619
816.02	58.824
816.32	79.167
816.62	87.805
816.93	32.432
817.23	85.714
817.53	62.500
817.84	63.043
818.14	61.538
818.44	47.368
818.74	73.913
819.04	42.500
819.35	62.162
819.65	70.588
819.95	47.222
820.25	61.905
820.56	57.500
820.86	55.172
821.16	105.000
821.46	95.745
821.76	77.500
822.07	65.116
822.37	37.838
822.67	65.625
822.97	100.000
823.27	60.714
823.57	80.000
823.88	29.630
824.18	117.857
824.48	85.294
824.78	83.871
825.08	65.217
825.38	90.909
825.69	33.333
825.99	76.316
826.29	66.667
826.59	153.333
826.89	19.048
827.19	50.000
827.49	50.000
827.79	68.571
828.09	60.714
828.39	42.424
828.70	78.378
829.00	100.000
829.30	104.762
829.60	86.667
829.90	103.125
830.20	84.211
830.50	77.778
830.80	43.478
831.10	31.818
831.40	87.879
831.70	70.968
832.00	104.762
832.30	33.333
832.60	66.667
832.90	41.379
833.20	10.000
833.50	36.364
833.80	51.852
834.10	76.923
834.40	59.375
834.70	188.889
835.00	26.316
835.30	157.692
835.60	206.667
835.90	77.419
836.20	59.091
836.50	67.857
836.80	15.385
837.10	35.714
837.40	33.333
837.70	90.909
838.00	81.818
838.30	26.087
838.60	76.923
838.90	40.909
839.19	60.714
839.49	56.667
839.79	92.308
840.09	75.000
840.39	57.143
840.69	50.000
840.99	3.846
841.29	10.526
841.59	60.000
841.88	63.636
842.18	50.000
842.48	112.500
842.78	40.000
843.08	33.333
843.38	10.000
843.68	52.174
843.97	93.333
844.27	33.333
844.57	40.000
844.87	72.222
845.17	28.571
845.47	26.667
845.76	-33.333
846.06	129.412
846.36	120.000
846.66	42.857
846.96	73.333
847.25	-50.000
847.55	71.429
847.85	50.000
848.15	9.091
848.44	-266.667
848.74	0.000
849.04	85.185
849.34	136.364
849.63	-33.333
849.93	140.000
850.23	27.778
850.53	90.000
850.82	69.231
851.12	77.778
851.42	40.000
851.71	15.385
852.01	78.571
852.31	225.000
852.61	36.364
852.90	50.000
853.20	63.158
853.50	16.667
853.79	60.870
854.09	95.833
854.39	115.789
854.68	83.333
854.98	58.065
855.28	61.538
855.57	85.000
855.87	105.556
856.17	77.778
856.46	128.571
856.76	80.000
857.05	133.333
857.35	60.000
857.65	33.333
857.94	84.615
858.24	89.655
858.53	100.000
858.83	25.926
859.13	77.273
859.42	43.478
859.72	350.000
860.01	133.333
860.31	40.000
860.60	14.286
860.90	-100.000
861.20	-13.333
861.49	150.000
861.79	53.333
862.08	85.000
862.38	113.333
862.67	-80.000
862.97	16.667
863.26	66.667
863.56	111.111
863.85	-200.000
864.15	44.444
864.44	70.000
864.74	128.571
865.03	175.000
865.33	100.000
865.62	0.000
865.92	8.333
866.21	-66.667
866.51	50.000
866.80	0.000
867.10	0.000
867.39	25.000
867.69	0.000
867.98	15.385
868.27	100.000
868.57	20.000
868.86	88.889
869.16	-30.769
869.45	80.000
869.75	-500.000
870.04	0.000
870.33	-100.000
870.63	52.381
870.92	233.333
871.22	-80.000
871.51	-100.000
871.80	222.222
872.10	100.000
>>>>>End Processed Spectral Data<<<<<
