SpectraSuite Data File
++++++++++++++++++++++++++++++++++++
Date: Fri May 15 17:11:28 PDT 2015
User: schluterlab
Dark Spectrum Present: Yes
Reference Spectrum Present: Yes
Number of Sampled Component Spectra: 1
Spectrometers: USB2E3373
Integration Time (usec): 3000 (USB2E3373)
Spectra Averaged: 3 (USB2E3373)
Boxcar Smoothing: 0 (USB2E3373)
Correct for Electrical Dark: No (USB2E3373)
Strobe/Lamp Enabled: No (USB2E3373)
Correct for Detector Non-linearity: No (USB2E3373)
Correct for Stray Light: No (USB2E3373)
Number of Pixels in Processed Spectrum: 2048
>>>>>Begin Processed Spectral Data<<<<<
178.53	0.000
178.91	0.000
179.29	25.000
179.67	50.000
180.04	-42.857
180.42	375.000
180.80	-100.000
181.18	-0.000
181.56	-0.000
181.94	650.000
182.31	-100.000
182.69	-40.000
183.07	-133.333
183.45	0.000
183.83	-83.333
184.20	18.182
184.58	88.889
184.96	-200.000
185.34	166.667
185.72	350.000
186.09	23.077
186.47	1500.000
186.85	16.667
187.23	-0.000
187.61	-100.000
187.98	66.667
188.36	155.556
188.74	-200.000
189.12	70.588
189.49	72.222
189.87	0.000
190.25	92.857
190.63	350.000
191.00	100.000
191.38	10.526
191.76	600.000
192.14	50.000
192.51	450.000
192.89	-33.333
193.27	-57.143
193.65	-116.667
194.02	36.364
194.40	120.000
194.78	-62.500
195.15	58.333
195.53	0.000
195.91	150.000
196.29	50.000
196.66	61.538
197.04	28.571
197.42	-55.556
197.79	-100.000
198.17	-38.462
198.55	800.000
198.92	-233.333
199.30	300.000
199.68	-60.000
200.05	133.333
200.43	0.000
200.81	0.000
201.18	466.667
201.56	300.000
201.94	-50.000
202.31	-33.333
202.69	160.000
203.07	-175.000
203.44	800.000
203.82	0.000
204.19	121.429
204.57	-333.333
204.95	112.500
205.32	70.000
205.70	-71.429
206.08	-50.000
206.45	177.778
206.83	85.714
207.20	0.000
207.58	400.000
207.96	166.667
208.33	-10.000
208.71	125.000
209.08	-83.333
209.46	-800.000
209.84	180.000
210.21	400.000
210.59	114.286
210.96	16.667
211.34	-150.000
211.71	73.333
212.09	-128.571
212.46	-500.000
212.84	0.000
213.22	90.000
213.59	-0.000
213.97	92.308
214.34	54.545
214.72	0.000
215.09	350.000
215.47	92.308
215.84	18.182
216.22	200.000
216.59	87.500
216.97	350.000
217.34	75.000
217.72	0.000
218.09	62.500
218.47	112.500
218.84	1000.000
219.22	0.000
219.59	80.000
219.97	100.000
220.34	150.000
220.72	100.000
221.09	-25.000
221.47	150.000
221.84	150.000
222.22	-250.000
222.59	0.000
222.97	33.333
223.34	-100.000
223.72	21.429
224.09	57.143
224.46	46.429
224.84	300.000
225.21	80.000
225.59	93.333
225.96	-300.000
226.34	300.000
226.71	0.000
227.08	-66.667
227.46	112.500
227.83	-650.000
228.21	77.778
228.58	63.636
228.95	87.500
229.33	60.000
229.70	81.250
230.08	75.000
230.45	57.143
230.82	157.143
231.20	66.667
231.57	50.000
231.95	57.143
232.32	-20.000
232.69	-14.286
233.07	433.333
233.44	160.000
233.81	-30.000
234.19	11.111
234.56	29.412
234.93	250.000
235.31	200.000
235.68	60.000
236.05	69.231
236.43	20.000
236.80	88.235
237.17	37.500
237.55	0.000
237.92	37.037
238.29	30.556
238.67	0.000
239.04	32.353
239.41	9.756
239.79	23.333
240.16	41.463
240.53	42.105
240.91	30.435
241.28	41.270
241.65	50.000
242.02	38.356
242.40	46.667
242.77	44.068
243.14	22.727
243.51	36.250
243.89	32.184
244.26	17.241
244.63	33.333
245.00	28.866
245.38	47.423
245.75	25.843
246.12	28.448
246.49	33.058
246.87	37.500
247.24	27.731
247.61	27.193
247.98	24.390
248.36	18.750
248.73	36.184
249.10	26.623
249.47	33.544
249.84	29.412
250.22	31.176
250.59	33.987
250.96	30.516
251.33	23.837
251.70	29.412
252.08	28.934
252.45	26.238
252.82	33.166
253.19	29.493
253.56	26.636
253.94	29.730
254.31	32.174
254.68	30.702
255.05	27.953
255.42	31.441
255.79	27.799
256.16	28.405
256.54	31.716
256.91	31.559
257.28	31.599
257.65	30.712
258.02	27.305
258.39	28.956
258.76	29.670
259.14	29.900
259.51	27.832
259.88	32.990
260.25	27.124
260.62	29.167
260.99	28.136
261.36	27.740
261.73	30.380
262.10	29.787
262.47	30.061
262.85	25.078
263.22	29.231
263.59	31.464
263.96	31.677
264.33	31.515
264.70	28.571
265.07	28.274
265.44	28.895
265.81	31.921
266.18	30.328
266.55	25.707
266.92	27.202
267.29	30.287
267.66	26.087
268.03	25.131
268.40	27.415
268.77	31.818
269.14	26.859
269.51	30.591
269.88	28.180
270.25	27.041
270.62	25.854
270.99	27.366
271.36	27.873
271.73	28.638
272.10	27.007
272.47	30.733
272.84	27.723
273.21	27.842
273.58	28.675
273.95	28.146
274.32	25.866
274.69	26.018
275.06	29.464
275.43	29.252
275.80	27.815
276.17	25.977
276.54	24.197
276.91	28.509
277.28	26.419
277.65	28.512
278.02	28.723
278.39	27.571
278.76	27.044
279.13	25.311
279.50	29.412
279.87	29.590
280.23	24.731
280.60	28.460
280.97	28.081
281.34	27.115
281.71	29.158
282.08	26.176
282.45	27.006
282.82	24.517
283.19	28.433
283.56	26.975
283.92	26.755
284.29	25.769
284.66	24.419
285.03	26.326
285.40	27.410
285.77	24.605
286.14	24.729
286.51	29.336
286.87	26.325
287.24	24.678
287.61	26.631
287.98	27.018
288.35	25.997
288.72	26.795
289.08	22.743
289.45	26.538
289.82	25.874
290.19	22.696
290.56	24.185
290.93	23.401
291.29	23.112
291.66	22.520
292.03	21.531
292.40	22.419
292.77	23.604
293.13	22.403
293.50	19.423
293.87	22.290
294.24	21.638
294.60	19.076
294.97	21.131
295.34	20.859
295.71	20.864
296.08	21.076
296.44	19.630
296.81	20.417
297.18	21.449
297.55	21.274
297.91	20.548
298.28	20.976
298.65	19.267
299.02	19.542
299.38	18.057
299.75	20.138
300.12	19.634
300.48	17.523
300.85	20.025
301.22	18.442
301.59	20.921
301.95	19.873
302.32	20.363
302.69	20.025
303.05	19.802
303.42	18.680
303.79	20.561
304.15	19.116
304.52	17.004
304.89	18.012
305.25	18.523
305.62	16.919
305.99	18.012
306.35	17.572
306.72	16.873
307.09	19.612
307.45	18.829
307.82	17.708
308.19	19.628
308.55	18.757
308.92	18.192
309.29	17.542
309.65	16.362
310.02	17.162
310.38	18.112
310.75	18.361
311.12	18.192
311.48	17.709
311.85	18.325
312.22	17.300
312.58	17.197
312.95	16.862
313.31	16.874
313.68	17.592
314.05	17.755
314.41	18.866
314.78	17.629
315.14	18.911
315.51	18.116
315.87	17.725
316.24	19.616
316.61	18.406
316.97	18.651
317.34	19.238
317.70	18.642
318.07	18.654
318.43	20.784
318.80	19.318
319.16	20.508
319.53	20.418
319.89	19.882
320.26	19.636
320.62	22.066
320.99	20.355
321.35	20.144
321.72	21.184
322.08	21.551
322.45	22.538
322.81	22.593
323.18	21.197
323.54	22.973
323.91	23.077
324.27	23.535
324.64	24.813
325.00	25.000
325.37	26.263
325.73	25.023
326.10	25.704
326.46	28.161
326.83	27.472
327.19	27.986
327.56	28.758
327.92	29.049
328.29	28.214
328.65	30.566
329.01	30.974
329.38	29.677
329.74	31.634
330.11	30.862
330.47	32.282
330.84	32.788
331.20	33.745
331.56	32.500
331.93	34.155
332.29	34.097
332.66	33.665
333.02	35.037
333.38	33.822
333.75	35.256
334.11	35.721
334.48	36.718
334.84	36.538
335.20	34.584
335.57	36.899
335.93	36.585
336.29	37.845
336.66	36.785
337.02	36.152
337.38	36.389
337.75	38.636
338.11	37.060
338.47	37.591
338.84	37.431
339.20	38.300
339.56	37.064
339.93	38.227
340.29	38.165
340.65	38.799
341.02	37.855
341.38	37.788
341.74	38.516
342.11	38.042
342.47	38.078
342.83	38.322
343.20	37.631
343.56	38.609
343.92	37.555
344.28	37.831
344.65	37.651
345.01	37.597
345.37	37.090
345.73	37.741
346.10	38.740
346.46	37.595
346.82	37.152
347.19	37.240
347.55	36.759
347.91	37.783
348.27	37.914
348.63	36.457
349.00	38.802
349.36	37.323
349.72	37.728
350.08	37.049
350.45	37.670
350.81	36.047
351.17	36.156
351.53	36.816
351.89	35.838
352.26	36.320
352.62	37.016
352.98	35.984
353.34	36.715
353.70	36.974
354.07	37.258
354.43	37.150
354.79	38.398
355.15	37.381
355.51	36.867
355.87	36.974
356.24	37.194
356.60	35.489
356.96	37.460
357.32	35.942
357.68	35.027
358.04	36.430
358.40	34.807
358.77	37.161
359.13	36.349
359.49	35.516
359.85	36.895
360.21	37.161
360.57	35.960
360.93	37.065
361.29	35.121
361.66	35.815
362.02	36.818
362.38	37.091
362.74	36.790
363.10	37.246
363.46	36.546
363.82	37.716
364.18	36.827
364.54	35.221
364.90	36.416
365.26	36.681
365.62	36.861
365.98	36.510
366.35	36.926
366.71	36.733
367.07	37.446
367.43	35.730
367.79	37.244
368.15	36.253
368.51	36.635
368.87	36.396
369.23	36.534
369.59	37.318
369.95	36.804
370.31	37.861
370.67	37.015
371.03	36.221
371.39	37.126
371.75	36.044
372.11	36.947
372.47	37.130
372.83	37.402
373.19	37.161
373.55	35.812
373.91	38.949
374.27	37.491
374.63	38.550
374.99	36.028
375.35	37.535
375.71	39.510
376.07	37.921
376.42	37.551
376.78	37.584
377.14	37.779
377.50	37.782
377.86	37.751
378.22	37.652
378.58	38.718
378.94	38.185
379.30	37.492
379.66	40.125
380.02	38.136
380.38	37.797
380.74	38.241
381.09	39.632
381.45	38.226
381.81	38.742
382.17	38.388
382.53	38.351
382.89	39.611
383.25	39.764
383.61	39.268
383.97	39.810
384.32	38.899
384.68	38.576
385.04	38.848
385.40	39.515
385.76	40.629
386.12	39.974
386.48	39.527
386.83	38.554
387.19	38.767
387.55	40.213
387.91	38.814
388.27	39.866
388.62	39.962
388.98	39.288
389.34	39.413
389.70	40.149
390.06	38.389
390.42	40.220
390.77	40.288
391.13	39.975
391.49	39.521
391.85	39.181
392.20	40.364
392.56	39.669
392.92	40.341
393.28	40.094
393.64	40.060
393.99	42.132
394.35	39.722
394.71	40.741
395.07	40.289
395.42	39.709
395.78	40.391
396.14	40.353
396.50	39.949
396.85	40.760
397.21	40.100
397.57	40.439
397.92	39.425
398.28	40.402
398.64	39.096
399.00	40.688
399.35	38.318
399.71	39.518
400.07	40.266
400.42	39.351
400.78	41.029
401.14	40.593
401.49	39.726
401.85	39.305
402.21	41.446
402.57	40.875
402.92	40.339
403.28	39.599
403.63	38.966
403.99	39.477
404.35	40.287
404.70	38.988
405.06	39.835
405.42	40.211
405.77	39.570
406.13	39.406
406.49	39.313
406.84	40.831
407.20	40.337
407.55	39.794
407.91	39.037
408.27	39.324
408.62	39.877
408.98	39.741
409.34	39.901
409.69	39.341
410.05	38.793
410.40	39.691
410.76	40.048
411.11	40.187
411.47	39.448
411.83	39.422
412.18	40.476
412.54	39.451
412.89	39.840
413.25	39.711
413.60	40.000
413.96	39.939
414.31	40.366
414.67	39.384
415.03	39.880
415.38	38.903
415.74	41.107
416.09	40.496
416.45	41.256
416.80	39.524
417.16	41.091
417.51	40.773
417.87	40.091
418.22	41.645
418.58	40.870
418.93	40.752
419.29	40.269
419.64	41.672
420.00	42.128
420.35	39.821
420.71	42.710
421.06	41.498
421.42	42.067
421.77	41.965
422.12	41.317
422.48	40.498
422.83	41.067
423.19	41.817
423.54	40.800
423.90	41.637
424.25	41.389
424.61	42.656
424.96	42.334
425.31	42.923
425.67	42.430
426.02	42.638
426.38	42.642
426.73	43.160
427.09	43.228
427.44	43.294
427.79	43.724
428.15	43.083
428.50	43.307
428.85	42.076
429.21	43.746
429.56	43.935
429.92	43.657
430.27	42.707
430.62	43.074
430.98	43.631
431.33	43.218
431.68	43.433
432.04	44.215
432.39	43.297
432.74	43.235
433.10	45.345
433.45	44.205
433.80	44.864
434.16	44.266
434.51	43.817
434.86	44.948
435.22	44.251
435.57	46.538
435.92	45.389
436.28	44.961
436.63	44.666
436.98	45.249
437.34	46.582
437.69	45.975
438.04	46.439
438.39	45.938
438.75	46.570
439.10	45.614
439.45	46.561
439.81	46.667
440.16	48.397
440.51	47.284
440.86	49.486
441.22	46.889
441.57	47.351
441.92	48.636
442.27	47.783
442.63	47.966
442.98	47.616
443.33	46.633
443.68	47.162
444.03	48.783
444.39	47.516
444.74	48.885
445.09	49.109
445.44	49.801
445.79	49.768
446.15	48.293
446.50	48.142
446.85	49.787
447.20	48.801
447.55	48.605
447.91	48.223
448.26	48.719
448.61	48.820
448.96	50.143
449.31	48.786
449.66	49.942
450.02	50.314
450.37	49.555
450.72	50.229
451.07	50.886
451.42	49.875
451.77	49.608
452.12	49.581
452.47	50.225
452.83	50.294
453.18	49.652
453.53	51.896
453.88	51.184
454.23	52.366
454.58	52.519
454.93	51.740
455.28	50.032
455.63	51.333
455.98	52.135
456.34	51.788
456.69	51.715
457.04	52.741
457.39	52.369
457.74	52.056
458.09	50.677
458.44	51.843
458.79	52.045
459.14	51.888
459.49	52.299
459.84	52.115
460.19	53.580
460.54	51.711
460.89	51.875
461.24	51.925
461.59	52.257
461.94	52.075
462.29	53.378
462.64	53.223
462.99	53.081
463.34	52.017
463.69	52.574
464.04	53.269
464.39	52.638
464.74	52.331
465.09	52.838
465.44	53.664
465.79	51.984
466.14	52.338
466.49	52.559
466.84	53.361
467.19	53.066
467.54	53.448
467.89	53.253
468.24	52.433
468.59	54.794
468.94	53.968
469.29	53.705
469.64	53.315
469.99	55.851
470.34	53.515
470.68	55.108
471.03	55.060
471.38	54.137
471.73	54.972
472.08	54.274
472.43	54.497
472.78	54.421
473.13	55.986
473.48	54.528
473.83	54.047
474.17	55.829
474.52	54.371
474.87	54.909
475.22	54.240
475.57	54.207
475.92	55.129
476.27	55.821
476.61	56.597
476.96	54.267
477.31	54.732
477.66	54.607
478.01	55.531
478.36	54.303
478.70	56.552
479.05	54.560
479.40	55.909
479.75	54.327
480.10	54.531
480.45	54.850
480.79	56.647
481.14	56.762
481.49	54.926
481.84	56.419
482.19	54.911
482.53	56.163
482.88	53.986
483.23	55.134
483.58	55.519
483.92	55.227
484.27	54.831
484.62	55.491
484.97	54.726
485.31	55.491
485.66	53.923
486.01	54.508
486.36	53.380
486.70	53.892
487.05	53.630
487.40	53.671
487.75	54.761
488.09	52.750
488.44	53.645
488.79	54.427
489.13	55.929
489.48	55.665
489.83	56.547
490.17	55.640
490.52	56.074
490.87	54.743
491.22	57.593
491.56	56.309
491.91	56.597
492.26	58.289
492.60	57.054
492.95	56.567
493.30	56.229
493.64	57.024
493.99	56.763
494.34	56.214
494.68	56.619
495.03	55.815
495.37	56.820
495.72	58.051
496.07	58.244
496.41	57.500
496.76	56.840
497.11	55.845
497.45	56.754
497.80	58.729
498.14	56.384
498.49	58.710
498.84	57.335
499.18	57.681
499.53	58.185
499.87	57.296
500.22	58.259
500.56	57.943
500.91	58.283
501.26	57.242
501.60	58.682
501.95	58.661
502.29	58.208
502.64	58.929
502.98	59.151
503.33	57.589
503.67	57.687
504.02	58.162
504.36	59.525
504.71	58.434
505.06	59.034
505.40	58.071
505.75	59.021
506.09	59.655
506.44	60.267
506.78	60.000
507.13	59.772
507.47	58.329
507.82	59.509
508.16	60.222
508.51	60.493
508.85	59.864
509.19	60.564
509.54	60.054
509.88	59.817
510.23	60.194
510.57	60.128
510.92	58.689
511.26	60.556
511.61	61.221
511.95	60.658
512.30	60.754
512.64	59.933
512.98	61.258
513.33	60.940
513.67	60.546
514.02	62.471
514.36	62.000
514.70	62.646
515.05	61.751
515.39	62.574
515.74	63.473
516.08	63.359
516.42	63.310
516.77	63.019
517.11	63.917
517.46	63.076
517.80	63.111
518.14	63.625
518.49	62.440
518.83	63.062
519.17	62.826
519.52	61.871
519.86	62.365
520.20	62.697
520.55	63.852
520.89	64.555
521.23	63.901
521.58	65.174
521.92	64.872
522.26	66.168
522.61	64.416
522.95	66.490
523.29	64.549
523.64	64.485
523.98	65.068
524.32	64.562
524.66	66.325
525.01	65.714
525.35	65.781
525.69	66.734
526.04	65.939
526.38	67.250
526.72	64.356
527.06	65.110
527.41	66.227
527.75	65.550
528.09	65.515
528.43	66.982
528.78	65.875
529.12	66.194
529.46	65.562
529.80	64.535
530.15	66.403
530.49	67.811
530.83	66.895
531.17	66.488
531.51	67.168
531.86	66.417
532.20	67.154
532.54	66.916
532.88	67.214
533.22	67.540
533.57	67.366
533.91	66.253
534.25	68.424
534.59	66.325
534.93	65.513
535.27	65.673
535.62	67.531
535.96	66.732
536.30	66.227
536.64	68.849
536.98	67.735
537.32	69.417
537.66	67.111
538.01	68.462
538.35	67.753
538.69	67.244
539.03	66.097
539.37	67.564
539.71	67.553
540.05	67.142
540.39	68.213
540.73	68.759
541.07	68.370
541.42	67.406
541.76	68.410
542.10	67.653
542.44	67.964
542.78	66.483
543.12	68.132
543.46	69.819
543.80	69.257
544.14	67.023
544.48	68.554
544.82	68.421
545.16	69.467
545.50	67.824
545.84	69.334
546.18	70.638
546.52	68.421
546.86	68.152
547.20	69.671
547.54	68.269
547.88	68.750
548.22	67.916
548.56	68.140
548.90	69.407
549.24	67.700
549.58	68.336
549.92	67.834
550.26	69.597
550.60	69.591
550.94	70.202
551.28	71.561
551.62	71.846
551.96	70.526
552.30	70.541
552.64	68.688
552.98	71.378
553.32	70.043
553.66	70.102
554.00	70.292
554.34	72.747
554.68	69.985
555.02	71.429
555.36	70.007
555.69	70.330
556.03	70.236
556.37	70.107
556.71	70.397
557.05	73.378
557.39	70.260
557.73	72.264
558.07	72.474
558.41	72.205
558.75	72.486
559.08	73.128
559.42	71.667
559.76	73.739
560.10	72.630
560.44	73.194
560.78	71.818
561.12	72.638
561.45	72.874
561.79	73.459
562.13	72.463
562.47	72.014
562.81	71.614
563.15	70.874
563.48	72.277
563.82	73.644
564.16	74.164
564.50	72.500
564.84	71.352
565.17	71.563
565.51	73.429
565.85	73.182
566.19	71.552
566.52	73.861
566.86	72.429
567.20	71.918
567.54	72.567
567.88	72.408
568.21	73.133
568.55	72.011
568.89	71.612
569.23	71.112
569.56	70.009
569.90	69.874
570.24	67.436
570.57	68.945
570.91	69.536
571.25	68.497
571.59	68.328
571.92	67.230
572.26	68.418
572.60	68.155
572.93	66.395
573.27	67.680
573.61	68.288
573.95	66.931
574.28	66.949
574.62	66.514
574.96	66.492
575.29	66.734
575.63	65.976
575.97	66.495
576.30	66.995
576.64	66.861
576.98	67.593
577.31	67.633
577.65	67.638
577.98	67.202
578.32	66.653
578.66	65.614
578.99	66.589
579.33	66.700
579.67	66.717
580.00	67.013
580.34	67.612
580.67	67.359
581.01	67.603
581.35	67.054
581.68	67.546
582.02	67.040
582.35	67.372
582.69	67.764
583.02	67.934
583.36	66.927
583.70	68.250
584.03	69.475
584.37	69.509
584.70	68.654
585.04	68.368
585.37	67.961
585.71	68.279
586.04	68.558
586.38	68.792
586.72	69.871
587.05	70.479
587.39	70.506
587.72	71.651
588.06	69.305
588.39	70.578
588.73	71.093
589.06	71.135
589.40	70.792
589.73	70.756
590.07	71.677
590.40	71.749
590.73	74.012
591.07	72.137
591.40	73.063
591.74	74.072
592.07	74.119
592.41	73.454
592.74	72.959
593.08	70.555
593.41	71.170
593.75	71.573
594.08	71.473
594.41	71.761
594.75	72.519
595.08	72.077
595.42	73.059
595.75	72.400
596.09	72.948
596.42	73.874
596.75	72.513
597.09	73.121
597.42	72.267
597.75	73.431
598.09	72.159
598.42	72.383
598.76	72.716
599.09	73.197
599.42	71.201
599.76	71.783
600.09	71.795
600.42	71.835
600.76	70.988
601.09	73.130
601.42	72.229
601.76	72.568
602.09	73.350
602.42	74.684
602.76	72.793
603.09	73.671
603.42	74.875
603.76	74.032
604.09	73.917
604.42	73.731
604.76	75.211
605.09	73.995
605.42	74.312
605.75	75.744
606.09	73.970
606.42	73.394
606.75	73.636
607.09	72.440
607.42	74.214
607.75	74.112
608.08	73.046
608.42	73.458
608.75	75.663
609.08	75.884
609.41	75.685
609.75	74.194
610.08	75.637
610.41	74.493
610.74	74.842
611.07	77.261
611.41	77.426
611.74	76.652
612.07	74.893
612.40	77.462
612.73	77.684
613.07	75.028
613.40	76.915
613.73	78.344
614.06	76.516
614.39	76.988
614.72	75.518
615.06	76.480
615.39	76.310
615.72	74.058
616.05	76.704
616.38	74.473
616.71	76.575
617.05	79.061
617.38	78.127
617.71	79.623
618.04	79.048
618.37	78.247
618.70	79.340
619.03	81.528
619.36	79.522
619.69	82.108
620.03	80.205
620.36	79.041
620.69	79.800
621.02	79.358
621.35	82.407
621.68	82.313
622.01	83.417
622.34	80.287
622.67	81.703
623.00	80.398
623.33	80.640
623.66	80.703
623.99	80.030
624.32	80.000
624.65	79.925
624.99	80.963
625.32	80.061
625.65	82.325
625.98	83.078
626.31	80.299
626.64	83.276
626.97	82.810
627.30	82.487
627.63	82.929
627.96	82.570
628.29	83.626
628.62	87.414
628.95	84.469
629.28	87.198
629.61	85.045
629.94	86.413
630.26	83.399
630.59	87.617
630.92	85.949
631.25	84.615
631.58	87.445
631.91	85.965
632.24	87.500
632.57	86.364
632.90	89.087
633.23	87.176
633.56	89.924
633.89	87.176
634.22	89.136
634.55	90.470
634.88	89.783
635.20	89.231
635.53	90.933
635.86	89.857
636.19	90.298
636.52	89.668
636.85	86.352
637.18	87.925
637.51	89.560
637.83	88.305
638.16	93.997
638.49	87.738
638.82	88.684
639.15	90.095
639.48	91.884
639.81	91.911
640.13	90.765
640.46	92.857
640.79	91.163
641.12	90.694
641.45	92.643
641.77	90.963
642.10	93.207
642.43	92.444
642.76	96.700
643.09	92.084
643.41	90.453
643.74	91.104
644.07	92.118
644.40	93.243
644.73	96.497
645.05	90.940
645.38	97.884
645.71	93.440
646.04	96.050
646.36	95.390
646.69	97.842
647.02	101.701
647.35	94.403
647.67	91.773
648.00	96.082
648.33	94.198
648.66	94.576
648.98	91.625
649.31	93.719
649.64	90.424
649.96	91.734
650.29	93.356
650.62	91.624
650.94	96.852
651.27	93.669
651.60	94.414
651.92	92.308
652.25	92.362
652.58	90.500
652.90	93.482
653.23	91.765
653.56	91.709
653.88	91.409
654.21	91.769
654.54	89.643
654.86	92.360
655.19	84.357
655.52	81.734
655.84	74.011
656.17	81.078
656.49	100.000
656.82	100.000
657.15	99.267
657.47	63.521
657.80	47.751
658.13	46.451
658.45	72.508
658.78	71.296
659.10	70.932
659.43	71.754
659.75	74.840
660.08	76.483
660.41	81.512
660.73	84.807
661.06	93.068
661.38	90.998
661.71	92.402
662.03	97.210
662.36	99.121
662.68	96.681
663.01	99.345
663.33	96.984
663.66	96.279
663.98	95.581
664.31	91.898
664.63	97.696
664.96	92.609
665.28	96.468
665.61	95.671
665.93	94.565
666.26	95.011
666.58	96.644
666.91	95.529
667.23	98.113
667.56	95.735
667.88	95.444
668.21	95.704
668.53	98.345
668.86	97.406
669.18	96.698
669.50	95.642
669.83	95.349
670.15	97.203
670.48	100.000
670.80	97.235
671.13	94.631
671.45	92.009
671.77	94.850
672.10	89.307
672.42	91.386
672.75	90.764
673.07	88.014
673.39	89.908
673.72	89.349
674.04	92.917
674.37	90.466
674.69	93.148
675.01	94.222
675.34	93.018
675.66	96.759
675.98	94.457
676.31	93.349
676.63	96.437
676.95	89.545
677.28	99.294
677.60	100.723
677.92	92.202
678.25	90.153
678.57	93.506
678.89	91.387
679.22	99.776
679.54	91.566
679.86	90.258
680.18	90.291
680.51	91.288
680.83	91.054
681.15	91.200
681.48	92.828
681.80	89.463
682.12	89.516
682.44	90.377
682.77	92.053
683.09	90.160
683.41	89.545
683.73	92.627
684.06	90.708
684.38	88.817
684.70	95.643
685.02	92.116
685.34	85.178
685.67	88.931
685.99	86.618
686.31	87.080
686.63	89.054
686.96	88.783
687.28	90.303
687.60	86.312
687.92	92.323
688.24	90.927
688.56	93.013
688.89	92.411
689.21	92.889
689.53	94.432
689.85	90.233
690.17	92.187
690.49	91.253
690.82	91.262
691.14	93.095
691.46	92.523
691.78	92.568
692.10	93.763
692.42	91.342
692.74	90.171
693.06	89.865
693.39	92.534
693.71	89.140
694.03	91.224
694.35	90.888
694.67	93.939
694.99	88.773
695.31	95.561
695.63	91.750
695.95	90.657
696.27	90.155
696.59	93.889
696.91	94.678
697.23	90.746
697.56	91.584
697.88	88.817
698.20	89.977
698.52	94.118
698.84	89.952
699.16	92.500
699.48	89.724
699.80	86.849
700.12	91.105
700.44	91.877
700.76	90.988
701.08	93.636
701.40	93.072
701.72	98.457
702.04	102.970
702.36	99.666
702.68	95.195
703.00	92.727
703.32	93.842
703.64	86.441
703.96	88.986
704.28	97.239
704.60	96.825
704.91	92.114
705.23	95.349
705.55	100.353
705.87	103.249
706.19	94.074
706.51	92.440
706.83	95.177
707.15	92.212
707.47	92.437
707.79	85.938
708.11	89.000
708.43	88.500
708.74	89.147
709.06	90.423
709.38	91.437
709.70	88.757
710.02	92.038
710.34	93.498
710.66	87.500
710.98	95.695
711.29	90.492
711.61	97.288
711.93	90.554
712.25	95.189
712.57	94.139
712.89	94.776
713.20	96.886
713.52	92.334
713.84	92.491
714.16	90.034
714.48	90.645
714.80	90.385
715.11	86.322
715.43	92.163
715.75	87.667
716.07	89.037
716.39	87.584
716.70	90.775
717.02	95.802
717.34	97.571
717.66	103.982
717.97	94.348
718.29	94.979
718.61	90.157
718.93	89.147
719.24	87.833
719.56	97.992
719.88	86.254
720.20	91.667
720.51	92.337
720.83	93.436
721.15	96.639
721.46	95.565
721.78	90.909
722.10	86.617
722.42	90.041
722.73	95.102
723.05	92.245
723.37	100.847
723.68	90.090
724.00	94.872
724.32	94.222
724.63	92.273
724.95	94.323
725.27	101.843
725.58	98.305
725.90	90.476
726.22	89.189
726.53	85.763
726.85	85.768
727.16	93.208
727.48	87.449
727.80	89.474
728.11	86.864
728.43	87.059
728.74	88.710
729.06	93.200
729.38	94.361
729.69	88.845
730.01	82.308
730.32	87.313
730.64	84.099
730.96	96.981
731.27	81.333
731.59	94.915
731.90	87.261
732.22	86.435
732.53	82.724
732.85	94.681
733.16	91.246
733.48	83.813
733.80	93.478
734.11	84.068
734.43	90.722
734.74	83.939
735.06	87.296
735.37	83.082
735.69	88.889
736.00	84.669
736.32	85.570
736.63	82.042
736.95	86.689
737.26	86.833
737.58	81.544
737.89	85.714
738.21	88.722
738.52	90.123
738.83	94.323
739.15	90.830
739.46	94.882
739.78	85.714
740.09	80.065
740.41	90.217
740.72	89.370
741.04	88.259
741.35	86.809
741.66	94.313
741.98	91.327
742.29	88.119
742.61	95.288
742.92	84.360
743.23	86.574
743.55	85.068
743.86	89.952
744.18	88.995
744.49	98.936
744.80	98.370
745.12	104.278
745.43	89.268
745.74	103.646
746.06	90.244
746.37	101.571
746.68	88.626
747.00	95.745
747.31	102.488
747.62	86.893
747.94	92.344
748.25	94.554
748.56	92.896
748.88	92.147
749.19	102.128
749.50	95.567
749.82	86.321
750.13	88.532
750.44	91.729
750.75	87.313
751.07	89.781
751.38	85.824
751.69	80.000
752.01	89.147
752.32	88.446
752.63	86.166
752.94	90.948
753.26	89.121
753.57	85.068
753.88	88.496
754.19	87.917
754.51	88.017
754.82	89.069
755.13	89.167
755.44	85.081
755.75	85.547
756.07	87.160
756.38	82.642
756.69	80.460
757.00	79.000
757.31	79.085
757.63	79.573
757.94	77.222
758.25	76.986
758.56	78.457
758.87	77.054
759.18	77.259
759.50	81.818
759.81	81.605
760.12	87.097
760.43	79.091
760.74	83.951
761.05	80.923
761.36	76.989
761.67	81.212
761.99	85.374
762.30	76.364
762.61	77.866
762.92	80.543
763.23	83.784
763.54	85.514
763.85	86.864
764.16	83.402
764.47	77.823
764.78	80.586
765.10	86.869
765.41	79.811
765.72	79.683
766.03	82.331
766.34	81.022
766.65	82.869
766.96	86.364
767.27	88.830
767.58	78.161
767.89	95.035
768.20	77.841
768.51	89.011
768.82	80.788
769.13	86.175
769.44	78.112
769.75	80.365
770.06	79.310
770.37	79.327
770.68	85.279
770.99	81.448
771.30	93.627
771.61	81.448
771.92	83.190
772.23	80.788
772.54	83.333
772.85	87.654
773.16	80.899
773.47	94.118
773.78	100.654
774.09	84.431
774.39	77.333
774.70	83.439
775.01	88.276
775.32	90.000
775.63	87.603
775.94	87.786
776.25	87.402
776.56	88.333
776.87	92.308
777.18	83.761
777.48	100.000
777.79	92.174
778.10	80.952
778.41	81.982
778.72	96.032
779.03	86.466
779.34	84.397
779.65	86.301
779.95	84.932
780.26	82.069
780.57	85.366
780.88	89.764
781.19	93.966
781.50	96.124
781.80	81.657
782.11	83.019
782.42	90.000
782.73	80.576
783.04	84.444
783.34	78.472
783.65	76.923
783.96	95.902
784.27	80.000
784.57	90.244
784.88	85.156
785.19	95.000
785.50	97.000
785.81	87.069
786.11	82.759
786.42	85.437
786.73	96.364
787.04	86.735
787.34	81.250
787.65	86.667
787.96	77.876
788.26	94.545
788.57	88.889
788.88	82.813
789.19	73.016
789.49	86.087
789.80	94.898
790.11	73.737
790.41	78.182
790.72	86.957
791.03	88.636
791.33	86.250
791.64	95.000
791.95	77.907
792.25	81.915
792.56	80.899
792.87	87.671
793.17	85.507
793.48	85.333
793.79	85.000
794.09	98.750
794.40	77.358
794.70	94.175
795.01	70.732
795.32	87.179
795.62	80.000
795.93	74.510
796.23	79.245
796.54	77.083
796.85	100.000
797.15	90.141
797.46	95.833
797.76	107.576
798.07	81.395
798.37	71.053
798.68	72.727
798.99	79.012
799.29	98.571
799.60	92.754
799.90	85.333
800.21	100.000
800.51	76.923
800.82	83.051
801.12	81.159
801.43	78.689
801.73	90.476
802.04	82.000
802.34	86.567
802.65	107.692
802.95	87.500
803.26	67.308
803.56	113.725
803.87	97.826
804.17	81.333
804.48	84.127
804.78	96.296
805.09	84.783
805.39	97.778
805.70	98.148
806.00	70.175
806.30	87.324
806.61	84.286
806.91	65.278
807.22	78.947
807.52	72.000
807.83	85.455
808.13	75.000
808.43	89.706
808.74	80.597
809.04	84.746
809.35	123.077
809.65	65.625
809.95	75.676
810.26	100.000
810.56	67.123
810.86	102.381
811.17	92.000
811.47	75.510
811.77	92.105
812.08	88.636
812.38	92.453
812.69	82.500
812.99	96.970
813.29	86.842
813.59	71.429
813.90	102.273
814.20	79.487
814.50	63.462
814.81	107.547
815.11	80.851
815.41	77.966
815.72	83.333
816.02	94.118
816.32	79.167
816.62	48.780
816.93	72.973
817.23	82.857
817.53	85.417
817.84	95.652
818.14	59.615
818.44	81.579
818.74	91.304
819.04	60.000
819.35	94.595
819.65	97.059
819.95	77.778
820.25	69.048
820.56	87.500
820.86	79.310
821.16	107.500
821.46	93.617
821.76	87.500
822.07	90.698
822.37	37.838
822.67	78.125
822.97	85.714
823.27	64.286
823.57	104.000
823.88	88.889
824.18	92.857
824.48	88.235
824.78	61.290
825.08	104.348
825.38	81.818
825.69	91.667
825.99	84.211
826.29	105.556
826.59	140.000
826.89	71.429
827.19	93.478
827.49	65.000
827.79	91.429
828.09	107.143
828.39	112.121
828.70	121.622
829.00	75.000
829.30	95.238
829.60	116.667
829.90	109.375
830.20	73.684
830.50	100.000
830.80	100.000
831.10	109.091
831.40	115.152
831.70	93.548
832.00	95.238
832.30	109.524
832.60	183.333
832.90	75.862
833.20	145.000
833.50	100.000
833.80	92.593
834.10	73.077
834.40	87.500
834.70	177.778
835.00	84.211
835.30	157.692
835.60	100.000
835.90	90.323
836.20	100.000
836.50	110.714
836.80	38.462
837.10	114.286
837.40	500.000
837.70	104.545
838.00	172.727
838.30	73.913
838.60	92.308
838.90	77.273
839.19	60.714
839.49	80.000
839.79	100.000
840.09	50.000
840.39	89.286
840.69	85.714
840.99	34.615
841.29	15.789
841.59	100.000
841.88	118.182
842.18	40.000
842.48	112.500
842.78	73.333
843.08	70.370
843.38	30.000
843.68	86.957
843.97	166.667
844.27	60.000
844.57	195.000
844.87	83.333
845.17	109.524
845.47	93.333
845.76	71.429
846.06	88.235
846.36	80.000
846.66	78.571
846.96	100.000
847.25	25.000
847.55	64.286
847.85	125.000
848.15	27.273
848.44	66.667
848.74	110.000
849.04	55.556
849.34	154.545
849.63	83.333
849.93	60.000
850.23	72.222
850.53	150.000
850.82	69.231
851.12	66.667
851.42	113.333
851.71	61.538
852.01	78.571
852.31	150.000
852.61	72.727
852.90	90.000
853.20	84.211
853.50	83.333
853.79	52.174
854.09	112.500
854.39	78.947
854.68	45.833
854.98	80.645
855.28	134.615
855.57	70.000
855.87	94.444
856.17	77.778
856.46	128.571
856.76	40.000
857.05	188.889
857.35	52.000
857.65	88.889
857.94	84.615
858.24	96.552
858.53	133.333
858.83	62.963
859.13	50.000
859.42	8.696
859.72	300.000
860.01	266.667
860.31	72.000
860.60	61.905
860.90	133.333
861.20	60.000
861.49	-300.000
861.79	113.333
862.08	90.000
862.38	106.667
862.67	80.000
862.97	83.333
863.26	150.000
863.56	138.889
863.85	200.000
864.15	105.556
864.44	110.000
864.74	71.429
865.03	75.000
865.33	20.000
865.62	166.667
865.92	75.000
866.21	50.000
866.51	100.000
866.80	81.818
867.10	0.000
867.39	83.333
867.69	0.000
867.98	92.308
868.27	-33.333
868.57	13.333
868.86	72.222
869.16	69.231
869.45	86.667
869.75	200.000
870.04	0.000
870.33	28.571
870.63	76.190
870.92	-200.000
871.22	-300.000
871.51	-200.000
871.80	200.000
872.10	100.000
>>>>>End Processed Spectral Data<<<<<
