SpectraSuite Data File
++++++++++++++++++++++++++++++++++++
Date: Fri May 15 17:03:40 PDT 2015
User: schluterlab
Dark Spectrum Present: Yes
Reference Spectrum Present: Yes
Number of Sampled Component Spectra: 1
Spectrometers: USB2E3373
Integration Time (usec): 3000 (USB2E3373)
Spectra Averaged: 3 (USB2E3373)
Boxcar Smoothing: 0 (USB2E3373)
Correct for Electrical Dark: No (USB2E3373)
Strobe/Lamp Enabled: No (USB2E3373)
Correct for Detector Non-linearity: No (USB2E3373)
Correct for Stray Light: No (USB2E3373)
Number of Pixels in Processed Spectrum: 2048
>>>>>Begin Processed Spectral Data<<<<<
178.53	0.000
178.91	0.000
179.29	112.500
179.67	-600.000
180.04	57.143
180.42	200.000
180.80	700.000
181.18	-333.333
181.56	-50.000
181.94	300.000
182.31	-900.000
182.69	-20.000
183.07	100.000
183.45	180.000
183.83	83.333
184.20	90.909
184.58	77.778
184.96	-150.000
185.34	-100.000
185.72	0.000
186.09	69.231
186.47	100.000
186.85	-50.000
187.23	-22.222
187.61	-1000.000
187.98	100.000
188.36	88.889
188.74	-100.000
189.12	35.294
189.49	44.444
189.87	0.000
190.25	28.571
190.63	500.000
191.00	0.000
191.38	36.842
191.76	650.000
192.14	-125.000
192.51	-100.000
192.89	-33.333
193.27	14.286
193.65	-66.667
194.02	54.545
194.40	20.000
194.78	0.000
195.15	-8.333
195.53	100.000
195.91	-0.000
196.29	100.000
196.66	61.538
197.04	42.857
197.42	-33.333
197.79	-333.333
198.17	-23.077
198.55	1100.000
198.92	-233.333
199.30	600.000
199.68	40.000
200.05	0.000
200.43	0.000
200.81	166.667
201.18	66.667
201.56	-700.000
201.94	-250.000
202.31	-200.000
202.69	80.000
203.07	75.000
203.44	-100.000
203.82	0.000
204.19	78.571
204.57	0.000
204.95	-0.000
205.32	60.000
205.70	71.429
206.08	-50.000
206.45	166.667
206.83	150.000
207.20	-14.286
207.58	-1000.000
207.96	333.333
208.33	60.000
208.71	300.000
209.08	-66.667
209.46	-300.000
209.84	260.000
210.21	-1400.000
210.59	185.714
210.96	233.333
211.34	100.000
211.71	46.667
212.09	-128.571
212.46	-600.000
212.84	0.000
213.22	30.000
213.59	-0.000
213.97	76.923
214.34	63.636
214.72	33.333
215.09	100.000
215.47	-15.385
215.84	-63.636
216.22	-200.000
216.59	25.000
216.97	950.000
217.34	225.000
217.72	-40.000
218.09	125.000
218.47	37.500
218.84	200.000
219.22	-33.333
219.59	140.000
219.97	333.333
220.34	150.000
220.72	57.143
221.09	175.000
221.47	150.000
221.84	-650.000
222.22	-450.000
222.59	45.455
222.97	125.000
223.34	0.000
223.72	78.571
224.09	66.667
224.46	42.857
224.84	-66.667
225.21	120.000
225.59	120.000
225.96	-100.000
226.34	-75.000
226.71	200.000
227.08	100.000
227.46	162.500
227.83	-50.000
228.21	55.556
228.58	27.273
228.95	12.500
229.33	30.000
229.70	43.750
230.08	-50.000
230.45	-28.571
230.82	85.714
231.20	80.000
231.57	114.286
231.95	-114.286
232.32	-30.000
232.69	92.857
233.07	333.333
233.44	-40.000
233.81	0.000
234.19	88.889
234.56	52.941
234.93	-250.000
235.31	25.000
235.68	-160.000
236.05	15.385
236.43	-40.000
236.80	47.059
237.17	21.875
237.55	40.000
237.92	25.926
238.29	16.667
238.67	43.333
239.04	-2.941
239.41	-17.073
239.79	-6.667
240.16	24.390
240.53	-13.158
240.91	6.522
241.28	7.937
241.65	5.357
242.02	16.438
242.40	18.333
242.77	8.475
243.14	4.545
243.51	8.750
243.89	6.897
244.26	4.598
244.63	-3.571
245.00	7.216
245.38	6.186
245.75	1.124
246.12	-2.586
246.49	7.438
246.87	2.885
247.24	0.000
247.61	-4.386
247.98	6.504
248.36	4.375
248.73	4.605
249.10	5.844
249.47	6.962
249.84	-1.307
250.22	-0.588
250.59	6.536
250.96	5.634
251.33	-4.651
251.70	7.059
252.08	2.030
252.45	1.485
252.82	5.025
253.19	-0.461
253.56	-3.271
253.94	4.505
254.31	3.043
254.68	6.579
255.05	1.181
255.42	3.493
255.79	3.089
256.16	2.724
256.54	5.970
256.91	6.084
257.28	2.230
257.65	0.000
258.02	0.000
258.39	3.367
258.76	4.762
259.14	2.658
259.51	1.942
259.88	1.031
260.25	1.961
260.62	2.778
260.99	3.729
261.36	1.712
261.73	3.481
262.10	4.559
262.47	-1.534
262.85	-0.940
263.22	2.769
263.59	3.427
263.96	1.863
264.33	3.939
264.70	0.298
265.07	0.298
265.44	0.283
265.81	3.672
266.18	4.372
266.55	5.656
266.92	2.073
267.29	0.261
267.66	4.092
268.03	2.094
268.40	1.567
268.77	6.952
269.14	0.959
269.51	2.828
269.88	3.741
270.25	-0.510
270.62	1.220
270.99	2.046
271.36	1.956
271.73	1.174
272.10	3.163
272.47	1.891
272.84	0.000
273.21	2.784
273.58	1.687
273.95	1.831
274.32	2.771
274.69	2.036
275.06	3.348
275.43	0.000
275.80	1.766
276.17	0.460
276.54	2.998
276.91	0.658
277.28	-0.437
277.65	4.339
278.02	2.553
278.39	-0.219
278.76	1.048
279.13	0.415
279.50	2.521
279.87	2.160
280.23	0.000
280.60	3.704
280.97	1.212
281.34	0.385
281.71	5.133
282.08	0.000
282.45	0.978
282.82	0.000
283.19	1.354
283.56	0.385
283.92	1.708
284.29	0.000
284.66	1.744
285.03	2.358
285.40	1.323
285.77	0.351
286.14	-0.181
286.51	3.690
286.87	1.645
287.24	-1.105
287.61	0.353
287.98	2.632
288.35	0.347
288.72	1.401
289.08	1.389
289.45	2.636
289.82	2.797
290.19	-0.341
290.56	1.029
290.93	-0.168
291.29	1.695
291.66	1.417
292.03	0.000
292.40	0.000
292.77	1.754
293.13	-0.325
293.50	0.607
293.87	1.221
294.24	0.618
294.60	2.683
294.97	2.232
295.34	1.687
295.71	2.385
296.08	2.242
296.44	0.569
296.81	0.972
297.18	0.435
297.55	2.981
297.91	0.411
298.28	2.375
298.65	1.357
299.02	2.022
299.38	0.000
299.75	2.345
300.12	0.524
300.48	2.635
300.85	1.901
301.22	1.429
301.59	1.974
301.95	2.785
302.32	2.464
302.69	1.617
303.05	0.619
303.42	2.491
303.79	1.869
304.15	2.509
304.52	0.000
304.89	1.754
305.25	0.847
305.62	0.000
305.99	1.287
306.35	0.347
306.72	1.237
307.09	0.912
307.45	2.067
307.82	1.852
308.19	2.671
308.55	1.527
308.92	2.070
309.29	0.447
309.65	0.753
310.02	0.550
310.38	3.513
310.75	1.858
311.12	1.938
311.48	1.909
311.85	2.304
312.22	1.793
312.58	2.442
312.95	2.241
313.31	1.760
313.68	2.408
314.05	1.633
314.41	2.268
314.78	2.371
315.14	4.214
315.51	3.727
315.87	3.176
316.24	4.044
316.61	4.429
316.97	4.365
317.34	4.102
317.70	3.250
318.07	4.038
318.43	5.490
318.80	4.167
319.16	5.664
319.53	6.268
319.89	6.102
320.26	7.085
320.62	7.021
320.99	5.741
321.35	7.194
321.72	8.204
322.08	7.855
322.45	7.411
322.81	7.466
323.18	7.753
323.54	8.012
323.91	9.834
324.27	8.301
324.64	9.644
325.00	10.766
325.37	11.478
325.73	10.607
326.10	11.898
326.46	12.108
326.83	13.211
327.19	12.990
327.56	13.553
327.92	14.965
328.29	14.196
328.65	15.283
329.01	16.176
329.38	15.115
329.74	15.675
330.11	15.755
330.47	16.605
330.84	17.885
331.20	19.867
331.56	18.889
331.93	18.721
332.29	18.698
332.66	17.376
333.02	19.796
333.38	19.982
333.75	20.604
334.11	20.233
334.48	21.215
334.84	21.429
335.20	21.775
335.57	20.490
335.93	20.867
336.29	21.915
336.66	22.071
337.02	21.283
337.38	21.852
337.75	21.364
338.11	22.272
338.47	21.807
338.84	22.828
339.20	22.578
339.56	23.028
339.93	21.844
340.29	24.037
340.65	23.566
341.02	22.340
341.38	22.566
341.74	21.643
342.11	22.097
342.47	22.687
342.83	22.751
343.20	22.300
343.56	22.435
343.92	22.321
344.28	22.545
344.65	22.453
345.01	21.867
345.37	21.615
345.73	22.259
346.10	22.433
346.46	22.876
346.82	22.095
347.19	22.195
347.55	23.141
347.91	23.544
348.27	22.474
348.63	21.124
349.00	22.149
349.36	22.278
349.72	23.217
350.08	23.115
350.45	22.745
350.81	20.930
351.17	21.987
351.53	23.347
351.89	22.378
352.26	21.760
352.62	22.661
352.98	21.044
353.34	21.417
353.70	21.683
354.07	21.774
354.43	22.658
354.79	22.213
355.15	22.698
355.51	22.706
355.87	22.168
356.24	21.452
356.60	21.746
356.96	22.937
357.32	22.364
357.68	21.658
358.04	20.759
358.40	21.383
358.77	22.408
359.13	23.058
359.49	21.109
359.85	21.841
360.21	21.930
360.57	21.500
360.93	22.466
361.29	21.526
361.66	22.806
362.02	22.727
362.38	22.163
362.74	21.953
363.10	21.971
363.46	21.497
363.82	23.140
364.18	22.066
364.54	20.368
364.90	21.505
365.26	20.888
365.62	23.066
365.98	21.261
366.35	22.068
366.71	22.321
367.07	21.843
367.43	21.999
367.79	21.979
368.15	23.044
368.51	22.870
368.87	21.536
369.23	21.805
369.59	22.230
369.95	22.581
370.31	22.471
370.67	22.015
371.03	21.658
371.39	21.736
371.75	23.150
372.11	21.683
372.47	23.151
372.83	22.569
373.19	22.753
373.55	22.022
373.91	22.462
374.27	23.317
374.63	22.757
374.99	22.837
375.35	23.329
375.71	23.846
376.07	22.963
376.42	23.878
376.78	23.490
377.14	22.004
377.50	22.510
377.86	24.230
378.22	23.421
378.58	23.397
378.94	22.936
379.30	23.706
379.66	24.075
380.02	22.931
380.38	23.615
380.74	24.117
381.09	23.988
381.45	23.303
381.81	24.800
382.17	23.541
382.53	23.860
382.89	24.545
383.25	23.584
383.61	24.939
383.97	23.365
384.32	24.265
384.68	23.467
385.04	23.529
385.40	23.771
385.76	24.969
386.12	25.162
386.48	24.968
386.83	23.970
387.19	24.786
387.55	25.533
387.91	24.450
388.27	24.115
388.62	25.739
388.98	24.187
389.34	25.734
389.70	25.979
390.06	24.166
390.42	25.000
390.77	25.311
391.13	24.842
391.49	25.550
391.85	24.431
392.20	25.110
392.56	23.713
392.92	25.719
393.28	25.177
393.64	25.345
393.99	25.329
394.35	25.553
394.71	24.904
395.07	25.330
395.42	24.894
395.78	24.821
396.14	24.149
396.50	25.935
396.85	25.692
397.21	26.316
397.57	25.266
397.92	25.524
398.28	25.977
398.64	24.639
399.00	25.847
399.35	25.000
399.71	26.307
400.07	25.756
400.42	24.357
400.78	26.087
401.14	24.743
401.49	25.610
401.85	25.107
402.21	26.024
402.57	25.313
402.92	24.843
403.28	26.128
403.63	26.040
403.99	25.446
404.35	25.921
404.70	25.238
405.06	25.499
405.42	26.227
405.77	24.753
406.13	25.146
406.49	26.051
406.84	25.489
407.20	25.226
407.55	24.404
407.91	26.003
408.27	25.558
408.62	25.908
408.98	26.186
409.34	24.969
409.69	24.935
410.05	24.754
410.40	25.679
410.76	24.849
411.11	27.250
411.47	26.298
411.83	24.419
412.18	26.126
412.54	25.655
412.89	24.815
413.25	25.752
413.60	25.839
413.96	25.215
414.31	25.976
414.67	25.337
415.03	25.766
415.38	25.326
415.74	26.189
416.09	26.845
416.45	25.996
416.80	25.711
417.16	25.691
417.51	25.783
417.87	25.750
418.22	26.036
418.58	25.886
418.93	27.586
419.29	25.352
419.64	25.275
420.00	26.511
420.35	26.149
420.71	27.400
421.06	26.458
421.42	25.781
421.77	26.821
422.12	27.015
422.48	26.475
422.83	26.160
423.19	26.524
423.54	26.161
423.90	26.737
424.25	27.210
424.61	26.989
424.96	26.423
425.31	27.787
425.67	27.582
426.02	27.974
426.38	27.364
426.73	28.208
427.09	27.848
427.44	28.059
427.79	28.285
428.15	28.701
428.50	27.983
428.85	27.764
429.21	27.731
429.56	28.679
429.92	28.762
430.27	27.669
430.62	28.332
430.98	28.450
431.33	28.654
431.68	27.525
432.04	27.949
432.39	27.952
432.74	28.262
433.10	29.023
433.45	29.271
433.80	29.193
434.16	28.587
434.51	29.839
434.86	30.081
435.22	29.445
435.57	28.509
435.92	30.000
436.28	29.457
436.63	29.321
436.98	28.969
437.34	29.038
437.69	30.352
438.04	30.142
438.39	29.322
438.75	29.569
439.10	29.711
439.45	30.676
439.81	29.908
440.16	30.523
440.51	30.806
440.86	30.816
441.22	30.430
441.57	30.408
441.92	31.007
442.27	30.266
442.63	30.621
442.98	30.155
443.33	30.217
443.68	30.345
444.03	31.744
444.39	31.284
444.74	31.104
445.09	31.737
445.44	32.137
445.79	32.543
446.15	30.562
446.50	31.559
446.85	31.881
447.20	31.804
447.55	32.980
447.91	31.641
448.26	31.588
448.61	32.873
448.96	32.874
449.31	32.254
449.66	31.533
450.02	32.402
450.37	31.772
450.72	32.875
451.07	32.658
451.42	31.523
451.77	32.791
452.12	31.699
452.47	31.809
452.83	31.920
453.18	32.068
453.53	32.680
453.88	32.787
454.23	33.067
454.58	32.305
454.93	32.990
455.28	32.063
455.63	33.354
455.98	33.313
456.34	32.695
456.69	32.973
457.04	33.333
457.39	32.807
457.74	32.890
458.09	32.549
458.44	31.773
458.79	33.109
459.14	34.439
459.49	34.090
459.84	33.785
460.19	34.769
460.54	33.191
460.89	33.466
461.24	34.224
461.59	33.848
461.94	33.774
462.29	34.620
462.64	33.953
462.99	34.462
463.34	34.075
463.69	32.625
464.04	34.201
464.39	33.960
464.74	34.417
465.09	34.435
465.44	33.987
465.79	33.617
466.14	35.519
466.49	34.043
466.84	34.741
467.19	33.667
467.54	33.844
467.89	33.986
468.24	34.489
468.59	35.429
468.94	34.095
469.29	34.754
469.64	34.176
469.99	35.879
470.34	34.744
470.68	34.750
471.03	34.536
471.38	35.877
471.73	34.874
472.08	34.193
472.43	35.705
472.78	34.681
473.13	34.490
473.48	34.397
473.83	34.433
474.17	34.974
474.52	33.886
474.87	35.333
475.22	35.448
475.57	35.065
475.92	35.820
476.27	35.448
476.61	36.053
476.96	33.575
477.31	36.128
477.66	35.449
478.01	35.317
478.36	34.749
478.70	35.780
479.05	36.099
479.40	36.089
479.75	34.098
480.10	35.279
480.45	35.500
480.79	36.556
481.14	35.605
481.49	36.108
481.84	36.197
482.19	35.126
482.53	35.348
482.88	35.752
483.23	35.701
483.58	35.425
483.92	35.382
484.27	35.506
484.62	35.589
484.97	35.821
485.31	35.947
485.66	36.754
486.01	36.417
486.36	36.705
486.70	36.090
487.05	36.185
487.40	35.858
487.75	36.310
488.09	35.600
488.44	35.695
488.79	36.123
489.13	36.338
489.48	36.597
489.83	36.278
490.17	36.674
490.52	35.704
490.87	35.308
491.22	36.772
491.56	36.338
491.91	35.421
492.26	35.975
492.60	36.756
492.95	36.842
493.30	36.053
493.64	36.886
493.99	36.812
494.34	35.728
494.68	36.048
495.03	36.302
495.37	36.114
495.72	36.951
496.07	36.878
496.41	36.368
496.76	37.402
497.11	37.028
497.45	37.041
497.80	37.891
498.14	36.860
498.49	36.110
498.84	35.479
499.18	36.697
499.53	36.756
499.87	36.479
500.22	37.043
500.56	36.863
500.91	36.948
501.26	36.826
501.60	37.531
501.95	36.924
502.29	36.804
502.64	37.693
502.98	36.704
503.33	36.599
503.67	37.108
504.02	37.537
504.36	37.259
504.71	35.657
505.06	36.990
505.40	36.447
505.75	37.216
506.09	37.861
506.44	37.320
506.78	36.939
507.13	37.487
507.47	37.546
507.82	37.126
508.16	37.190
508.51	37.618
508.85	36.682
509.19	37.041
509.54	38.070
509.88	37.001
510.23	37.816
510.57	36.932
510.92	36.087
511.26	36.989
511.61	37.294
511.95	37.425
512.30	37.528
512.64	37.284
512.98	36.440
513.33	37.717
513.67	36.953
514.02	38.158
514.36	38.343
514.70	38.345
515.05	38.132
515.39	37.190
515.74	38.323
516.08	37.657
516.42	37.515
516.77	36.630
517.11	38.279
517.46	37.343
517.80	37.366
518.14	38.641
518.49	37.200
518.83	38.639
519.17	37.417
519.52	37.774
519.86	36.795
520.20	37.363
520.55	36.460
520.89	38.331
521.23	37.239
521.58	37.413
521.92	38.846
522.26	37.345
522.61	37.922
522.95	38.079
523.29	37.230
523.64	38.501
523.98	38.561
524.32	35.954
524.66	39.117
525.01	37.532
525.35	37.459
525.69	38.047
526.04	36.905
526.38	39.235
526.72	37.475
527.06	36.835
527.41	37.731
527.75	36.796
528.09	37.276
528.43	39.298
528.78	38.218
529.12	37.871
529.46	38.077
529.80	37.619
530.15	39.274
530.49	38.249
530.83	38.235
531.17	37.878
531.51	38.030
531.86	36.982
532.20	37.300
532.54	37.372
532.88	38.056
533.22	39.247
533.57	37.287
533.91	38.577
534.25	39.193
534.59	37.460
534.93	37.319
535.27	38.388
535.62	38.820
535.96	38.095
536.30	38.522
536.64	39.076
536.98	37.909
537.32	39.972
537.66	39.201
538.01	38.951
538.35	38.350
538.69	37.550
539.03	38.141
539.37	38.762
539.71	37.969
540.05	38.764
540.39	38.504
540.73	38.494
541.07	40.262
541.42	38.978
541.76	39.986
542.10	37.233
542.44	37.387
542.78	37.646
543.12	38.874
543.46	38.734
543.80	38.793
544.14	38.451
544.48	38.974
544.82	38.414
545.16	39.208
545.50	39.586
545.84	39.873
546.18	39.078
546.52	38.717
546.86	38.749
547.20	39.771
547.54	38.304
547.88	39.402
548.22	37.607
548.56	38.786
548.90	39.555
549.24	37.948
549.58	39.563
549.92	37.169
550.26	38.755
550.60	37.918
550.94	38.686
551.28	39.413
551.62	39.462
551.96	39.023
552.30	38.889
552.64	38.364
552.98	39.662
553.32	39.586
553.66	38.679
554.00	39.343
554.34	38.774
554.68	37.463
555.02	38.914
555.36	38.968
555.69	38.168
556.03	38.972
556.37	38.648
556.71	37.978
557.05	39.150
557.39	37.993
557.73	39.355
558.07	38.537
558.41	39.433
558.75	38.270
559.08	38.377
559.42	39.286
559.76	40.512
560.10	38.761
560.44	38.273
560.78	38.112
561.12	38.646
561.45	39.775
561.79	40.196
562.13	39.815
562.47	38.993
562.81	38.401
563.15	39.210
563.48	39.533
563.82	40.426
564.16	39.276
564.50	36.892
564.84	39.090
565.17	39.168
565.51	39.891
565.85	40.055
566.19	39.456
566.52	40.147
566.86	39.589
567.20	39.352
567.54	40.815
567.88	40.890
568.21	39.593
568.55	40.163
568.89	40.503
569.23	40.924
569.56	40.149
569.90	41.778
570.24	40.454
570.57	41.091
570.91	41.443
571.25	40.447
571.59	40.361
571.92	39.526
572.26	41.033
572.60	40.000
572.93	39.912
573.27	39.843
573.61	40.274
573.95	40.825
574.28	40.651
574.62	39.868
574.96	39.940
575.29	40.207
575.63	39.907
575.97	39.604
576.30	40.259
576.64	39.894
576.98	41.210
577.31	40.796
577.65	41.193
577.98	40.659
578.32	40.501
578.66	40.533
578.99	40.524
579.33	39.495
579.67	39.692
580.00	40.304
580.34	40.622
580.67	39.812
581.01	40.586
581.35	40.633
581.68	40.819
582.02	40.595
582.35	40.669
582.69	40.826
583.02	40.397
583.36	40.502
583.70	40.888
584.03	40.728
584.37	41.191
584.70	40.577
585.04	39.870
585.37	40.270
585.71	40.583
586.04	40.419
586.38	40.197
586.72	40.603
587.05	41.219
587.39	40.984
587.72	41.170
588.06	40.659
588.39	40.672
588.73	41.026
589.06	41.226
589.40	40.477
589.73	41.256
590.07	40.559
590.40	40.325
590.73	41.021
591.07	40.585
591.40	40.338
591.74	40.090
592.07	40.028
592.41	41.254
592.74	40.860
593.08	39.993
593.41	41.450
593.75	40.922
594.08	40.645
594.41	40.902
594.75	40.267
595.08	40.257
595.42	40.891
595.75	41.307
596.09	41.009
596.42	40.885
596.75	40.364
597.09	40.319
597.42	41.057
597.75	41.686
598.09	40.516
598.42	40.478
598.76	40.841
599.09	41.106
599.42	40.546
599.76	39.992
600.09	40.649
600.42	40.523
600.76	39.710
601.09	39.962
601.42	39.953
601.76	40.651
602.09	39.645
602.42	40.396
602.76	40.280
603.09	41.196
603.42	41.263
603.76	40.524
604.09	40.462
604.42	40.990
604.76	40.988
605.09	40.768
605.42	40.813
605.75	41.243
606.09	39.703
606.42	40.534
606.75	40.779
607.09	41.319
607.42	39.699
607.75	40.586
608.08	39.218
608.42	40.978
608.75	40.771
609.08	40.359
609.41	40.558
609.75	40.927
610.08	40.539
610.41	40.676
610.74	40.029
611.07	40.775
611.41	41.671
611.74	41.684
612.07	40.364
612.40	39.825
612.73	40.508
613.07	40.101
613.40	40.208
613.73	40.683
614.06	41.068
614.39	40.496
614.72	39.720
615.06	40.559
615.39	39.847
615.72	39.290
616.05	40.391
616.38	39.202
616.71	39.633
617.05	40.272
617.38	39.723
617.71	40.063
618.04	41.460
618.37	41.173
618.70	41.584
619.03	41.736
619.36	39.870
619.69	40.106
620.03	41.344
620.36	40.200
620.69	40.899
621.02	40.214
621.35	40.664
621.68	39.966
622.01	39.917
622.34	40.862
622.67	41.483
623.00	39.357
623.33	40.930
623.66	39.566
623.99	39.410
624.32	39.848
624.65	38.722
624.99	40.105
625.32	38.817
625.65	39.434
625.98	40.210
626.31	39.401
626.64	40.728
626.97	41.274
627.30	40.718
627.63	39.428
627.96	40.970
628.29	38.390
628.62	41.101
628.95	40.080
629.28	39.012
629.61	40.379
629.94	39.883
630.26	39.822
630.59	40.166
630.92	39.795
631.25	39.897
631.58	39.648
631.91	37.281
632.24	39.450
632.57	38.977
632.90	38.197
633.23	39.765
633.56	39.043
633.89	38.348
634.22	40.988
634.55	40.152
634.88	38.059
635.20	38.846
635.53	42.667
635.86	40.832
636.19	40.233
636.52	39.796
636.85	39.950
637.18	38.616
637.51	40.252
637.83	39.422
638.16	39.836
638.49	37.875
638.82	40.263
639.15	37.720
639.48	39.477
639.81	40.446
640.13	39.538
640.46	38.484
640.79	37.555
641.12	38.109
641.45	38.438
641.77	41.037
642.10	39.021
642.43	40.193
642.76	39.934
643.09	39.418
643.41	38.026
643.74	37.562
644.07	41.051
644.40	41.216
644.73	37.828
645.05	37.919
645.38	38.801
645.71	40.426
646.04	40.575
646.36	39.184
646.69	39.209
647.02	39.130
647.35	38.433
647.67	35.283
648.00	41.231
648.33	38.908
648.66	37.966
648.98	35.678
649.31	38.182
649.64	38.305
649.96	37.601
650.29	40.204
650.62	37.265
650.94	38.148
651.27	38.920
651.60	37.117
651.92	39.161
652.25	37.833
652.58	38.167
652.90	40.480
653.23	38.992
653.56	38.579
653.88	40.206
654.21	38.354
654.54	37.351
654.86	40.747
655.19	38.596
655.52	40.402
655.84	40.031
656.17	46.019
656.49	62.756
656.82	65.009
657.15	48.922
657.47	36.138
657.80	27.156
658.13	26.141
658.45	40.839
658.78	39.596
659.10	38.777
659.43	38.807
659.75	40.306
660.08	38.966
660.41	41.164
660.73	39.503
661.06	40.555
661.38	39.139
661.71	35.934
662.03	40.343
662.36	38.901
662.68	36.947
663.01	37.773
663.33	38.051
663.66	36.744
663.98	37.442
664.31	37.740
664.63	37.788
664.96	35.870
665.28	37.748
665.61	34.416
665.93	38.696
666.26	39.696
666.58	37.584
666.91	35.765
667.23	39.387
667.56	40.521
667.88	37.410
668.21	35.322
668.53	36.643
668.86	37.500
669.18	35.377
669.50	32.930
669.83	34.884
670.15	34.732
670.48	37.321
670.80	39.401
671.13	36.242
671.45	35.388
671.77	37.339
672.10	36.832
672.42	38.390
672.75	37.123
673.07	39.535
673.39	38.165
673.72	35.306
674.04	35.417
674.37	36.653
674.69	36.617
675.01	40.444
675.34	35.360
675.66	40.509
675.98	35.920
676.31	37.844
676.63	38.717
676.95	36.818
677.28	37.882
677.60	39.759
677.92	38.761
678.25	38.293
678.57	37.446
678.89	35.504
679.22	39.821
679.54	37.349
679.86	35.586
680.18	37.864
680.51	38.258
680.83	37.575
681.15	42.000
681.48	38.934
681.80	39.256
682.12	38.710
682.44	36.192
682.77	40.177
683.09	37.986
683.41	38.864
683.73	35.023
684.06	37.168
684.38	35.484
684.70	39.216
685.02	37.759
685.34	36.166
685.67	37.148
685.99	39.060
686.31	37.876
686.63	38.219
686.96	34.791
687.28	33.939
687.60	34.601
687.92	41.616
688.24	36.694
688.56	37.555
688.89	36.161
689.21	38.889
689.53	36.659
689.85	36.047
690.17	37.946
690.49	36.879
690.82	34.709
691.14	36.667
691.46	37.617
691.78	34.459
692.10	37.204
692.42	36.797
692.74	38.034
693.06	35.586
693.39	33.937
693.71	35.747
694.03	36.028
694.35	36.916
694.67	36.616
694.99	34.204
695.31	34.987
695.63	36.250
695.95	34.848
696.27	34.197
696.59	38.611
696.91	34.174
697.23	36.504
697.56	36.139
697.88	39.785
698.20	35.080
698.52	37.412
698.84	34.689
699.16	39.000
699.48	37.093
699.80	35.980
700.12	35.040
700.44	36.695
700.76	31.977
701.08	28.788
701.40	36.446
701.72	34.877
702.04	38.944
702.36	38.796
702.68	36.637
703.00	37.879
703.32	33.724
703.64	31.638
703.96	34.783
704.28	35.890
704.60	37.143
704.91	30.915
705.23	35.216
705.55	40.989
705.87	37.906
706.19	34.815
706.51	34.708
706.83	38.907
707.15	34.268
707.47	38.375
707.79	35.156
708.11	34.500
708.43	32.750
708.74	36.434
709.06	37.183
709.38	38.532
709.70	37.870
710.02	35.987
710.34	34.675
710.66	33.654
710.98	37.086
711.29	36.393
711.61	34.576
711.93	35.505
712.25	38.144
712.57	35.897
712.89	32.836
713.20	34.948
713.52	34.495
713.84	35.836
714.16	36.770
714.48	36.452
714.80	39.423
715.11	36.474
715.43	32.288
715.75	34.000
716.07	34.551
716.39	35.235
716.70	33.579
717.02	35.115
717.34	36.842
717.66	33.628
717.97	34.348
718.29	37.657
718.61	33.858
718.93	34.884
719.24	36.122
719.56	28.514
719.88	36.082
720.20	37.500
720.51	33.333
720.83	34.749
721.15	37.815
721.46	34.677
721.78	33.202
722.10	34.944
722.42	32.365
722.73	38.367
723.05	35.102
723.37	40.254
723.68	37.838
724.00	35.043
724.32	34.222
724.63	35.909
724.95	36.681
725.27	34.562
725.58	38.983
725.90	34.524
726.22	35.907
726.53	32.542
726.85	28.839
727.16	38.113
727.48	36.032
727.80	33.603
728.11	29.661
728.43	35.294
728.74	31.855
729.06	36.800
729.38	36.842
729.69	32.271
730.01	30.000
730.32	36.194
730.64	35.336
730.96	34.717
731.27	30.000
731.59	33.220
731.90	34.395
732.22	32.492
732.53	35.216
732.85	32.624
733.16	37.037
733.48	28.058
733.80	36.594
734.11	33.220
734.43	35.739
734.74	35.152
735.06	35.831
735.37	34.743
735.69	36.027
736.00	32.056
736.32	33.893
736.63	33.803
736.95	32.423
737.26	32.028
737.58	30.537
737.89	32.234
738.21	37.970
738.52	34.979
738.83	37.118
739.15	29.694
739.46	33.858
739.78	29.304
740.09	31.046
740.41	39.855
740.72	31.102
741.04	37.247
741.35	31.915
741.66	31.280
741.98	34.694
742.29	28.713
742.61	31.937
742.92	27.014
743.23	31.019
743.55	33.937
743.86	33.971
744.18	30.622
744.49	33.511
744.80	32.065
745.12	43.316
745.43	29.756
745.74	32.812
746.06	31.707
746.37	28.272
746.68	34.597
747.00	32.447
747.31	35.323
747.62	27.184
747.94	35.407
748.25	26.238
748.56	37.705
748.88	28.796
749.19	35.638
749.50	33.990
749.82	29.717
750.13	29.817
750.44	31.203
750.75	34.328
751.07	34.672
751.38	33.716
751.69	29.804
752.01	32.171
752.32	33.466
752.63	28.854
752.94	29.310
753.26	38.494
753.57	34.389
753.88	31.858
754.19	32.500
754.51	38.843
754.82	29.150
755.13	34.167
755.44	31.855
755.75	31.641
756.07	33.074
756.38	25.660
756.69	31.418
757.00	34.667
757.31	35.294
757.63	28.963
757.94	33.056
758.25	33.151
758.56	29.521
758.87	26.912
759.18	31.464
759.50	36.364
759.81	31.438
760.12	30.323
760.43	31.515
760.74	32.716
761.05	32.308
761.36	28.977
761.67	34.848
761.99	37.415
762.30	32.727
762.61	33.202
762.92	28.959
763.23	35.586
763.54	25.701
763.85	34.746
764.16	30.705
764.47	33.468
764.78	26.007
765.10	36.700
765.41	30.599
765.72	31.111
766.03	31.579
766.34	35.036
766.65	33.466
766.96	34.343
767.27	30.319
767.58	28.736
767.89	28.369
768.20	27.841
768.51	35.714
768.82	33.498
769.13	30.876
769.44	23.176
769.75	25.571
770.06	28.448
770.37	29.327
770.68	27.411
770.99	33.032
771.30	36.765
771.61	30.317
771.92	33.621
772.23	29.557
772.54	34.409
772.85	29.012
773.16	30.899
773.47	34.641
773.78	30.719
774.09	27.545
774.39	31.333
774.70	31.847
775.01	33.793
775.32	30.714
775.63	31.405
775.94	27.481
776.25	33.071
776.56	30.833
776.87	32.692
777.18	27.350
777.48	33.621
777.79	26.957
778.10	19.048
778.41	35.135
778.72	24.603
779.03	28.571
779.34	31.206
779.65	34.247
779.95	29.452
780.26	40.690
780.57	25.203
780.88	29.921
781.19	33.621
781.50	29.457
781.80	26.036
782.11	28.931
782.42	36.923
782.73	30.935
783.04	37.037
783.34	25.000
783.65	13.675
783.96	32.787
784.27	31.034
784.57	36.585
784.88	28.906
785.19	34.000
785.50	47.000
785.81	37.069
786.11	25.000
786.42	30.097
786.73	30.909
787.04	30.612
787.34	30.357
787.65	32.381
787.96	26.549
788.26	38.182
788.57	22.222
788.88	33.594
789.19	26.190
789.49	30.435
789.80	36.735
790.11	30.303
790.41	27.273
790.72	39.130
791.03	35.227
791.33	21.250
791.64	32.500
791.95	24.419
792.25	35.106
792.56	38.202
792.87	24.658
793.17	50.725
793.48	17.333
793.79	30.000
794.09	28.750
794.40	26.415
794.70	20.388
795.01	29.268
795.32	30.769
795.62	35.238
795.93	26.471
796.23	32.075
796.54	35.417
796.85	55.882
797.15	7.042
797.46	29.167
797.76	54.545
798.07	32.558
798.37	15.789
798.68	22.727
798.99	22.222
799.29	44.286
799.60	40.580
799.90	26.667
800.21	24.590
800.51	27.692
800.82	44.068
801.12	37.681
801.43	47.541
801.73	44.444
802.04	46.000
802.34	34.328
802.65	28.846
802.95	10.714
803.26	32.692
803.56	33.333
803.87	41.304
804.17	29.333
804.48	33.333
804.78	25.926
805.09	47.826
805.39	35.556
805.70	24.074
806.00	14.035
806.30	35.211
806.61	45.714
806.91	30.556
807.22	31.579
807.52	34.667
807.83	3.636
808.13	33.333
808.43	36.765
808.74	20.896
809.04	27.119
809.35	26.923
809.65	14.062
809.95	-5.405
810.26	0.000
810.56	24.658
810.86	14.286
811.17	12.000
811.47	26.531
811.77	7.895
812.08	27.273
812.38	13.208
812.69	-10.000
812.99	33.333
813.29	31.579
813.59	17.143
813.90	27.273
814.20	5.128
814.50	34.615
814.81	45.283
815.11	27.660
815.41	42.373
815.72	30.952
816.02	27.451
816.32	35.417
816.62	21.951
816.93	29.730
817.23	40.000
817.53	47.917
817.84	17.391
818.14	55.769
818.44	5.263
818.74	43.478
819.04	0.000
819.35	18.919
819.65	38.235
819.95	25.000
820.25	33.333
820.56	45.000
820.86	-3.448
821.16	50.000
821.46	44.681
821.76	40.000
822.07	16.279
822.37	10.811
822.67	3.125
822.97	16.667
823.27	28.571
823.57	4.000
823.88	-11.111
824.18	57.143
824.48	5.882
824.78	25.806
825.08	0.000
825.38	60.606
825.69	37.500
825.99	36.842
826.29	2.778
826.59	80.000
826.89	52.381
827.19	32.609
827.49	20.000
827.79	51.429
828.09	60.714
828.39	72.727
828.70	43.243
829.00	7.143
829.30	42.857
829.60	46.667
829.90	53.125
830.20	13.158
830.50	11.111
830.80	-4.348
831.10	18.182
831.40	51.515
831.70	58.065
832.00	33.333
832.30	-28.571
832.60	41.667
832.90	37.931
833.20	0.000
833.50	57.576
833.80	37.037
834.10	15.385
834.40	46.875
834.70	88.889
835.00	26.316
835.30	53.846
835.60	106.667
835.90	22.581
836.20	0.000
836.50	50.000
836.80	-11.538
837.10	28.571
837.40	-66.667
837.70	36.364
838.00	36.364
838.30	30.435
838.60	-23.077
838.90	36.364
839.19	25.000
839.49	56.667
839.79	23.077
840.09	-16.667
840.39	50.000
840.69	3.571
840.99	15.385
841.29	-26.316
841.59	60.000
841.88	-27.273
842.18	100.000
842.48	-6.250
842.78	60.000
843.08	66.667
843.38	-20.000
843.68	65.217
843.97	66.667
844.27	-33.333
844.57	25.000
844.87	66.667
845.17	-28.571
845.47	106.667
845.76	33.333
846.06	52.941
846.36	80.000
846.66	28.571
846.96	0.000
847.25	-125.000
847.55	57.143
847.85	37.500
848.15	-9.091
848.44	33.333
848.74	25.000
849.04	33.333
849.34	27.273
849.63	66.667
849.93	140.000
850.23	22.222
850.53	80.000
850.82	46.154
851.12	100.000
851.42	100.000
851.71	26.923
852.01	-28.571
852.31	-150.000
852.61	45.455
852.90	20.000
853.20	36.842
853.50	83.333
853.79	30.435
854.09	54.167
854.39	10.526
854.68	25.000
854.98	48.387
855.28	50.000
855.57	20.000
855.87	72.222
856.17	81.481
856.46	64.286
856.76	-26.667
857.05	-11.111
857.35	-4.000
857.65	50.000
857.94	0.000
858.24	17.241
858.53	50.000
858.83	96.296
859.13	22.727
859.42	30.435
859.72	200.000
860.01	-300.000
860.31	40.000
860.60	76.190
860.90	100.000
861.20	-20.000
861.49	-300.000
861.79	0.000
862.08	20.000
862.38	86.667
862.67	-20.000
862.97	66.667
863.26	83.333
863.56	83.333
863.85	-266.667
864.15	50.000
864.44	0.000
864.74	85.714
865.03	-25.000
865.33	-200.000
865.62	83.333
865.92	-8.333
866.21	-33.333
866.51	112.500
866.80	100.000
867.10	-150.000
867.39	75.000
867.69	0.000
867.98	46.154
868.27	-166.667
868.57	53.333
868.86	50.000
869.16	-61.538
869.45	73.333
869.75	300.000
870.04	0.000
870.33	-28.571
870.63	33.333
870.92	133.333
871.22	0.000
871.51	1300.000
871.80	188.889
872.10	233.333
>>>>>End Processed Spectral Data<<<<<
