SpectraSuite Data File
++++++++++++++++++++++++++++++++++++
Date: Fri May 15 17:17:05 PDT 2015
User: schluterlab
Dark Spectrum Present: Yes
Reference Spectrum Present: Yes
Number of Sampled Component Spectra: 1
Spectrometers: USB2E3373
Integration Time (usec): 3000 (USB2E3373)
Spectra Averaged: 3 (USB2E3373)
Boxcar Smoothing: 0 (USB2E3373)
Correct for Electrical Dark: No (USB2E3373)
Strobe/Lamp Enabled: No (USB2E3373)
Correct for Detector Non-linearity: No (USB2E3373)
Correct for Stray Light: No (USB2E3373)
Number of Pixels in Processed Spectrum: 2048
>>>>>Begin Processed Spectral Data<<<<<
178.53	0.000
178.91	0.000
179.29	175.000
179.67	-200.000
180.04	-114.286
180.42	250.000
180.80	600.000
181.18	-0.000
181.56	-0.000
181.94	800.000
182.31	-600.000
182.69	260.000
183.07	133.333
183.45	-20.000
183.83	83.333
184.20	18.182
184.58	55.556
184.96	-375.000
185.34	-200.000
185.72	-400.000
186.09	-0.000
186.47	-900.000
186.85	-33.333
187.23	55.556
187.61	-400.000
187.98	0.000
188.36	177.778
188.74	333.333
189.12	82.353
189.49	72.222
189.87	0.000
190.25	78.571
190.63	300.000
191.00	200.000
191.38	42.105
191.76	600.000
192.14	-25.000
192.51	550.000
192.89	77.778
193.27	-14.286
193.65	133.333
194.02	100.000
194.40	100.000
194.78	-50.000
195.15	0.000
195.53	-62.500
195.91	300.000
196.29	275.000
196.66	38.462
197.04	71.429
197.42	88.889
197.79	-300.000
198.17	-38.462
198.55	700.000
198.92	-66.667
199.30	300.000
199.68	-80.000
200.05	-33.333
200.43	0.000
200.81	33.333
201.18	200.000
201.56	1200.000
201.94	200.000
202.31	-200.000
202.69	-100.000
203.07	-300.000
203.44	500.000
203.82	0.000
204.19	92.857
204.57	-133.333
204.95	75.000
205.32	0.000
205.70	28.571
206.08	225.000
206.45	277.778
206.83	121.429
207.20	-100.000
207.58	100.000
207.96	-300.000
208.33	-20.000
208.71	50.000
209.08	-100.000
209.46	200.000
209.84	60.000
210.21	-600.000
210.59	0.000
210.96	-100.000
211.34	0.000
211.71	120.000
212.09	-42.857
212.46	-100.000
212.84	0.000
213.22	120.000
213.59	-50.000
213.97	92.308
214.34	27.273
214.72	16.667
215.09	-75.000
215.47	107.692
215.84	45.455
216.22	-200.000
216.59	112.500
216.97	450.000
217.34	175.000
217.72	-120.000
218.09	112.500
218.47	37.500
218.84	200.000
219.22	33.333
219.59	60.000
219.97	-200.000
220.34	25.000
220.72	114.286
221.09	-125.000
221.47	0.000
221.84	-400.000
222.22	150.000
222.59	172.727
222.97	91.667
223.34	266.667
223.72	35.714
224.09	28.571
224.46	57.143
224.84	166.667
225.21	0.000
225.59	53.333
225.96	450.000
226.34	300.000
226.71	114.286
227.08	83.333
227.46	50.000
227.83	-100.000
228.21	88.889
228.58	18.182
228.95	137.500
229.33	50.000
229.70	43.750
230.08	0.000
230.45	28.571
230.82	257.143
231.20	80.000
231.57	85.714
231.95	85.714
232.32	-40.000
232.69	7.143
233.07	133.333
233.44	140.000
233.81	40.000
234.19	88.889
234.56	52.941
234.93	-200.000
235.31	425.000
235.68	-120.000
236.05	61.538
236.43	50.000
236.80	70.588
237.17	59.375
237.55	80.000
237.92	55.556
238.29	30.556
238.67	46.667
239.04	17.647
239.41	21.951
239.79	20.000
240.16	36.585
240.53	26.316
240.91	39.130
241.28	23.810
241.65	55.357
242.02	31.507
242.40	33.333
242.77	49.153
243.14	25.758
243.51	27.500
243.89	42.529
244.26	31.034
244.63	28.571
245.00	32.990
245.38	37.113
245.75	23.596
246.12	28.448
246.49	28.099
246.87	39.423
247.24	36.975
247.61	27.193
247.98	30.081
248.36	29.375
248.73	29.605
249.10	27.922
249.47	31.646
249.84	20.261
250.22	30.000
250.59	41.830
250.96	32.394
251.33	26.744
251.70	31.765
252.08	32.995
252.45	32.178
252.82	33.668
253.19	30.876
253.56	26.168
253.94	33.784
254.31	33.478
254.68	34.649
255.05	30.315
255.42	31.441
255.79	32.819
256.16	28.794
256.54	34.701
256.91	30.038
257.28	27.881
257.65	29.963
258.02	27.305
258.39	27.946
258.76	32.967
259.14	35.548
259.51	32.039
259.88	33.333
260.25	28.105
260.62	36.458
260.99	31.186
261.36	28.425
261.73	30.063
262.10	32.219
262.47	30.675
262.85	29.154
263.22	31.692
263.59	31.776
263.96	31.677
264.33	28.182
264.70	29.464
265.07	30.952
265.44	33.994
265.81	31.638
266.18	30.874
266.55	29.306
266.92	30.311
267.29	31.854
267.66	29.412
268.03	31.152
268.40	30.026
268.77	31.551
269.14	32.134
269.51	31.877
269.88	30.424
270.25	29.082
270.62	26.585
270.99	30.179
271.36	28.362
271.73	28.638
272.10	29.197
272.47	31.206
272.84	30.941
273.21	28.074
273.58	28.675
273.95	26.773
274.32	29.561
274.69	25.792
275.06	29.911
275.43	25.624
275.80	29.581
276.17	28.046
276.54	28.694
276.91	30.482
277.28	30.568
277.65	27.893
278.02	30.426
278.39	26.258
278.76	29.979
279.13	26.763
279.50	27.521
279.87	29.374
280.23	28.172
280.60	27.096
280.97	27.475
281.34	25.769
281.71	29.774
282.08	30.470
282.45	26.419
282.82	28.378
283.19	29.594
283.56	27.168
283.92	28.273
284.29	24.808
284.66	26.550
285.03	29.470
285.40	28.733
285.77	23.902
286.14	27.798
286.51	28.229
286.87	24.314
287.24	27.072
287.61	25.044
287.98	27.193
288.35	26.690
288.72	26.445
289.08	26.215
289.45	27.417
289.82	27.098
290.19	23.549
290.56	25.214
290.93	24.916
291.29	24.345
291.66	24.252
292.03	23.764
292.40	25.000
292.77	22.807
293.13	22.890
293.50	21.851
293.87	22.901
294.24	22.257
294.60	20.864
294.97	24.554
295.34	22.239
295.71	21.759
296.08	21.674
296.44	19.061
296.81	21.111
297.18	22.899
297.55	21.545
297.91	20.822
298.28	20.449
298.65	21.438
299.02	21.698
299.38	20.246
299.75	21.517
300.12	20.157
300.48	20.290
300.85	21.166
301.22	19.351
301.59	18.947
301.95	20.886
302.32	18.936
302.69	20.647
303.05	18.936
303.42	20.174
303.79	20.327
304.15	20.669
304.52	18.074
304.89	18.246
305.25	18.039
305.62	17.386
305.99	18.947
306.35	18.844
306.72	17.435
307.09	18.244
307.45	18.370
307.82	17.824
308.19	20.209
308.55	20.065
308.92	18.519
309.29	18.659
309.65	17.115
310.02	17.382
310.38	16.905
310.75	18.361
311.12	19.053
311.48	18.558
311.85	18.325
312.22	18.249
312.58	17.304
312.95	17.396
313.31	18.116
313.68	18.325
314.05	18.061
314.41	17.938
314.78	17.629
315.14	17.780
315.51	18.841
315.87	17.111
316.24	18.807
316.61	18.406
316.97	17.659
317.34	17.676
317.70	17.591
318.07	17.885
318.43	18.431
318.80	16.667
319.16	18.262
319.53	18.329
319.89	18.406
320.26	18.826
320.62	17.352
320.99	17.015
321.35	19.527
321.72	18.172
322.08	16.717
322.45	18.173
322.81	17.682
323.18	16.683
323.54	16.699
323.91	16.845
324.27	18.262
324.64	17.041
325.00	18.431
325.37	17.906
325.73	17.860
326.10	18.256
326.46	17.489
326.83	18.023
327.19	18.134
327.56	17.811
327.92	17.782
328.29	16.875
328.65	16.321
329.01	17.279
329.38	16.959
329.74	17.280
330.11	17.980
330.47	16.698
330.84	16.250
331.20	19.392
331.56	16.389
331.93	18.539
332.29	17.965
332.66	17.014
333.02	17.565
333.38	17.874
333.75	17.766
334.11	16.741
334.48	17.860
334.84	17.125
335.20	17.658
335.57	17.679
335.93	17.525
336.29	16.390
336.66	16.530
337.02	16.357
337.38	16.944
337.75	17.091
338.11	17.403
338.47	17.336
338.84	17.283
339.20	17.367
339.56	17.615
339.93	17.457
340.29	17.523
340.65	17.204
341.02	16.933
341.38	16.283
341.74	16.784
342.11	16.638
342.47	17.616
342.83	16.955
343.20	15.854
343.56	17.565
343.92	18.512
344.28	16.823
344.65	16.321
345.01	16.854
345.37	17.410
345.73	17.657
346.10	17.947
346.46	16.905
346.82	17.267
347.19	16.043
347.55	16.541
347.91	17.476
348.27	16.492
348.63	17.291
349.00	15.505
349.36	17.456
349.72	16.501
350.08	16.148
350.45	16.840
350.81	15.615
351.17	15.472
351.53	16.653
351.89	15.690
352.26	16.000
352.62	17.177
352.98	16.627
353.34	15.781
353.70	16.586
354.07	16.048
354.43	16.894
354.79	16.102
355.15	17.381
355.51	16.456
355.87	15.615
356.24	15.661
356.60	15.521
356.96	16.508
357.32	16.853
357.68	14.777
358.04	16.559
358.40	16.318
358.77	16.587
359.13	14.972
359.49	14.792
359.85	15.445
360.21	14.673
360.57	15.379
360.93	15.885
361.29	15.030
361.66	16.223
362.02	16.136
362.38	16.375
362.74	15.821
363.10	16.479
363.46	15.345
363.82	16.905
364.18	15.867
364.54	15.294
364.90	15.699
365.26	15.648
365.62	17.591
365.98	15.836
366.35	16.460
366.71	15.225
367.07	16.110
367.43	15.169
367.79	15.477
368.15	15.721
368.51	15.076
368.87	15.937
369.23	15.668
369.59	15.816
369.95	16.716
370.31	15.896
370.67	16.269
371.03	14.190
371.39	15.755
371.75	15.092
372.11	16.476
372.47	15.459
372.83	16.395
373.19	16.833
373.55	14.946
373.91	14.975
374.27	16.513
374.63	16.726
374.99	16.241
375.35	15.808
375.71	16.364
376.07	16.573
376.42	16.122
376.78	16.040
377.14	15.301
377.50	15.936
377.86	15.797
378.22	16.273
378.58	15.321
378.94	15.690
379.30	16.469
379.66	16.614
380.02	16.002
380.38	15.642
380.74	15.978
381.09	17.975
381.45	15.780
381.81	16.965
382.17	16.434
382.53	16.302
382.89	16.635
383.25	17.175
383.61	16.890
383.97	15.873
384.32	17.073
384.68	15.480
385.04	16.544
385.40	15.806
385.76	16.038
386.12	16.365
386.48	16.603
386.83	16.614
387.19	16.667
387.55	16.813
387.91	17.421
388.27	17.155
388.62	17.181
388.98	17.066
389.34	17.739
389.70	17.216
390.06	16.237
390.42	16.904
390.77	18.313
391.13	17.024
391.49	17.464
391.85	17.284
392.20	16.949
392.56	17.228
392.92	17.733
393.28	17.394
393.64	17.237
393.99	18.621
394.35	17.331
394.71	18.072
395.07	17.662
395.42	17.486
395.78	17.068
396.14	18.033
396.50	18.072
396.85	18.094
397.21	17.794
397.57	17.868
397.92	17.735
398.28	18.276
398.64	17.711
399.00	18.397
399.35	16.761
399.71	17.691
400.07	18.622
400.42	17.625
400.78	18.494
401.14	18.754
401.49	18.642
401.85	18.403
402.21	18.916
402.57	18.500
402.92	17.754
403.28	18.546
403.63	18.411
403.99	18.431
404.35	18.988
404.70	17.917
405.06	17.861
405.42	17.651
405.77	17.955
406.13	18.102
406.49	18.946
406.84	18.521
407.20	19.025
407.55	17.321
407.91	18.048
408.27	18.674
408.62	19.508
408.98	18.299
409.34	19.083
409.69	18.282
410.05	18.781
410.40	18.148
410.76	18.697
411.11	19.000
411.47	18.738
411.83	18.330
412.18	18.726
412.54	18.227
412.89	19.335
413.25	19.013
413.60	18.137
413.96	18.896
414.31	18.963
414.67	19.179
415.03	18.375
415.38	19.125
415.74	19.023
416.09	19.334
416.45	19.919
416.80	18.771
417.16	19.959
417.51	19.121
417.87	19.361
418.22	19.430
418.58	18.528
418.93	19.687
419.29	19.078
419.64	19.119
420.00	20.277
420.35	20.478
420.71	20.413
421.06	19.460
421.42	19.471
421.77	19.595
422.12	18.785
422.48	19.058
422.83	19.200
423.19	20.034
423.54	19.106
423.90	19.081
424.25	19.977
424.61	20.441
424.96	20.267
425.31	20.913
425.67	19.836
426.02	20.318
426.38	20.601
426.73	20.339
427.09	20.000
427.44	21.059
427.79	20.153
428.15	20.388
428.50	20.170
428.85	20.147
429.21	21.166
429.56	20.593
429.92	20.544
430.27	20.100
430.62	19.394
430.98	20.276
431.33	20.662
431.68	20.042
432.04	20.738
432.39	20.707
432.74	20.204
433.10	21.207
433.45	21.207
433.80	20.488
434.16	20.000
434.51	20.968
434.86	20.616
435.22	21.088
435.57	20.649
435.92	20.060
436.28	20.453
436.63	20.251
436.98	21.147
437.34	20.387
437.69	21.228
438.04	20.342
438.39	20.709
438.75	20.947
439.10	20.713
439.45	21.911
439.81	20.612
440.16	21.556
440.51	22.388
440.86	22.477
441.22	21.833
441.57	21.192
441.92	21.668
442.27	21.175
442.63	22.002
442.98	20.735
443.33	21.480
443.68	21.645
444.03	21.411
444.39	20.954
444.74	22.297
445.09	21.771
445.44	21.425
445.79	22.898
446.15	21.641
446.50	20.799
446.85	21.892
447.20	21.168
447.55	22.266
447.91	21.602
448.26	22.197
448.61	22.510
448.96	22.547
449.31	20.694
449.66	21.777
450.02	22.248
450.37	22.110
450.72	22.165
451.07	22.722
451.42	21.785
451.77	22.303
452.12	21.830
452.47	21.700
452.83	21.084
453.18	22.454
453.53	23.388
453.88	22.162
454.23	22.987
454.58	22.796
454.93	22.938
455.28	21.841
455.63	21.761
455.98	22.730
456.34	22.478
456.69	22.363
457.04	22.684
457.39	21.507
457.74	22.068
458.09	22.425
458.44	22.645
458.79	22.129
459.14	23.055
459.49	23.164
459.84	21.940
460.19	21.966
460.54	23.289
460.89	23.864
461.24	23.727
461.59	22.506
461.94	22.013
462.29	22.497
462.64	23.123
462.99	22.681
463.34	22.045
463.69	23.295
464.04	22.518
464.39	22.741
464.74	22.577
465.09	22.895
465.44	23.139
465.79	22.506
466.14	22.520
466.49	22.369
466.84	23.260
467.19	23.217
467.54	23.308
467.89	22.994
468.24	23.540
468.59	23.810
468.94	23.175
469.29	24.656
469.64	23.718
469.99	23.336
470.34	22.116
470.68	24.459
471.03	23.496
471.38	23.324
471.73	22.059
472.08	22.524
472.43	22.819
472.78	22.755
473.13	22.517
473.48	23.518
473.83	23.537
474.17	23.964
474.52	23.229
474.87	22.727
475.22	23.124
475.57	23.772
475.92	23.204
476.27	23.690
476.61	23.438
476.96	22.365
477.31	24.175
477.66	22.978
478.01	22.852
478.36	22.603
478.70	23.980
479.05	23.242
479.40	23.158
479.75	23.201
480.10	22.837
480.45	22.450
480.79	22.961
481.14	23.770
481.49	22.660
481.84	23.214
482.19	23.012
482.53	22.974
482.88	23.198
483.23	23.464
483.58	22.830
483.92	23.427
484.27	22.425
484.62	23.039
484.97	23.134
485.31	23.519
485.66	23.267
486.01	23.394
486.36	22.584
486.70	22.162
487.05	22.761
487.40	22.699
487.75	22.704
488.09	22.342
488.44	22.524
488.79	22.787
489.13	23.157
489.48	22.788
489.83	23.318
490.17	22.787
490.52	22.725
490.87	23.184
491.22	23.257
491.56	23.529
491.91	23.088
492.26	23.578
492.60	22.841
492.95	24.004
493.30	23.351
493.64	23.821
493.99	23.478
494.34	23.058
494.68	23.143
495.03	22.482
495.37	22.964
495.72	23.725
496.07	23.171
496.41	22.972
496.76	22.432
497.11	22.869
497.45	23.055
497.80	22.856
498.14	23.348
498.49	23.514
498.84	22.655
499.18	22.992
499.53	22.569
499.87	23.298
500.22	23.393
500.56	23.500
500.91	23.594
501.26	22.788
501.60	23.069
501.95	22.902
502.29	23.438
502.64	23.118
502.98	22.990
503.33	23.151
503.67	23.614
504.02	23.998
504.36	23.107
504.71	22.980
505.06	23.805
505.40	22.792
505.75	24.124
506.09	22.859
506.44	24.025
506.78	23.724
507.13	23.371
507.47	22.977
507.82	23.932
508.16	23.825
508.51	23.452
508.85	23.653
509.19	23.204
509.54	23.432
509.88	23.193
510.23	24.476
510.57	24.212
510.92	23.134
511.26	23.732
511.61	23.817
511.95	23.397
512.30	23.725
512.64	24.040
512.98	23.414
513.33	23.839
513.67	23.195
514.02	24.142
514.36	24.343
514.70	24.592
515.05	24.559
515.39	23.318
515.74	24.551
516.08	24.746
516.42	24.617
516.77	24.342
517.11	23.739
517.46	24.776
517.80	23.897
518.14	24.005
518.49	22.957
518.83	23.876
519.17	23.833
519.52	23.801
519.86	23.950
520.20	23.512
520.55	23.765
520.89	25.031
521.23	23.939
521.58	24.921
521.92	24.872
522.26	24.073
522.61	24.481
522.95	24.636
523.29	24.651
523.64	24.587
523.98	24.368
524.32	23.260
524.66	24.456
525.01	24.026
525.35	24.822
525.69	23.771
526.04	24.603
526.38	25.422
526.72	24.330
527.06	23.800
527.41	25.330
527.75	25.268
528.09	23.987
528.43	24.983
528.78	23.564
529.12	24.581
529.46	24.172
529.80	25.016
530.15	25.083
530.49	22.828
530.83	23.735
531.17	23.371
531.51	24.555
531.86	23.997
532.20	24.704
532.54	24.302
532.88	24.641
533.22	25.336
533.57	25.360
533.91	23.956
534.25	24.609
534.59	23.669
534.93	23.726
535.27	23.287
535.62	23.914
535.96	25.506
536.30	24.011
536.64	25.155
536.98	25.226
537.32	25.533
537.66	25.105
538.01	24.825
538.35	24.480
538.69	23.768
539.03	24.470
539.37	24.697
539.71	23.517
540.05	23.693
540.39	25.069
540.73	24.059
541.07	25.000
541.42	25.403
541.76	25.189
542.10	24.088
542.44	24.044
542.78	22.574
543.12	24.863
543.46	25.522
543.80	24.913
544.14	23.965
544.48	24.317
544.82	24.334
545.16	24.658
545.50	24.766
545.84	24.858
546.18	25.461
546.52	25.162
546.86	23.077
547.20	24.750
547.54	23.604
547.88	25.476
548.22	24.458
548.56	24.208
548.90	25.943
549.24	23.691
549.58	24.542
549.92	24.232
550.26	24.322
550.60	24.238
550.94	23.973
551.28	24.961
551.62	26.615
551.96	25.338
552.30	24.635
552.64	24.612
552.98	24.543
553.32	25.464
553.66	24.601
554.00	24.745
554.34	25.554
554.68	24.631
555.02	26.488
555.36	23.710
555.69	23.663
556.03	24.911
556.37	24.840
556.71	24.910
557.05	25.056
557.39	23.643
557.73	25.412
558.07	24.208
558.41	24.579
558.75	24.786
559.08	25.059
559.42	24.683
559.76	25.460
560.10	24.771
560.44	24.944
560.78	24.895
561.12	24.401
561.45	24.877
561.79	24.720
562.13	24.485
562.47	24.388
562.81	25.072
563.15	25.106
563.48	24.045
563.82	25.189
564.16	24.443
564.50	24.527
564.84	25.234
565.17	24.614
565.51	25.000
565.85	25.171
566.19	25.265
566.52	25.134
566.86	25.578
567.20	24.408
567.54	24.757
567.88	25.366
568.21	25.679
568.55	24.457
568.89	24.897
569.23	24.892
569.56	24.956
569.90	24.848
570.24	24.674
570.57	25.273
570.91	24.956
571.25	24.334
571.59	23.918
571.92	23.348
572.26	23.913
572.60	23.814
572.93	23.282
573.27	23.448
573.61	24.224
573.95	24.031
574.28	23.755
574.62	23.443
574.96	24.109
575.29	23.650
575.63	23.244
575.97	23.828
576.30	24.093
576.64	23.868
576.98	24.196
577.31	23.740
577.65	24.014
577.98	23.478
578.32	23.483
578.66	23.512
578.99	23.327
579.33	23.058
579.67	23.568
580.00	23.443
580.34	23.607
580.67	23.393
581.01	23.943
581.35	23.794
581.68	23.755
582.02	23.692
582.35	23.250
582.69	23.763
583.02	23.499
583.36	23.634
583.70	24.013
584.03	24.354
584.37	24.280
584.70	24.203
585.04	24.016
585.37	24.128
585.71	23.846
586.04	23.222
586.38	23.740
586.72	23.931
587.05	24.379
587.39	24.182
587.72	25.232
588.06	24.301
588.39	23.782
588.73	24.451
589.06	24.462
589.40	24.196
589.73	24.644
590.07	25.151
590.40	24.845
590.73	25.453
591.07	24.894
591.40	25.067
591.74	25.023
592.07	24.814
592.41	24.867
592.74	24.253
593.08	24.031
593.41	24.283
593.75	24.632
594.08	24.271
594.41	24.054
594.75	23.855
595.08	24.442
595.42	23.776
595.75	24.596
596.09	25.254
596.42	24.432
596.75	24.911
597.09	25.194
597.42	25.158
597.75	24.828
598.09	24.083
598.42	24.233
598.76	24.625
599.09	24.319
599.42	23.873
599.76	24.530
600.09	24.020
600.42	24.223
600.76	23.811
601.09	24.580
601.42	24.168
601.76	24.057
602.09	23.597
602.42	25.232
602.76	24.703
603.09	24.792
603.42	25.125
603.76	23.911
604.09	23.977
604.42	24.535
604.76	25.056
605.09	24.406
605.42	25.192
605.75	24.387
606.09	24.586
606.42	24.020
606.75	24.372
607.09	24.879
607.42	24.058
607.75	23.668
608.08	24.214
608.42	24.212
608.75	24.482
609.08	24.066
609.41	24.264
609.75	24.748
610.08	24.763
610.41	24.396
610.74	23.988
611.07	25.013
611.41	24.338
611.74	25.000
612.07	23.715
612.40	25.274
612.73	23.785
613.07	24.128
613.40	25.656
613.73	24.454
614.06	24.485
614.39	24.817
614.72	24.426
615.06	24.302
615.39	24.509
615.72	24.704
616.05	24.860
616.38	23.476
616.71	24.281
617.05	24.460
617.38	24.576
617.71	24.025
618.04	24.698
618.37	25.158
618.70	24.488
619.03	26.250
619.36	24.891
619.69	25.398
620.03	25.785
620.36	25.036
620.69	25.339
621.02	25.459
621.35	25.477
621.68	24.745
622.01	24.833
622.34	25.459
622.67	24.606
623.00	24.962
623.33	24.238
623.66	25.505
623.99	24.281
624.32	24.259
624.65	24.511
624.99	24.530
625.32	24.943
625.65	25.530
625.98	25.302
626.31	24.688
626.64	24.957
626.97	25.654
627.30	25.394
627.63	25.737
627.96	25.876
628.29	25.532
628.62	25.565
628.95	23.447
629.28	25.101
629.61	24.028
629.94	26.295
630.26	25.395
630.59	25.911
630.92	25.538
631.25	25.333
631.58	23.899
631.91	25.768
632.24	25.917
632.57	24.545
632.90	24.318
633.23	25.294
633.56	25.567
633.89	23.921
634.22	25.062
634.55	25.540
634.88	26.054
635.20	24.487
635.53	27.733
635.86	24.187
636.19	24.709
636.52	25.255
636.85	24.318
637.18	24.151
637.51	26.541
637.83	24.573
638.16	26.057
638.49	23.978
638.82	26.711
639.15	24.966
639.48	24.209
639.81	24.826
640.13	24.675
640.46	25.510
640.79	24.006
641.12	23.781
641.45	26.577
641.77	24.741
642.10	26.066
642.43	25.884
642.76	26.073
643.09	27.787
643.41	25.405
643.74	27.018
644.07	24.302
644.40	27.703
644.73	25.744
645.05	24.329
645.38	24.868
645.71	24.823
646.04	28.187
646.36	24.468
646.69	25.000
647.02	28.166
647.35	26.306
647.67	25.411
648.00	26.679
648.33	24.915
648.66	24.746
648.98	22.278
649.31	24.298
649.64	23.234
649.96	23.987
650.29	23.850
650.62	26.325
650.94	23.889
651.27	24.022
651.60	25.586
651.92	25.524
652.25	24.156
652.58	24.833
652.90	26.072
653.23	26.891
653.56	23.858
653.88	23.711
654.21	21.716
654.54	24.109
654.86	24.958
655.19	23.830
655.52	24.071
655.84	23.156
656.17	26.450
656.49	35.232
656.82	36.525
657.15	27.571
657.47	20.194
657.80	15.150
658.13	14.702
658.45	22.081
658.78	22.503
659.10	22.755
659.43	22.785
659.75	23.878
660.08	23.931
660.41	26.149
660.73	23.343
661.06	25.303
661.38	24.266
661.71	22.998
662.03	24.464
662.36	22.198
662.68	25.885
663.01	26.419
663.33	25.290
663.66	24.884
663.98	22.791
664.31	26.013
664.63	23.733
664.96	20.435
665.28	23.841
665.61	25.108
665.93	23.913
666.26	25.163
666.58	22.819
666.91	25.882
667.23	26.651
667.56	26.540
667.88	24.940
668.21	25.060
668.53	25.532
668.86	26.415
669.18	23.113
669.50	21.308
669.83	21.395
670.15	22.611
670.48	22.727
670.80	24.194
671.13	24.385
671.45	23.744
671.77	25.322
672.10	26.535
672.42	25.468
672.75	26.643
673.07	27.191
673.39	23.853
673.72	22.880
674.04	22.500
674.37	27.542
674.69	22.056
675.01	24.222
675.34	22.973
675.66	25.231
675.98	25.721
676.31	22.018
676.63	23.753
676.95	23.636
677.28	25.176
677.60	26.024
677.92	23.853
678.25	24.945
678.57	26.623
678.89	23.950
679.22	24.609
679.54	23.695
679.86	20.676
680.18	23.301
680.51	24.432
680.83	21.074
681.15	24.600
681.48	24.590
681.80	25.207
682.12	23.790
682.44	22.385
682.77	25.166
683.09	24.714
683.41	24.091
683.73	23.502
684.06	23.230
684.38	20.860
684.70	25.926
685.02	21.162
685.34	23.518
685.67	23.640
685.99	26.221
686.31	23.540
686.63	23.933
686.96	20.342
687.28	20.404
687.60	23.764
687.92	25.253
688.24	21.573
688.56	26.201
688.89	22.768
689.21	25.111
689.53	22.042
689.85	20.698
690.17	22.098
690.49	24.823
690.82	19.903
691.14	20.238
691.46	22.664
691.78	22.973
692.10	23.441
692.42	23.377
692.74	22.650
693.06	24.099
693.39	23.077
693.71	21.719
694.03	23.557
694.35	23.598
694.67	23.737
694.99	21.149
695.31	26.110
695.63	25.000
695.95	20.202
696.27	21.503
696.59	22.778
696.91	21.849
697.23	22.879
697.56	23.762
697.88	24.301
698.20	22.096
698.52	22.588
698.84	16.029
699.16	23.750
699.48	24.561
699.80	21.836
700.12	20.755
700.44	27.451
700.76	23.256
701.08	20.909
701.40	25.602
701.72	28.086
702.04	24.092
702.36	20.401
702.68	26.727
703.00	21.818
703.32	22.287
703.64	22.034
703.96	22.029
704.28	20.245
704.60	25.079
704.91	24.921
705.23	21.262
705.55	25.088
705.87	25.993
706.19	22.593
706.51	24.399
706.83	23.794
707.15	19.003
707.47	22.689
707.79	21.875
708.11	25.750
708.43	22.250
708.74	20.672
709.06	25.352
709.38	23.853
709.70	26.036
710.02	22.611
710.34	22.601
710.66	21.154
710.98	19.205
711.29	22.295
711.61	24.746
711.93	25.081
712.25	23.711
712.57	21.612
712.89	19.030
713.20	24.913
713.52	25.784
713.84	23.891
714.16	20.275
714.48	23.871
714.80	23.718
715.11	27.356
715.43	22.257
715.75	21.333
716.07	20.266
716.39	22.819
716.70	19.926
717.02	21.756
717.34	25.911
717.66	25.221
717.97	19.130
718.29	24.686
718.61	26.772
718.93	25.581
719.24	25.095
719.56	24.498
719.88	20.619
720.20	20.833
720.51	22.222
720.83	22.008
721.15	24.790
721.46	23.790
721.78	25.296
722.10	20.074
722.42	18.672
722.73	23.673
723.05	28.163
723.37	26.271
723.68	25.225
724.00	20.085
724.32	24.889
724.63	20.909
724.95	25.764
725.27	25.346
725.58	22.881
725.90	21.825
726.22	20.077
726.53	23.729
726.85	24.345
727.16	23.774
727.48	23.887
727.80	27.530
728.11	20.763
728.43	24.314
728.74	19.758
729.06	24.400
729.38	30.451
729.69	21.912
730.01	20.769
730.32	22.388
730.64	25.795
730.96	26.038
731.27	21.667
731.59	18.644
731.90	20.382
732.22	24.290
732.53	20.930
732.85	21.631
733.16	24.242
733.48	17.986
733.80	21.377
734.11	22.373
734.43	21.649
734.74	21.818
735.06	21.498
735.37	23.263
735.69	26.263
736.00	21.254
736.32	23.154
736.63	23.592
736.95	22.867
737.26	21.352
737.58	22.148
737.89	19.414
738.21	21.805
738.52	25.926
738.83	24.891
739.15	20.087
739.46	20.079
739.78	23.810
740.09	19.935
740.41	23.188
740.72	18.898
741.04	25.101
741.35	19.574
741.66	24.171
741.98	22.449
742.29	22.772
742.61	22.513
742.92	18.483
743.23	20.833
743.55	22.172
743.86	22.967
744.18	25.837
744.49	18.617
744.80	17.391
745.12	26.203
745.43	18.537
745.74	25.000
746.06	26.341
746.37	28.272
746.68	19.431
747.00	21.809
747.31	25.871
747.62	22.330
747.94	22.488
748.25	21.782
748.56	32.240
748.88	22.513
749.19	27.660
749.50	23.645
749.82	20.283
750.13	19.725
750.44	27.444
750.75	28.358
751.07	23.723
751.38	21.073
751.69	18.431
752.01	18.992
752.32	21.514
752.63	24.111
752.94	22.414
753.26	28.452
753.57	21.719
753.88	20.354
754.19	20.833
754.51	19.008
754.82	15.789
755.13	25.833
755.44	24.194
755.75	23.437
756.07	22.957
756.38	20.377
756.69	20.307
757.00	18.333
757.31	21.895
757.63	17.073
757.94	23.056
758.25	18.356
758.56	18.617
758.87	20.113
759.18	22.430
759.50	21.091
759.81	19.064
760.12	21.935
760.43	21.212
760.74	23.457
761.05	19.692
761.36	22.443
761.67	24.242
761.99	26.190
762.30	20.727
762.61	22.134
762.92	22.624
763.23	14.865
763.54	21.028
763.85	20.763
764.16	20.747
764.47	17.742
764.78	19.780
765.10	22.222
765.41	20.820
765.72	24.762
766.03	20.677
766.34	21.168
766.65	25.498
766.96	24.747
767.27	17.553
767.58	18.391
767.89	12.766
768.20	21.023
768.51	23.077
768.82	21.182
769.13	20.276
769.44	17.167
769.75	16.895
770.06	22.845
770.37	20.673
770.68	21.827
770.99	20.814
771.30	21.569
771.61	25.339
771.92	21.552
772.23	24.631
772.54	29.032
772.85	25.926
773.16	23.596
773.47	26.144
773.78	22.876
774.09	26.946
774.39	24.000
774.70	24.204
775.01	24.138
775.32	26.429
775.63	16.529
775.94	22.901
776.25	21.260
776.56	25.000
776.87	21.154
777.18	20.513
777.48	18.966
777.79	19.130
778.10	18.095
778.41	18.919
778.72	23.016
779.03	21.805
779.34	26.950
779.65	27.397
779.95	19.178
780.26	24.138
780.57	10.569
780.88	22.047
781.19	22.414
781.50	29.457
781.80	22.485
782.11	15.094
782.42	19.231
782.73	13.669
783.04	17.037
783.34	17.361
783.65	8.547
783.96	28.689
784.27	21.379
784.57	18.699
784.88	21.875
785.19	11.000
785.50	29.000
785.81	18.966
786.11	23.276
786.42	14.563
786.73	22.727
787.04	18.367
787.34	16.071
787.65	20.952
787.96	17.699
788.26	25.455
788.57	17.094
788.88	28.125
789.19	11.905
789.49	16.522
789.80	19.388
790.11	15.152
790.41	29.091
790.72	28.261
791.03	31.818
791.33	36.250
791.64	20.000
791.95	26.744
792.25	25.532
792.56	25.843
792.87	26.027
793.17	20.290
793.48	5.333
793.79	12.500
794.09	27.500
794.40	24.528
794.70	10.680
795.01	14.634
795.32	23.077
795.62	18.095
795.93	18.627
796.23	28.302
796.54	28.125
796.85	19.118
797.15	32.394
797.46	40.278
797.76	43.939
798.07	9.302
798.37	18.421
798.68	22.727
798.99	27.160
799.29	31.429
799.60	24.638
799.90	30.667
800.21	39.344
800.51	29.231
800.82	20.339
801.12	40.580
801.43	24.590
801.73	20.635
802.04	14.000
802.34	16.418
802.65	40.385
802.95	17.857
803.26	17.308
803.56	29.412
803.87	6.522
804.17	22.667
804.48	46.032
804.78	12.963
805.09	15.217
805.39	8.889
805.70	33.333
806.00	0.000
806.30	14.085
806.61	28.571
806.91	12.500
807.22	23.684
807.52	37.333
807.83	21.818
808.13	18.056
808.43	23.529
808.74	20.896
809.04	10.169
809.35	30.769
809.65	20.313
809.95	-2.703
810.26	4.545
810.56	17.808
810.86	19.048
811.17	8.000
811.47	36.735
811.77	2.632
812.08	27.273
812.38	33.962
812.69	27.500
812.99	30.303
813.29	21.053
813.59	25.714
813.90	27.273
814.20	2.564
814.50	15.385
814.81	33.962
815.11	10.638
815.41	33.898
815.72	19.048
816.02	11.765
816.32	35.417
816.62	17.073
816.93	27.027
817.23	28.571
817.53	35.417
817.84	19.565
818.14	28.846
818.44	18.421
818.74	19.565
819.04	0.000
819.35	32.432
819.65	20.588
819.95	33.333
820.25	26.190
820.56	27.500
820.86	-6.897
821.16	35.000
821.46	25.532
821.76	32.500
822.07	30.233
822.37	2.703
822.67	6.250
822.97	33.333
823.27	25.000
823.57	8.000
823.88	-14.815
824.18	28.571
824.48	44.118
824.78	32.258
825.08	17.391
825.38	21.212
825.69	20.833
825.99	18.421
826.29	27.778
826.59	-6.667
826.89	-9.524
827.19	34.783
827.49	10.000
827.79	54.286
828.09	3.571
828.39	51.515
828.70	54.054
829.00	0.000
829.30	19.048
829.60	33.333
829.90	34.375
830.20	-7.895
830.50	-7.407
830.80	13.043
831.10	68.182
831.40	63.636
831.70	19.355
832.00	57.143
832.30	80.952
832.60	-58.333
832.90	24.138
833.20	20.000
833.50	39.394
833.80	33.333
834.10	19.231
834.40	6.250
834.70	11.111
835.00	42.105
835.30	61.538
835.60	60.000
835.90	32.258
836.20	50.000
836.50	42.857
836.80	-34.615
837.10	25.000
837.40	233.333
837.70	-9.091
838.00	54.545
838.30	21.739
838.60	-30.769
838.90	27.273
839.19	25.000
839.49	36.667
839.79	7.692
840.09	75.000
840.39	39.286
840.69	25.000
840.99	26.923
841.29	-21.053
841.59	50.000
841.88	54.545
842.18	20.000
842.48	-31.250
842.78	20.000
843.08	14.815
843.38	-90.000
843.68	13.043
843.97	26.667
844.27	-53.333
844.57	5.000
844.87	5.556
845.17	14.286
845.47	-40.000
845.76	19.048
846.06	82.353
846.36	-30.000
846.66	35.714
846.96	53.333
847.25	-75.000
847.55	85.714
847.85	37.500
848.15	27.273
848.44	-500.000
848.74	35.000
849.04	59.259
849.34	54.545
849.63	-66.667
849.93	40.000
850.23	0.000
850.53	80.000
850.82	-46.154
851.12	-11.111
851.42	66.667
851.71	-30.769
852.01	57.143
852.31	50.000
852.61	81.818
852.90	-35.000
853.20	31.579
853.50	33.333
853.79	65.217
854.09	70.833
854.39	42.105
854.68	-8.333
854.98	12.903
855.28	50.000
855.57	15.000
855.87	44.444
856.17	48.148
856.46	85.714
856.76	13.333
857.05	111.111
857.35	32.000
857.65	16.667
857.94	-7.692
858.24	41.379
858.53	55.556
858.83	85.185
859.13	31.818
859.42	56.522
859.72	-100.000
860.01	300.000
860.31	16.000
860.60	42.857
860.90	0.000
861.20	26.667
861.49	-350.000
861.79	26.667
862.08	35.000
862.38	100.000
862.67	-120.000
862.97	116.667
863.26	100.000
863.56	94.444
863.85	-233.333
864.15	55.556
864.44	50.000
864.74	42.857
865.03	-100.000
865.33	0.000
865.62	33.333
865.92	0.000
866.21	-66.667
866.51	75.000
866.80	-9.091
867.10	100.000
867.39	133.333
867.69	0.000
867.98	76.923
868.27	100.000
868.57	40.000
868.86	11.111
869.16	23.077
869.45	60.000
869.75	400.000
870.04	0.000
870.33	-42.857
870.63	42.857
870.92	233.333
871.22	-80.000
871.51	200.000
871.80	133.333
872.10	500.000
>>>>>End Processed Spectral Data<<<<<
