SpectraSuite Data File
++++++++++++++++++++++++++++++++++++
Date: Fri May 15 20:17:21 PDT 2015
User: schluterlab
Dark Spectrum Present: Yes
Reference Spectrum Present: Yes
Number of Sampled Component Spectra: 1
Spectrometers: USB2E3373
Integration Time (usec): 3000 (USB2E3373)
Spectra Averaged: 3 (USB2E3373)
Boxcar Smoothing: 0 (USB2E3373)
Correct for Electrical Dark: No (USB2E3373)
Strobe/Lamp Enabled: No (USB2E3373)
Correct for Detector Non-linearity: No (USB2E3373)
Correct for Stray Light: No (USB2E3373)
Number of Pixels in Processed Spectrum: 2048
>>>>>Begin Processed Spectral Data<<<<<
178.53	0.000
178.91	0.000
179.29	-37.500
179.67	-550.000
180.04	157.143
180.42	0.000
180.80	400.000
181.18	-33.333
181.56	200.000
181.94	-200.000
182.31	1000.000
182.69	-20.000
183.07	-100.000
183.45	-120.000
183.83	216.667
184.20	-72.727
184.58	155.556
184.96	-175.000
185.34	133.333
185.72	-350.000
186.09	130.769
186.47	-800.000
186.85	150.000
187.23	188.889
187.61	-200.000
187.98	-166.667
188.36	66.667
188.74	-266.667
189.12	17.647
189.49	11.111
189.87	0.000
190.25	-7.143
190.63	250.000
191.00	-200.000
191.38	5.263
191.76	400.000
192.14	125.000
192.51	150.000
192.89	-22.222
193.27	-171.429
193.65	83.333
194.02	190.909
194.40	-50.000
194.78	-125.000
195.15	-8.333
195.53	-175.000
195.91	275.000
196.29	300.000
196.66	53.846
197.04	85.714
197.42	33.333
197.79	-233.333
198.17	-69.231
198.55	700.000
198.92	-133.333
199.30	-300.000
199.68	-200.000
200.05	0.000
200.43	0.000
200.81	-133.333
201.18	0.000
201.56	1500.000
201.94	-200.000
202.31	266.667
202.69	-260.000
203.07	275.000
203.44	-600.000
203.82	0.000
204.19	-14.286
204.57	-600.000
204.95	62.500
205.32	40.000
205.70	14.286
206.08	-175.000
206.45	100.000
206.83	7.143
207.20	28.571
207.58	500.000
207.96	-433.333
208.33	-60.000
208.71	-75.000
209.08	-183.333
209.46	-400.000
209.84	200.000
210.21	-700.000
210.59	-14.286
210.96	0.000
211.34	-200.000
211.71	0.000
212.09	-71.429
212.46	-1200.000
212.84	0.000
213.22	30.000
213.59	500.000
213.97	46.154
214.34	27.273
214.72	-116.667
215.09	275.000
215.47	-53.846
215.84	-81.818
216.22	-466.667
216.59	-137.500
216.97	-50.000
217.34	-100.000
217.72	-200.000
218.09	-12.500
218.47	100.000
218.84	-900.000
219.22	-44.444
219.59	-40.000
219.97	333.333
220.34	175.000
220.72	-85.714
221.09	-100.000
221.47	150.000
221.84	-400.000
222.22	-200.000
222.59	45.455
222.97	58.333
223.34	-33.333
223.72	-35.714
224.09	23.810
224.46	14.286
224.84	500.000
225.21	-70.000
225.59	-13.333
225.96	0.000
226.34	350.000
226.71	-28.571
227.08	0.000
227.46	-12.500
227.83	-550.000
228.21	155.556
228.58	45.455
228.95	-50.000
229.33	90.000
229.70	25.000
230.08	-125.000
230.45	-200.000
230.82	128.571
231.20	-86.667
231.57	35.714
231.95	71.429
232.32	-80.000
232.69	-28.571
233.07	-200.000
233.44	160.000
233.81	10.000
234.19	22.222
234.56	-11.765
234.93	650.000
235.31	-25.000
235.68	-180.000
236.05	30.769
236.43	-30.000
236.80	23.529
237.17	59.375
237.55	20.000
237.92	3.704
238.29	27.778
238.67	13.333
239.04	44.118
239.41	2.439
239.79	33.333
240.16	56.098
240.53	42.105
240.91	45.652
241.28	53.968
241.65	58.929
242.02	45.205
242.40	38.333
242.77	66.102
243.14	50.000
243.51	52.500
243.89	67.816
244.26	42.529
244.63	53.571
245.00	42.268
245.38	52.577
245.75	42.697
246.12	51.724
246.49	49.587
246.87	50.962
247.24	47.059
247.61	39.474
247.98	52.846
248.36	43.750
248.73	56.579
249.10	49.351
249.47	55.696
249.84	58.170
250.22	52.941
250.59	56.863
250.96	46.948
251.33	48.837
251.70	50.588
252.08	51.269
252.45	48.020
252.82	56.281
253.19	54.839
253.56	45.794
253.94	52.252
254.31	51.739
254.68	57.456
255.05	52.756
255.42	51.528
255.79	52.896
256.16	50.584
256.54	50.746
256.91	53.612
257.28	50.929
257.65	49.813
258.02	51.064
258.39	53.199
258.76	57.509
259.14	53.821
259.51	51.456
259.88	54.983
260.25	51.961
260.62	53.819
260.99	51.525
261.36	52.397
261.73	53.797
262.10	54.711
262.47	55.215
262.85	53.918
263.22	53.231
263.59	52.648
263.96	54.658
264.33	52.121
264.70	54.167
265.07	51.190
265.44	55.807
265.81	53.390
266.18	57.923
266.55	50.900
266.92	54.663
267.29	54.047
267.66	52.174
268.03	55.236
268.40	52.219
268.77	56.150
269.14	51.079
269.51	56.812
269.88	50.125
270.25	50.765
270.62	50.976
270.99	53.197
271.36	49.878
271.73	48.357
272.10	53.285
272.47	52.719
272.84	52.475
273.21	50.116
273.58	51.566
273.95	51.030
274.32	51.732
274.69	49.548
275.06	52.902
275.43	49.206
275.80	52.539
276.17	50.575
276.54	51.178
276.91	51.974
277.28	51.528
277.65	49.380
278.02	51.915
278.39	50.985
278.76	51.153
279.13	48.548
279.50	50.630
279.87	47.732
280.23	48.817
280.60	49.123
280.97	50.303
281.34	49.038
281.71	52.772
282.08	51.534
282.45	46.967
282.82	47.683
283.19	49.323
283.56	49.326
283.92	51.613
284.29	48.077
284.66	49.612
285.03	48.330
285.40	49.527
285.77	44.640
286.14	48.375
286.51	49.077
286.87	48.080
287.24	48.987
287.61	44.974
287.98	47.193
288.35	47.314
288.72	46.935
289.08	44.965
289.45	45.518
289.82	45.629
290.19	43.003
290.56	44.940
290.93	44.613
291.29	40.832
291.66	41.260
292.03	40.510
292.40	40.806
292.77	42.743
293.13	37.500
293.50	39.605
293.87	39.847
294.24	40.958
294.60	39.642
294.97	39.286
295.34	41.104
295.71	39.344
296.08	38.117
296.44	37.696
296.81	37.639
297.18	36.522
297.55	40.244
297.91	39.452
298.28	37.731
298.65	33.514
299.02	35.445
299.38	34.200
299.75	35.448
300.12	34.948
300.48	37.022
300.85	36.122
301.22	36.364
301.59	35.658
301.95	36.076
302.32	35.279
302.69	35.075
303.05	34.158
303.42	34.122
303.79	33.762
304.15	34.886
304.52	34.364
304.89	34.503
305.25	34.140
305.62	33.022
305.99	31.696
306.35	33.526
306.72	32.846
307.09	33.865
307.45	34.902
307.82	33.912
308.19	32.753
308.55	33.043
308.92	32.789
309.29	31.620
309.65	32.723
310.02	32.893
310.38	31.284
310.75	32.678
311.12	34.123
311.48	31.707
311.85	32.670
312.22	32.068
312.58	33.546
312.95	32.337
313.31	32.298
313.68	32.984
314.05	31.531
314.41	32.784
314.78	32.990
315.14	33.402
315.51	33.851
315.87	33.607
316.24	32.760
316.61	33.169
316.97	33.036
317.34	33.008
317.70	32.792
318.07	33.173
318.43	33.529
318.80	32.102
319.16	33.887
319.53	34.568
319.89	33.661
320.26	34.413
320.62	33.902
320.99	33.820
321.35	34.532
321.72	35.306
322.08	34.038
322.45	35.939
322.81	35.658
323.18	34.347
323.54	34.846
323.91	37.196
324.27	38.086
324.64	36.985
325.00	38.047
325.37	38.200
325.73	37.353
326.10	40.418
326.46	40.448
326.83	40.245
327.19	42.720
327.56	41.703
327.92	42.077
328.29	42.857
328.65	42.453
329.01	43.107
329.38	42.212
329.74	43.437
330.11	43.281
330.47	43.506
330.84	43.173
331.20	45.152
331.56	42.870
331.93	45.662
332.29	44.546
332.66	44.706
333.02	44.424
333.38	43.813
333.75	46.886
334.11	42.704
334.48	45.331
334.84	45.788
335.20	44.922
335.57	44.424
335.93	45.980
336.29	46.593
336.66	44.323
337.02	43.866
337.38	43.056
337.75	43.727
338.11	45.446
338.47	45.073
338.84	46.303
339.20	45.887
339.56	46.147
339.93	43.509
340.29	46.239
340.65	46.147
341.02	45.833
341.38	44.071
341.74	44.700
342.11	44.454
342.47	45.374
342.83	46.107
343.20	45.383
343.56	44.522
343.92	45.881
344.28	45.687
344.65	45.682
345.01	44.166
345.37	43.230
345.73	45.774
346.10	44.780
346.46	44.323
346.82	44.354
347.19	44.472
347.55	44.277
347.91	44.903
348.27	43.897
348.63	45.145
349.00	44.381
349.36	44.805
349.72	45.025
350.08	44.262
350.45	44.214
350.81	44.020
351.17	43.322
351.53	44.816
351.89	43.931
352.26	44.800
352.62	44.758
352.98	43.936
353.34	43.156
353.70	44.175
354.07	44.113
354.43	43.155
354.79	44.591
355.15	43.333
355.51	44.778
355.87	44.822
356.24	42.904
356.60	43.088
356.96	45.159
357.32	44.569
357.68	43.550
358.04	44.346
358.40	44.453
358.77	44.498
359.13	42.834
359.49	42.835
359.85	44.150
360.21	44.179
360.57	43.229
360.93	43.116
361.29	42.900
361.66	43.966
362.02	45.152
362.38	44.631
362.74	44.436
363.10	44.244
363.46	43.810
363.82	45.004
364.18	43.985
364.54	43.309
364.90	44.373
365.26	44.323
365.62	45.693
365.98	45.821
366.35	45.885
366.71	45.011
367.07	44.993
367.43	44.644
367.79	44.594
368.15	44.939
368.51	44.574
368.87	44.293
369.23	44.404
369.59	45.262
369.95	43.402
370.31	44.075
370.67	44.403
371.03	43.316
371.39	44.128
371.75	44.615
372.11	44.151
372.47	45.118
372.83	45.564
373.19	44.936
373.55	43.394
373.91	43.772
374.27	44.791
374.63	45.729
374.99	44.468
375.35	44.429
375.71	44.895
376.07	45.154
376.42	44.558
376.78	45.168
377.14	45.024
377.50	44.954
377.86	43.976
378.22	45.054
378.58	46.026
378.94	44.991
379.30	44.230
379.66	45.956
380.02	46.352
380.38	45.344
380.74	45.721
381.09	46.442
381.45	45.688
381.81	44.911
382.17	45.114
382.53	46.346
382.89	48.148
383.25	46.297
383.61	45.793
383.97	45.143
384.32	45.341
384.68	44.892
385.04	45.527
385.40	45.737
385.76	47.233
386.12	47.671
386.48	47.765
386.83	46.607
387.19	46.459
387.55	46.926
387.91	46.455
388.27	45.421
388.62	47.577
388.98	45.488
389.34	47.033
389.70	46.489
390.06	47.011
390.42	46.956
390.77	47.090
391.13	45.649
391.49	47.801
391.85	46.589
392.20	47.395
392.56	45.836
392.92	47.387
393.28	46.934
393.64	46.126
393.99	47.900
394.35	46.679
394.71	47.382
395.07	46.135
395.42	45.052
395.78	45.863
396.14	47.226
396.50	47.242
396.85	46.877
397.21	45.739
397.57	46.144
397.92	45.956
398.28	46.839
398.64	45.241
399.00	45.598
399.35	45.880
399.71	45.032
400.07	46.070
400.42	45.043
400.78	46.846
401.14	44.828
401.49	45.563
401.85	45.399
402.21	45.241
402.57	46.437
402.92	44.040
403.28	46.679
403.63	46.154
403.99	44.260
404.35	47.220
404.70	46.071
405.06	44.477
405.42	44.189
405.77	44.974
406.13	44.354
406.49	43.635
406.84	45.538
407.20	46.237
407.55	43.271
407.91	44.853
408.27	45.124
408.62	43.815
408.98	44.424
409.34	44.796
409.69	44.315
410.05	44.212
410.40	44.074
410.76	45.778
411.11	44.687
411.47	45.365
411.83	44.005
412.18	44.595
412.54	44.507
412.89	43.288
413.25	45.187
413.60	43.789
413.96	43.988
414.31	43.049
414.67	43.810
415.03	44.474
415.38	43.016
415.74	45.212
416.09	44.611
416.45	44.227
416.80	43.886
417.16	45.097
417.51	44.037
417.87	43.220
418.22	44.365
418.58	44.080
418.93	45.705
419.29	43.982
419.64	44.394
420.00	45.088
420.35	42.507
420.71	43.803
421.06	44.076
421.42	44.111
421.77	44.566
422.12	43.644
422.48	43.909
422.83	44.374
423.19	44.074
423.54	43.092
423.90	44.052
424.25	44.719
424.61	43.880
424.96	44.483
425.31	44.714
425.67	44.542
426.02	45.053
426.38	44.458
426.73	45.218
427.09	45.633
427.44	44.529
427.79	45.610
428.15	43.993
428.50	44.882
428.85	43.735
429.21	44.765
429.56	43.827
429.92	44.325
430.27	44.511
430.62	43.335
430.98	44.692
431.33	45.373
431.68	44.061
432.04	45.333
432.39	44.096
432.74	42.694
433.10	44.598
433.45	44.205
433.80	43.993
434.16	45.374
434.51	43.710
434.86	45.645
435.22	45.205
435.57	45.103
435.92	43.353
436.28	44.425
436.63	44.952
436.98	43.395
437.34	44.344
437.69	44.365
438.04	43.704
438.39	43.861
438.75	45.902
439.10	44.652
439.45	46.013
439.81	45.138
440.16	45.606
440.51	44.896
440.86	46.163
441.22	44.796
441.57	46.799
441.92	45.645
442.27	45.676
442.63	45.503
442.98	45.319
443.33	44.240
443.68	45.093
444.03	45.604
444.39	45.450
444.74	46.265
445.09	46.047
445.44	45.698
445.79	46.209
446.15	45.870
446.50	44.870
446.85	46.227
447.20	45.516
447.55	46.205
447.91	44.670
448.26	45.646
448.61	45.769
448.96	45.611
449.31	45.434
449.66	45.238
450.02	45.351
450.37	45.999
450.72	44.845
451.07	46.266
451.42	45.069
451.77	45.389
452.12	44.199
452.47	45.267
452.83	45.936
453.18	46.300
453.53	45.322
453.88	44.566
454.23	43.946
454.58	46.348
454.93	44.459
455.28	43.873
455.63	45.381
455.98	46.001
456.34	45.147
456.69	45.362
457.04	46.566
457.39	45.200
457.74	44.921
458.09	44.202
458.44	44.587
458.79	45.770
459.14	45.938
459.49	46.209
459.84	45.854
460.19	45.085
460.54	44.621
460.89	44.716
461.24	45.776
461.59	45.071
461.94	44.717
462.29	45.597
462.64	44.585
462.99	44.482
463.34	45.132
463.69	45.174
464.04	44.068
464.39	45.240
464.74	43.497
465.09	44.604
465.44	46.105
465.79	44.104
466.14	45.268
466.49	43.588
466.84	44.795
467.19	44.556
467.54	43.997
467.89	45.357
468.24	43.613
468.59	45.016
468.94	43.619
469.29	45.115
469.64	43.062
469.99	44.849
470.34	43.754
470.68	43.699
471.03	44.161
471.38	43.581
471.73	44.188
472.08	44.098
472.43	44.698
472.78	43.249
473.13	44.830
473.48	43.453
473.83	43.088
474.17	45.531
474.52	44.161
474.87	44.303
475.22	43.929
475.57	43.986
475.92	44.652
476.27	44.005
476.61	44.329
476.96	44.060
477.31	43.862
477.66	43.820
478.01	44.357
478.36	43.246
478.70	43.828
479.05	44.066
479.40	42.978
479.75	43.691
480.10	43.062
480.45	44.300
480.79	44.914
481.14	44.980
481.49	43.350
481.84	44.112
482.19	44.761
482.53	43.933
482.88	43.341
483.23	43.282
483.58	42.972
483.92	43.611
484.27	43.254
484.62	43.165
484.97	43.367
485.31	43.895
485.66	44.035
486.01	45.551
486.36	45.852
486.70	45.730
487.05	45.879
487.40	44.881
487.75	43.972
488.09	43.758
488.44	42.985
488.79	42.959
489.13	43.109
489.48	43.865
489.83	43.498
490.17	42.382
490.52	41.755
490.87	42.064
491.22	43.840
491.56	42.979
491.91	41.444
492.26	43.218
492.60	42.610
492.95	43.384
493.30	42.843
493.64	43.910
493.99	42.995
494.34	42.961
494.68	43.381
495.03	41.995
495.37	43.327
495.72	42.908
496.07	43.415
496.41	42.028
496.76	42.515
497.11	43.223
497.45	42.721
497.80	43.189
498.14	41.828
498.49	42.153
498.84	42.066
499.18	42.821
499.53	43.452
499.87	41.148
500.22	42.433
500.56	43.722
500.91	41.165
501.26	41.226
501.60	42.400
501.95	43.231
502.29	42.228
502.64	43.002
502.98	43.266
503.33	41.451
503.67	42.747
504.02	43.011
504.36	43.048
504.71	42.071
505.06	42.174
505.40	41.827
505.75	42.113
506.09	41.510
506.44	43.121
506.78	42.245
507.13	41.572
507.47	41.044
507.82	41.400
508.16	41.521
508.51	41.553
508.85	42.125
509.19	41.458
509.54	40.965
509.88	41.370
510.23	42.550
510.57	42.437
510.92	40.085
511.26	41.408
511.61	41.749
511.95	41.479
512.30	41.630
512.64	41.736
512.98	40.764
513.33	42.082
513.67	42.013
514.02	43.307
514.36	41.086
514.70	42.774
515.05	42.127
515.39	41.854
515.74	42.455
516.08	42.439
516.42	41.991
516.77	41.194
517.11	41.365
517.46	41.173
517.80	41.716
518.14	41.090
518.49	40.745
518.83	42.102
519.17	40.267
519.52	40.853
519.86	41.897
520.20	41.009
520.55	41.088
520.89	42.346
521.23	41.799
521.58	41.325
521.92	40.192
522.26	40.208
522.61	41.948
522.95	42.119
523.29	40.724
523.64	42.440
523.98	41.218
524.32	40.464
524.66	41.549
525.01	41.364
525.35	40.765
525.69	42.020
526.04	40.807
526.38	42.153
526.72	41.203
527.06	40.208
527.41	41.425
527.75	41.019
528.09	41.196
528.43	41.931
528.78	40.528
529.12	41.226
529.46	40.416
529.80	40.215
530.15	42.046
530.49	40.943
530.83	41.860
531.17	40.430
531.51	40.903
531.86	39.837
532.20	39.457
532.54	40.300
532.88	40.931
533.22	41.263
533.57	40.760
533.91	41.384
534.25	41.667
534.59	40.090
534.93	40.843
535.27	40.228
535.62	40.311
535.96	41.748
536.30	41.425
536.64	41.075
536.98	39.443
537.32	40.256
537.66	41.515
538.01	42.168
538.35	41.193
538.69	40.413
539.03	41.080
539.37	41.925
539.71	40.559
540.05	40.869
540.39	39.751
540.73	41.004
541.07	40.746
541.42	40.457
541.76	41.776
542.10	40.262
542.44	40.792
542.78	39.436
543.12	40.522
543.46	40.403
543.80	41.846
544.14	39.653
544.48	40.440
544.82	40.123
545.16	41.120
545.50	41.255
545.84	40.439
546.18	40.851
546.52	40.735
546.86	40.187
547.20	39.986
547.54	40.424
547.88	41.168
548.22	41.486
548.56	40.963
548.90	40.701
549.24	39.738
549.58	40.268
549.92	39.743
550.26	40.440
550.60	39.926
550.94	40.702
551.28	39.645
551.62	40.769
551.96	40.226
552.30	40.863
552.64	40.268
552.98	40.366
553.32	40.300
553.66	40.711
554.00	41.533
554.34	40.842
554.68	39.749
555.02	39.732
555.36	39.716
555.69	40.733
556.03	40.542
556.37	40.569
556.71	40.578
557.05	40.268
557.39	39.554
557.73	40.405
558.07	40.498
558.41	40.123
558.75	38.504
559.08	39.480
559.42	40.556
559.76	41.233
560.10	40.520
560.44	40.730
560.78	40.350
561.12	40.339
561.45	41.883
561.79	41.457
562.13	40.667
562.47	40.216
562.81	40.202
563.15	40.973
563.48	40.523
563.82	41.524
564.16	40.877
564.50	40.068
564.84	41.031
565.17	39.571
565.51	41.462
565.85	41.632
566.19	40.385
566.52	41.153
566.86	42.288
567.20	40.100
567.54	40.572
567.88	42.062
568.21	41.912
568.55	42.283
568.89	42.813
569.23	43.043
569.56	42.863
569.90	43.971
570.24	43.245
570.57	43.564
570.91	43.709
571.25	42.519
571.59	43.133
571.92	42.696
572.26	42.663
572.60	42.884
572.93	42.014
573.27	41.975
573.61	42.959
573.95	43.364
574.28	43.379
574.62	42.487
574.96	43.057
575.29	42.529
575.63	41.747
575.97	41.773
576.30	42.367
576.64	42.596
576.98	43.501
577.31	43.303
577.65	43.853
577.98	43.724
578.32	43.024
578.66	42.747
578.99	42.770
579.33	41.944
579.67	42.165
580.00	42.861
580.34	42.861
580.67	42.681
581.01	42.939
581.35	43.475
581.68	43.771
582.02	43.604
582.35	43.603
582.69	43.670
583.02	43.175
583.36	43.175
583.70	43.120
584.03	42.925
584.37	43.309
584.70	42.885
585.04	42.565
585.37	43.317
585.71	42.952
586.04	42.385
586.38	42.678
586.72	43.185
587.05	43.010
587.39	43.472
587.72	43.439
588.06	42.956
588.39	43.520
588.73	42.735
589.06	42.694
589.40	42.344
589.73	42.278
590.07	43.467
590.40	42.763
590.73	43.781
591.07	43.172
591.40	41.585
591.74	42.217
592.07	42.440
592.41	43.286
592.74	42.772
593.08	41.879
593.41	42.603
593.75	43.147
594.08	42.053
594.41	42.831
594.75	42.405
595.08	42.452
595.42	42.952
595.75	43.485
596.09	42.924
596.42	41.877
596.75	43.162
597.09	41.139
597.42	41.283
597.75	42.464
598.09	42.191
598.42	41.652
598.76	42.385
599.09	42.388
599.42	42.023
599.76	42.363
600.09	42.798
600.42	42.532
600.76	42.088
601.09	41.718
601.42	41.911
601.76	41.921
602.09	42.120
602.42	42.165
602.76	42.827
603.09	42.733
603.42	43.520
603.76	41.774
604.09	41.960
604.42	42.386
604.76	42.501
605.09	43.236
605.42	42.032
605.75	41.637
606.09	42.038
606.42	42.577
606.75	42.208
607.09	42.418
607.42	41.471
607.75	41.430
608.08	41.959
608.42	41.206
608.75	42.361
609.08	42.152
609.41	42.081
609.75	41.734
610.08	41.887
610.41	41.691
610.74	40.956
611.07	42.326
611.41	42.916
611.74	42.058
612.07	41.274
612.40	41.794
612.73	41.582
613.07	40.045
613.40	40.864
613.73	40.907
614.06	42.293
614.39	41.004
614.72	40.840
615.06	41.620
615.39	41.921
615.72	40.797
616.05	41.397
616.38	40.798
616.71	41.284
617.05	41.754
617.38	42.175
617.71	42.201
618.04	40.825
618.37	40.858
618.70	40.792
619.03	42.500
619.36	40.810
619.69	40.940
620.03	41.417
620.36	40.916
620.69	39.971
621.02	39.908
621.35	39.834
621.68	41.071
622.01	40.417
622.34	40.144
622.67	40.536
623.00	40.658
623.33	40.015
623.66	41.137
623.99	38.654
624.32	40.304
624.65	39.850
624.99	40.707
625.32	39.955
625.65	41.791
625.98	40.774
626.31	39.734
626.64	40.208
626.97	40.925
627.30	40.893
627.63	41.161
627.96	40.521
628.29	39.038
628.62	39.430
628.95	38.477
629.28	40.423
629.61	40.279
629.94	40.665
630.26	40.514
630.59	38.918
630.92	38.256
631.25	38.051
631.58	39.648
631.91	37.939
632.24	37.959
632.57	38.523
632.90	38.671
633.23	38.706
633.56	39.421
633.89	39.704
634.22	39.506
634.55	39.644
634.88	38.314
635.20	37.692
635.53	39.600
635.86	37.061
636.19	39.586
636.52	39.668
636.85	36.849
637.18	36.855
637.51	38.994
637.83	39.028
638.16	38.063
638.49	36.921
638.82	38.289
639.15	36.635
639.48	37.276
639.81	37.517
640.13	39.250
640.46	37.464
640.79	38.439
641.12	36.484
641.45	37.988
641.77	37.481
642.10	38.389
642.43	37.621
642.76	38.449
643.09	36.026
643.41	37.055
643.74	38.386
644.07	37.931
644.40	38.851
644.73	38.179
645.05	36.577
645.38	38.448
645.71	36.525
646.04	39.677
646.36	37.234
646.69	37.590
647.02	37.051
647.35	37.687
647.67	36.197
648.00	38.993
648.33	37.201
648.66	38.983
648.98	39.028
649.31	35.372
649.64	37.363
649.96	36.143
650.29	36.457
650.62	38.632
650.94	34.074
651.27	35.940
651.60	36.216
651.92	36.014
652.25	39.609
652.58	39.667
652.90	37.736
653.23	35.462
653.56	38.240
653.88	36.254
654.21	35.026
654.54	37.691
654.86	38.710
655.19	39.181
655.52	44.892
655.84	46.266
656.17	51.282
656.49	68.290
656.82	69.702
657.15	52.262
657.47	38.319
657.80	28.170
658.13	27.471
658.45	42.152
658.78	40.595
659.10	39.731
659.43	38.445
659.75	39.369
660.08	37.448
660.41	38.304
660.73	36.602
661.06	36.568
661.38	35.225
661.71	32.854
662.03	36.266
662.36	37.363
662.68	37.832
663.01	37.336
663.33	33.643
663.66	35.349
663.98	33.488
664.31	34.968
664.63	37.097
664.96	34.783
665.28	32.450
665.61	34.632
665.93	36.522
666.26	35.792
666.58	32.886
666.91	36.471
667.23	37.028
667.56	35.308
667.88	35.731
668.21	31.742
668.53	35.225
668.86	37.264
669.18	33.726
669.50	35.109
669.83	33.256
670.15	35.664
670.48	34.689
670.80	36.636
671.13	35.347
671.45	33.105
671.77	39.700
672.10	39.208
672.42	37.640
672.75	37.655
673.07	38.640
673.39	38.532
673.72	38.264
674.04	36.667
674.37	38.136
674.69	35.118
675.01	36.222
675.34	38.063
675.66	34.259
675.98	36.585
676.31	36.697
676.63	37.055
676.95	35.909
677.28	37.412
677.60	40.482
677.92	36.239
678.25	35.449
678.57	37.879
678.89	37.395
679.22	38.255
679.54	37.751
679.86	36.183
680.18	38.641
680.51	40.530
680.83	37.773
681.15	38.200
681.48	38.525
681.80	38.636
682.12	37.702
682.44	38.075
682.77	34.216
683.09	37.757
683.41	37.273
683.73	34.562
684.06	37.168
684.38	36.344
684.70	40.741
685.02	36.307
685.34	34.585
685.67	36.585
685.99	40.687
686.31	38.230
686.63	36.549
686.96	36.692
687.28	34.545
687.60	36.312
687.92	39.192
688.24	36.290
688.56	35.371
688.89	34.152
689.21	36.667
689.53	35.267
689.85	35.581
690.17	36.161
690.49	38.534
690.82	37.136
691.14	33.333
691.46	37.617
691.78	38.288
692.10	37.634
692.42	35.714
692.74	38.675
693.06	36.486
693.39	35.520
693.71	33.937
694.03	36.721
694.35	37.617
694.67	33.333
694.99	33.420
695.31	39.948
695.63	36.250
695.95	32.576
696.27	36.528
696.59	36.667
696.91	33.333
697.23	34.190
697.56	38.366
697.88	37.204
698.20	37.130
698.52	37.882
698.84	32.536
699.16	31.500
699.48	37.343
699.80	34.739
700.12	35.310
700.44	37.255
700.76	31.686
701.08	34.545
701.40	34.639
701.72	37.346
702.04	35.974
702.36	38.127
702.68	35.135
703.00	34.545
703.32	34.604
703.64	30.791
703.96	35.362
704.28	35.276
704.60	36.825
704.91	35.331
705.23	34.219
705.55	39.576
705.87	33.935
706.19	34.074
706.51	32.646
706.83	38.264
707.15	29.595
707.47	37.535
707.79	34.375
708.11	35.250
708.43	36.500
708.74	35.659
709.06	37.465
709.38	37.615
709.70	35.799
710.02	36.624
710.34	37.461
710.66	34.936
710.98	37.086
711.29	37.705
711.61	38.983
711.93	36.808
712.25	37.801
712.57	35.531
712.89	33.955
713.20	37.716
713.52	39.024
713.84	34.471
714.16	37.457
714.48	35.484
714.80	38.141
715.11	37.082
715.43	32.915
715.75	32.667
716.07	31.561
716.39	29.195
716.70	32.841
717.02	33.206
717.34	35.628
717.66	36.283
717.97	34.348
718.29	36.820
718.61	38.583
718.93	35.659
719.24	40.684
719.56	38.554
719.88	34.364
720.20	37.879
720.51	31.034
720.83	32.432
721.15	34.874
721.46	30.645
721.78	37.549
722.10	36.059
722.42	31.950
722.73	38.367
723.05	35.510
723.37	42.373
723.68	44.144
724.00	38.034
724.32	35.556
724.63	32.727
724.95	35.371
725.27	40.553
725.58	36.441
725.90	32.540
726.22	34.749
726.53	34.915
726.85	38.951
727.16	42.264
727.48	29.555
727.80	36.032
728.11	37.712
728.43	34.118
728.74	34.274
729.06	33.600
729.38	40.602
729.69	35.060
730.01	35.000
730.32	39.552
730.64	33.922
730.96	40.000
731.27	36.333
731.59	36.949
731.90	35.669
732.22	38.486
732.53	38.870
732.85	37.943
733.16	41.751
733.48	36.331
733.80	37.681
734.11	33.559
734.43	40.893
734.74	38.182
735.06	38.111
735.37	36.556
735.69	38.047
736.00	33.101
736.32	39.933
736.63	36.620
736.95	35.495
737.26	34.164
737.58	37.248
737.89	38.462
738.21	36.090
738.52	37.037
738.83	39.301
739.15	34.061
739.46	35.039
739.78	36.996
740.09	35.294
740.41	33.696
740.72	33.858
741.04	39.676
741.35	34.894
741.66	37.441
741.98	33.163
742.29	35.644
742.61	42.408
742.92	31.280
743.23	29.630
743.55	39.367
743.86	36.842
744.18	32.536
744.49	33.511
744.80	34.239
745.12	38.503
745.43	30.732
745.74	40.104
746.06	40.000
746.37	35.079
746.68	35.545
747.00	34.043
747.31	39.801
747.62	32.524
747.94	39.234
748.25	36.139
748.56	34.426
748.88	30.366
749.19	35.638
749.50	36.946
749.82	31.132
750.13	41.284
750.44	37.594
750.75	40.672
751.07	42.701
751.38	34.483
751.69	34.510
752.01	39.147
752.32	39.442
752.63	37.549
752.94	38.362
753.26	38.494
753.57	36.652
753.88	37.168
754.19	35.417
754.51	35.537
754.82	35.223
755.13	40.417
755.44	37.500
755.75	39.844
756.07	38.521
756.38	32.830
756.69	34.100
757.00	37.667
757.31	38.889
757.63	39.329
757.94	35.833
758.25	34.795
758.56	36.436
758.87	35.411
759.18	36.449
759.50	37.455
759.81	37.124
760.12	42.581
760.43	36.364
760.74	38.580
761.05	40.923
761.36	36.648
761.67	36.061
761.99	36.735
762.30	32.000
762.61	38.340
762.92	35.747
763.23	40.541
763.54	38.785
763.85	38.136
764.16	35.270
764.47	33.871
764.78	35.165
765.10	39.731
765.41	37.224
765.72	39.048
766.03	36.090
766.34	35.036
766.65	34.661
766.96	35.354
767.27	37.234
767.58	32.184
767.89	34.043
768.20	32.955
768.51	35.714
768.82	33.990
769.13	31.336
769.44	37.339
769.75	38.356
770.06	36.207
770.37	32.692
770.68	33.503
770.99	30.317
771.30	36.765
771.61	37.557
771.92	35.776
772.23	34.975
772.54	37.097
772.85	42.593
773.16	34.270
773.47	42.484
773.78	44.444
774.09	29.940
774.39	34.000
774.70	38.217
775.01	37.931
775.32	32.143
775.63	25.620
775.94	35.115
776.25	26.772
776.56	24.167
776.87	31.731
777.18	24.786
777.48	37.931
777.79	28.696
778.10	19.048
778.41	27.928
778.72	37.302
779.03	42.857
779.34	35.461
779.65	38.356
779.95	31.507
780.26	36.552
780.57	23.577
780.88	32.283
781.19	41.379
781.50	35.659
781.80	31.953
782.11	31.447
782.42	41.538
782.73	38.849
783.04	34.074
783.34	36.111
783.65	26.496
783.96	37.705
784.27	37.931
784.57	34.959
784.88	32.031
785.19	47.000
785.50	40.000
785.81	37.069
786.11	38.793
786.42	30.097
786.73	39.091
787.04	31.633
787.34	25.893
787.65	33.333
787.96	34.513
788.26	33.636
788.57	39.316
788.88	41.406
789.19	28.571
789.49	35.652
789.80	39.796
790.11	34.343
790.41	29.091
790.72	35.870
791.03	31.818
791.33	43.750
791.64	27.500
791.95	30.233
792.25	35.106
792.56	43.820
792.87	30.137
793.17	26.087
793.48	26.667
793.79	20.000
794.09	32.500
794.40	27.358
794.70	29.126
795.01	32.520
795.32	33.333
795.62	29.524
795.93	34.314
796.23	33.019
796.54	32.292
796.85	41.176
797.15	19.718
797.46	27.778
797.76	45.455
798.07	30.233
798.37	25.000
798.68	39.394
798.99	32.099
799.29	20.000
799.60	28.986
799.90	40.000
800.21	21.311
800.51	10.769
800.82	30.508
801.12	24.638
801.43	14.754
801.73	36.508
802.04	24.000
802.34	10.448
802.65	42.308
802.95	26.786
803.26	23.077
803.56	17.647
803.87	-4.348
804.17	32.000
804.48	38.095
804.78	24.074
805.09	17.391
805.39	20.000
805.70	35.185
806.00	10.526
806.30	36.620
806.61	37.143
806.91	29.167
807.22	25.000
807.52	34.667
807.83	27.273
808.13	22.222
808.43	36.765
808.74	17.910
809.04	23.729
809.35	21.154
809.65	28.125
809.95	5.405
810.26	-2.273
810.56	24.658
810.86	40.476
811.17	14.000
811.47	32.653
811.77	15.789
812.08	25.000
812.38	26.415
812.69	10.000
812.99	9.091
813.29	39.474
813.59	8.571
813.90	15.909
814.20	10.256
814.50	50.000
814.81	35.849
815.11	8.511
815.41	37.288
815.72	26.190
816.02	50.980
816.32	8.333
816.62	2.439
816.93	5.405
817.23	2.857
817.53	37.500
817.84	6.522
818.14	34.615
818.44	-13.158
818.74	60.870
819.04	5.000
819.35	18.919
819.65	17.647
819.95	22.222
820.25	35.714
820.56	55.000
820.86	-10.345
821.16	72.500
821.46	29.787
821.76	60.000
822.07	44.186
822.37	-18.919
822.67	3.125
822.97	35.714
823.27	-10.714
823.57	0.000
823.88	-25.926
824.18	35.714
824.48	-17.647
824.78	9.677
825.08	30.435
825.38	24.242
825.69	-16.667
825.99	31.579
826.29	19.444
826.59	40.000
826.89	-38.095
827.19	17.391
827.49	20.000
827.79	51.429
828.09	39.286
828.39	33.333
828.70	35.135
829.00	0.000
829.30	9.524
829.60	13.333
829.90	6.250
830.20	21.053
830.50	-37.037
830.80	4.348
831.10	9.091
831.40	45.455
831.70	16.129
832.00	14.286
832.30	-33.333
832.60	-25.000
832.90	0.000
833.20	-15.000
833.50	51.515
833.80	40.741
834.10	19.231
834.40	40.625
834.70	0.000
835.00	26.316
835.30	76.923
835.60	66.667
835.90	22.581
836.20	27.273
836.50	42.857
836.80	-19.231
837.10	10.714
837.40	-333.333
837.70	31.818
838.00	-63.636
838.30	60.870
838.60	-46.154
838.90	50.000
839.19	3.571
839.49	46.667
839.79	69.231
840.09	-58.333
840.39	39.286
840.69	32.143
840.99	-3.846
841.29	0.000
841.59	-130.000
841.88	-18.182
842.18	30.000
842.48	-25.000
842.78	-6.667
843.08	44.444
843.38	-120.000
843.68	34.783
843.97	6.667
844.27	-113.333
844.57	20.000
844.87	5.556
845.17	0.000
845.47	20.000
845.76	4.762
846.06	17.647
846.36	10.000
846.66	-85.714
846.96	-26.667
847.25	-125.000
847.55	35.714
847.85	-25.000
848.15	-18.182
848.44	-233.333
848.74	10.000
849.04	40.741
849.34	18.182
849.63	-183.333
849.93	-160.000
850.23	27.778
850.53	10.000
850.82	-46.154
851.12	-22.222
851.42	20.000
851.71	-15.385
852.01	-64.286
852.31	-125.000
852.61	-45.455
852.90	-15.000
853.20	-26.316
853.50	-8.333
853.79	52.174
854.09	37.500
854.39	0.000
854.68	12.500
854.98	16.129
855.28	30.769
855.57	25.000
855.87	16.667
856.17	48.148
856.46	-28.571
856.76	26.667
857.05	-88.889
857.35	8.000
857.65	-11.111
857.94	7.692
858.24	62.069
858.53	11.111
858.83	22.222
859.13	-4.545
859.42	34.783
859.72	-275.000
860.01	-166.667
860.31	16.000
860.60	9.524
860.90	-133.333
861.20	-40.000
861.49	-350.000
861.79	40.000
862.08	-10.000
862.38	53.333
862.67	-40.000
862.97	-33.333
863.26	-8.333
863.56	22.222
863.85	-400.000
864.15	50.000
864.44	-60.000
864.74	0.000
865.03	200.000
865.33	-80.000
865.62	33.333
865.92	-58.333
866.21	-116.667
866.51	18.750
866.80	-45.455
867.10	50.000
867.39	108.333
867.69	0.000
867.98	-15.385
868.27	-233.333
868.57	66.667
868.86	11.111
869.16	-84.615
869.45	60.000
869.75	-500.000
870.04	0.000
870.33	-157.143
870.63	47.619
870.92	600.000
871.22	-40.000
871.51	-800.000
871.80	66.667
872.10	266.667
>>>>>End Processed Spectral Data<<<<<
