SpectraSuite Data File
++++++++++++++++++++++++++++++++++++
Date: Fri May 15 20:09:03 PDT 2015
User: schluterlab
Dark Spectrum Present: Yes
Reference Spectrum Present: Yes
Number of Sampled Component Spectra: 1
Spectrometers: USB2E3373
Integration Time (usec): 3000 (USB2E3373)
Spectra Averaged: 3 (USB2E3373)
Boxcar Smoothing: 0 (USB2E3373)
Correct for Electrical Dark: No (USB2E3373)
Strobe/Lamp Enabled: No (USB2E3373)
Correct for Detector Non-linearity: No (USB2E3373)
Correct for Stray Light: No (USB2E3373)
Number of Pixels in Processed Spectrum: 2048
>>>>>Begin Processed Spectral Data<<<<<
178.53	0.000
178.91	0.000
179.29	62.500
179.67	-500.000
180.04	114.286
180.42	-25.000
180.80	500.000
181.18	233.333
181.56	350.000
181.94	-200.000
182.31	-200.000
182.69	20.000
183.07	-133.333
183.45	80.000
183.83	100.000
184.20	118.182
184.58	77.778
184.96	50.000
185.34	-33.333
185.72	200.000
186.09	84.615
186.47	-100.000
186.85	16.667
187.23	33.333
187.61	-700.000
187.98	-33.333
188.36	-11.111
188.74	-166.667
189.12	64.706
189.49	77.778
189.87	0.000
190.25	85.714
190.63	400.000
191.00	-200.000
191.38	0.000
191.76	50.000
192.14	-75.000
192.51	200.000
192.89	11.111
193.27	-128.571
193.65	200.000
194.02	100.000
194.40	-30.000
194.78	-100.000
195.15	-25.000
195.53	-50.000
195.91	225.000
196.29	-150.000
196.66	61.538
197.04	28.571
197.42	-44.444
197.79	-300.000
198.17	-123.077
198.55	600.000
198.92	-133.333
199.30	700.000
199.68	-40.000
200.05	-166.667
200.43	0.000
200.81	0.000
201.18	-100.000
201.56	-300.000
201.94	300.000
202.31	-100.000
202.69	40.000
203.07	225.000
203.44	100.000
203.82	0.000
204.19	42.857
204.57	-433.333
204.95	50.000
205.32	20.000
205.70	28.571
206.08	0.000
206.45	155.556
206.83	92.857
207.20	-157.143
207.58	-600.000
207.96	-66.667
208.33	-60.000
208.71	-50.000
209.08	-166.667
209.46	-600.000
209.84	-40.000
210.21	0.000
210.59	114.286
210.96	150.000
211.34	-25.000
211.71	40.000
212.09	71.429
212.46	-1000.000
212.84	0.000
213.22	120.000
213.59	550.000
213.97	-23.077
214.34	72.727
214.72	-166.667
215.09	350.000
215.47	23.077
215.84	-9.091
216.22	-166.667
216.59	-62.500
216.97	150.000
217.34	-125.000
217.72	-140.000
218.09	37.500
218.47	37.500
218.84	-200.000
219.22	33.333
219.59	-60.000
219.97	333.333
220.34	175.000
220.72	71.429
221.09	-50.000
221.47	50.000
221.84	-200.000
222.22	-500.000
222.59	127.273
222.97	0.000
223.34	-166.667
223.72	-57.143
224.09	47.619
224.46	28.571
224.84	-0.000
225.21	40.000
225.59	53.333
225.96	-300.000
226.34	125.000
226.71	71.429
227.08	-183.333
227.46	100.000
227.83	-450.000
228.21	55.556
228.58	36.364
228.95	12.500
229.33	110.000
229.70	43.750
230.08	-137.500
230.45	-128.571
230.82	14.286
231.20	-33.333
231.57	85.714
231.95	28.571
232.32	-40.000
232.69	100.000
233.07	100.000
233.44	-180.000
233.81	10.000
234.19	-11.111
234.56	-29.412
234.93	500.000
235.31	200.000
235.68	-160.000
236.05	30.769
236.43	-5.000
236.80	35.294
237.17	43.750
237.55	10.000
237.92	40.741
238.29	11.111
238.67	13.333
239.04	-32.353
239.41	-14.634
239.79	0.000
240.16	17.073
240.53	-2.632
240.91	-8.696
241.28	1.587
241.65	12.500
242.02	27.397
242.40	10.000
242.77	15.254
243.14	1.515
243.51	11.250
243.89	13.793
244.26	3.448
244.63	0.000
245.00	13.402
245.38	15.464
245.75	-3.371
246.12	-3.448
246.49	6.612
246.87	10.577
247.24	5.882
247.61	3.509
247.98	0.813
248.36	8.750
248.73	8.553
249.10	9.091
249.47	17.089
249.84	9.804
250.22	8.235
250.59	12.418
250.96	10.329
251.33	6.395
251.70	18.235
252.08	9.137
252.45	10.891
252.82	11.558
253.19	10.599
253.56	7.477
253.94	10.811
254.31	12.609
254.68	13.158
255.05	7.087
255.42	7.860
255.79	7.336
256.16	12.062
256.54	11.940
256.91	8.745
257.28	10.409
257.65	10.487
258.02	4.610
258.39	13.468
258.76	16.484
259.14	12.625
259.51	15.210
259.88	11.684
260.25	8.824
260.62	10.764
260.99	7.797
261.36	8.219
261.73	9.494
262.10	13.982
262.47	10.123
262.85	10.031
263.22	9.846
263.59	12.150
263.96	12.112
264.33	10.000
264.70	13.095
265.07	7.738
265.44	13.598
265.81	10.452
266.18	9.016
266.55	11.825
266.92	10.363
267.29	10.183
267.66	13.043
268.03	9.948
268.40	9.922
268.77	10.428
269.14	11.031
269.51	15.938
269.88	9.975
270.25	9.184
270.62	8.780
270.99	9.207
271.36	8.557
271.73	12.207
272.10	11.192
272.47	13.239
272.84	10.644
273.21	11.137
273.58	12.048
273.95	11.213
274.32	6.928
274.69	9.729
275.06	12.277
275.43	9.751
275.80	11.700
276.17	9.655
276.54	11.991
276.91	9.211
277.28	8.079
277.65	9.711
278.02	10.851
278.39	10.066
278.76	11.530
279.13	9.336
279.50	10.504
279.87	13.175
280.23	9.247
280.60	12.086
280.97	9.697
281.34	10.000
281.71	12.115
282.08	11.247
282.45	10.372
282.82	11.197
283.19	10.445
283.56	10.212
283.92	8.159
284.29	11.154
284.66	8.915
285.03	10.020
285.40	9.074
285.77	9.842
286.14	9.928
286.51	11.808
286.87	9.689
287.24	8.656
287.61	9.347
287.98	10.175
288.35	7.279
288.72	11.033
289.08	7.986
289.45	10.721
289.82	10.315
290.19	8.874
290.56	8.405
290.93	8.249
291.29	8.475
291.66	9.921
292.03	9.888
292.40	9.032
292.77	10.526
293.13	6.169
293.50	8.801
293.87	9.924
294.24	8.810
294.60	9.538
294.97	9.077
295.34	8.436
295.71	8.197
296.08	9.716
296.44	6.117
296.81	8.889
297.18	7.681
297.55	8.672
297.91	7.945
298.28	8.311
298.65	7.734
299.02	7.951
299.38	5.198
299.75	7.034
300.12	6.414
300.48	6.983
300.85	7.224
301.22	7.922
301.59	6.316
301.95	7.215
302.32	8.560
302.69	7.214
303.05	7.426
303.42	7.846
303.79	8.411
304.15	7.407
304.52	6.778
304.89	7.018
305.25	6.416
305.62	6.301
305.99	7.018
306.35	7.052
306.72	6.862
307.09	7.298
307.45	7.692
307.82	7.060
308.19	7.085
308.55	6.870
308.92	8.932
309.29	7.151
309.65	6.889
310.02	7.371
310.38	7.025
310.75	7.322
311.12	7.427
311.48	7.105
311.85	6.492
312.22	7.700
312.58	8.068
312.95	7.364
313.31	7.453
313.68	7.644
314.05	7.449
314.41	7.732
314.78	7.629
315.14	8.839
315.51	8.799
315.87	7.582
316.24	9.707
316.61	8.465
316.97	7.738
317.34	9.082
317.70	7.170
318.07	8.269
318.43	9.216
318.80	9.186
319.16	9.180
319.53	9.402
319.89	9.449
320.26	9.514
320.62	9.829
320.99	9.081
321.35	9.558
321.72	10.177
322.08	9.265
322.45	12.386
322.81	10.707
323.18	9.814
323.54	11.486
323.91	9.640
324.27	11.816
324.64	12.079
325.00	13.230
325.37	12.489
325.73	12.058
326.10	12.625
326.46	13.632
326.83	13.911
327.19	14.385
327.56	14.248
327.92	14.261
328.29	14.554
328.65	14.623
329.01	15.717
329.38	14.747
329.74	15.109
330.11	15.570
330.47	14.750
330.84	15.385
331.20	16.730
331.56	16.481
331.93	16.530
332.29	16.590
332.66	17.466
333.02	17.658
333.38	16.590
333.75	18.223
334.11	16.562
334.48	16.682
334.84	17.308
335.20	16.926
335.57	16.228
335.93	17.435
336.29	17.772
336.66	17.075
337.02	17.286
337.38	17.407
337.75	16.636
338.11	19.748
338.47	19.343
338.84	17.837
339.20	17.185
339.56	17.431
339.93	19.696
340.29	18.165
340.65	18.996
341.02	18.794
341.38	18.761
341.74	17.668
342.11	18.111
342.47	17.616
342.83	18.772
343.20	18.031
343.56	18.174
343.92	17.360
344.28	18.787
344.65	17.530
345.01	17.286
345.37	17.746
345.73	19.414
346.10	19.068
346.46	19.176
346.82	18.494
347.19	17.955
347.55	18.546
347.91	19.013
348.27	19.644
348.63	18.313
349.00	18.458
349.36	18.786
349.72	18.905
350.08	18.361
350.45	17.957
350.81	18.023
351.17	17.997
351.53	19.020
351.89	18.167
352.26	18.880
352.62	19.274
352.98	18.795
353.34	18.519
353.70	19.579
354.07	18.871
354.43	19.456
354.79	17.919
355.15	20.159
355.51	19.541
355.87	19.337
356.24	17.781
356.60	18.351
356.96	19.762
357.32	19.089
357.68	19.547
358.04	18.821
358.40	20.177
358.77	19.219
359.13	18.655
359.49	18.798
359.85	18.877
360.21	20.335
360.57	17.674
360.93	19.894
361.29	18.429
361.66	20.768
362.02	19.621
362.38	19.802
362.74	20.061
363.10	20.843
363.46	19.867
363.82	21.938
364.18	20.590
364.54	19.926
364.90	20.573
365.26	19.578
365.62	22.263
365.98	19.868
366.35	21.122
366.71	21.434
367.07	20.755
367.43	20.058
367.79	20.777
368.15	20.388
368.51	19.956
368.87	19.598
369.23	19.639
369.59	21.574
369.95	20.455
370.31	21.676
370.67	20.672
371.03	20.463
371.39	20.642
371.75	21.978
372.11	21.184
372.47	21.228
372.83	21.150
373.19	21.683
373.55	20.361
373.91	21.598
374.27	21.899
374.63	21.680
374.99	21.915
375.35	22.145
375.71	22.308
376.07	21.910
376.42	22.789
376.78	23.087
377.14	22.546
377.50	23.174
377.86	22.490
378.22	21.825
378.58	21.987
378.94	22.432
379.30	23.206
379.66	23.448
380.02	23.544
380.38	21.972
380.74	22.861
381.09	24.049
381.45	22.752
381.81	23.134
382.17	23.921
382.53	23.360
382.89	22.976
383.25	23.522
383.61	24.085
383.97	23.619
384.32	24.265
384.68	24.706
385.04	23.958
385.40	24.269
385.76	23.899
386.12	24.968
386.48	24.777
386.83	24.350
387.19	23.993
387.55	24.906
387.91	25.122
388.27	25.214
388.62	24.481
388.98	25.046
389.34	24.859
389.70	25.482
390.06	25.299
390.42	24.482
390.77	25.507
391.13	25.788
391.49	26.067
391.85	25.991
392.20	25.110
392.56	24.857
392.92	24.956
393.28	25.649
393.64	25.706
393.99	26.270
394.35	25.047
394.71	25.734
395.07	25.707
395.42	25.319
395.78	25.668
396.14	25.347
396.50	26.126
396.85	26.272
397.21	26.190
397.57	26.959
397.92	26.303
398.28	26.322
398.64	26.205
399.00	25.847
399.35	26.411
399.71	26.134
400.07	26.179
400.42	26.132
400.78	26.944
401.14	27.102
401.49	27.099
401.85	27.544
402.21	26.867
402.57	26.250
402.92	25.659
403.28	26.754
403.63	26.356
403.99	25.957
404.35	26.796
404.70	27.202
405.06	26.322
405.42	26.725
405.77	26.031
406.13	27.183
406.49	27.176
406.84	26.406
407.20	27.514
407.55	25.757
407.91	26.404
408.27	26.450
408.62	26.708
408.98	26.987
409.34	27.261
409.69	26.809
410.05	25.739
410.40	26.173
410.76	27.021
411.11	26.625
411.47	26.824
411.83	26.491
412.18	26.963
412.54	26.342
412.89	26.663
413.25	27.677
413.60	26.708
413.96	25.644
414.31	27.134
414.67	26.748
415.03	27.164
415.38	27.219
415.74	27.296
416.09	26.584
416.45	27.481
416.80	27.958
417.16	27.762
417.51	28.314
417.87	27.314
418.22	27.720
418.58	27.425
418.93	27.649
419.29	26.504
419.64	28.192
420.00	28.652
420.35	26.448
420.71	27.096
421.06	28.115
421.42	28.365
421.77	27.803
422.12	27.753
422.48	28.154
422.83	28.132
423.19	27.596
423.54	27.160
423.90	28.269
424.25	27.497
424.61	27.968
424.96	27.758
425.31	28.769
425.67	29.049
426.02	29.623
426.38	28.178
426.73	29.358
427.09	29.367
427.44	28.471
427.79	28.757
428.15	29.066
428.50	28.831
428.85	27.641
429.21	28.580
429.56	28.949
429.92	29.173
430.27	29.123
430.62	28.594
430.98	28.875
431.33	29.232
431.68	28.519
432.04	29.346
432.39	28.865
432.74	28.382
433.10	30.172
433.45	29.152
433.80	29.832
434.16	28.753
434.51	29.409
434.86	29.501
435.22	29.893
435.57	30.318
435.92	29.461
436.28	29.994
436.63	29.150
436.98	28.795
437.34	29.341
437.69	30.710
438.04	30.085
438.39	30.116
438.75	29.326
439.10	29.768
439.45	28.850
439.81	29.969
440.16	30.048
440.51	30.149
440.86	31.782
441.22	29.921
441.57	30.464
441.92	31.584
442.27	30.987
442.63	30.782
442.98	31.017
443.33	30.217
443.68	29.973
444.03	30.949
444.39	30.595
444.74	30.491
445.09	31.570
445.44	30.199
445.79	30.480
446.15	30.782
446.50	30.338
446.85	30.340
447.20	30.865
447.55	30.636
447.91	31.077
448.26	32.043
448.61	30.858
448.96	32.071
449.31	31.676
449.66	31.417
450.02	30.861
450.37	31.417
450.72	31.443
451.07	31.076
451.42	31.149
451.77	30.922
452.12	30.562
452.47	30.715
452.83	31.272
453.18	31.626
453.53	31.037
453.88	32.483
454.23	31.776
454.58	32.242
454.93	31.765
455.28	31.111
455.63	31.990
455.98	31.690
456.34	33.142
456.69	31.893
457.04	32.262
457.39	31.652
457.74	31.499
458.09	30.724
458.44	31.773
458.79	31.429
459.14	32.208
459.49	31.821
459.84	31.585
460.19	32.221
460.54	32.518
460.89	31.648
461.24	32.236
461.59	32.423
461.94	31.950
462.29	33.293
462.64	33.621
462.99	32.295
463.34	31.919
463.69	32.111
464.04	32.748
464.39	32.019
464.74	33.374
465.09	33.313
465.44	32.891
465.79	31.633
466.14	32.326
466.49	31.685
466.84	33.254
467.19	32.541
467.54	33.333
467.89	31.649
468.24	32.360
468.59	33.079
468.94	32.889
469.29	33.902
469.64	31.921
469.99	32.796
470.34	33.515
470.68	33.557
471.03	33.263
471.38	33.381
471.73	34.664
472.08	33.514
472.43	33.020
472.78	32.145
473.13	35.102
473.48	33.616
473.83	32.690
474.17	33.484
474.52	32.993
474.87	33.818
475.22	33.862
475.57	33.992
475.92	34.449
476.27	32.538
476.61	33.218
476.96	32.962
477.31	33.532
477.66	33.202
478.01	33.408
478.36	34.096
478.70	33.768
479.05	34.725
479.40	34.287
479.75	33.733
480.10	33.692
480.45	33.900
480.79	34.542
481.14	34.529
481.49	32.857
481.84	33.736
482.19	33.489
482.53	34.005
482.88	33.747
483.23	34.213
483.58	33.821
483.92	34.076
484.27	33.956
484.62	33.841
484.97	34.080
485.31	32.803
485.66	31.811
486.01	32.371
486.36	32.432
486.70	32.036
487.05	32.388
487.40	32.342
487.75	32.789
488.09	32.695
488.44	33.150
488.79	33.134
489.13	35.216
489.48	34.203
489.83	34.350
490.17	34.382
490.52	34.273
490.87	34.243
491.22	34.336
491.56	35.579
491.91	33.987
492.26	34.954
492.60	34.309
492.95	36.301
493.30	35.467
493.64	35.265
493.99	35.507
494.34	34.660
494.68	34.714
495.03	34.988
495.37	34.789
495.72	35.538
496.07	35.366
496.41	35.142
496.76	35.053
497.11	35.305
497.45	35.370
497.80	36.680
498.14	34.675
498.49	35.805
498.84	35.329
499.18	36.546
499.53	36.409
499.87	35.457
500.22	35.955
500.56	35.804
500.91	35.994
501.26	35.986
501.60	36.104
501.95	35.420
502.29	35.157
502.64	36.583
502.98	36.211
503.33	35.447
503.67	35.181
504.02	35.582
504.36	35.725
504.71	36.162
505.06	36.437
505.40	36.497
505.75	36.289
506.09	36.341
506.44	36.396
506.78	36.020
507.13	35.988
507.47	36.501
507.82	36.165
508.16	35.605
508.51	37.461
508.85	36.264
509.19	35.923
509.54	37.373
509.88	35.922
510.23	37.117
510.57	36.932
510.92	36.354
511.26	37.043
511.61	36.359
511.95	36.932
512.30	36.419
512.64	37.396
512.98	36.833
513.33	37.437
513.67	37.123
514.02	37.757
514.36	37.600
514.70	38.054
515.05	38.543
515.39	37.072
515.74	39.102
516.08	38.912
516.42	38.221
516.77	38.209
517.11	37.982
517.46	38.899
517.80	37.843
518.14	37.600
518.49	37.620
518.83	37.849
519.17	36.810
519.52	38.129
519.86	36.675
520.20	38.214
520.55	38.587
520.89	37.578
521.23	38.505
521.58	38.233
521.92	38.782
522.26	38.777
522.61	38.766
522.95	38.742
523.29	38.755
523.64	38.119
523.98	38.950
524.32	37.887
524.66	38.348
525.01	38.571
525.35	39.469
525.69	38.519
526.04	38.955
526.38	39.818
526.72	38.587
527.06	38.521
527.41	39.512
527.75	38.740
528.09	38.140
528.43	38.352
528.78	37.888
529.12	38.194
529.46	37.752
529.80	39.012
530.15	38.878
530.49	39.259
530.83	38.304
531.17	38.617
531.51	38.440
531.86	38.137
532.20	39.318
532.54	39.142
532.88	39.151
533.22	39.046
533.57	38.401
533.91	39.687
534.25	40.234
534.59	39.320
534.93	38.074
535.27	38.261
535.62	38.432
535.96	38.226
536.30	39.314
536.64	39.490
536.98	38.676
537.32	40.398
537.66	39.130
538.01	40.070
538.35	39.112
538.69	38.349
539.03	38.072
539.37	38.425
539.71	38.923
540.05	38.493
540.39	39.127
540.73	39.679
541.07	39.503
541.42	40.054
541.76	39.986
542.10	39.780
542.44	38.777
542.78	38.197
543.12	37.981
543.46	39.777
543.80	39.486
544.14	38.518
544.48	38.574
544.82	38.483
545.16	39.139
545.50	39.052
545.84	39.518
546.18	41.277
546.52	39.654
546.86	39.756
547.20	39.127
547.54	38.799
547.88	39.063
548.22	37.410
548.56	39.182
548.90	39.353
549.24	37.948
549.58	39.845
549.92	39.171
550.26	38.901
550.60	40.223
550.94	40.329
551.28	39.490
551.62	40.615
551.96	40.677
552.30	39.254
552.64	38.082
552.98	39.873
553.32	39.444
553.66	38.607
554.00	40.000
554.34	40.103
554.68	39.454
555.02	40.551
555.36	40.090
555.69	38.681
556.03	38.473
556.37	39.929
556.71	40.794
557.05	40.194
557.39	39.554
557.73	39.580
558.07	39.819
558.41	39.740
558.75	40.218
559.08	40.110
559.42	39.444
559.76	40.192
560.10	39.755
560.44	39.687
560.78	40.000
561.12	40.127
561.45	40.337
561.79	39.986
562.13	40.099
562.47	38.129
562.81	39.697
563.15	40.056
563.48	39.604
563.82	39.945
564.16	39.415
564.50	38.378
564.84	39.090
565.17	38.967
565.51	41.393
565.85	39.712
566.19	39.920
566.52	40.013
566.86	40.553
567.20	38.792
567.54	39.477
567.88	39.777
568.21	40.215
568.55	38.152
568.89	38.706
569.23	38.276
569.56	37.566
569.90	37.353
570.24	36.584
570.57	36.691
570.91	37.191
571.25	36.205
571.59	35.472
571.92	35.200
572.26	35.779
572.60	35.442
572.93	35.676
573.27	35.423
573.61	35.889
573.95	35.145
574.28	35.328
574.62	35.011
574.96	34.904
575.29	35.109
575.63	35.113
575.97	34.644
576.30	35.339
576.64	34.172
576.98	35.341
577.31	35.291
577.65	35.252
577.98	35.228
578.32	34.411
578.66	34.408
578.99	34.768
579.33	34.349
579.67	34.141
580.00	34.506
580.34	35.000
580.67	34.199
581.01	34.702
581.35	35.013
581.68	34.855
582.02	34.025
582.35	34.262
582.69	34.281
583.02	34.779
583.36	34.374
583.70	35.099
584.03	35.808
584.37	36.081
584.70	35.632
585.04	34.456
585.37	35.405
585.71	35.423
586.04	35.023
586.38	35.156
586.72	35.438
587.05	36.020
587.39	35.728
587.72	36.468
588.06	35.926
588.39	35.716
588.73	35.745
589.06	36.399
589.40	35.880
589.73	36.729
590.07	36.707
590.40	37.074
590.73	38.056
591.07	37.320
591.40	37.667
591.74	37.104
592.07	38.312
592.41	37.500
592.74	36.440
593.08	35.802
593.41	36.013
593.75	35.852
594.08	35.702
594.41	36.936
594.75	35.878
595.08	36.512
595.42	36.732
595.75	37.514
596.09	35.927
596.42	37.660
596.75	37.655
597.09	36.720
597.42	37.037
597.75	37.792
598.09	36.940
598.42	37.545
598.76	37.023
599.09	36.498
599.42	35.847
599.76	36.983
600.09	36.124
600.42	36.315
600.76	36.181
601.09	35.916
601.42	35.840
601.76	36.364
602.09	36.840
602.42	36.900
602.76	36.503
603.09	37.417
603.42	38.043
603.76	36.976
604.09	36.817
604.42	37.225
604.76	36.360
605.09	36.883
605.42	37.111
605.75	36.865
606.09	36.985
606.42	35.863
606.75	37.100
607.09	37.187
607.42	36.066
607.75	36.190
608.08	36.074
608.42	35.998
608.75	37.253
609.08	37.967
609.41	38.223
609.75	37.097
610.08	37.993
610.41	36.667
610.74	37.348
611.07	37.726
611.41	38.454
611.74	37.420
612.07	37.420
612.40	36.980
612.73	37.740
613.07	37.570
613.40	38.567
613.73	38.053
614.06	38.676
614.39	37.789
614.72	38.207
615.06	37.430
615.39	37.555
615.72	37.460
616.05	38.156
616.38	37.607
616.71	37.370
617.05	38.913
617.38	38.906
617.71	40.000
618.04	38.857
618.37	39.470
618.70	39.340
619.03	40.417
619.36	39.363
619.69	41.622
620.03	40.906
620.36	39.843
620.69	39.329
621.02	40.826
621.35	40.747
621.68	40.646
622.01	41.500
622.34	39.984
622.67	40.536
623.00	40.123
623.33	39.405
623.66	40.015
623.99	40.545
624.32	40.304
624.65	39.925
624.99	39.729
625.32	40.106
625.65	41.634
625.98	41.096
626.31	40.732
626.64	41.508
626.97	42.496
627.30	41.068
627.63	41.421
627.96	40.970
628.29	41.073
628.62	42.085
628.95	43.186
629.28	42.843
629.61	43.071
629.94	43.011
630.26	41.403
630.59	43.184
630.92	42.872
631.25	41.436
631.58	42.181
631.91	43.531
632.24	43.234
632.57	42.727
632.90	42.586
633.23	44.000
633.56	44.836
633.89	42.170
634.22	44.198
634.55	44.473
634.88	45.211
635.20	43.590
635.53	44.933
635.86	45.254
636.19	46.054
636.52	42.347
636.85	43.548
637.18	43.396
637.51	41.384
637.83	43.627
638.16	47.613
638.49	44.414
638.82	45.921
639.15	43.691
639.48	47.730
639.81	45.049
640.13	47.908
640.46	44.606
640.79	45.803
641.12	44.904
641.45	45.495
641.77	45.037
642.10	46.919
642.43	45.820
642.76	47.525
643.09	45.557
643.41	44.822
643.74	46.787
644.07	46.470
644.40	47.128
644.73	47.285
645.05	47.651
645.38	47.443
645.71	46.631
646.04	47.397
646.36	48.404
646.69	48.921
647.02	46.881
647.35	47.761
647.67	45.338
648.00	48.134
648.33	47.952
648.66	47.119
648.98	45.394
649.31	44.132
649.64	45.997
649.96	46.191
650.29	44.463
650.62	44.957
650.94	48.148
651.27	47.672
651.60	47.207
651.92	46.503
652.25	46.181
652.58	47.333
652.90	44.768
653.23	46.050
653.56	44.162
653.88	45.533
654.21	41.506
654.54	47.199
654.86	46.350
655.19	43.129
655.52	38.932
655.84	33.934
656.17	37.725
656.49	50.554
656.82	52.087
657.15	39.158
657.47	29.282
657.80	21.771
658.13	21.684
658.45	33.161
658.78	32.884
659.10	33.698
659.43	33.418
659.75	35.471
660.08	37.931
660.41	40.654
660.73	42.265
661.06	43.501
661.38	45.793
661.71	45.791
662.03	47.854
662.36	46.154
662.68	44.690
663.01	48.690
663.33	48.492
663.66	46.279
663.98	47.442
664.31	48.614
664.63	45.622
664.96	46.087
665.28	44.812
665.61	47.403
665.93	48.913
666.26	49.458
666.58	44.072
666.91	47.059
667.23	48.821
667.56	52.607
667.88	48.681
668.21	47.494
668.53	47.991
668.86	49.057
669.18	47.406
669.50	48.426
669.83	47.674
670.15	46.853
670.48	49.043
670.80	47.005
671.13	43.624
671.45	47.260
671.77	47.854
672.10	44.356
672.42	44.569
672.75	45.826
673.07	46.154
673.39	44.220
673.72	43.787
674.04	42.083
674.37	48.093
674.69	47.323
675.01	43.556
675.34	43.694
675.66	47.917
675.98	46.341
676.31	48.624
676.63	45.131
676.95	44.318
677.28	46.118
677.60	49.880
677.92	46.101
678.25	45.077
678.57	46.753
678.89	43.487
679.22	48.546
679.54	42.169
679.86	42.545
680.18	44.272
680.51	44.697
680.83	43.340
681.15	44.400
681.48	46.926
681.80	48.347
682.12	45.565
682.44	43.724
682.77	45.695
683.09	45.767
683.41	44.091
683.73	47.005
684.06	44.912
684.38	44.301
684.70	47.059
685.02	45.228
685.34	41.304
685.67	42.777
685.99	45.027
686.31	43.009
686.63	43.414
686.96	40.494
687.28	39.394
687.60	42.586
687.92	46.667
688.24	40.927
688.56	47.162
688.89	45.536
689.21	45.111
689.53	43.852
689.85	45.349
690.17	46.205
690.49	46.099
690.82	43.689
691.14	43.095
691.46	44.393
691.78	45.721
692.10	46.452
692.42	45.022
692.74	40.812
693.06	45.045
693.39	40.271
693.71	41.629
694.03	42.032
694.35	43.458
694.67	46.212
694.99	43.081
695.31	46.475
695.63	46.250
695.95	43.939
696.27	46.114
696.59	48.889
696.91	45.098
697.23	38.560
697.56	45.050
697.88	45.376
698.20	42.597
698.52	44.235
698.84	39.713
699.16	45.250
699.48	46.867
699.80	42.928
700.12	40.701
700.44	44.818
700.76	41.570
701.08	44.242
701.40	43.976
701.72	54.012
702.04	50.165
702.36	47.157
702.68	44.144
703.00	45.758
703.32	45.455
703.64	38.418
703.96	44.348
704.28	44.479
704.60	44.762
704.91	45.110
705.23	48.837
705.55	50.883
705.87	50.181
706.19	46.667
706.51	50.859
706.83	47.267
707.15	43.925
707.47	42.577
707.79	41.667
708.11	42.250
708.43	43.750
708.74	42.377
709.06	47.042
709.38	43.425
709.70	42.012
710.02	44.904
710.34	44.582
710.66	42.308
710.98	40.728
711.29	45.574
711.61	44.068
711.93	48.534
712.25	48.797
712.57	47.985
712.89	44.403
713.20	42.907
713.52	49.477
713.84	43.686
714.16	47.079
714.48	44.839
714.80	42.949
715.11	41.641
715.43	42.947
715.75	42.333
716.07	43.854
716.39	43.960
716.70	48.339
717.02	46.947
717.34	48.178
717.66	43.363
717.97	50.000
718.29	43.096
718.61	46.850
718.93	42.636
719.24	46.008
719.56	51.004
719.88	41.924
720.20	47.348
720.51	43.295
720.83	42.857
721.15	47.899
721.46	43.952
721.78	39.130
722.10	44.610
722.42	36.515
722.73	46.939
723.05	45.714
723.37	47.881
723.68	48.649
724.00	40.598
724.32	42.222
724.63	36.364
724.95	50.655
725.27	45.622
725.58	40.254
725.90	46.825
726.22	48.649
726.53	40.678
726.85	45.693
727.16	49.811
727.48	44.534
727.80	42.510
728.11	42.797
728.43	41.961
728.74	46.774
729.06	42.000
729.38	49.624
729.69	39.044
730.01	38.846
730.32	45.522
730.64	42.756
730.96	44.906
731.27	40.667
731.59	41.017
731.90	39.490
732.22	41.956
732.53	42.857
732.85	43.617
733.16	46.128
733.48	41.367
733.80	45.652
734.11	40.678
734.43	43.643
734.74	40.303
735.06	39.088
735.37	44.713
735.69	41.751
736.00	38.676
736.32	40.268
736.63	44.014
736.95	39.932
737.26	40.925
737.58	39.262
737.89	43.590
738.21	39.850
738.52	42.387
738.83	40.611
739.15	42.795
739.46	38.189
739.78	39.927
740.09	39.542
740.41	38.043
740.72	40.551
741.04	39.271
741.35	41.702
741.66	40.758
741.98	48.980
742.29	45.050
742.61	41.361
742.92	37.915
743.23	40.278
743.55	44.796
743.86	43.541
744.18	38.278
744.49	47.340
744.80	44.022
745.12	49.198
745.43	43.902
745.74	40.625
746.06	41.951
746.37	48.691
746.68	38.389
747.00	47.872
747.31	48.756
747.62	40.777
747.94	43.062
748.25	42.574
748.56	46.995
748.88	38.743
749.19	43.085
749.50	42.857
749.82	40.094
750.13	38.532
750.44	45.489
750.75	42.164
751.07	45.255
751.38	44.828
751.69	38.039
752.01	37.984
752.32	37.052
752.63	40.316
752.94	40.086
753.26	42.678
753.57	41.629
753.88	42.920
754.19	41.250
754.51	37.190
754.82	38.866
755.13	46.250
755.44	44.758
755.75	41.797
756.07	40.467
756.38	39.245
756.69	40.230
757.00	32.000
757.31	36.601
757.63	35.366
757.94	35.833
758.25	35.890
758.56	34.840
758.87	31.161
759.18	36.449
759.50	36.000
759.81	40.134
760.12	40.000
760.43	36.970
760.74	38.272
761.05	36.615
761.36	33.523
761.67	37.576
761.99	38.095
762.30	37.818
762.61	37.945
762.92	39.819
763.23	38.288
763.54	43.458
763.85	40.678
764.16	37.759
764.47	37.500
764.78	34.799
765.10	39.731
765.41	37.539
765.72	36.190
766.03	30.451
766.34	36.131
766.65	37.450
766.96	44.444
767.27	43.085
767.58	35.057
767.89	46.809
768.20	42.614
768.51	41.209
768.82	38.916
769.13	40.092
769.44	39.056
769.75	36.986
770.06	41.810
770.37	32.212
770.68	37.056
770.99	32.127
771.30	47.059
771.61	36.199
771.92	35.776
772.23	42.857
772.54	40.323
772.85	39.506
773.16	35.955
773.47	45.098
773.78	38.562
774.09	41.317
774.39	40.000
774.70	40.764
775.01	44.138
775.32	41.429
775.63	31.405
775.94	41.221
776.25	42.520
776.56	50.833
776.87	42.308
777.18	40.171
777.48	34.483
777.79	46.087
778.10	40.952
778.41	39.640
778.72	42.063
779.03	36.090
779.34	42.553
779.65	39.726
779.95	28.082
780.26	28.276
780.57	40.650
780.88	47.244
781.19	34.483
781.50	37.984
781.80	32.544
782.11	35.220
782.42	44.615
782.73	35.971
783.04	42.222
783.34	34.722
783.65	32.479
783.96	42.623
784.27	41.379
784.57	27.642
784.88	45.312
785.19	42.000
785.50	49.000
785.81	44.828
786.11	41.379
786.42	40.777
786.73	43.636
787.04	39.796
787.34	34.821
787.65	36.190
787.96	37.168
788.26	52.727
788.57	40.171
788.88	34.375
789.19	33.333
789.49	39.130
789.80	36.735
790.11	46.465
790.41	48.182
790.72	35.870
791.03	51.136
791.33	42.500
791.64	41.250
791.95	29.070
792.25	54.255
792.56	38.202
792.87	46.575
793.17	42.029
793.48	44.000
793.79	31.250
794.09	35.000
794.40	33.962
794.70	34.951
795.01	23.577
795.32	35.897
795.62	30.476
795.93	37.255
796.23	37.736
796.54	30.208
796.85	39.706
797.15	49.296
797.46	61.111
797.76	40.909
798.07	37.209
798.37	31.579
798.68	25.758
798.99	39.506
799.29	27.143
799.60	33.333
799.90	48.000
800.21	37.705
800.51	44.615
800.82	40.678
801.12	34.783
801.43	44.262
801.73	49.206
802.04	48.000
802.34	37.313
802.65	32.692
802.95	35.714
803.26	30.769
803.56	43.137
803.87	28.261
804.17	29.333
804.48	39.683
804.78	29.630
805.09	39.130
805.39	37.778
805.70	38.889
806.00	15.789
806.30	19.718
806.61	30.000
806.91	27.778
807.22	48.684
807.52	53.333
807.83	21.818
808.13	34.722
808.43	39.706
808.74	38.806
809.04	32.203
809.35	34.615
809.65	29.688
809.95	27.027
810.26	20.455
810.56	38.356
810.86	38.095
811.17	32.000
811.47	40.816
811.77	34.211
812.08	25.000
812.38	15.094
812.69	47.500
812.99	6.061
813.29	36.842
813.59	22.857
813.90	47.727
814.20	12.821
814.50	42.308
814.81	35.849
815.11	36.170
815.41	52.542
815.72	57.143
816.02	35.294
816.32	41.667
816.62	39.024
816.93	51.351
817.23	40.000
817.53	35.417
817.84	30.435
818.14	40.385
818.44	26.316
818.74	41.304
819.04	-5.000
819.35	24.324
819.65	5.882
819.95	41.667
820.25	47.619
820.56	57.500
820.86	10.345
821.16	65.000
821.46	38.298
821.76	52.500
822.07	39.535
822.37	27.027
822.67	40.625
822.97	35.714
823.27	39.286
823.57	0.000
823.88	40.741
824.18	25.000
824.48	29.412
824.78	16.129
825.08	52.174
825.38	60.606
825.69	25.000
825.99	42.105
826.29	47.222
826.59	93.333
826.89	-9.524
827.19	34.783
827.49	17.500
827.79	31.429
828.09	75.000
828.39	72.727
828.70	67.568
829.00	0.000
829.30	47.619
829.60	26.667
829.90	3.125
830.20	31.579
830.50	18.519
830.80	17.391
831.10	50.000
831.40	54.545
831.70	67.742
832.00	71.429
832.30	-4.762
832.60	16.667
832.90	17.241
833.20	0.000
833.50	36.364
833.80	29.630
834.10	42.308
834.40	12.500
834.70	11.111
835.00	57.895
835.30	92.308
835.60	66.667
835.90	32.258
836.20	27.273
836.50	71.429
836.80	-23.077
837.10	0.000
837.40	33.333
837.70	31.818
838.00	-18.182
838.30	21.739
838.60	-53.846
838.90	86.364
839.19	57.143
839.49	3.333
839.79	53.846
840.09	16.667
840.39	53.571
840.69	3.571
840.99	15.385
841.29	31.579
841.59	20.000
841.88	90.909
842.18	100.000
842.48	25.000
842.78	100.000
843.08	44.444
843.38	-100.000
843.68	26.087
843.97	-20.000
844.27	-73.333
844.57	50.000
844.87	100.000
845.17	42.857
845.47	60.000
845.76	57.143
846.06	76.471
846.36	60.000
846.66	-7.143
846.96	20.000
847.25	-87.500
847.55	7.143
847.85	-62.500
848.15	-36.364
848.44	100.000
848.74	10.000
849.04	51.852
849.34	0.000
849.63	-66.667
849.93	-200.000
850.23	16.667
850.53	130.000
850.82	38.462
851.12	0.000
851.42	100.000
851.71	42.308
852.01	14.286
852.31	0.000
852.61	-9.091
852.90	-5.000
853.20	73.684
853.50	0.000
853.79	8.696
854.09	16.667
854.39	26.316
854.68	25.000
854.98	32.258
855.28	42.308
855.57	15.000
855.87	-16.667
856.17	29.630
856.46	-28.571
856.76	20.000
857.05	33.333
857.35	36.000
857.65	11.111
857.94	-38.462
858.24	13.793
858.53	55.556
858.83	55.556
859.13	18.182
859.42	0.000
859.72	100.000
860.01	-166.667
860.31	72.000
860.60	57.143
860.90	66.667
861.20	40.000
861.49	-450.000
861.79	46.667
862.08	0.000
862.38	93.333
862.67	-60.000
862.97	200.000
863.26	0.000
863.56	44.444
863.85	-133.333
864.15	66.667
864.44	80.000
864.74	78.571
865.03	175.000
865.33	-240.000
865.62	50.000
865.92	41.667
866.21	-133.333
866.51	75.000
866.80	0.000
867.10	-50.000
867.39	141.667
867.69	0.000
867.98	15.385
868.27	66.667
868.57	0.000
868.86	38.889
869.16	7.692
869.45	60.000
869.75	300.000
870.04	0.000
870.33	-85.714
870.63	95.238
870.92	233.333
871.22	-60.000
871.51	0.000
871.80	155.556
872.10	333.333
>>>>>End Processed Spectral Data<<<<<
