SpectraSuite Data File
++++++++++++++++++++++++++++++++++++
Date: Fri May 15 17:09:07 PDT 2015
User: schluterlab
Dark Spectrum Present: Yes
Reference Spectrum Present: Yes
Number of Sampled Component Spectra: 1
Spectrometers: USB2E3373
Integration Time (usec): 3000 (USB2E3373)
Spectra Averaged: 3 (USB2E3373)
Boxcar Smoothing: 0 (USB2E3373)
Correct for Electrical Dark: No (USB2E3373)
Strobe/Lamp Enabled: No (USB2E3373)
Correct for Detector Non-linearity: No (USB2E3373)
Correct for Stray Light: No (USB2E3373)
Number of Pixels in Processed Spectrum: 2048
>>>>>Begin Processed Spectral Data<<<<<
178.53	0.000
178.91	0.000
179.29	125.000
179.67	250.000
180.04	-128.571
180.42	250.000
180.80	-200.000
181.18	-333.333
181.56	-400.000
181.94	200.000
182.31	-700.000
182.69	80.000
183.07	266.667
183.45	100.000
183.83	50.000
184.20	45.455
184.58	-22.222
184.96	-225.000
185.34	66.667
185.72	100.000
186.09	23.077
186.47	100.000
186.85	16.667
187.23	55.556
187.61	-500.000
187.98	-66.667
188.36	144.444
188.74	133.333
189.12	64.706
189.49	55.556
189.87	0.000
190.25	42.857
190.63	700.000
191.00	266.667
191.38	84.211
191.76	1000.000
192.14	200.000
192.51	250.000
192.89	-44.444
193.27	-157.143
193.65	-0.000
194.02	172.727
194.40	60.000
194.78	0.000
195.15	83.333
195.53	-12.500
195.91	175.000
196.29	50.000
196.66	-15.385
197.04	-0.000
197.42	33.333
197.79	-333.333
198.17	-7.692
198.55	600.000
198.92	100.000
199.30	300.000
199.68	-140.000
200.05	33.333
200.43	0.000
200.81	100.000
201.18	66.667
201.56	200.000
201.94	-150.000
202.31	-166.667
202.69	20.000
203.07	25.000
203.44	-700.000
203.82	0.000
204.19	135.714
204.57	-133.333
204.95	87.500
205.32	40.000
205.70	71.429
206.08	275.000
206.45	377.778
206.83	107.143
207.20	14.286
207.58	900.000
207.96	133.333
208.33	-70.000
208.71	250.000
209.08	-16.667
209.46	300.000
209.84	-140.000
210.21	-700.000
210.59	42.857
210.96	50.000
211.34	125.000
211.71	53.333
212.09	114.286
212.46	-1000.000
212.84	0.000
213.22	110.000
213.59	-400.000
213.97	23.077
214.34	36.364
214.72	283.333
215.09	25.000
215.47	46.154
215.84	72.727
216.22	133.333
216.59	25.000
216.97	550.000
217.34	225.000
217.72	-60.000
218.09	112.500
218.47	-12.500
218.84	0.000
219.22	-44.444
219.59	180.000
219.97	100.000
220.34	150.000
220.72	42.857
221.09	-150.000
221.47	250.000
221.84	-350.000
222.22	-450.000
222.59	72.727
222.97	66.667
223.34	66.667
223.72	28.571
224.09	9.524
224.46	42.857
224.84	233.333
225.21	100.000
225.59	133.333
225.96	-50.000
226.34	-0.000
226.71	0.000
227.08	16.667
227.46	62.500
227.83	-450.000
228.21	77.778
228.58	127.273
228.95	-75.000
229.33	-70.000
229.70	31.250
230.08	37.500
230.45	57.143
230.82	42.857
231.20	6.667
231.57	107.143
231.95	57.143
232.32	-20.000
232.69	107.143
233.07	166.667
233.44	-120.000
233.81	-10.000
234.19	11.111
234.56	23.529
234.93	100.000
235.31	200.000
235.68	-160.000
236.05	-30.769
236.43	-25.000
236.80	52.941
237.17	50.000
237.55	20.000
237.92	33.333
238.29	22.222
238.67	30.000
239.04	55.882
239.41	7.317
239.79	10.000
240.16	19.512
240.53	23.684
240.91	39.130
241.28	31.746
241.65	48.214
242.02	31.507
242.40	33.333
242.77	33.898
243.14	9.091
243.51	13.750
243.89	40.230
244.26	26.437
244.63	17.857
245.00	22.680
245.38	30.928
245.75	26.966
246.12	23.276
246.49	21.488
246.87	35.577
247.24	13.445
247.61	23.684
247.98	28.455
248.36	23.750
248.73	26.974
249.10	24.026
249.47	20.886
249.84	19.608
250.22	22.941
250.59	23.529
250.96	28.638
251.33	12.209
251.70	25.294
252.08	25.888
252.45	29.703
252.82	27.638
253.19	19.355
253.56	20.093
253.94	25.676
254.31	20.870
254.68	28.070
255.05	24.803
255.42	22.271
255.79	23.552
256.16	28.405
256.54	29.104
256.91	23.574
257.28	28.253
257.65	21.723
258.02	21.277
258.39	25.589
258.76	25.275
259.14	23.256
259.51	25.566
259.88	23.368
260.25	23.856
260.62	25.347
260.99	19.322
261.36	15.068
261.73	18.354
262.10	27.052
262.47	20.552
262.85	24.138
263.22	23.385
263.59	27.414
263.96	25.776
264.33	21.818
264.70	25.000
265.07	23.214
265.44	26.062
265.81	26.836
266.18	24.317
266.55	25.964
266.92	25.648
267.29	27.415
267.66	22.251
268.03	21.204
268.40	23.238
268.77	23.262
269.14	24.460
269.51	26.221
269.88	22.693
270.25	23.469
270.62	20.244
270.99	20.460
271.36	23.472
271.73	25.587
272.10	22.384
272.47	23.404
272.84	20.545
273.21	22.970
273.58	25.060
273.95	23.341
274.32	23.095
274.69	19.231
275.06	25.000
275.43	19.955
275.80	22.075
276.17	20.000
276.54	21.842
276.91	22.149
277.28	20.961
277.65	23.760
278.02	21.277
278.39	21.444
278.76	21.593
279.13	21.992
279.50	21.218
279.87	22.894
280.23	20.860
280.60	22.027
280.97	22.828
281.34	17.692
281.71	22.998
282.08	22.699
282.45	19.765
282.82	19.884
283.19	22.244
283.56	20.039
283.92	18.406
284.29	20.000
284.66	19.767
285.03	18.861
285.40	20.605
285.77	18.629
286.14	18.051
286.51	23.616
286.87	18.830
287.24	19.705
287.61	17.637
287.98	19.825
288.35	19.237
288.72	19.264
289.08	19.444
289.45	19.156
289.82	20.455
290.19	16.382
290.56	18.010
290.93	15.825
291.29	19.106
291.66	19.528
292.03	19.139
292.40	17.419
292.77	16.906
293.13	15.909
293.50	16.085
293.87	16.489
294.24	15.920
294.60	16.692
294.97	16.667
295.34	15.644
295.71	18.331
296.08	14.350
296.44	14.794
296.81	14.861
297.18	14.493
297.55	19.377
297.91	15.890
298.28	18.338
298.65	15.061
299.02	13.612
299.38	15.321
299.75	15.310
300.12	15.838
300.48	14.888
300.85	15.336
301.22	15.195
301.59	15.000
301.95	14.810
302.32	15.435
302.69	15.920
303.05	14.851
303.42	14.570
303.79	13.084
304.15	14.934
304.52	12.128
304.89	13.567
305.25	13.559
305.62	12.952
305.99	13.918
306.35	14.104
306.72	14.173
307.09	13.911
307.45	14.237
307.82	12.269
308.19	15.912
308.55	13.304
308.92	14.161
309.29	14.302
309.65	12.917
310.02	13.641
310.38	13.172
310.75	13.661
311.12	12.379
311.48	12.407
311.85	13.717
312.22	12.553
312.58	14.544
312.95	12.914
313.31	12.215
313.68	13.194
314.05	13.469
314.41	14.021
314.78	13.505
315.14	14.080
315.51	14.182
315.87	14.242
316.24	15.571
316.61	14.567
316.97	14.881
317.34	14.941
317.70	14.627
318.07	14.327
318.43	15.490
318.80	15.436
319.16	15.820
319.53	16.904
319.89	16.142
320.26	16.498
320.62	16.249
320.99	16.075
321.35	17.677
321.72	18.484
322.08	18.429
322.45	18.376
322.81	18.173
323.18	18.842
323.54	18.436
323.91	19.766
324.27	20.508
324.64	21.348
325.00	22.628
325.37	22.498
325.73	21.940
326.10	23.252
326.46	25.202
326.83	25.722
327.19	25.894
327.56	26.151
327.92	26.232
328.29	26.875
328.65	27.925
329.01	27.849
329.38	28.295
329.74	28.045
330.11	29.379
330.47	28.942
330.84	30.673
331.20	32.510
331.56	30.556
331.93	31.872
332.29	32.539
332.66	31.765
333.02	32.249
333.38	32.356
333.75	33.242
334.11	31.961
334.48	33.182
334.84	34.524
335.20	33.760
335.57	33.001
335.93	34.417
336.29	35.267
336.66	33.061
337.02	33.643
337.38	33.611
337.75	34.818
338.11	34.445
338.47	33.942
338.84	34.104
339.20	34.186
339.56	35.229
339.93	34.736
340.29	36.239
340.65	34.857
341.02	34.397
341.38	33.717
341.74	34.629
342.11	34.835
342.47	35.231
342.83	34.256
343.20	35.279
343.56	35.478
343.92	35.607
344.28	35.696
344.65	36.010
345.01	35.955
345.37	35.492
345.73	36.653
346.10	36.324
346.46	36.081
346.82	35.516
347.19	34.165
347.55	34.670
347.91	36.003
348.27	35.247
348.63	35.179
349.00	34.372
349.36	35.162
349.72	35.821
350.08	35.082
350.45	34.557
350.81	34.884
351.17	34.446
351.53	34.612
351.89	35.343
352.26	34.160
352.62	34.839
352.98	35.261
353.34	34.138
353.70	36.893
354.07	34.435
354.43	34.428
354.79	34.517
355.15	35.238
355.51	35.127
355.87	34.223
356.24	34.502
356.60	34.034
356.96	34.841
357.32	34.185
357.68	34.324
358.04	34.006
358.40	34.887
358.77	34.769
359.13	35.308
359.49	34.052
359.85	35.647
360.21	35.327
360.57	34.736
360.93	33.812
361.29	33.082
361.66	35.031
362.02	35.000
362.38	35.415
362.74	35.806
363.10	35.290
363.46	34.322
363.82	35.537
364.18	34.539
364.54	34.044
364.90	33.907
365.26	34.789
365.62	35.839
365.98	34.971
366.35	35.397
366.71	34.442
367.07	33.672
367.43	34.364
367.79	35.053
368.15	33.812
368.51	34.596
368.87	32.735
369.23	34.224
369.59	35.131
369.95	34.824
370.31	33.382
370.67	34.328
371.03	34.354
371.39	34.136
371.75	35.165
372.11	34.879
372.47	34.320
372.83	34.422
373.19	34.165
373.55	33.213
373.91	34.701
374.27	34.160
374.63	35.678
374.99	33.121
375.35	34.331
375.71	34.056
376.07	34.480
376.42	34.014
376.78	34.966
377.14	34.326
377.50	34.329
377.86	34.070
378.22	33.759
378.58	33.910
378.94	34.531
379.30	33.874
379.66	34.734
380.02	33.599
380.38	34.327
380.74	34.171
381.09	34.356
381.45	34.251
381.81	34.238
382.17	33.503
382.53	33.542
382.89	34.777
383.25	34.225
383.61	33.720
383.97	33.905
384.32	32.896
384.68	34.365
385.04	32.537
385.40	33.416
385.76	35.409
386.12	34.411
386.48	34.419
386.83	34.242
387.19	34.005
387.55	33.626
387.91	34.046
388.27	34.066
388.62	35.305
388.98	33.947
389.34	34.041
389.70	34.307
390.06	32.410
390.42	34.521
390.77	32.112
391.13	32.661
391.49	34.541
391.85	33.853
392.20	34.652
392.56	33.948
392.92	33.705
393.28	33.255
393.64	32.973
393.99	34.169
394.35	34.156
394.71	33.461
395.07	32.370
395.42	33.758
395.78	33.485
396.14	33.228
396.50	33.291
396.85	33.484
397.21	33.020
397.57	33.292
397.92	34.092
398.28	33.621
398.64	32.952
399.00	32.901
399.35	32.675
399.71	33.487
400.07	34.160
400.42	32.436
400.78	33.190
401.14	32.849
401.49	32.281
401.85	32.419
402.21	32.892
402.57	32.875
402.92	31.744
403.28	32.957
403.63	33.165
403.99	31.633
404.35	33.791
404.70	31.607
405.06	32.256
405.42	32.443
405.77	31.958
406.13	31.548
406.49	32.268
406.84	32.457
407.20	31.668
407.55	32.325
407.91	32.553
408.27	31.230
408.62	32.062
408.98	31.547
409.34	32.094
409.69	32.494
410.05	31.281
410.40	32.716
410.76	32.388
411.11	31.500
411.47	30.966
411.83	31.387
412.18	31.982
412.54	31.461
412.89	30.850
413.25	30.987
413.60	30.683
413.96	31.227
414.31	30.488
414.67	30.212
415.03	31.025
415.38	31.136
415.74	30.814
416.09	31.809
416.45	31.870
416.80	31.064
417.16	33.564
417.51	31.712
417.87	30.574
418.22	31.218
418.58	32.508
418.93	31.850
419.29	31.690
419.64	31.108
420.00	32.368
420.35	31.104
420.71	32.746
421.06	31.737
421.42	31.971
421.77	33.353
422.12	32.236
422.48	31.835
422.83	32.425
423.19	31.828
423.54	31.511
423.90	30.506
424.25	32.377
424.61	32.803
424.96	32.636
425.31	34.027
425.67	32.746
426.02	33.274
426.38	32.999
426.73	33.354
427.09	33.608
427.44	33.647
427.79	32.351
428.15	32.828
428.50	33.555
428.85	32.617
429.21	33.333
429.56	33.369
429.92	33.590
430.27	33.684
430.62	32.880
430.98	33.386
431.33	33.649
431.68	33.019
432.04	33.482
432.39	32.687
432.74	33.494
433.10	34.023
433.45	33.692
433.80	33.372
434.16	33.186
434.51	34.086
434.86	34.204
435.22	34.156
435.57	34.747
435.92	34.251
436.28	34.168
436.63	34.056
436.98	32.851
437.34	33.817
437.69	34.884
438.04	34.758
438.39	33.415
438.75	34.669
439.10	34.126
439.45	35.606
439.81	35.413
440.16	34.442
440.51	35.164
440.86	36.193
441.22	34.106
441.57	35.155
441.92	35.887
442.27	35.865
442.63	36.510
442.98	35.727
443.33	35.838
443.68	35.119
444.03	34.873
444.39	34.678
444.74	35.507
445.09	35.802
445.44	35.783
445.79	36.720
446.15	35.132
446.50	34.165
446.85	36.026
447.20	35.297
447.55	35.826
447.91	36.323
448.26	35.800
448.61	35.521
448.96	35.743
449.31	35.838
449.66	35.308
450.02	35.824
450.37	36.040
450.72	35.395
451.07	36.203
451.42	35.393
451.77	36.347
452.12	34.928
452.47	35.480
452.83	35.512
453.18	35.610
453.53	35.461
453.88	35.216
454.23	35.771
454.58	36.146
454.93	36.147
455.28	34.603
455.63	35.896
455.98	36.380
456.34	36.207
456.69	36.785
457.04	35.728
457.39	36.148
457.74	36.578
458.09	35.138
458.44	36.513
458.79	35.518
459.14	36.384
459.49	36.179
459.84	35.815
460.19	35.498
460.54	36.858
460.89	37.443
461.24	37.019
461.59	35.511
461.94	35.597
462.29	36.007
462.64	36.877
462.99	36.019
463.34	35.605
463.69	35.714
464.04	36.077
464.39	37.113
464.74	35.828
465.09	37.555
465.44	36.065
465.79	36.905
466.14	36.887
466.49	35.423
466.84	35.812
467.19	37.109
467.54	35.185
467.89	36.008
468.24	35.523
468.59	36.698
468.94	35.175
469.29	35.869
469.64	35.748
469.99	35.950
470.34	35.495
470.68	36.092
471.03	35.740
471.38	35.307
471.73	36.275
472.08	35.278
472.43	34.899
472.78	35.846
473.13	36.122
473.48	36.156
473.83	34.433
474.17	37.241
474.52	36.439
474.87	36.303
475.22	36.547
475.57	36.872
475.92	36.423
476.27	37.427
476.61	36.748
476.96	34.635
477.31	35.803
477.66	34.831
478.01	36.103
478.36	36.438
478.70	36.977
479.05	35.495
479.40	36.036
479.75	35.245
480.10	35.381
480.45	35.650
480.79	36.657
481.14	37.295
481.49	34.926
481.84	35.666
482.19	35.500
482.53	35.923
482.88	34.940
483.23	35.605
483.58	35.849
483.92	34.802
484.27	35.324
484.62	35.500
484.97	35.448
485.31	35.405
485.66	36.996
486.01	37.753
486.36	37.606
486.70	37.009
487.05	36.230
487.40	35.988
487.75	35.690
488.09	34.394
488.44	35.351
488.79	34.479
489.13	35.136
489.48	34.801
489.83	34.933
490.17	35.011
490.52	34.365
490.87	34.197
491.22	35.864
491.56	34.915
491.91	34.226
492.26	34.176
492.60	35.461
492.95	35.760
493.30	33.952
493.64	35.118
493.99	35.072
494.34	34.078
494.68	35.095
495.03	33.577
495.37	34.691
495.72	34.478
496.07	35.415
496.41	34.623
496.76	34.961
497.11	34.420
497.45	34.845
497.80	35.469
498.14	33.631
498.49	34.281
498.84	34.381
499.18	34.588
499.53	34.722
499.87	34.533
500.22	34.372
500.56	35.250
500.91	34.890
501.26	33.465
501.60	35.268
501.95	34.692
502.29	35.109
502.64	34.556
502.98	34.879
503.33	33.573
503.67	32.964
504.02	34.409
504.36	34.438
504.71	33.434
505.06	33.568
505.40	34.010
505.75	34.175
506.09	33.705
506.44	33.676
506.78	34.643
507.13	34.178
507.47	33.316
507.82	33.120
508.16	33.175
508.51	34.208
508.85	34.118
509.19	32.677
509.54	33.673
509.88	32.848
510.23	33.620
510.57	33.725
510.92	32.090
511.26	33.715
511.61	32.948
511.95	33.151
512.30	32.040
512.64	32.832
512.98	32.341
513.33	32.680
513.67	32.064
514.02	33.410
514.36	33.543
514.70	33.217
515.05	32.902
515.39	31.936
515.74	33.892
516.08	33.293
516.42	33.569
516.77	32.885
517.11	32.522
517.46	32.496
517.80	32.777
518.14	31.292
518.49	31.490
518.83	32.564
519.17	30.443
519.52	30.847
519.86	31.753
520.20	32.078
520.55	32.083
520.89	32.622
521.23	31.919
521.58	32.808
521.92	32.692
522.26	30.449
522.61	32.208
522.95	32.252
523.29	31.766
523.64	31.766
523.98	32.664
524.32	30.412
524.66	32.138
525.01	31.429
525.35	30.590
525.69	31.111
526.04	30.489
526.38	31.907
526.72	30.804
527.06	31.323
527.41	31.794
527.75	30.295
528.09	30.764
528.43	31.600
528.78	30.693
529.12	31.355
529.46	31.319
529.80	31.222
530.15	30.957
530.49	30.101
530.83	31.259
531.17	30.490
531.51	30.780
531.86	30.184
532.20	30.063
532.54	30.633
532.88	30.938
533.22	30.847
533.57	31.455
533.91	31.527
534.25	32.552
534.59	31.110
534.93	30.585
535.27	29.442
535.62	30.071
535.96	31.311
536.30	30.277
536.64	30.737
536.98	30.383
537.32	30.085
537.66	30.575
538.01	30.140
538.35	30.028
538.69	30.959
539.03	29.597
539.37	30.956
539.71	31.152
540.05	30.346
540.39	30.748
540.73	29.219
541.07	30.456
541.42	30.712
541.76	30.420
542.10	29.869
542.44	29.465
542.78	29.456
543.12	29.670
543.46	30.946
543.80	30.812
544.14	29.039
544.48	30.180
544.82	30.417
545.16	30.396
545.50	29.973
545.84	29.816
546.18	30.284
546.52	29.704
546.86	28.613
547.20	28.398
547.54	29.117
547.88	29.552
548.22	29.520
548.56	28.628
548.90	30.189
549.24	27.686
549.58	28.702
549.92	29.378
550.26	29.963
550.60	29.368
550.94	28.230
551.28	28.516
551.62	29.308
551.96	29.098
552.30	29.386
552.64	29.267
552.98	28.833
553.32	28.816
553.66	28.084
554.00	29.343
554.34	29.542
554.68	27.581
555.02	29.092
555.36	27.749
555.69	28.571
556.03	28.408
556.37	28.470
556.71	27.942
557.05	28.859
557.39	26.989
557.73	28.861
558.07	29.035
558.41	28.331
558.75	27.202
559.08	26.241
559.42	28.016
559.76	28.022
560.10	28.440
560.44	27.997
560.78	27.273
561.12	27.997
561.45	28.039
561.79	28.782
562.13	28.389
562.47	28.345
562.81	29.035
563.15	26.798
563.48	27.511
563.82	28.758
564.16	28.621
564.50	26.419
564.84	28.046
565.17	27.968
565.51	28.484
565.85	29.012
566.19	28.846
566.52	27.882
566.86	28.342
567.20	28.954
567.54	28.467
567.88	28.822
568.21	29.242
568.55	29.185
568.89	29.825
569.23	30.284
569.56	29.991
569.90	31.303
570.24	29.773
570.57	29.891
570.91	29.488
571.25	29.891
571.59	29.586
571.92	29.481
572.26	29.378
572.60	29.240
572.93	29.118
573.27	28.934
573.61	29.594
573.95	29.164
574.28	30.032
574.62	28.630
574.96	29.270
575.29	28.622
575.63	29.023
575.97	28.653
576.30	28.704
576.64	28.397
576.98	29.163
577.31	29.344
577.65	29.450
577.98	29.691
578.32	29.176
578.66	28.691
578.99	28.451
579.33	28.254
579.67	27.933
580.00	28.582
580.34	28.781
580.67	28.239
581.01	28.530
581.35	28.854
581.68	29.030
582.02	29.510
582.35	28.951
582.69	28.808
583.02	28.733
583.36	29.028
583.70	28.557
584.03	28.274
584.37	28.995
584.70	28.269
585.04	27.876
585.37	28.477
585.71	28.437
586.04	28.164
586.38	28.168
586.72	28.264
587.05	28.192
587.39	29.354
587.72	28.595
588.06	28.231
588.39	28.425
588.73	28.205
589.06	27.984
589.40	27.929
589.73	27.966
590.07	27.757
590.40	28.289
590.73	27.965
591.07	27.396
591.40	27.159
591.74	27.873
592.07	28.015
592.41	27.871
592.74	27.997
593.08	27.873
593.41	27.875
593.75	27.511
594.08	27.360
594.41	27.329
594.75	27.366
595.08	27.469
595.42	27.273
595.75	28.389
596.09	26.896
596.42	27.449
596.75	27.043
597.09	26.333
597.42	26.784
597.75	26.752
598.09	26.754
598.42	26.399
598.76	27.327
599.09	26.242
599.42	26.412
599.76	26.637
600.09	27.074
600.42	27.142
600.76	25.817
601.09	26.489
601.42	26.204
601.76	26.121
602.09	26.320
602.42	26.411
602.76	26.613
603.09	27.076
603.42	27.425
603.76	26.290
604.09	26.205
604.42	26.311
604.76	26.747
605.09	26.691
605.42	26.230
605.75	26.532
606.09	26.752
606.42	25.730
606.75	26.061
607.09	26.198
607.42	25.786
607.75	25.977
608.08	25.517
608.42	25.537
608.75	26.120
609.08	26.657
609.41	25.990
609.75	24.899
610.08	26.061
610.41	25.266
610.74	26.182
611.07	25.685
611.41	26.103
611.74	25.800
612.07	25.054
612.40	25.328
612.73	25.537
613.07	24.859
613.40	25.711
613.73	24.678
614.06	25.320
614.39	26.058
614.72	24.650
615.06	24.581
615.39	24.727
615.72	25.027
616.05	25.531
616.38	24.217
616.71	24.098
617.05	23.533
617.38	24.890
617.71	24.780
618.04	25.079
618.37	24.842
618.70	24.488
619.03	25.556
619.36	24.385
619.69	24.109
620.03	25.201
620.36	24.034
620.69	24.697
621.02	24.618
621.35	25.311
621.68	24.915
622.01	24.333
622.34	24.741
622.67	23.659
623.00	23.966
623.33	23.476
623.66	24.009
623.99	24.281
624.32	24.411
624.65	22.932
624.99	24.680
625.32	23.730
625.65	24.352
625.98	23.207
626.31	22.444
626.64	24.350
626.97	23.560
627.30	23.205
627.63	24.177
627.96	24.169
628.29	23.034
628.62	23.009
628.95	23.046
629.28	21.976
629.61	22.433
629.94	23.656
630.26	22.332
630.59	23.517
630.92	22.564
631.25	22.051
631.58	22.247
631.91	22.149
632.24	23.394
632.57	21.705
632.90	20.996
633.23	22.471
633.56	21.662
633.89	22.072
634.22	22.840
634.55	22.236
634.88	21.456
635.20	22.436
635.53	23.600
635.86	21.847
636.19	21.475
636.52	21.939
636.85	21.464
637.18	22.013
637.51	22.138
637.83	22.208
638.16	21.828
638.49	21.526
638.82	21.447
639.15	22.795
639.48	23.384
639.81	22.176
640.13	20.491
640.46	22.741
640.79	20.471
641.12	19.941
641.45	19.820
641.77	22.963
642.10	21.011
642.43	20.579
642.76	23.102
643.09	19.225
643.41	20.550
643.74	20.923
644.07	21.182
644.40	21.284
644.73	22.592
645.05	21.644
645.38	23.457
645.71	19.858
646.04	21.903
646.36	20.035
646.69	20.683
647.02	20.038
647.35	20.522
647.67	19.927
648.00	20.522
648.33	20.307
648.66	21.695
648.98	18.928
649.31	18.347
649.64	21.036
649.96	20.583
650.29	20.784
650.62	20.684
650.94	20.741
651.27	17.877
651.60	22.342
651.92	23.252
652.25	21.847
652.58	21.000
652.90	23.499
653.23	22.017
653.56	18.951
653.88	22.165
654.21	19.089
654.54	20.204
654.86	22.241
655.19	20.175
655.52	24.226
655.84	26.051
656.17	28.919
656.49	38.813
656.82	39.497
657.15	29.301
657.47	21.438
657.80	15.849
658.13	15.093
658.45	22.578
658.78	22.434
659.10	21.829
659.43	20.904
659.75	21.608
660.08	20.897
660.41	21.042
660.73	20.580
661.06	19.757
661.38	20.352
661.71	14.990
662.03	22.103
662.36	18.681
662.68	19.248
663.01	22.271
663.33	18.794
663.66	18.372
663.98	18.837
664.31	20.682
664.63	19.816
664.96	19.130
665.28	15.011
665.61	20.779
665.93	20.217
666.26	20.607
666.58	18.345
666.91	21.176
667.23	22.170
667.56	19.905
667.88	16.787
668.21	18.854
668.53	22.459
668.86	20.047
669.18	17.925
669.50	18.160
669.83	20.233
670.15	20.979
670.48	18.900
670.80	20.046
671.13	18.568
671.45	19.406
671.77	20.815
672.10	20.198
672.42	20.974
672.75	21.847
673.07	20.572
673.39	21.284
673.72	17.357
674.04	18.750
674.37	20.339
674.69	22.056
675.01	18.667
675.34	18.018
675.66	20.833
675.98	21.508
676.31	21.789
676.63	20.190
676.95	19.545
677.28	19.529
677.60	21.446
677.92	18.349
678.25	22.101
678.57	17.532
678.89	19.748
679.22	21.477
679.54	19.679
679.86	18.887
680.18	17.864
680.51	20.455
680.83	18.290
681.15	21.200
681.48	20.697
681.80	22.314
682.12	19.556
682.44	19.038
682.77	21.634
683.09	19.908
683.41	18.409
683.73	23.041
684.06	20.354
684.38	18.280
684.70	18.519
685.02	18.050
685.34	17.194
685.67	19.700
685.99	19.530
686.31	19.292
686.63	19.852
686.96	21.103
687.28	15.556
687.60	18.821
687.92	18.788
688.24	19.153
688.56	21.397
688.89	18.527
689.21	22.222
689.53	17.633
689.85	21.395
690.17	19.866
690.49	17.258
690.82	16.990
691.14	16.190
691.46	22.196
691.78	19.595
692.10	20.430
692.42	21.212
692.74	21.368
693.06	18.694
693.39	19.910
693.71	18.778
694.03	17.090
694.35	18.925
694.67	19.192
694.99	18.016
695.31	20.627
695.63	18.250
695.95	20.455
696.27	21.503
696.59	19.722
696.91	17.087
697.23	17.224
697.56	17.574
697.88	21.075
698.20	19.818
698.52	19.294
698.84	14.833
699.16	18.000
699.48	18.045
699.80	18.610
700.12	18.868
700.44	18.207
700.76	14.535
701.08	14.545
701.40	19.578
701.72	19.753
702.04	19.142
702.36	18.395
702.68	20.420
703.00	20.000
703.32	19.941
703.64	17.514
703.96	22.029
704.28	19.632
704.60	22.222
704.91	17.981
705.23	15.282
705.55	22.968
705.87	19.856
706.19	17.037
706.51	19.244
706.83	18.650
707.15	17.134
707.47	20.448
707.79	17.969
708.11	21.250
708.43	19.500
708.74	20.155
709.06	20.845
709.38	20.795
709.70	23.373
710.02	19.745
710.34	22.910
710.66	16.026
710.98	18.874
711.29	22.295
711.61	16.610
711.93	21.173
712.25	24.399
712.57	20.513
712.89	16.791
713.20	17.993
713.52	16.725
713.84	19.113
714.16	12.715
714.48	18.387
714.80	17.308
715.11	19.453
715.43	15.361
715.75	18.667
716.07	15.947
716.39	16.779
716.70	16.974
717.02	16.794
717.34	19.028
717.66	17.257
717.97	16.522
718.29	20.921
718.61	18.504
718.93	17.442
719.24	16.730
719.56	15.663
719.88	19.588
720.20	17.803
720.51	18.774
720.83	20.077
721.15	22.269
721.46	20.565
721.78	16.206
722.10	15.242
722.42	12.033
722.73	17.551
723.05	15.510
723.37	19.915
723.68	24.775
724.00	18.376
724.32	12.444
724.63	16.818
724.95	21.834
725.27	19.355
725.58	19.915
725.90	14.683
726.22	18.919
726.53	22.712
726.85	20.974
727.16	23.396
727.48	17.814
727.80	19.433
728.11	13.559
728.43	14.902
728.74	12.097
729.06	16.000
729.38	22.180
729.69	15.538
730.01	13.077
730.32	19.030
730.64	24.735
730.96	17.358
731.27	16.000
731.59	19.661
731.90	20.382
732.22	21.767
732.53	19.934
732.85	17.376
733.16	20.875
733.48	17.626
733.80	18.478
734.11	17.288
734.43	16.495
734.74	18.788
735.06	15.961
735.37	20.242
735.69	15.488
736.00	17.422
736.32	18.792
736.63	20.423
736.95	18.430
737.26	21.708
737.58	16.107
737.89	17.582
738.21	19.173
738.52	19.342
738.83	23.144
739.15	14.847
739.46	19.291
739.78	15.751
740.09	19.608
740.41	21.739
740.72	14.961
741.04	21.457
741.35	16.596
741.66	17.062
741.98	16.327
742.29	20.792
742.61	16.230
742.92	8.531
743.23	10.648
743.55	23.529
743.86	18.660
744.18	19.617
744.49	16.489
744.80	12.500
745.12	21.925
745.43	11.707
745.74	19.792
746.06	20.488
746.37	16.230
746.68	16.114
747.00	19.681
747.31	22.388
747.62	10.194
747.94	21.053
748.25	19.802
748.56	18.579
748.88	15.183
749.19	15.426
749.50	24.138
749.82	9.434
750.13	14.220
750.44	19.925
750.75	19.776
751.07	21.898
751.38	16.475
751.69	16.078
752.01	20.155
752.32	17.928
752.63	11.858
752.94	16.379
753.26	25.523
753.57	14.932
753.88	14.159
754.19	17.083
754.51	20.248
754.82	17.004
755.13	22.500
755.44	23.387
755.75	18.750
756.07	19.844
756.38	16.981
756.69	19.157
757.00	20.333
757.31	20.915
757.63	16.768
757.94	17.222
758.25	16.438
758.56	21.809
758.87	14.164
759.18	17.757
759.50	15.636
759.81	19.064
760.12	20.645
760.43	17.879
760.74	22.222
761.05	16.000
761.36	19.602
761.67	23.939
761.99	18.367
762.30	16.727
762.61	17.787
762.92	14.027
763.23	18.919
763.54	18.224
763.85	21.186
764.16	19.917
764.47	19.758
764.78	23.443
765.10	23.569
765.41	15.773
765.72	16.190
766.03	13.910
766.34	18.613
766.65	21.116
766.96	19.697
767.27	13.298
767.58	11.494
767.89	11.348
768.20	15.909
768.51	15.934
768.82	20.197
769.13	15.207
769.44	20.172
769.75	11.872
770.06	19.828
770.37	17.308
770.68	18.274
770.99	17.195
771.30	17.647
771.61	18.100
771.92	19.828
772.23	24.138
772.54	19.355
772.85	17.901
773.16	19.663
773.47	19.608
773.78	20.915
774.09	22.754
774.39	14.667
774.70	21.019
775.01	22.069
775.32	21.429
775.63	15.702
775.94	16.031
776.25	22.047
776.56	14.167
776.87	22.115
777.18	17.094
777.48	16.379
777.79	18.261
778.10	13.333
778.41	9.009
778.72	19.048
779.03	26.316
779.34	27.660
779.65	19.178
779.95	13.014
780.26	22.069
780.57	15.447
780.88	14.173
781.19	17.241
781.50	15.504
781.80	19.527
782.11	16.981
782.42	17.692
782.73	21.583
783.04	21.481
783.34	18.750
783.65	7.692
783.96	13.934
784.27	15.862
784.57	20.325
784.88	25.781
785.19	20.000
785.50	28.000
785.81	20.690
786.11	12.069
786.42	8.738
786.73	27.273
787.04	19.388
787.34	26.786
787.65	17.143
787.96	22.124
788.26	20.000
788.57	11.966
788.88	21.875
789.19	15.873
789.49	18.261
789.80	20.408
790.11	28.283
790.41	13.636
790.72	32.609
791.03	26.136
791.33	31.250
791.64	15.000
791.95	9.302
792.25	25.532
792.56	13.483
792.87	10.959
793.17	20.290
793.48	21.333
793.79	20.000
794.09	26.250
794.40	16.038
794.70	19.417
795.01	6.504
795.32	16.239
795.62	15.238
795.93	11.765
796.23	25.472
796.54	32.292
796.85	36.765
797.15	19.718
797.46	20.833
797.76	31.818
798.07	13.953
798.37	2.632
798.68	18.182
798.99	22.222
799.29	21.429
799.60	14.493
799.90	21.333
800.21	21.311
800.51	21.538
800.82	8.475
801.12	24.638
801.43	18.033
801.73	28.571
802.04	28.000
802.34	7.463
802.65	46.154
802.95	12.500
803.26	9.615
803.56	19.608
803.87	0.000
804.17	10.667
804.48	25.397
804.78	16.667
805.09	26.087
805.39	11.111
805.70	40.741
806.00	1.754
806.30	16.901
806.61	28.571
806.91	6.944
807.22	21.053
807.52	28.000
807.83	21.818
808.13	15.278
808.43	33.824
808.74	10.448
809.04	3.390
809.35	23.077
809.65	25.000
809.95	2.703
810.26	4.545
810.56	-4.110
810.86	2.381
811.17	8.000
811.47	22.449
811.77	-7.895
812.08	31.818
812.38	9.434
812.69	0.000
812.99	36.364
813.29	23.684
813.59	-5.714
813.90	27.273
814.20	-10.256
814.50	23.077
814.81	41.509
815.11	-2.128
815.41	22.034
815.72	21.429
816.02	33.333
816.32	22.917
816.62	0.000
816.93	10.811
817.23	17.143
817.53	62.500
817.84	21.739
818.14	13.462
818.44	5.263
818.74	32.609
819.04	22.500
819.35	18.919
819.65	11.765
819.95	-5.556
820.25	-2.381
820.56	42.500
820.86	10.345
821.16	42.500
821.46	42.553
821.76	12.500
822.07	20.930
822.37	-10.811
822.67	6.250
822.97	42.857
823.27	3.571
823.57	40.000
823.88	11.111
824.18	50.000
824.48	5.882
824.78	-3.226
825.08	13.043
825.38	24.242
825.69	12.500
825.99	36.842
826.29	19.444
826.59	0.000
826.89	-19.048
827.19	30.435
827.49	17.500
827.79	40.000
828.09	17.857
828.39	9.091
828.70	75.676
829.00	25.000
829.30	19.048
829.60	20.000
829.90	28.125
830.20	21.053
830.50	44.444
830.80	21.739
831.10	-18.182
831.40	15.152
831.70	19.355
832.00	42.857
832.30	14.286
832.60	0.000
832.90	24.138
833.20	-30.000
833.50	60.606
833.80	-3.704
834.10	61.538
834.40	15.625
834.70	33.333
835.00	-10.526
835.30	73.077
835.60	26.667
835.90	58.065
836.20	31.818
836.50	14.286
836.80	30.769
837.10	-14.286
837.40	33.333
837.70	54.545
838.00	-18.182
838.30	30.435
838.60	53.846
838.90	68.182
839.19	53.571
839.49	50.000
839.79	46.154
840.09	8.333
840.39	53.571
840.69	7.143
840.99	-11.538
841.29	-57.895
841.59	-30.000
841.88	45.455
842.18	10.000
842.48	68.750
842.78	33.333
843.08	11.111
843.38	0.000
843.68	82.609
843.97	46.667
844.27	-33.333
844.57	70.000
844.87	38.889
845.17	4.762
845.47	106.667
845.76	57.143
846.06	23.529
846.36	90.000
846.66	42.857
846.96	80.000
847.25	-75.000
847.55	50.000
847.85	125.000
848.15	13.636
848.44	-33.333
848.74	25.000
849.04	66.667
849.34	54.545
849.63	-83.333
849.93	-180.000
850.23	11.111
850.53	190.000
850.82	0.000
851.12	11.111
851.42	26.667
851.71	30.769
852.01	85.714
852.31	-25.000
852.61	-9.091
852.90	55.000
853.20	47.368
853.50	16.667
853.79	13.043
854.09	41.667
854.39	68.421
854.68	12.500
854.98	38.710
855.28	19.231
855.57	30.000
855.87	44.444
856.17	37.037
856.46	-42.857
856.76	-40.000
857.05	144.444
857.35	40.000
857.65	66.667
857.94	61.538
858.24	82.759
858.53	44.444
858.83	44.444
859.13	63.636
859.42	13.043
859.72	-100.000
860.01	233.333
860.31	88.000
860.60	14.286
860.90	-166.667
861.20	20.000
861.49	-150.000
861.79	73.333
862.08	45.000
862.38	53.333
862.67	-40.000
862.97	-83.333
863.26	100.000
863.56	105.556
863.85	-33.333
864.15	55.556
864.44	70.000
864.74	85.714
865.03	100.000
865.33	0.000
865.62	66.667
865.92	-8.333
866.21	-66.667
866.51	137.500
866.80	81.818
867.10	-200.000
867.39	133.333
867.69	0.000
867.98	61.538
868.27	33.333
868.57	20.000
868.86	11.111
869.16	69.231
869.45	53.333
869.75	500.000
870.04	0.000
870.33	-28.571
870.63	66.667
870.92	133.333
871.22	-60.000
871.51	0.000
871.80	133.333
872.10	-133.333
>>>>>End Processed Spectral Data<<<<<
