SpectraSuite Data File
++++++++++++++++++++++++++++++++++++
Date: Fri May 15 20:11:53 PDT 2015
User: schluterlab
Dark Spectrum Present: Yes
Reference Spectrum Present: Yes
Number of Sampled Component Spectra: 1
Spectrometers: USB2E3373
Integration Time (usec): 3000 (USB2E3373)
Spectra Averaged: 3 (USB2E3373)
Boxcar Smoothing: 0 (USB2E3373)
Correct for Electrical Dark: No (USB2E3373)
Strobe/Lamp Enabled: No (USB2E3373)
Correct for Detector Non-linearity: No (USB2E3373)
Correct for Stray Light: No (USB2E3373)
Number of Pixels in Processed Spectrum: 2048
>>>>>Begin Processed Spectral Data<<<<<
178.53	0.000
178.91	0.000
179.29	62.500
179.67	-400.000
180.04	28.571
180.42	200.000
180.80	-300.000
181.18	433.333
181.56	450.000
181.94	-300.000
182.31	900.000
182.69	-80.000
183.07	-166.667
183.45	20.000
183.83	-33.333
184.20	109.091
184.58	66.667
184.96	-75.000
185.34	100.000
185.72	-300.000
186.09	76.923
186.47	-900.000
186.85	-16.667
187.23	-100.000
187.61	100.000
187.98	-66.667
188.36	177.778
188.74	100.000
189.12	23.529
189.49	22.222
189.87	0.000
190.25	92.857
190.63	550.000
191.00	233.333
191.38	42.105
191.76	100.000
192.14	-100.000
192.51	-100.000
192.89	-11.111
193.27	-85.714
193.65	133.333
194.02	145.455
194.40	-30.000
194.78	-87.500
195.15	33.333
195.53	75.000
195.91	-175.000
196.29	-25.000
196.66	76.923
197.04	14.286
197.42	-55.556
197.79	-133.333
198.17	-38.462
198.55	1700.000
198.92	-233.333
199.30	200.000
199.68	220.000
200.05	-33.333
200.43	0.000
200.81	100.000
201.18	233.333
201.56	1100.000
201.94	-250.000
202.31	33.333
202.69	20.000
203.07	-75.000
203.44	600.000
203.82	0.000
204.19	71.429
204.57	-133.333
204.95	112.500
205.32	10.000
205.70	14.286
206.08	-25.000
206.45	100.000
206.83	85.714
207.20	-42.857
207.58	-100.000
207.96	-100.000
208.33	-130.000
208.71	50.000
209.08	-116.667
209.46	-200.000
209.84	40.000
210.21	-600.000
210.59	-42.857
210.96	-33.333
211.34	50.000
211.71	53.333
212.09	-14.286
212.46	-400.000
212.84	0.000
213.22	140.000
213.59	150.000
213.97	76.923
214.34	27.273
214.72	16.667
215.09	400.000
215.47	-69.231
215.84	-27.273
216.22	400.000
216.59	112.500
216.97	150.000
217.34	0.000
217.72	-160.000
218.09	62.500
218.47	-0.000
218.84	-600.000
219.22	0.000
219.59	120.000
219.97	233.333
220.34	275.000
220.72	28.571
221.09	150.000
221.47	100.000
221.84	-350.000
222.22	-100.000
222.59	172.727
222.97	8.333
223.34	-166.667
223.72	7.143
224.09	14.286
224.46	42.857
224.84	233.333
225.21	140.000
225.59	33.333
225.96	50.000
226.34	400.000
226.71	71.429
227.08	33.333
227.46	112.500
227.83	-850.000
228.21	100.000
228.58	100.000
228.95	62.500
229.33	60.000
229.70	87.500
230.08	-37.500
230.45	-157.143
230.82	171.429
231.20	-46.667
231.57	114.286
231.95	0.000
232.32	-70.000
232.69	85.714
233.07	-100.000
233.44	80.000
233.81	-70.000
234.19	77.778
234.56	58.824
234.93	150.000
235.31	225.000
235.68	-100.000
236.05	46.154
236.43	35.000
236.80	0.000
237.17	3.125
237.55	5.000
237.92	18.519
238.29	30.556
238.67	16.667
239.04	20.588
239.41	-12.195
239.79	6.667
240.16	17.073
240.53	-10.526
240.91	2.174
241.28	15.873
241.65	19.643
242.02	28.767
242.40	6.667
242.77	15.254
243.14	10.606
243.51	10.000
243.89	28.736
244.26	3.448
244.63	11.905
245.00	14.433
245.38	7.216
245.75	4.494
246.12	11.207
246.49	19.008
246.87	24.038
247.24	6.723
247.61	8.772
247.98	14.634
248.36	11.250
248.73	16.447
249.10	12.338
249.47	18.354
249.84	16.340
250.22	14.118
250.59	14.379
250.96	15.962
251.33	13.372
251.70	21.765
252.08	14.721
252.45	13.861
252.82	10.050
253.19	16.129
253.56	10.280
253.94	18.468
254.31	17.826
254.68	14.035
255.05	15.748
255.42	11.354
255.79	18.919
256.16	13.230
256.54	19.030
256.91	9.886
257.28	13.383
257.65	13.483
258.02	12.057
258.39	14.815
258.76	14.286
259.14	15.615
259.51	14.887
259.88	12.027
260.25	13.725
260.62	11.806
260.99	11.525
261.36	11.644
261.73	13.291
262.10	15.502
262.47	10.123
262.85	12.226
263.22	13.231
263.59	14.330
263.96	15.528
264.33	15.758
264.70	12.798
265.07	11.310
265.44	13.314
265.81	12.147
266.18	15.847
266.55	16.710
266.92	12.435
267.29	10.183
267.66	14.578
268.03	14.136
268.40	12.794
268.77	15.775
269.14	13.189
269.51	12.853
269.88	12.968
270.25	11.735
270.62	9.756
270.99	12.020
271.36	10.513
271.73	13.380
272.10	15.085
272.47	14.421
272.84	15.594
273.21	15.313
273.58	14.699
273.95	13.501
274.32	11.547
274.69	11.991
275.06	14.286
275.43	11.791
275.80	13.245
276.17	12.644
276.54	10.064
276.91	14.035
277.28	10.699
277.65	12.603
278.02	12.979
278.39	12.473
278.76	11.950
279.13	11.618
279.50	14.496
279.87	15.119
280.23	12.903
280.60	14.035
280.97	13.535
281.34	12.885
281.71	15.811
282.08	10.838
282.45	8.611
282.82	11.197
283.19	12.186
283.56	13.487
283.92	13.283
284.29	10.385
284.66	12.016
285.03	13.360
285.40	13.233
285.77	11.775
286.14	13.538
286.51	11.808
286.87	11.883
287.24	10.681
287.61	10.758
287.98	14.386
288.35	12.305
288.72	13.310
289.08	12.500
289.45	12.478
289.82	12.587
290.19	9.386
290.56	12.521
290.93	10.101
291.29	10.786
291.66	13.701
292.03	11.324
292.40	10.806
292.77	9.410
293.13	9.578
293.50	9.256
293.87	11.756
294.24	10.046
294.60	10.879
294.97	11.310
295.34	10.276
295.71	10.134
296.08	10.613
296.44	8.535
296.81	10.556
297.18	9.420
297.55	11.518
297.91	10.000
298.28	11.478
298.65	8.548
299.02	9.973
299.38	6.840
299.75	10.069
300.12	9.424
300.48	9.618
300.85	11.660
301.22	8.571
301.59	8.158
301.95	10.380
302.32	10.376
302.69	10.448
303.05	9.653
303.42	10.212
303.79	10.514
304.15	8.483
304.52	8.205
304.89	8.538
305.25	9.564
305.62	8.401
305.99	8.304
306.35	9.480
306.72	7.874
307.09	8.552
307.45	9.529
307.82	8.912
308.19	9.408
308.55	9.051
308.92	10.566
309.29	8.492
309.65	9.903
310.02	9.681
310.38	8.452
310.75	10.383
311.12	9.688
311.48	8.484
311.85	9.110
312.22	8.861
312.58	9.873
312.95	8.111
313.31	10.145
313.68	8.901
314.05	9.898
314.41	11.237
314.78	12.268
315.14	11.408
315.51	12.526
315.87	11.373
316.24	11.931
316.61	13.484
316.97	13.889
317.34	14.160
317.70	14.340
318.07	14.808
318.43	14.314
318.80	13.636
319.16	15.332
319.53	15.859
319.89	16.831
320.26	17.105
320.62	18.355
320.99	18.685
321.35	19.219
321.72	20.353
322.08	20.544
322.45	22.741
322.81	23.084
323.18	23.945
323.54	23.552
323.91	24.537
324.27	26.270
324.64	26.498
325.00	28.832
325.37	31.221
325.73	30.372
326.10	31.335
326.46	33.363
326.83	34.908
327.19	36.617
327.56	39.096
327.92	37.940
328.29	40.268
328.65	42.264
329.01	43.658
329.38	44.147
329.74	46.270
330.11	46.432
330.47	46.475
330.84	49.038
331.20	51.806
331.56	48.519
331.93	49.589
332.29	51.329
332.66	51.855
333.02	51.673
333.38	51.604
333.75	54.121
334.11	54.252
334.48	53.400
334.84	55.220
335.20	54.529
335.57	55.938
335.93	55.194
336.29	55.617
336.66	57.493
337.02	57.807
337.38	55.463
337.75	57.364
338.11	58.070
338.47	57.938
338.84	58.965
339.20	57.038
339.56	58.991
339.93	58.550
340.29	60.917
340.65	59.767
341.02	59.043
341.38	59.027
341.74	58.216
342.11	59.185
342.47	59.164
342.83	59.775
343.20	58.537
343.56	61.391
343.92	60.496
344.28	60.034
344.65	60.881
345.01	59.896
345.37	59.462
345.73	59.582
346.10	60.828
346.46	59.714
346.82	58.756
347.19	58.853
347.55	62.155
347.91	61.003
348.27	59.580
348.63	59.881
349.00	61.936
349.36	61.762
349.72	61.111
350.08	61.967
350.45	59.298
350.81	60.714
351.17	60.668
351.53	61.143
351.89	61.767
352.26	60.080
352.62	61.210
352.98	61.606
353.34	59.903
353.70	62.540
354.07	60.403
354.43	61.009
354.79	61.107
355.15	61.429
355.51	61.234
355.87	61.246
356.24	61.909
356.60	62.490
356.96	62.778
357.32	60.783
357.68	60.594
358.04	62.116
358.40	61.736
358.77	62.440
359.13	61.809
359.49	61.017
359.85	62.090
360.21	64.354
360.57	62.816
360.93	61.725
361.29	61.858
361.66	63.950
362.02	64.167
362.38	63.366
362.74	64.421
363.10	64.108
363.46	65.308
363.82	63.787
364.18	62.288
364.54	63.676
364.90	63.011
365.26	64.192
365.62	64.891
365.98	63.196
366.35	64.676
366.71	64.967
367.07	65.820
367.43	63.264
367.79	64.099
368.15	65.686
368.51	65.914
368.87	64.681
369.23	64.477
369.59	65.379
369.95	66.862
370.31	66.546
370.67	65.224
371.03	65.049
371.39	64.989
371.75	65.641
372.11	64.479
372.47	65.828
372.83	66.288
373.19	65.906
373.55	65.632
373.91	64.867
374.27	65.840
374.63	67.911
374.99	66.312
375.35	65.669
375.71	67.832
376.07	68.680
376.42	67.415
376.78	67.718
377.14	68.043
377.50	67.331
377.86	68.407
378.22	67.900
378.58	69.744
378.94	68.116
379.30	69.058
379.66	69.154
380.02	68.424
380.38	69.446
380.74	69.659
381.09	70.982
381.45	69.847
381.81	70.635
382.17	70.178
382.53	69.332
382.89	70.559
383.25	70.753
383.61	71.646
383.97	70.159
384.32	69.418
384.68	70.464
385.04	70.221
385.40	70.753
385.76	73.585
386.12	70.569
386.48	72.031
386.83	70.323
387.19	71.978
387.55	72.271
387.91	71.027
388.27	70.757
388.62	73.002
388.98	70.166
389.34	71.643
389.70	74.145
390.06	70.170
390.42	72.021
390.77	73.185
391.13	71.690
391.49	72.122
391.85	73.164
392.20	71.249
392.56	73.236
392.92	72.402
393.28	72.111
393.64	71.171
393.99	73.229
394.35	72.612
394.71	73.819
395.07	70.647
395.42	71.585
395.78	73.355
396.14	72.194
396.50	73.557
396.85	72.247
397.21	70.990
397.57	72.727
397.92	71.899
398.28	72.471
398.64	71.145
399.00	72.404
399.35	70.542
399.71	71.281
400.07	72.189
400.42	70.379
400.78	74.097
401.14	70.599
401.49	71.352
401.85	71.176
402.21	71.205
402.57	72.438
402.92	70.891
403.28	71.053
403.63	72.636
403.99	72.513
404.35	73.267
404.70	70.595
405.06	71.798
405.42	70.914
405.77	70.598
406.13	71.595
406.49	70.515
406.84	71.149
407.20	71.523
407.55	70.058
407.91	69.118
408.27	69.853
408.62	71.692
408.98	70.918
409.34	71.437
409.69	72.028
410.05	69.643
410.40	69.753
410.76	70.748
411.11	70.750
411.47	71.598
411.83	70.747
412.18	70.785
412.54	70.225
412.89	70.382
413.25	71.059
413.60	70.062
413.96	67.975
414.31	70.305
414.67	70.686
415.03	70.306
415.38	69.517
415.74	72.378
416.09	71.783
416.45	70.223
416.80	70.853
417.16	72.099
417.51	69.887
417.87	70.795
418.22	71.956
418.58	69.565
418.93	72.288
419.29	70.487
419.64	71.938
420.00	73.426
420.35	72.657
420.71	72.236
421.06	71.393
421.42	71.154
421.77	72.543
422.12	71.453
422.48	72.063
422.83	72.100
423.19	72.573
423.54	72.428
423.90	72.085
424.25	72.331
424.61	74.051
424.96	73.519
425.31	73.484
425.67	74.589
426.02	75.442
426.38	74.828
426.73	74.879
427.09	75.316
427.44	75.000
427.79	73.777
428.15	74.515
428.50	74.803
428.85	73.464
429.21	74.816
429.56	77.520
429.92	75.244
430.27	74.185
430.62	75.013
430.98	75.849
431.33	75.552
431.68	74.202
432.04	75.964
432.39	75.585
432.74	76.007
433.10	76.379
433.45	76.464
433.80	77.597
434.16	77.784
434.51	76.505
434.86	77.526
435.22	77.454
435.57	77.667
435.92	77.844
436.28	76.923
436.63	76.783
436.98	76.593
437.34	80.036
437.69	78.473
438.04	77.607
438.39	77.947
438.75	79.599
439.10	78.721
439.45	78.515
439.81	78.838
440.16	80.582
440.51	78.507
440.86	79.819
441.22	78.790
441.57	79.912
441.92	80.010
442.27	80.322
442.63	79.711
442.98	79.954
443.33	78.798
443.68	79.416
444.03	79.334
444.39	78.701
444.74	81.605
445.09	80.234
445.44	81.254
445.79	81.124
446.15	79.350
446.50	79.146
446.85	80.287
447.20	79.718
447.55	79.911
447.91	81.105
448.26	81.047
448.61	79.908
448.96	81.239
449.31	81.561
449.66	80.372
450.02	81.803
450.37	81.624
450.72	79.954
451.07	82.405
451.42	80.712
451.77	81.374
452.12	79.605
452.47	80.554
452.83	81.095
453.18	80.076
453.53	81.858
453.88	82.028
454.23	82.053
454.58	82.746
454.93	81.057
455.28	78.286
455.63	82.765
455.98	80.156
456.34	82.312
456.69	80.813
457.04	82.861
457.39	80.498
457.74	83.918
458.09	81.460
458.44	81.276
458.79	81.176
459.14	80.950
459.49	81.910
459.84	82.685
460.19	82.949
460.54	82.518
460.89	82.614
461.24	82.050
461.59	81.116
461.94	81.698
462.29	81.544
462.64	82.126
462.99	82.735
463.34	80.807
463.69	81.338
464.04	81.780
464.39	82.959
464.74	81.595
465.09	82.720
465.44	82.804
465.79	80.045
466.14	82.383
466.49	82.001
466.84	80.845
467.19	82.791
467.54	81.609
467.89	82.249
468.24	80.596
468.59	83.810
468.94	82.159
469.29	82.230
469.64	82.707
469.99	85.354
470.34	83.140
470.68	83.743
471.03	85.209
471.38	82.953
471.73	82.703
472.08	83.650
472.43	84.430
472.78	82.180
473.13	81.633
473.48	81.759
473.83	80.822
474.17	83.225
474.52	83.854
474.87	82.000
475.22	82.306
475.57	81.310
475.92	82.995
476.27	83.527
476.61	84.086
476.96	80.982
477.31	82.910
477.66	82.753
478.01	82.369
478.36	82.952
478.70	83.687
479.05	83.681
479.40	83.625
479.75	80.918
480.10	82.130
480.45	83.300
480.79	84.189
481.14	84.324
481.49	82.956
481.84	84.363
482.19	82.554
482.53	83.213
482.88	82.291
483.23	81.862
483.58	81.415
483.92	81.510
484.27	81.267
484.62	82.295
484.97	82.504
485.31	81.539
485.66	80.172
486.01	80.672
486.36	80.454
486.70	80.378
487.05	81.327
487.40	81.231
487.75	80.423
488.09	80.161
488.44	80.536
488.79	81.472
489.13	82.692
489.48	82.514
489.83	82.601
490.17	81.753
490.52	83.002
490.87	82.462
491.22	83.286
491.56	82.400
491.91	81.358
492.26	83.034
492.60	82.726
492.95	84.653
493.30	82.413
493.64	83.546
493.99	81.981
494.34	83.107
494.68	83.667
495.03	82.482
495.37	84.053
495.72	83.897
496.07	84.439
496.41	82.736
496.76	83.418
497.11	83.698
497.45	83.723
497.80	83.855
498.14	82.961
498.49	84.205
498.84	82.385
499.18	82.932
499.53	83.085
499.87	83.560
500.22	83.531
500.56	85.023
500.91	83.685
501.26	83.144
501.60	84.063
501.95	83.746
502.29	83.971
502.64	83.929
502.98	83.276
503.33	82.517
503.67	83.084
504.02	83.138
504.36	83.671
504.71	83.636
505.06	82.939
505.40	82.995
505.75	83.969
506.09	82.767
506.44	83.727
506.78	84.541
507.13	85.057
507.47	84.125
507.82	84.135
508.16	84.363
508.51	84.785
508.85	85.034
509.19	83.662
509.54	83.432
509.88	83.495
510.23	83.271
510.57	84.233
510.92	82.516
511.26	85.215
511.61	84.763
511.95	85.041
512.30	84.202
512.64	84.363
512.98	83.436
513.33	85.842
513.67	85.446
514.02	86.442
514.36	85.086
514.70	86.713
515.05	85.488
515.39	85.773
515.74	87.665
516.08	86.133
516.42	86.278
516.77	86.366
517.11	86.469
517.46	87.074
517.80	84.505
518.14	86.650
518.49	86.478
518.83	86.087
519.17	86.234
519.52	85.554
519.86	87.035
520.20	85.905
520.55	88.243
520.89	86.763
521.23	85.180
521.58	87.192
521.92	85.833
522.26	86.792
522.61	86.623
522.95	88.940
523.29	86.595
523.64	86.658
523.98	87.946
524.32	87.113
524.66	87.900
525.01	86.234
525.35	88.270
525.69	87.542
526.04	86.706
526.38	89.559
526.72	86.331
527.06	86.316
527.41	87.467
527.75	86.260
528.09	87.176
528.43	88.251
528.78	87.459
529.12	87.484
529.46	87.654
529.80	85.054
530.15	88.845
530.49	87.475
530.83	86.731
531.17	85.695
531.51	88.098
531.86	85.928
532.20	87.474
532.54	87.066
532.88	86.311
533.22	86.156
533.57	86.566
533.91	88.381
534.25	87.044
534.59	87.171
534.93	85.903
535.27	86.104
535.62	87.038
535.96	86.171
536.30	86.346
536.64	87.870
536.98	86.481
537.32	88.336
537.66	88.008
538.01	87.483
538.35	87.725
538.69	85.619
539.03	84.484
539.37	86.272
539.71	86.026
540.05	86.830
540.39	86.981
540.73	86.262
541.07	88.536
541.42	86.156
541.76	87.405
542.10	86.579
542.44	88.117
542.78	83.895
543.12	85.989
543.46	85.605
543.80	88.341
544.14	83.979
544.48	84.744
544.82	86.535
545.16	87.295
545.50	83.912
545.84	86.615
546.18	87.660
546.52	86.301
546.86	86.413
547.20	87.482
547.54	85.371
547.88	85.394
548.22	84.681
548.56	84.960
548.90	86.119
549.24	85.399
549.58	84.908
549.92	84.989
550.26	85.934
550.60	88.773
550.94	86.931
551.28	87.635
551.62	87.462
551.96	87.444
552.30	86.477
552.64	85.543
552.98	85.584
553.32	86.234
553.66	86.720
554.00	87.518
554.34	87.888
554.68	86.431
555.02	87.574
555.36	86.911
555.69	87.033
556.03	86.438
556.37	86.619
556.71	87.798
557.05	88.814
557.39	85.948
557.73	87.781
558.07	89.216
558.41	87.902
558.75	88.542
559.08	88.810
559.42	89.127
559.76	90.552
560.10	88.532
560.44	86.746
560.78	86.224
561.12	89.210
561.45	89.459
561.79	87.885
562.13	89.496
562.47	87.914
562.81	86.527
563.15	86.671
563.48	87.765
563.82	88.813
564.16	87.813
564.50	86.622
564.84	85.341
565.17	87.324
565.51	88.593
565.85	89.506
566.19	86.936
566.52	87.668
566.86	86.761
567.20	87.671
567.54	88.321
567.88	88.284
568.21	87.670
568.55	87.011
568.89	85.883
569.23	86.423
569.56	84.545
569.90	86.277
570.24	82.136
570.57	84.727
570.91	84.489
571.25	82.703
571.59	81.377
571.92	79.852
572.26	82.307
572.60	81.333
572.93	80.954
573.27	81.724
573.61	81.683
573.95	81.349
574.28	81.197
574.62	79.939
574.96	79.706
575.29	80.061
575.63	78.570
575.97	79.019
576.30	80.067
576.64	79.762
576.98	80.798
577.31	80.216
577.65	81.009
577.98	80.051
578.32	79.520
578.66	78.380
578.99	79.949
579.33	78.441
579.67	78.955
580.00	80.051
580.34	81.119
580.67	79.327
581.01	80.500
581.35	79.953
581.68	79.256
582.02	79.226
582.35	79.331
582.69	79.529
583.02	80.132
583.36	80.341
583.70	81.490
584.03	81.874
584.37	81.508
584.70	81.126
585.04	79.534
585.37	80.639
585.71	80.400
586.04	80.560
586.38	80.288
586.72	81.234
587.05	82.120
587.39	81.717
587.72	82.805
588.06	81.290
588.39	80.974
588.73	81.502
589.06	82.485
589.40	82.060
589.73	83.498
590.07	83.308
590.40	84.094
590.73	84.267
591.07	84.606
591.40	84.595
591.74	84.796
592.07	84.926
592.41	85.071
592.74	83.871
593.08	81.628
593.41	82.702
593.75	82.401
594.08	81.291
594.41	82.205
594.75	83.168
595.08	83.466
595.42	82.702
595.75	84.566
596.09	84.128
596.42	84.456
596.75	84.458
597.09	83.508
597.42	84.463
597.75	84.425
598.09	83.386
598.42	82.671
598.76	83.398
599.09	82.652
599.42	82.797
599.76	82.769
600.09	82.051
600.42	82.032
600.76	81.686
601.09	82.405
601.42	81.355
601.76	82.811
602.09	83.086
602.42	83.909
602.76	83.956
603.09	84.385
603.42	86.622
603.76	84.274
604.09	83.070
604.42	83.291
604.76	84.112
605.09	84.963
605.42	83.521
605.75	84.326
606.09	83.355
606.42	82.611
606.75	81.775
607.09	83.341
607.42	83.341
607.75	83.348
608.08	82.390
608.42	81.864
608.75	85.012
609.08	84.753
609.41	85.431
609.75	84.728
610.08	84.673
610.41	82.802
610.74	83.910
611.07	85.891
611.41	84.587
611.74	87.260
612.07	84.582
612.40	84.190
612.73	87.119
613.07	85.377
613.40	84.628
613.73	83.940
614.06	85.587
614.39	86.012
614.72	84.258
615.06	86.760
615.39	82.915
615.72	83.584
616.05	83.128
616.38	82.963
616.71	87.768
617.05	86.473
617.38	88.686
617.71	86.604
618.04	87.302
618.37	88.525
618.70	88.119
619.03	89.236
619.36	88.205
619.69	89.765
620.03	90.212
620.36	88.054
620.69	88.294
621.02	89.908
621.35	89.710
621.68	92.092
622.01	89.500
622.34	90.583
622.67	88.801
623.00	89.433
623.33	90.091
623.66	89.454
623.99	87.670
624.32	90.494
624.65	86.917
624.99	89.691
625.32	88.779
625.65	91.438
625.98	89.363
626.31	89.609
626.64	92.201
626.97	91.885
627.30	91.419
627.63	91.941
627.96	91.285
628.29	92.229
628.62	92.920
628.95	92.485
629.28	96.069
629.61	93.918
629.94	92.571
630.26	90.909
630.59	95.525
630.92	92.513
631.25	90.462
631.58	96.145
631.91	94.846
632.24	94.725
632.57	96.023
632.90	94.187
633.23	96.118
633.56	97.607
633.89	97.164
634.22	97.407
634.55	97.205
634.88	96.424
635.20	95.256
635.53	100.133
635.86	97.009
636.19	99.224
636.52	98.342
636.85	95.409
637.18	95.346
637.51	95.975
637.83	96.452
638.16	97.954
638.49	95.777
638.82	98.421
639.15	98.100
639.48	96.974
639.81	96.513
640.13	99.423
640.46	97.959
640.79	97.791
641.12	98.080
641.45	99.700
641.77	98.370
642.10	102.212
642.43	100.965
642.76	102.970
643.09	101.454
643.41	98.058
643.74	100.000
644.07	100.164
644.40	99.662
644.73	104.378
645.05	99.664
645.38	104.938
645.71	101.596
646.04	102.873
646.36	100.177
646.69	103.417
647.02	106.616
647.35	104.851
647.67	103.656
648.00	103.731
648.33	96.416
648.66	100.169
648.98	96.482
649.31	98.843
649.64	97.017
649.96	97.407
650.29	99.659
650.62	97.436
650.94	101.111
651.27	102.048
651.60	100.360
651.92	98.601
652.25	98.757
652.58	96.167
652.90	101.715
653.23	98.487
653.56	98.477
653.88	98.110
654.21	97.898
654.54	98.132
654.86	100.340
655.19	97.807
655.52	89.783
655.84	81.493
656.17	88.708
656.49	100.000
656.82	100.000
657.15	100.000
657.47	93.621
657.80	51.534
658.13	51.310
658.45	79.391
658.78	78.727
659.10	78.086
659.43	77.794
659.75	81.006
660.08	82.207
660.41	87.743
660.73	92.127
661.06	96.360
661.38	100.196
661.71	97.331
662.03	100.644
662.36	102.198
662.68	103.982
663.01	104.585
663.33	103.248
663.66	102.093
663.98	101.628
664.31	97.441
664.63	102.765
664.96	98.043
665.28	100.883
665.61	103.247
665.93	104.348
666.26	104.338
666.58	101.119
666.91	106.118
667.23	104.009
667.56	103.555
667.88	103.118
668.21	103.103
668.53	106.856
668.86	102.830
669.18	101.415
669.50	100.726
669.83	98.837
670.15	103.030
670.48	101.914
670.80	103.456
671.13	98.881
671.45	96.804
671.77	99.785
672.10	96.040
672.42	97.566
672.75	95.382
673.07	93.560
673.39	96.881
673.72	95.266
674.04	97.500
674.37	96.822
674.69	100.857
675.01	101.111
675.34	100.676
675.66	104.167
675.98	98.891
676.31	102.982
676.63	102.375
676.95	96.818
677.28	100.000
677.60	100.241
677.92	100.000
678.25	98.906
678.57	96.970
678.89	97.899
679.22	102.013
679.54	94.779
679.86	95.229
680.18	95.340
680.51	95.265
680.83	93.042
681.15	99.000
681.48	98.361
681.80	98.760
682.12	95.766
682.44	94.351
682.77	98.675
683.09	98.398
683.41	92.955
683.73	99.309
684.06	96.903
684.38	97.849
684.70	100.218
685.02	98.548
685.34	91.700
685.67	96.060
685.99	94.394
686.31	93.451
686.63	94.991
686.96	92.205
687.28	92.323
687.60	91.635
687.92	97.980
688.24	93.145
688.56	99.345
688.89	94.643
689.21	100.667
689.53	93.968
689.85	96.047
690.17	95.312
690.49	95.981
690.82	96.845
691.14	93.571
691.46	94.626
691.78	98.198
692.10	94.409
692.42	94.156
692.74	92.094
693.06	92.793
693.39	94.118
693.71	92.986
694.03	94.226
694.35	98.131
694.67	97.475
694.99	94.778
695.31	99.217
695.63	97.000
695.95	92.424
696.27	94.819
696.59	101.667
696.91	95.238
697.23	93.059
697.56	94.307
697.88	93.333
698.20	92.938
698.52	93.882
698.84	94.498
699.16	95.750
699.48	95.990
699.80	95.285
700.12	95.418
700.44	97.759
700.76	95.640
701.08	102.121
701.40	101.506
701.72	102.778
702.04	104.950
702.36	106.689
702.68	96.396
703.00	98.788
703.32	97.067
703.64	90.678
703.96	94.783
704.28	96.012
704.60	101.587
704.91	96.530
705.23	96.346
705.55	106.714
705.87	107.220
706.19	103.704
706.51	101.031
706.83	99.357
707.15	92.523
707.47	99.160
707.79	92.188
708.11	88.750
708.43	93.750
708.74	90.956
709.06	97.183
709.38	98.777
709.70	93.195
710.02	95.860
710.34	94.737
710.66	90.705
710.98	98.344
711.29	101.639
711.61	98.983
711.93	95.114
712.25	101.375
712.57	97.436
712.89	100.000
713.20	94.464
713.52	96.167
713.84	95.222
714.16	96.907
714.48	93.871
714.80	98.397
715.11	93.617
715.43	92.790
715.75	97.333
716.07	95.681
716.39	87.248
716.70	99.262
717.02	96.183
717.34	105.263
717.66	103.540
717.97	96.957
718.29	104.184
718.61	96.457
718.93	96.899
719.24	101.521
719.56	96.787
719.88	85.567
720.20	97.727
720.51	90.421
720.83	93.822
721.15	102.521
721.46	98.790
721.78	93.281
722.10	91.822
722.42	97.095
722.73	89.796
723.05	96.327
723.37	98.729
723.68	97.297
724.00	97.436
724.32	97.778
724.63	94.091
724.95	99.127
725.27	106.452
725.58	99.576
725.90	92.857
726.22	91.120
726.53	87.119
726.85	94.007
727.16	94.717
727.48	94.332
727.80	94.332
728.11	94.068
728.43	87.059
728.74	90.726
729.06	92.400
729.38	98.120
729.69	93.227
730.01	94.231
730.32	98.507
730.64	88.693
730.96	98.491
731.27	87.333
731.59	91.864
731.90	84.713
732.22	92.744
732.53	87.708
732.85	92.908
733.16	92.593
733.48	87.770
733.80	93.116
734.11	86.780
734.43	89.003
734.74	82.727
735.06	91.205
735.37	86.405
735.69	92.593
736.00	86.760
736.32	84.899
736.63	88.732
736.95	85.324
737.26	88.612
737.58	82.550
737.89	89.377
738.21	90.602
738.52	92.593
738.83	93.886
739.15	89.956
739.46	92.126
739.78	86.447
740.09	82.680
740.41	86.594
740.72	91.732
741.04	90.283
741.35	78.298
741.66	98.104
741.98	97.959
742.29	88.614
742.61	97.906
742.92	86.256
743.23	84.722
743.55	88.235
743.86	90.909
744.18	91.388
744.49	94.681
744.80	99.457
745.12	102.674
745.43	93.659
745.74	103.125
746.06	93.171
746.37	100.524
746.68	90.521
747.00	92.553
747.31	98.010
747.62	94.175
747.94	90.909
748.25	97.525
748.56	102.732
748.88	94.241
749.19	98.404
749.50	91.133
749.82	90.094
750.13	90.826
750.44	91.353
750.75	91.045
751.07	87.226
751.38	92.337
751.69	86.275
752.01	91.473
752.32	88.048
752.63	84.585
752.94	86.638
753.26	90.795
753.57	87.783
753.88	87.168
754.19	88.750
754.51	95.041
754.82	84.615
755.13	96.667
755.44	82.661
755.75	84.375
756.07	88.327
756.38	85.283
756.69	87.739
757.00	80.333
757.31	83.007
757.63	82.317
757.94	79.167
758.25	77.534
758.56	78.457
758.87	75.921
759.18	79.439
759.50	84.000
759.81	83.278
760.12	82.903
760.43	79.091
760.74	80.864
761.05	86.154
761.36	78.125
761.67	83.030
761.99	80.952
762.30	84.364
762.61	84.585
762.92	83.710
763.23	82.432
763.54	85.514
763.85	85.593
764.16	91.701
764.47	85.081
764.78	78.388
765.10	82.155
765.41	81.073
765.72	80.317
766.03	81.579
766.34	85.036
766.65	82.470
766.96	90.404
767.27	91.489
767.58	90.230
767.89	95.745
768.20	87.500
768.51	89.011
768.82	83.251
769.13	82.488
769.44	77.253
769.75	82.192
770.06	71.983
770.37	84.135
770.68	88.325
770.99	77.376
771.30	93.627
771.61	84.163
771.92	78.017
772.23	87.685
772.54	86.559
772.85	93.210
773.16	87.079
773.47	97.386
773.78	89.542
774.09	83.832
774.39	86.000
774.70	80.255
775.01	98.621
775.32	95.000
775.63	89.256
775.94	89.313
776.25	91.339
776.56	88.333
776.87	95.192
777.18	85.470
777.48	86.207
777.79	88.696
778.10	88.571
778.41	92.793
778.72	80.159
779.03	85.714
779.34	85.106
779.65	89.041
779.95	79.452
780.26	83.448
780.57	78.049
780.88	85.039
781.19	87.069
781.50	96.899
781.80	71.598
782.11	77.987
782.42	85.385
782.73	93.525
783.04	87.407
783.34	73.611
783.65	88.889
783.96	90.164
784.27	80.000
784.57	84.553
784.88	71.094
785.19	98.000
785.50	106.000
785.81	81.897
786.11	87.069
786.42	78.641
786.73	97.273
787.04	87.755
787.34	90.179
787.65	80.952
787.96	72.566
788.26	88.182
788.57	83.761
788.88	85.156
789.19	72.222
789.49	80.870
789.80	82.653
790.11	81.818
790.41	72.727
790.72	92.391
791.03	79.545
791.33	107.500
791.64	76.250
791.95	81.395
792.25	77.660
792.56	89.888
792.87	67.123
793.17	94.203
793.48	82.667
793.79	83.750
794.09	90.000
794.40	73.585
794.70	79.612
795.01	69.106
795.32	69.231
795.62	80.952
795.93	88.235
796.23	76.415
796.54	83.333
796.85	104.412
797.15	77.465
797.46	88.889
797.76	98.485
798.07	73.256
798.37	69.737
798.68	81.818
798.99	70.370
799.29	87.143
799.60	84.058
799.90	86.667
800.21	75.410
800.51	80.000
800.82	81.356
801.12	79.710
801.43	95.082
801.73	80.952
802.04	76.000
802.34	71.642
802.65	109.615
802.95	83.929
803.26	71.154
803.56	111.765
803.87	86.957
804.17	70.667
804.48	88.889
804.78	85.185
805.09	80.435
805.39	95.556
805.70	98.148
806.00	63.158
806.30	69.014
806.61	88.571
806.91	77.778
807.22	82.895
807.52	78.667
807.83	87.273
808.13	80.556
808.43	73.529
808.74	67.164
809.04	64.407
809.35	94.231
809.65	85.938
809.95	56.757
810.26	54.545
810.56	57.534
810.86	92.857
811.17	78.000
811.47	89.796
811.77	73.684
812.08	68.182
812.38	75.472
812.69	57.500
812.99	103.030
813.29	121.053
813.59	94.286
813.90	79.545
814.20	84.615
814.50	65.385
814.81	71.698
815.11	76.596
815.41	88.136
815.72	85.714
816.02	84.314
816.32	60.417
816.62	51.220
816.93	91.892
817.23	71.429
817.53	68.750
817.84	50.000
818.14	67.308
818.44	68.421
818.74	80.435
819.04	60.000
819.35	72.973
819.65	58.824
819.95	80.556
820.25	59.524
820.56	92.500
820.86	68.966
821.16	132.500
821.46	70.213
821.76	80.000
822.07	97.674
822.37	45.946
822.67	93.750
822.97	59.524
823.27	53.571
823.57	84.000
823.88	85.185
824.18	96.429
824.48	73.529
824.78	70.968
825.08	113.043
825.38	72.727
825.69	58.333
825.99	81.579
826.29	75.000
826.59	126.667
826.89	90.476
827.19	58.696
827.49	60.000
827.79	71.429
828.09	100.000
828.39	90.909
828.70	72.973
829.00	60.714
829.30	47.619
829.60	93.333
829.90	62.500
830.20	71.053
830.50	55.556
830.80	117.391
831.10	81.818
831.40	106.061
831.70	80.645
832.00	142.857
832.30	57.143
832.60	50.000
832.90	41.379
833.20	90.000
833.50	54.545
833.80	48.148
834.10	69.231
834.40	65.625
834.70	133.333
835.00	121.053
835.30	123.077
835.60	153.333
835.90	38.710
836.20	100.000
836.50	85.714
836.80	19.231
837.10	96.429
837.40	300.000
837.70	77.273
838.00	36.364
838.30	100.000
838.60	100.000
838.90	86.364
839.19	57.143
839.49	56.667
839.79	123.077
840.09	66.667
840.39	92.857
840.69	39.286
840.99	46.154
841.29	57.895
841.59	70.000
841.88	145.455
842.18	150.000
842.48	37.500
842.78	106.667
843.08	33.333
843.38	0.000
843.68	56.522
843.97	60.000
844.27	53.333
844.57	115.000
844.87	61.111
845.17	47.619
845.47	120.000
845.76	76.190
846.06	88.235
846.36	120.000
846.66	57.143
846.96	73.333
847.25	100.000
847.55	121.429
847.85	25.000
848.15	40.909
848.44	166.667
848.74	90.000
849.04	66.667
849.34	127.273
849.63	33.333
849.93	0.000
850.23	50.000
850.53	20.000
850.82	69.231
851.12	100.000
851.42	126.667
851.71	76.923
852.01	57.143
852.31	100.000
852.61	45.455
852.90	60.000
853.20	84.211
853.50	58.333
853.79	69.565
854.09	100.000
854.39	63.158
854.68	37.500
854.98	80.645
855.28	84.615
855.57	30.000
855.87	61.111
856.17	85.185
856.46	35.714
856.76	20.000
857.05	166.667
857.35	56.000
857.65	72.222
857.94	30.769
858.24	103.448
858.53	100.000
858.83	77.778
859.13	95.455
859.42	26.087
859.72	275.000
860.01	33.333
860.31	24.000
860.60	47.619
860.90	133.333
861.20	26.667
861.49	250.000
861.79	33.333
862.08	85.000
862.38	180.000
862.67	-60.000
862.97	83.333
863.26	66.667
863.56	22.222
863.85	-200.000
864.15	55.556
864.44	40.000
864.74	100.000
865.03	-0.000
865.33	120.000
865.62	216.667
865.92	33.333
866.21	-200.000
866.51	43.750
866.80	81.818
867.10	-50.000
867.39	133.333
867.69	0.000
867.98	38.462
868.27	33.333
868.57	86.667
868.86	83.333
869.16	53.846
869.45	53.333
869.75	-300.000
870.04	0.000
870.33	100.000
870.63	100.000
870.92	266.667
871.22	40.000
871.51	-600.000
871.80	22.222
872.10	433.333
>>>>>End Processed Spectral Data<<<<<
