SpectraSuite Data File
++++++++++++++++++++++++++++++++++++
Date: Fri May 15 17:08:33 PDT 2015
User: schluterlab
Dark Spectrum Present: Yes
Reference Spectrum Present: Yes
Number of Sampled Component Spectra: 1
Spectrometers: USB2E3373
Integration Time (usec): 3000 (USB2E3373)
Spectra Averaged: 3 (USB2E3373)
Boxcar Smoothing: 0 (USB2E3373)
Correct for Electrical Dark: No (USB2E3373)
Strobe/Lamp Enabled: No (USB2E3373)
Correct for Detector Non-linearity: No (USB2E3373)
Correct for Stray Light: No (USB2E3373)
Number of Pixels in Processed Spectrum: 2048
>>>>>Begin Processed Spectral Data<<<<<
178.53	0.000
178.91	0.000
179.29	100.000
179.67	-350.000
180.04	-114.286
180.42	250.000
180.80	600.000
181.18	-233.333
181.56	50.000
181.94	300.000
182.31	-100.000
182.69	40.000
183.07	-100.000
183.45	240.000
183.83	-33.333
184.20	-27.273
184.58	44.444
184.96	-300.000
185.34	-133.333
185.72	-250.000
186.09	38.462
186.47	800.000
186.85	133.333
187.23	66.667
187.61	100.000
187.98	-33.333
188.36	133.333
188.74	200.000
189.12	0.000
189.49	100.000
189.87	0.000
190.25	100.000
190.63	300.000
191.00	0.000
191.38	36.842
191.76	200.000
192.14	50.000
192.51	100.000
192.89	33.333
193.27	-85.714
193.65	50.000
194.02	27.273
194.40	80.000
194.78	-50.000
195.15	50.000
195.53	125.000
195.91	-0.000
196.29	-50.000
196.66	46.154
197.04	42.857
197.42	44.444
197.79	-233.333
198.17	-84.615
198.55	-400.000
198.92	166.667
199.30	100.000
199.68	240.000
200.05	33.333
200.43	0.000
200.81	166.667
201.18	-33.333
201.56	600.000
201.94	450.000
202.31	-733.333
202.69	20.000
203.07	-225.000
203.44	400.000
203.82	0.000
204.19	42.857
204.57	-266.667
204.95	112.500
205.32	110.000
205.70	171.429
206.08	25.000
206.45	344.444
206.83	135.714
207.20	114.286
207.58	-700.000
207.96	-133.333
208.33	-40.000
208.71	0.000
209.08	-16.667
209.46	900.000
209.84	-120.000
210.21	0.000
210.59	-28.571
210.96	200.000
211.34	275.000
211.71	120.000
212.09	-142.857
212.46	-700.000
212.84	0.000
213.22	100.000
213.59	100.000
213.97	76.923
214.34	136.364
214.72	33.333
215.09	150.000
215.47	38.462
215.84	9.091
216.22	-66.667
216.59	12.500
216.97	100.000
217.34	200.000
217.72	20.000
218.09	162.500
218.47	-12.500
218.84	-1300.000
219.22	-11.111
219.59	80.000
219.97	-66.667
220.34	-100.000
220.72	57.143
221.09	125.000
221.47	50.000
221.84	100.000
222.22	-450.000
222.59	54.545
222.97	83.333
223.34	233.333
223.72	57.143
224.09	100.000
224.46	67.857
224.84	-66.667
225.21	50.000
225.59	46.667
225.96	550.000
226.34	100.000
226.71	-42.857
227.08	0.000
227.46	150.000
227.83	0.000
228.21	88.889
228.58	90.909
228.95	62.500
229.33	130.000
229.70	37.500
230.08	37.500
230.45	14.286
230.82	142.857
231.20	46.667
231.57	21.429
231.95	100.000
232.32	80.000
232.69	100.000
233.07	66.667
233.44	300.000
233.81	70.000
234.19	66.667
234.56	41.176
234.93	-50.000
235.31	375.000
235.68	20.000
236.05	15.385
236.43	-5.000
236.80	105.882
237.17	62.500
237.55	40.000
237.92	55.556
238.29	55.556
238.67	83.333
239.04	35.294
239.41	21.951
239.79	10.000
240.16	68.293
240.53	57.895
240.91	19.565
241.28	46.032
241.65	53.571
242.02	58.904
242.40	41.667
242.77	38.983
243.14	33.333
243.51	36.250
243.89	39.080
244.26	40.230
244.63	41.667
245.00	46.392
245.38	51.546
245.75	31.461
246.12	29.310
246.49	37.190
246.87	47.115
247.24	41.176
247.61	40.351
247.98	48.780
248.36	36.250
248.73	36.842
249.10	40.260
249.47	37.975
249.84	47.059
250.22	37.647
250.59	42.484
250.96	44.131
251.33	38.953
251.70	37.059
252.08	39.594
252.45	37.624
252.82	41.709
253.19	41.014
253.56	39.252
253.94	40.991
254.31	39.130
254.68	50.877
255.05	39.764
255.42	41.485
255.79	37.838
256.16	43.969
256.54	41.791
256.91	35.361
257.28	43.123
257.65	38.951
258.02	37.943
258.39	42.761
258.76	39.560
259.14	38.538
259.51	34.951
259.88	43.986
260.25	41.830
260.62	43.403
260.99	40.678
261.36	38.014
261.73	39.241
262.10	36.778
262.47	38.957
262.85	42.320
263.22	38.462
263.59	42.991
263.96	46.273
264.33	44.848
264.70	38.095
265.07	42.262
265.44	44.476
265.81	40.113
266.18	40.710
266.55	39.075
266.92	43.005
267.29	44.648
267.66	39.386
268.03	43.717
268.40	41.775
268.77	44.385
269.14	39.329
269.51	44.216
269.88	39.651
270.25	35.969
270.62	38.293
270.99	40.153
271.36	40.342
271.73	38.967
272.10	40.633
272.47	38.534
272.84	36.634
273.21	41.531
273.58	39.036
273.95	37.757
274.32	40.416
274.69	37.330
275.06	39.286
275.43	40.136
275.80	36.203
276.17	39.310
276.54	36.403
276.91	38.596
277.28	37.991
277.65	39.256
278.02	38.085
278.39	37.418
278.76	37.526
279.13	35.270
279.50	40.336
279.87	38.445
280.23	36.989
280.60	35.867
280.97	39.798
281.34	37.115
281.71	39.220
282.08	37.219
282.45	37.573
282.82	36.680
283.19	36.944
283.56	36.609
283.92	36.812
284.29	34.231
284.66	34.884
285.03	36.935
285.40	35.350
285.77	33.216
286.14	35.740
286.51	38.192
286.87	34.552
287.24	36.096
287.61	33.510
287.98	33.860
288.35	33.622
288.72	36.252
289.08	33.854
289.45	34.798
289.82	37.238
290.19	30.887
290.56	33.276
290.93	34.343
291.29	31.125
291.66	29.921
292.03	33.014
292.40	31.129
292.77	29.984
293.13	27.110
293.50	28.073
293.87	29.771
294.24	31.685
294.60	31.148
294.97	29.464
295.34	28.681
295.71	29.359
296.08	29.148
296.44	27.596
296.81	28.750
297.18	27.101
297.55	30.217
297.91	27.534
298.28	28.100
298.65	26.323
299.02	26.280
299.38	25.581
299.75	26.207
300.12	26.571
300.48	28.063
300.85	23.954
301.22	25.974
301.59	27.237
301.95	27.975
302.32	25.292
302.69	25.622
303.05	24.629
303.42	25.778
303.79	25.350
304.15	25.926
304.52	24.970
304.89	24.678
305.25	23.366
305.62	23.687
305.99	23.041
306.35	23.815
306.72	24.184
307.09	24.173
307.45	24.914
307.82	23.958
308.19	23.810
308.55	25.736
308.92	25.708
309.29	23.464
309.65	23.574
310.02	24.202
310.38	24.588
310.75	24.809
311.12	24.112
311.48	22.906
311.85	22.513
312.22	22.468
312.58	23.567
312.95	22.519
313.31	23.292
313.68	22.618
314.05	22.857
314.41	22.474
314.78	22.371
315.14	24.460
315.51	22.567
315.87	22.541
316.24	23.155
316.61	21.752
316.97	21.925
317.34	22.461
317.70	22.562
318.07	22.596
318.43	22.549
318.80	21.591
319.16	23.145
319.53	23.742
319.89	22.638
320.26	23.482
320.62	23.170
320.99	22.129
321.35	23.638
321.72	24.299
322.08	22.961
322.45	22.335
322.81	20.727
323.18	21.001
323.54	21.236
323.91	22.785
324.27	20.215
324.64	23.689
325.00	22.445
325.37	23.875
325.73	21.759
326.10	22.525
326.46	23.229
326.83	21.785
327.19	22.581
327.56	22.850
327.92	21.039
328.29	21.339
328.65	23.019
329.01	21.783
329.38	22.949
329.74	21.435
330.11	22.706
330.47	22.263
330.84	21.923
331.20	22.624
331.56	22.037
331.93	21.735
332.29	21.723
332.66	21.448
333.02	20.539
333.38	21.265
333.75	21.795
334.11	21.128
334.48	21.396
334.84	21.154
335.20	21.683
335.57	20.852
335.93	21.951
336.29	20.902
336.66	21.072
337.02	20.260
337.38	20.278
337.75	21.182
338.11	20.920
338.47	20.985
338.84	20.148
339.20	20.658
339.56	21.284
339.93	21.844
340.29	20.550
340.65	21.237
341.02	20.479
341.38	20.442
341.74	20.671
342.11	20.277
342.47	21.886
342.83	21.453
343.20	20.035
343.56	21.217
343.92	20.461
344.28	21.520
344.65	20.207
345.01	20.225
345.37	20.353
345.73	21.339
346.10	21.398
346.46	20.521
346.82	21.686
347.19	19.784
347.55	19.799
347.91	20.550
348.27	20.372
348.63	20.869
349.00	19.852
349.36	19.867
349.72	21.227
350.08	21.066
350.45	20.670
350.81	20.432
351.17	20.521
351.53	20.327
351.89	18.745
352.26	19.600
352.62	21.210
352.98	19.357
353.34	19.646
353.70	20.065
354.07	19.194
354.43	19.536
354.79	19.323
355.15	21.190
355.51	20.016
355.87	19.903
356.24	18.842
356.60	18.998
356.96	21.429
357.32	18.530
357.68	19.390
358.04	19.709
358.40	19.051
358.77	20.175
359.13	19.696
359.49	18.721
359.85	19.501
360.21	19.378
360.57	18.669
360.93	20.045
361.29	18.353
361.66	19.906
362.02	19.773
362.38	20.259
362.74	19.758
363.10	19.940
363.46	19.125
363.82	19.835
364.18	19.336
364.54	19.412
364.90	18.710
365.26	18.705
365.62	21.095
365.98	18.695
366.35	19.301
366.71	19.808
367.07	18.795
367.43	18.548
367.79	19.011
368.15	19.311
368.51	19.082
368.87	18.306
369.23	18.123
369.59	19.096
369.95	19.355
370.31	19.509
370.67	19.030
371.03	18.223
371.39	17.943
371.75	19.121
372.11	19.401
372.47	19.157
372.83	19.446
373.19	18.973
373.55	18.195
373.91	18.790
374.27	19.064
374.63	19.024
374.99	18.156
375.35	18.315
375.71	20.490
376.07	19.031
376.42	19.864
376.78	18.993
377.14	18.077
377.50	18.592
377.86	18.608
378.22	18.634
378.58	18.654
378.94	18.715
379.30	18.403
379.66	19.373
380.02	19.068
380.38	18.259
380.74	18.073
381.09	18.896
381.45	18.287
381.81	17.829
382.17	18.718
382.53	18.488
382.89	18.142
383.25	19.042
383.61	19.268
383.97	18.603
384.32	18.574
384.68	18.824
385.04	17.279
385.40	17.922
385.76	19.182
386.12	18.370
386.48	19.860
386.83	18.516
387.19	19.170
387.55	18.444
387.91	18.643
388.27	18.559
388.62	18.250
388.98	18.171
389.34	18.926
389.70	18.894
390.06	18.062
390.42	17.940
390.77	18.640
391.13	18.159
391.49	18.435
391.85	19.038
392.20	18.770
392.56	19.072
392.92	19.730
393.28	18.514
393.64	18.438
393.99	18.997
394.35	18.343
394.71	18.199
395.07	18.919
395.42	18.215
395.78	17.785
396.14	18.663
396.50	18.706
396.85	17.643
397.21	17.794
397.57	18.433
397.92	19.233
398.28	18.161
398.64	18.072
399.00	18.849
399.35	18.341
399.71	18.265
400.07	18.984
400.42	18.605
400.78	18.922
401.14	18.875
401.49	18.761
401.85	17.855
402.21	18.373
402.57	19.188
402.92	19.072
403.28	18.734
403.63	18.789
403.99	18.941
404.35	19.300
404.70	17.619
405.06	18.508
405.42	19.453
405.77	17.432
406.13	18.859
406.49	18.472
406.84	19.071
407.20	18.964
407.55	18.995
407.91	18.650
408.27	18.164
408.62	18.831
408.98	18.176
409.34	19.207
409.69	18.282
410.05	19.089
410.40	18.457
410.76	19.662
411.11	18.187
411.47	18.935
411.83	18.330
412.18	19.369
412.54	19.164
412.89	17.919
413.25	19.615
413.60	18.509
413.96	19.632
414.31	18.354
414.67	19.051
415.03	18.176
415.38	18.734
415.74	18.502
416.09	19.138
416.45	18.163
416.80	19.167
417.16	19.199
417.51	19.320
417.87	18.709
418.22	19.495
418.58	19.264
418.93	19.310
419.29	17.990
419.64	19.572
420.00	19.584
420.35	18.388
420.71	19.380
421.06	19.153
421.42	19.591
421.77	19.249
422.12	18.275
422.48	18.841
422.83	19.258
423.19	18.454
423.54	17.872
423.90	19.611
424.25	19.231
424.61	18.666
424.96	19.222
425.31	19.815
425.67	19.601
426.02	19.317
426.38	19.286
426.73	19.431
427.09	20.506
427.44	20.118
427.79	19.446
428.15	19.721
428.50	19.019
428.85	18.305
429.21	20.260
429.56	19.515
429.92	20.185
430.27	19.749
430.62	19.394
430.98	19.321
431.33	20.084
431.68	19.257
432.04	19.508
432.39	19.053
432.74	18.761
433.10	19.828
433.45	19.415
433.80	20.604
434.16	19.003
434.51	19.409
434.86	19.512
435.22	19.910
435.57	19.775
435.92	19.880
436.28	19.022
436.63	19.909
436.98	19.119
437.34	18.935
437.69	20.513
438.04	20.171
438.39	19.731
438.75	19.490
439.10	19.977
439.45	20.329
439.81	19.021
440.16	20.487
440.51	20.000
440.86	20.181
441.22	19.910
441.57	21.026
441.92	20.514
442.27	19.845
442.63	20.931
442.98	20.505
443.33	19.866
443.68	19.735
444.03	19.473
444.39	20.069
444.74	20.457
445.09	19.878
445.44	19.772
445.79	20.887
446.15	20.705
446.50	19.412
446.85	20.244
447.20	20.542
447.55	21.540
447.91	20.530
448.26	20.945
448.61	20.438
448.96	20.941
449.31	20.405
449.66	19.919
450.02	20.080
450.37	20.154
450.72	20.733
451.07	21.519
451.42	20.911
451.77	20.374
452.12	19.797
452.47	20.734
452.83	19.847
453.18	21.316
453.53	19.785
453.88	21.372
454.23	20.959
454.58	20.718
454.93	21.972
455.28	19.492
455.63	20.955
455.98	19.844
456.34	20.434
456.69	20.712
457.04	21.613
457.39	20.838
457.74	20.556
458.09	20.188
458.44	20.070
458.79	20.000
459.14	21.224
459.49	21.373
459.84	20.869
460.19	19.660
460.54	21.394
460.89	20.227
461.24	20.745
461.59	21.615
461.94	20.126
462.29	22.075
462.64	21.130
462.99	21.598
463.34	20.584
463.69	21.557
464.04	21.671
464.39	21.164
464.74	20.429
465.09	20.649
465.44	21.235
465.79	20.068
466.14	21.095
466.49	20.587
466.84	20.523
467.19	21.589
467.54	20.562
467.89	19.962
468.24	20.803
468.59	22.349
468.94	20.762
469.29	21.574
469.64	20.848
469.99	21.934
470.34	20.683
470.68	21.924
471.03	20.594
471.38	20.542
471.73	21.078
472.08	21.235
472.43	20.872
472.78	20.288
473.13	20.816
473.48	20.456
473.83	20.548
474.17	21.826
474.52	21.634
474.87	21.333
475.22	21.293
475.57	20.892
475.92	21.503
476.27	21.187
476.61	21.354
476.96	20.970
477.31	21.850
477.66	20.899
478.01	20.663
478.36	21.296
478.70	21.370
479.05	21.044
479.40	21.728
479.75	21.064
480.10	21.659
480.45	20.600
480.79	21.400
481.14	21.414
481.49	20.148
481.84	20.656
482.19	20.580
482.53	21.439
482.88	21.241
483.23	21.257
483.58	20.708
483.92	20.668
484.27	20.830
484.62	21.022
484.97	21.061
485.31	21.062
485.66	21.467
486.01	21.351
486.36	21.015
486.70	20.180
487.05	20.393
487.40	20.243
487.75	20.451
488.09	19.098
488.44	19.292
488.79	20.172
489.13	20.553
489.48	20.564
489.83	20.045
490.17	20.809
490.52	20.831
490.87	21.333
491.22	21.394
491.56	20.398
491.91	20.172
492.26	21.050
492.60	21.593
492.95	21.003
493.30	21.299
493.64	21.562
493.99	20.725
494.34	19.903
494.68	20.381
495.03	20.535
495.37	20.952
495.72	20.141
496.07	20.878
496.41	21.085
496.76	20.820
497.11	20.494
497.45	20.811
497.80	21.342
498.14	19.672
498.49	20.924
498.84	20.808
499.18	21.335
499.53	21.528
499.87	20.817
500.22	21.068
500.56	20.777
500.91	20.432
501.26	20.465
501.60	20.954
501.95	21.106
502.29	21.598
502.64	20.705
502.98	20.918
503.33	20.989
503.67	20.723
504.02	20.674
504.36	20.980
504.71	20.758
505.06	19.678
505.40	20.406
505.75	21.546
506.09	20.375
506.44	21.715
506.78	21.531
507.13	21.303
507.47	20.366
507.82	20.459
508.16	20.866
508.51	21.616
508.85	20.670
509.19	20.490
509.54	20.804
509.88	21.197
510.23	21.248
510.57	21.432
510.92	19.936
511.26	20.949
511.61	21.287
511.95	21.205
512.30	20.787
512.64	21.870
512.98	20.663
513.33	21.097
513.67	20.637
514.02	21.911
514.36	20.857
514.70	22.378
515.05	21.622
515.39	21.606
515.74	21.677
516.08	21.698
516.42	21.967
516.77	21.709
517.11	21.958
517.46	20.946
517.80	21.216
518.14	20.514
518.49	21.575
518.83	21.081
519.17	20.861
519.52	21.314
519.86	20.528
520.20	21.142
520.55	21.076
520.89	22.522
521.23	20.836
521.58	21.199
521.92	21.090
522.26	20.755
522.61	21.883
522.95	21.589
523.29	22.173
523.64	21.728
523.98	21.192
524.32	20.554
524.66	21.959
525.01	21.753
525.35	21.517
525.69	21.077
526.04	20.172
526.38	22.374
526.72	20.275
527.06	20.298
527.41	21.174
527.75	21.381
528.09	20.930
528.43	22.215
528.78	20.792
529.12	21.548
529.46	21.962
529.80	21.343
530.15	21.782
530.49	21.212
530.83	21.204
531.17	20.819
531.51	21.819
531.86	21.210
532.20	20.529
532.54	21.579
532.88	21.150
533.22	22.110
533.57	22.018
533.91	21.475
534.25	21.810
534.59	20.654
534.93	20.705
535.27	21.066
535.62	20.026
535.96	21.070
536.30	21.900
536.64	21.640
536.98	20.836
537.32	21.693
537.66	21.950
538.01	21.469
538.35	21.012
538.69	21.372
539.03	20.369
539.37	21.332
539.71	21.881
540.05	21.317
540.39	22.230
540.73	20.781
541.07	22.169
541.42	21.573
541.76	21.335
542.10	22.092
542.44	21.334
542.78	19.890
543.12	22.321
543.46	22.114
543.80	21.027
544.14	19.760
544.48	20.320
544.82	21.189
545.16	22.541
545.50	21.829
545.84	21.813
546.18	22.199
546.52	20.981
546.86	20.633
547.20	21.459
547.54	20.000
547.88	22.079
548.22	20.447
548.56	21.570
548.90	21.765
549.24	20.455
549.58	20.310
549.92	21.086
550.26	20.806
550.60	21.041
550.94	21.733
551.28	19.938
551.62	21.846
551.96	21.128
552.30	21.345
552.64	20.663
552.98	21.097
553.32	21.184
553.66	21.263
554.00	21.679
554.34	21.640
554.68	21.313
555.02	20.610
555.36	21.616
555.69	21.026
556.03	20.128
556.37	20.569
556.71	22.310
557.05	21.402
557.39	21.041
557.73	22.039
558.07	21.795
558.41	20.980
558.75	21.044
559.08	21.277
559.42	21.429
559.76	21.857
560.10	20.872
560.44	21.221
560.78	22.098
561.12	21.862
561.45	21.644
561.79	21.078
562.13	21.292
562.47	20.576
562.81	20.677
563.15	20.874
563.48	20.792
563.82	21.208
564.16	20.334
564.50	21.014
564.84	21.218
565.17	21.127
565.51	21.858
565.85	21.811
566.19	21.419
566.52	20.442
566.86	22.686
567.20	20.237
567.54	21.472
567.88	21.617
568.21	21.437
568.55	21.304
568.89	21.920
569.23	20.992
569.56	20.447
569.90	21.559
570.24	21.139
570.57	21.200
570.91	21.819
571.25	21.111
571.59	20.897
571.92	19.941
572.26	19.928
572.60	20.713
572.93	20.364
573.27	20.878
573.61	20.167
573.95	20.644
574.28	20.207
574.62	20.392
574.96	20.768
575.29	19.990
575.63	19.876
575.97	19.626
576.30	20.129
576.64	19.656
576.98	20.335
577.31	20.054
577.65	20.367
577.98	20.943
578.32	20.480
578.66	20.116
578.99	19.513
579.33	19.660
579.67	19.808
580.00	20.076
580.34	19.900
580.67	19.857
581.01	19.957
581.35	20.220
581.68	20.390
582.02	20.297
582.35	20.037
582.69	20.335
583.02	20.038
583.36	19.967
583.70	19.860
584.03	20.183
584.37	20.864
584.70	20.385
585.04	19.611
585.37	20.688
585.71	20.316
586.04	20.777
586.38	19.819
586.72	20.603
587.05	20.133
587.39	20.688
587.72	21.159
588.06	20.205
588.39	19.937
588.73	19.902
589.06	20.417
589.40	20.463
589.73	20.518
590.07	21.261
590.40	20.201
590.73	20.552
591.07	20.950
591.40	20.125
591.74	20.226
592.07	20.547
592.41	21.290
592.74	20.510
593.08	20.713
593.41	21.252
593.75	20.478
594.08	20.426
594.41	20.597
594.75	20.000
595.08	20.885
595.42	20.096
595.75	20.616
596.09	20.289
596.42	20.215
596.75	20.560
597.09	20.547
597.42	20.822
597.75	20.660
598.09	20.733
598.42	20.758
598.76	20.678
599.09	21.034
599.42	21.069
599.76	20.542
600.09	20.513
600.42	20.432
600.76	20.282
601.09	20.038
601.42	20.212
601.76	20.484
602.09	20.297
602.42	20.345
602.76	20.331
603.09	21.013
603.42	21.279
603.76	20.040
604.09	20.008
604.42	20.389
604.76	21.317
605.09	21.024
605.42	19.955
605.75	20.490
606.09	20.510
606.42	20.726
606.75	20.476
607.09	20.703
607.42	20.780
607.75	19.982
608.08	19.811
608.42	20.283
608.75	20.337
609.08	20.329
609.41	20.051
609.75	20.010
610.08	20.669
610.41	20.242
610.74	20.137
611.07	20.775
611.41	20.291
611.74	20.949
612.07	20.664
612.40	20.678
612.73	20.395
613.07	19.966
613.40	20.131
613.73	19.418
614.06	19.811
614.39	20.699
614.72	20.840
615.06	21.061
615.39	20.360
615.72	19.914
616.05	20.279
616.38	20.171
616.71	20.000
617.05	20.754
617.38	20.805
617.71	20.189
618.04	20.889
618.37	20.303
618.70	20.462
619.03	21.528
619.36	19.175
619.69	20.470
620.03	21.695
620.36	21.459
620.69	20.557
621.02	20.872
621.35	20.166
621.68	21.088
622.01	21.833
622.34	21.628
622.67	21.688
623.00	21.669
623.33	20.579
623.66	21.092
623.99	20.953
624.32	20.989
624.65	21.203
624.99	20.843
625.32	20.167
625.65	21.917
625.98	20.790
626.31	20.532
626.64	21.231
626.97	21.728
627.30	22.242
627.63	21.231
627.96	21.204
628.29	19.889
628.62	21.731
628.95	20.441
629.28	20.665
629.61	21.934
629.94	21.799
630.26	22.431
630.59	21.540
630.92	21.333
631.25	19.795
631.58	21.145
631.91	19.408
632.24	21.330
632.57	21.136
632.90	21.708
633.23	22.824
633.56	20.907
633.89	21.702
634.22	21.358
634.55	21.220
634.88	22.989
635.20	21.282
635.53	22.667
635.86	19.636
636.19	21.475
636.52	21.556
636.85	21.464
637.18	21.006
637.51	22.390
637.83	20.368
638.16	23.329
638.49	21.662
638.82	22.763
639.15	21.438
639.48	22.558
639.81	19.944
640.13	22.367
640.46	23.469
640.79	20.177
641.12	20.827
641.45	22.222
641.77	21.333
642.10	22.433
642.43	20.900
642.76	23.927
643.09	24.233
643.41	21.683
643.74	19.934
644.07	22.496
644.40	23.142
644.73	23.292
645.05	23.154
645.38	23.104
645.71	22.340
646.04	22.801
646.36	19.858
646.69	24.640
647.02	24.764
647.35	21.828
647.67	22.669
648.00	21.269
648.33	21.672
648.66	21.525
648.98	20.771
649.31	20.496
649.64	22.449
649.96	20.421
650.29	22.487
650.62	23.419
650.94	22.222
651.27	19.367
651.60	21.441
651.92	21.853
652.25	22.913
652.58	20.833
652.90	23.156
653.23	22.185
653.56	21.489
653.88	20.275
654.21	20.665
654.54	21.902
654.86	22.241
655.19	22.076
655.52	22.059
655.84	22.217
656.17	24.857
656.49	33.237
656.82	32.641
657.15	23.771
657.47	17.384
657.80	12.526
658.13	11.872
658.45	17.565
658.78	16.791
659.10	16.386
659.43	16.311
659.75	17.020
660.08	17.172
660.41	20.020
660.73	18.646
661.06	22.357
661.38	19.961
661.71	19.713
662.03	24.678
662.36	22.198
662.68	22.124
663.01	24.891
663.33	19.490
663.66	19.070
663.98	20.930
664.31	22.175
664.63	23.272
664.96	17.826
665.28	22.517
665.61	21.861
665.93	22.609
666.26	22.560
666.58	19.463
666.91	20.941
667.23	24.292
667.56	27.014
667.88	19.904
668.21	24.105
668.53	21.513
668.86	21.226
669.18	19.811
669.50	22.276
669.83	23.256
670.15	21.212
670.48	24.402
670.80	23.041
671.13	21.477
671.45	19.178
671.77	24.464
672.10	20.990
672.42	20.599
672.75	21.670
673.07	23.792
673.39	22.936
673.72	19.132
674.04	21.042
674.37	21.822
674.69	22.270
675.01	22.222
675.34	23.198
675.66	21.759
675.98	23.725
676.31	22.477
676.63	23.278
676.95	22.045
677.28	24.000
677.60	23.133
677.92	20.872
678.25	21.663
678.57	23.160
678.89	21.639
679.22	20.358
679.54	23.092
679.86	20.676
680.18	21.553
680.51	21.970
680.83	18.290
681.15	22.000
681.48	23.361
681.80	23.140
682.12	20.565
682.44	21.339
682.77	22.517
683.09	21.281
683.41	21.591
683.73	23.041
684.06	22.345
684.38	19.140
684.70	20.697
685.02	21.369
685.34	20.356
685.67	21.576
685.99	22.242
686.31	23.186
686.63	20.223
686.96	18.821
687.28	19.394
687.60	20.342
687.92	23.838
688.24	21.573
688.56	23.581
688.89	23.884
689.21	23.111
689.53	19.258
689.85	21.163
690.17	23.437
690.49	22.695
690.82	21.117
691.14	22.381
691.46	21.028
691.78	22.748
692.10	23.441
692.42	24.242
692.74	22.436
693.06	22.748
693.39	20.362
693.71	21.719
694.03	21.940
694.35	22.196
694.67	24.242
694.99	19.582
695.31	24.282
695.63	24.500
695.95	21.212
696.27	23.575
696.59	21.944
696.91	22.129
697.23	21.594
697.56	22.030
697.88	21.290
698.20	21.412
698.52	21.412
698.84	18.660
699.16	21.500
699.48	21.053
699.80	23.077
700.12	23.989
700.44	23.810
700.76	19.477
701.08	22.121
701.40	24.398
701.72	25.309
702.04	19.472
702.36	25.753
702.68	24.024
703.00	22.727
703.32	23.167
703.64	18.079
703.96	24.348
704.28	20.859
704.60	22.857
704.91	20.505
705.23	21.595
705.55	24.735
705.87	24.549
706.19	27.037
706.51	21.306
706.83	23.151
707.15	21.495
707.47	23.529
707.79	19.531
708.11	22.000
708.43	21.250
708.74	25.323
709.06	23.380
709.38	21.713
709.70	22.485
710.02	23.567
710.34	24.458
710.66	18.590
710.98	22.517
711.29	22.951
711.61	22.712
711.93	22.801
712.25	23.711
712.57	25.275
712.89	20.149
713.20	24.567
713.52	22.997
713.84	19.795
714.16	20.962
714.48	22.581
714.80	25.321
715.11	25.228
715.43	18.495
715.75	22.333
716.07	18.272
716.39	25.503
716.70	22.878
717.02	20.229
717.34	22.672
717.66	22.566
717.97	22.174
718.29	28.870
718.61	24.016
718.93	24.419
719.24	24.715
719.56	22.088
719.88	20.619
720.20	25.758
720.51	18.391
720.83	24.324
721.15	25.210
721.46	22.984
721.78	21.739
722.10	22.677
722.42	20.747
722.73	24.082
723.05	24.490
723.37	30.932
723.68	23.423
724.00	25.641
724.32	21.778
724.63	21.364
724.95	23.144
725.27	28.571
725.58	22.034
725.90	18.651
726.22	27.799
726.53	25.424
726.85	23.221
727.16	24.906
727.48	17.814
727.80	20.648
728.11	20.763
728.43	20.784
728.74	18.548
729.06	26.800
729.38	24.812
729.69	25.498
730.01	13.846
730.32	23.134
730.64	26.855
730.96	26.415
731.27	20.000
731.59	22.373
731.90	23.248
732.22	29.338
732.53	23.920
732.85	21.986
733.16	25.589
733.48	25.899
733.80	23.551
734.11	22.373
734.43	23.711
734.74	21.818
735.06	22.150
735.37	25.680
735.69	25.589
736.00	23.345
736.32	24.832
736.63	22.535
736.95	22.184
737.26	20.641
737.58	20.805
737.89	24.176
738.21	22.180
738.52	20.988
738.83	25.328
739.15	22.271
739.46	25.197
739.78	23.443
740.09	25.163
740.41	22.101
740.72	24.016
741.04	26.316
741.35	20.426
741.66	24.645
741.98	21.939
742.29	19.307
742.61	25.654
742.92	18.957
743.23	18.056
743.55	29.412
743.86	23.445
744.18	21.053
744.49	17.553
744.80	24.457
745.12	26.738
745.43	18.537
745.74	23.438
746.06	25.854
746.37	21.466
746.68	27.488
747.00	23.936
747.31	28.358
747.62	25.243
747.94	23.923
748.25	18.317
748.56	24.044
748.88	21.466
749.19	34.043
749.50	20.690
749.82	20.283
750.13	20.642
750.44	28.571
750.75	24.254
751.07	31.022
751.38	22.605
751.69	20.392
752.01	26.744
752.32	21.514
752.63	27.273
752.94	20.259
753.26	32.636
753.57	28.054
753.88	23.451
754.19	21.667
754.51	22.314
754.82	24.696
755.13	24.167
755.44	25.806
755.75	25.781
756.07	22.179
756.38	22.264
756.69	21.456
757.00	22.333
757.31	27.778
757.63	23.171
757.94	22.222
758.25	18.904
758.56	22.340
758.87	19.830
759.18	20.872
759.50	21.818
759.81	23.746
760.12	22.258
760.43	24.242
760.74	23.765
761.05	24.615
761.36	21.875
761.67	22.121
761.99	25.170
762.30	23.273
762.61	28.458
762.92	22.624
763.23	22.523
763.54	25.234
763.85	22.034
764.16	27.386
764.47	22.984
764.78	21.612
765.10	23.232
765.41	23.344
765.72	24.444
766.03	19.925
766.34	21.533
766.65	27.490
766.96	20.202
767.27	24.468
767.58	20.690
767.89	14.184
768.20	25.000
768.51	28.571
768.82	21.675
769.13	22.120
769.44	24.893
769.75	20.548
770.06	25.431
770.37	21.635
770.68	19.289
770.99	26.244
771.30	29.902
771.61	18.100
771.92	27.155
772.23	27.586
772.54	24.731
772.85	30.864
773.16	23.034
773.47	37.908
773.78	31.373
774.09	29.341
774.39	20.000
774.70	24.204
775.01	23.448
775.32	24.286
775.63	17.355
775.94	23.664
776.25	29.134
776.56	22.500
776.87	28.846
777.18	21.368
777.48	25.000
777.79	20.870
778.10	20.000
778.41	19.820
778.72	25.397
779.03	20.301
779.34	27.660
779.65	25.342
779.95	28.082
780.26	22.069
780.57	21.138
780.88	33.858
781.19	19.828
781.50	31.008
781.80	32.544
782.11	19.497
782.42	36.154
782.73	17.986
783.04	33.333
783.34	29.861
783.65	14.530
783.96	24.590
784.27	24.828
784.57	26.829
784.88	27.344
785.19	29.000
785.50	29.000
785.81	31.034
786.11	11.207
786.42	26.214
786.73	20.000
787.04	20.408
787.34	26.786
787.65	27.619
787.96	23.009
788.26	30.000
788.57	27.350
788.88	29.687
789.19	20.635
789.49	25.217
789.80	14.286
790.11	32.323
790.41	23.636
790.72	22.826
791.03	22.727
791.33	45.000
791.64	1.250
791.95	37.209
792.25	25.532
792.56	21.348
792.87	26.027
793.17	21.739
793.48	14.667
793.79	28.750
794.09	31.250
794.40	16.981
794.70	20.388
795.01	22.764
795.32	27.350
795.62	32.381
795.93	25.490
796.23	38.679
796.54	34.375
796.85	30.882
797.15	18.310
797.46	34.722
797.76	40.909
798.07	10.465
798.37	31.579
798.68	27.273
798.99	39.506
799.29	28.571
799.60	13.043
799.90	22.667
800.21	39.344
800.51	23.077
800.82	33.898
801.12	28.986
801.43	21.311
801.73	33.333
802.04	10.000
802.34	26.866
802.65	40.385
802.95	-1.786
803.26	23.077
803.56	43.137
803.87	-8.696
804.17	24.000
804.48	17.460
804.78	29.630
805.09	39.130
805.39	20.000
805.70	42.593
806.00	0.000
806.30	36.620
806.61	42.857
806.91	16.667
807.22	39.474
807.52	36.000
807.83	16.364
808.13	38.889
808.43	44.118
808.74	20.896
809.04	38.983
809.35	15.385
809.65	17.188
809.95	13.514
810.26	11.364
810.56	38.356
810.86	23.810
811.17	6.000
811.47	18.367
811.77	5.263
812.08	29.545
812.38	18.868
812.69	47.500
812.99	12.121
813.29	21.053
813.59	5.714
813.90	22.727
814.20	35.897
814.50	34.615
814.81	49.057
815.11	17.021
815.41	35.593
815.72	45.238
816.02	58.824
816.32	27.083
816.62	9.756
816.93	27.027
817.23	11.429
817.53	33.333
817.84	23.913
818.14	21.154
818.44	18.421
818.74	45.652
819.04	-10.000
819.35	37.838
819.65	41.176
819.95	5.556
820.25	28.571
820.56	45.000
820.86	0.000
821.16	47.500
821.46	19.149
821.76	47.500
822.07	34.884
822.37	2.703
822.67	28.125
822.97	45.238
823.27	-14.286
823.57	8.000
823.88	22.222
824.18	25.000
824.48	29.412
824.78	29.032
825.08	30.435
825.38	36.364
825.69	-20.833
825.99	28.947
826.29	44.444
826.59	20.000
826.89	52.381
827.19	41.304
827.49	32.500
827.79	25.714
828.09	78.571
828.39	66.667
828.70	54.054
829.00	57.143
829.30	-28.571
829.60	23.333
829.90	37.500
830.20	34.211
830.50	-3.704
830.80	-13.043
831.10	27.273
831.40	39.394
831.70	48.387
832.00	42.857
832.30	-9.524
832.60	8.333
832.90	27.586
833.20	30.000
833.50	33.333
833.80	40.741
834.10	11.538
834.40	65.625
834.70	-33.333
835.00	21.053
835.30	53.846
835.60	66.667
835.90	45.161
836.20	63.636
836.50	67.857
836.80	15.385
837.10	46.429
837.40	-66.667
837.70	72.727
838.00	-9.091
838.30	39.130
838.60	53.846
838.90	72.727
839.19	75.000
839.49	40.000
839.79	69.231
840.09	8.333
840.39	50.000
840.69	10.714
840.99	15.385
841.29	-36.842
841.59	-100.000
841.88	72.727
842.18	20.000
842.48	-6.250
842.78	46.667
843.08	25.926
843.38	-40.000
843.68	43.478
843.97	100.000
844.27	-20.000
844.57	30.000
844.87	-11.111
845.17	19.048
845.47	126.667
845.76	0.000
846.06	11.765
846.36	30.000
846.66	-7.143
846.96	86.667
847.25	25.000
847.55	78.571
847.85	25.000
848.15	40.909
848.44	-266.667
848.74	60.000
849.04	70.370
849.34	27.273
849.63	-50.000
849.93	-20.000
850.23	44.444
850.53	140.000
850.82	-38.462
851.12	77.778
851.42	73.333
851.71	19.231
852.01	92.857
852.31	100.000
852.61	81.818
852.90	10.000
853.20	15.789
853.50	83.333
853.79	17.391
854.09	62.500
854.39	63.158
854.68	45.833
854.98	48.387
855.28	123.077
855.57	0.000
855.87	44.444
856.17	70.370
856.46	28.571
856.76	33.333
857.05	166.667
857.35	44.000
857.65	44.444
857.94	30.769
858.24	79.310
858.53	27.778
858.83	25.926
859.13	72.727
859.42	34.783
859.72	75.000
860.01	-100.000
860.31	12.000
860.60	14.286
860.90	-33.333
861.20	-6.667
861.49	-300.000
861.79	33.333
862.08	30.000
862.38	120.000
862.67	-80.000
862.97	66.667
863.26	108.333
863.56	83.333
863.85	-66.667
864.15	77.778
864.44	20.000
864.74	78.571
865.03	125.000
865.33	80.000
865.62	83.333
865.92	58.333
866.21	0.000
866.51	100.000
866.80	109.091
867.10	-50.000
867.39	108.333
867.69	0.000
867.98	69.231
868.27	133.333
868.57	53.333
868.86	66.667
869.16	-61.538
869.45	93.333
869.75	-500.000
870.04	0.000
870.33	0.000
870.63	71.429
870.92	66.667
871.22	-20.000
871.51	500.000
871.80	44.444
872.10	266.667
>>>>>End Processed Spectral Data<<<<<
