SpectraSuite Data File
++++++++++++++++++++++++++++++++++++
Date: Fri May 15 20:09:00 PDT 2015
User: schluterlab
Dark Spectrum Present: Yes
Reference Spectrum Present: Yes
Number of Sampled Component Spectra: 1
Spectrometers: USB2E3373
Integration Time (usec): 3000 (USB2E3373)
Spectra Averaged: 3 (USB2E3373)
Boxcar Smoothing: 0 (USB2E3373)
Correct for Electrical Dark: No (USB2E3373)
Strobe/Lamp Enabled: No (USB2E3373)
Correct for Detector Non-linearity: No (USB2E3373)
Correct for Stray Light: No (USB2E3373)
Number of Pixels in Processed Spectrum: 2048
>>>>>Begin Processed Spectral Data<<<<<
178.53	0.000
178.91	0.000
179.29	-12.500
179.67	-250.000
180.04	85.714
180.42	100.000
180.80	-800.000
181.18	66.667
181.56	100.000
181.94	300.000
182.31	-100.000
182.69	-100.000
183.07	-33.333
183.45	100.000
183.83	83.333
184.20	9.091
184.58	-11.111
184.96	-25.000
185.34	-200.000
185.72	-700.000
186.09	100.000
186.47	0.000
186.85	-16.667
187.23	11.111
187.61	600.000
187.98	-133.333
188.36	33.333
188.74	266.667
189.12	64.706
189.49	22.222
189.87	0.000
190.25	50.000
190.63	-50.000
191.00	-300.000
191.38	21.053
191.76	150.000
192.14	-225.000
192.51	300.000
192.89	22.222
193.27	-42.857
193.65	100.000
194.02	36.364
194.40	50.000
194.78	0.000
195.15	16.667
195.53	-50.000
195.91	-0.000
196.29	-175.000
196.66	161.538
197.04	142.857
197.42	11.111
197.79	-366.667
198.17	-76.923
198.55	800.000
198.92	-66.667
199.30	200.000
199.68	20.000
200.05	-66.667
200.43	0.000
200.81	166.667
201.18	0.000
201.56	1000.000
201.94	450.000
202.31	-266.667
202.69	-240.000
203.07	200.000
203.44	400.000
203.82	0.000
204.19	64.286
204.57	-200.000
204.95	50.000
205.32	10.000
205.70	-85.714
206.08	-50.000
206.45	277.778
206.83	50.000
207.20	-185.714
207.58	100.000
207.96	-166.667
208.33	-70.000
208.71	-25.000
209.08	-33.333
209.46	-500.000
209.84	80.000
210.21	-500.000
210.59	28.571
210.96	0.000
211.34	-50.000
211.71	46.667
212.09	-71.429
212.46	-1400.000
212.84	0.000
213.22	30.000
213.59	350.000
213.97	23.077
214.34	18.182
214.72	0.000
215.09	375.000
215.47	15.385
215.84	18.182
216.22	-333.333
216.59	0.000
216.97	150.000
217.34	-50.000
217.72	40.000
218.09	12.500
218.47	-25.000
218.84	500.000
219.22	-111.111
219.59	100.000
219.97	100.000
220.34	300.000
220.72	-14.286
221.09	-325.000
221.47	150.000
221.84	-600.000
222.22	100.000
222.59	9.091
222.97	-8.333
223.34	-233.333
223.72	107.143
224.09	52.381
224.46	35.714
224.84	633.333
225.21	20.000
225.59	6.667
225.96	-100.000
226.34	75.000
226.71	-42.857
227.08	33.333
227.46	100.000
227.83	-300.000
228.21	11.111
228.58	36.364
228.95	-25.000
229.33	-10.000
229.70	18.750
230.08	-162.500
230.45	42.857
230.82	114.286
231.20	26.667
231.57	78.571
231.95	100.000
232.32	-150.000
232.69	35.714
233.07	66.667
233.44	-240.000
233.81	-50.000
234.19	22.222
234.56	-5.882
234.93	200.000
235.31	300.000
235.68	-80.000
236.05	-46.154
236.43	-40.000
236.80	-5.882
237.17	31.250
237.55	20.000
237.92	37.037
238.29	-5.556
238.67	26.667
239.04	0.000
239.41	-7.317
239.79	-3.333
240.16	21.951
240.53	2.632
240.91	-21.739
241.28	-7.937
241.65	17.857
242.02	43.836
242.40	30.000
242.77	13.559
243.14	1.515
243.51	12.500
243.89	13.793
244.26	6.897
244.63	4.762
245.00	14.433
245.38	9.278
245.75	0.000
246.12	13.793
246.49	12.397
246.87	8.654
247.24	0.000
247.61	-4.386
247.98	9.756
248.36	8.125
248.73	9.868
249.10	7.792
249.47	6.329
249.84	1.307
250.22	8.824
250.59	5.882
250.96	14.085
251.33	10.465
251.70	12.353
252.08	5.076
252.45	9.406
252.82	8.543
253.19	11.521
253.56	4.673
253.94	9.009
254.31	10.435
254.68	10.965
255.05	9.449
255.42	12.664
255.79	6.950
256.16	10.506
256.54	11.940
256.91	9.506
257.28	6.320
257.65	7.491
258.02	7.801
258.39	11.111
258.76	10.256
259.14	13.953
259.51	10.356
259.88	9.278
260.25	13.399
260.62	9.722
260.99	5.424
261.36	8.904
261.73	10.759
262.10	10.638
262.47	7.362
262.85	9.718
263.22	8.000
263.59	11.838
263.96	12.112
264.33	7.879
264.70	8.631
265.07	6.548
265.44	9.632
265.81	10.734
266.18	8.197
266.55	11.568
266.92	13.472
267.29	8.877
267.66	12.276
268.03	12.042
268.40	11.227
268.77	10.963
269.14	12.230
269.51	10.283
269.88	8.978
270.25	8.673
270.62	9.756
270.99	9.463
271.36	9.780
271.73	11.737
272.10	10.219
272.47	13.239
272.84	10.644
273.21	12.993
273.58	8.434
273.95	10.069
274.32	8.314
274.69	9.276
275.06	10.268
275.43	7.710
275.80	11.700
276.17	8.736
276.54	9.422
276.91	10.526
277.28	8.297
277.65	12.810
278.02	8.085
278.39	9.190
278.76	9.015
279.13	6.432
279.50	12.395
279.87	11.447
280.23	7.527
280.60	9.747
280.97	10.101
281.34	8.462
281.71	11.088
282.08	8.180
282.45	7.436
282.82	6.178
283.19	8.704
283.56	9.634
283.92	8.918
284.29	6.346
284.66	7.752
285.03	9.627
285.40	8.507
285.77	8.436
286.14	9.928
286.51	10.701
286.87	9.141
287.24	9.576
287.61	7.760
287.98	10.175
288.35	8.492
288.72	9.457
289.08	8.333
289.45	9.842
289.82	8.916
290.19	7.167
290.56	7.204
290.93	7.071
291.29	7.550
291.66	10.866
292.03	7.815
292.40	7.581
292.77	9.410
293.13	5.357
293.50	7.132
293.87	7.328
294.24	9.119
294.60	7.601
294.97	5.655
295.34	5.828
295.71	7.303
296.08	8.221
296.44	5.548
296.81	7.361
297.18	7.246
297.55	7.995
297.91	6.712
298.28	7.652
298.65	7.734
299.02	7.008
299.38	6.430
299.75	7.034
300.12	6.414
300.48	6.192
300.85	7.351
301.22	5.974
301.59	5.395
301.95	7.595
302.32	6.615
302.69	6.592
303.05	6.064
303.42	6.600
303.79	5.374
304.15	7.049
304.52	5.826
304.89	6.667
305.25	6.538
305.62	5.484
305.99	6.316
306.35	4.624
306.72	5.399
307.09	6.271
307.45	7.922
307.82	5.671
308.19	7.317
308.55	7.415
308.92	7.407
309.29	5.587
309.65	5.382
310.02	5.941
310.38	6.476
310.75	7.322
311.12	7.212
311.48	6.045
311.85	6.178
312.22	5.063
312.58	5.308
312.95	5.336
313.31	6.315
313.68	6.283
314.05	6.020
314.41	7.216
314.78	5.773
315.14	7.503
315.51	7.039
315.87	7.582
316.24	7.685
316.61	6.791
316.97	8.135
317.34	8.594
317.70	7.839
318.07	7.404
318.43	8.824
318.80	8.333
319.16	8.301
319.53	8.832
319.89	6.988
320.26	7.794
320.62	9.428
320.99	8.142
321.35	7.811
321.72	8.619
322.08	8.258
322.45	9.340
322.81	8.939
323.18	7.655
323.54	7.529
323.91	9.932
324.27	8.496
324.64	10.393
325.00	10.036
325.37	10.376
325.73	8.250
326.10	8.629
326.46	10.852
326.83	10.674
327.19	10.288
327.56	11.555
327.92	10.827
328.29	10.179
328.65	10.660
329.01	10.937
329.38	11.336
329.74	10.198
330.11	11.399
330.47	11.132
330.84	11.442
331.20	12.167
331.56	11.759
331.93	12.055
332.29	11.641
332.66	12.036
333.02	12.918
333.38	12.374
333.75	12.363
334.11	11.370
334.48	11.514
334.84	11.905
335.20	12.168
335.57	12.149
335.93	12.556
336.29	12.431
336.66	11.717
337.02	11.245
337.38	11.389
337.75	11.909
338.11	12.714
338.47	12.135
338.84	12.847
339.20	13.163
339.56	12.752
339.93	13.518
340.29	11.927
340.65	13.172
341.02	11.879
341.38	13.009
341.74	12.544
342.11	11.612
342.47	12.633
342.83	13.235
343.20	11.847
343.56	12.870
343.92	13.109
344.28	13.237
344.65	11.917
345.01	12.100
345.37	12.363
345.73	13.640
346.10	12.942
346.46	13.373
346.82	11.866
347.19	10.806
347.55	12.782
347.91	13.026
348.27	12.288
348.63	13.203
349.00	12.223
349.36	13.217
349.72	12.521
350.08	12.787
350.45	13.727
350.81	10.880
351.17	12.622
351.53	12.490
351.89	12.717
352.26	12.640
352.62	13.387
352.98	12.048
353.34	12.158
353.70	12.621
354.07	13.226
354.43	12.730
354.79	13.625
355.15	12.222
355.51	13.370
355.87	12.945
356.24	12.643
356.60	13.096
356.96	13.492
357.32	12.380
357.68	12.510
358.04	12.843
358.40	12.540
358.77	13.317
359.13	12.570
359.49	12.173
359.85	12.793
360.21	12.839
360.57	12.854
360.93	12.254
361.29	11.480
361.66	13.245
362.02	13.258
362.38	12.795
362.74	12.793
363.10	14.146
363.46	13.195
363.82	13.599
364.18	13.432
364.54	12.574
364.90	12.975
365.26	13.028
365.62	13.796
365.98	13.930
366.35	13.183
366.71	13.378
367.07	13.353
367.43	12.797
367.79	13.004
368.15	13.352
368.51	12.673
368.87	12.491
369.23	12.491
369.59	12.682
369.95	13.636
370.31	14.017
370.67	13.433
371.03	12.995
371.39	13.129
371.75	13.846
372.11	14.337
372.47	13.757
372.83	13.698
373.19	14.194
373.55	13.285
373.91	13.535
374.27	14.174
374.63	15.004
374.99	13.759
375.35	14.276
375.71	14.406
376.07	14.466
376.42	13.673
376.78	14.161
377.14	13.879
377.50	15.471
377.86	14.190
378.22	14.295
378.58	13.077
378.94	14.178
379.30	15.721
379.66	14.420
380.02	14.470
380.38	14.851
380.74	14.363
381.09	15.644
381.45	14.924
381.81	14.991
382.17	14.404
382.53	15.365
382.89	14.187
383.25	15.930
383.61	15.427
383.97	14.984
384.32	15.009
384.68	15.542
385.04	15.257
385.40	14.935
385.76	16.038
386.12	15.201
386.48	16.347
386.83	15.599
387.19	16.484
387.55	15.684
387.91	15.770
388.27	15.018
388.62	15.922
388.98	15.040
389.34	16.177
389.70	16.221
390.06	15.607
390.42	15.026
390.77	15.566
391.13	15.700
391.49	16.429
391.85	15.984
392.20	16.070
392.56	16.402
392.92	16.207
393.28	15.625
393.64	16.156
393.99	16.426
394.35	14.991
394.71	16.986
395.07	15.148
395.42	16.151
395.78	15.896
396.14	16.583
396.50	16.931
396.85	16.420
397.21	17.168
397.57	15.987
397.92	16.597
398.28	17.011
398.64	16.145
399.00	16.874
399.35	16.648
399.71	16.485
400.07	17.050
400.42	16.463
400.78	16.534
401.14	17.241
401.49	16.498
401.85	16.271
402.21	16.024
402.57	17.063
402.92	16.123
403.28	16.604
403.63	16.330
403.99	16.071
404.35	16.927
404.70	16.726
405.06	16.275
405.42	17.216
405.77	17.199
406.13	15.425
406.49	17.111
406.84	17.176
407.20	17.640
407.55	16.291
407.91	16.310
408.27	16.571
408.62	17.169
408.98	16.451
409.34	17.100
409.69	16.667
410.05	17.241
410.40	16.667
410.76	17.431
411.11	17.062
411.47	16.897
411.83	15.443
412.18	17.181
412.54	16.542
412.89	16.195
413.25	17.088
413.60	17.267
413.96	16.319
414.31	17.012
414.67	16.870
415.03	17.244
415.38	16.775
415.74	17.915
416.09	17.701
416.45	17.286
416.80	16.854
417.16	17.403
417.51	18.055
417.87	17.014
418.22	17.293
418.58	16.856
418.93	17.680
419.29	16.901
419.64	17.174
420.00	17.569
420.35	17.075
420.71	17.618
421.06	17.680
421.42	17.127
421.77	17.399
422.12	16.969
422.48	17.109
422.83	16.995
423.19	17.325
423.54	17.225
423.90	17.314
424.25	17.681
424.61	17.870
424.96	17.828
425.31	18.891
425.67	17.547
426.02	18.728
426.38	18.222
426.73	17.857
427.09	18.734
427.44	18.529
427.79	17.737
428.15	18.993
428.50	17.202
428.85	18.305
429.21	18.053
429.56	18.814
429.92	18.901
430.27	18.195
430.62	17.878
430.98	17.941
431.33	18.349
431.68	17.949
432.04	18.111
432.39	18.711
432.74	18.461
433.10	19.483
433.45	18.698
433.80	19.269
434.16	17.895
434.51	18.118
434.86	19.744
435.22	19.069
435.57	19.089
435.92	19.281
436.28	18.962
436.63	19.624
436.98	19.003
437.34	19.056
437.69	19.797
438.04	18.689
438.39	18.387
438.75	19.186
439.10	19.015
439.45	19.111
439.81	18.777
440.16	19.181
440.51	19.343
440.86	19.819
441.22	19.910
441.57	19.536
441.92	19.412
442.27	20.122
442.63	20.021
442.98	19.931
443.33	19.922
443.68	19.257
444.03	19.921
444.39	20.413
444.74	19.955
445.09	20.490
445.44	20.399
445.79	21.145
446.15	20.815
446.50	19.911
446.85	20.191
447.20	20.229
447.55	20.871
447.91	19.233
448.26	20.888
448.61	21.071
448.96	20.769
449.31	20.405
449.66	20.499
450.02	19.852
450.37	20.391
450.72	20.389
451.07	21.266
451.42	20.787
451.77	20.735
452.12	19.976
452.47	19.961
452.83	20.259
453.18	20.367
453.53	20.228
453.88	20.583
454.23	20.590
454.58	21.033
454.93	21.263
455.28	20.444
455.63	20.893
455.98	20.806
456.34	21.520
456.69	20.457
457.04	22.054
457.39	21.264
457.74	20.617
458.09	20.895
458.44	20.655
458.79	20.784
459.14	21.453
459.49	21.552
459.84	21.376
460.19	21.602
460.54	21.271
460.89	21.023
461.24	20.621
461.59	20.784
461.94	21.384
462.29	21.773
462.64	21.993
462.99	22.139
463.34	21.419
463.69	20.785
464.04	21.186
464.39	20.922
464.74	21.779
465.09	22.583
465.44	21.812
465.79	20.862
466.14	22.121
466.49	21.449
466.84	22.189
467.19	23.154
467.54	21.137
467.89	22.363
468.24	21.837
468.59	21.841
468.94	22.222
469.29	22.426
469.64	23.103
469.99	23.406
470.34	22.730
470.68	23.788
471.03	21.798
471.38	22.183
471.73	22.759
472.08	22.592
472.43	22.550
472.78	21.453
473.13	22.313
473.48	22.150
473.83	22.478
474.17	22.215
474.52	22.910
474.87	22.727
475.22	22.514
475.57	22.586
475.92	22.655
476.27	23.458
476.61	23.669
476.96	21.863
477.31	22.661
477.66	22.416
478.01	23.582
478.36	22.658
478.70	23.328
479.05	23.516
479.40	22.523
479.75	22.523
480.10	22.837
480.45	22.450
480.79	23.414
481.14	23.258
481.49	22.906
481.84	22.732
482.19	22.919
482.53	22.542
482.88	22.959
483.23	23.129
483.58	22.830
483.92	22.943
484.27	22.607
484.62	22.411
484.97	22.347
485.31	22.182
485.66	21.762
486.01	21.666
486.36	21.332
486.70	21.802
487.05	21.867
487.40	21.794
487.75	22.507
488.09	21.755
488.44	22.490
488.79	22.787
489.13	23.077
489.48	23.172
489.83	23.184
490.17	23.146
490.52	23.095
490.87	23.184
491.22	23.782
491.56	23.719
491.91	23.231
492.26	24.259
492.60	24.040
492.95	24.152
493.30	23.400
493.64	23.870
493.99	24.251
494.34	23.495
494.68	24.429
495.03	23.066
495.37	24.190
495.72	24.533
496.07	23.171
496.41	23.491
496.76	23.445
497.11	23.242
497.45	23.962
497.80	23.814
498.14	23.746
498.49	24.378
498.84	24.651
499.18	24.046
499.53	23.760
499.87	23.638
500.22	23.244
500.56	24.660
500.91	24.649
501.26	23.579
501.60	24.348
501.95	24.794
502.29	23.729
502.64	24.373
502.98	24.124
503.33	23.583
503.67	23.422
504.02	24.438
504.36	25.581
504.71	24.747
505.06	24.459
505.40	24.467
505.75	24.794
506.09	23.619
506.44	24.846
506.78	25.255
507.13	24.095
507.47	23.655
507.82	23.611
508.16	24.617
508.51	24.816
508.85	24.647
509.19	24.747
509.54	24.826
509.88	25.189
510.23	25.928
510.57	24.800
510.92	24.147
511.26	24.441
511.61	25.743
511.95	24.658
512.30	24.834
512.64	25.209
512.98	24.930
513.33	25.741
513.67	25.355
514.02	26.545
514.36	25.943
514.70	26.515
515.05	26.439
515.39	25.089
515.74	26.707
516.08	26.479
516.42	26.325
516.77	25.395
517.11	25.935
517.46	26.032
517.80	25.983
518.14	25.964
518.49	25.361
518.83	26.002
519.17	25.955
519.52	26.110
519.86	25.210
520.20	26.124
520.55	25.829
520.89	26.788
521.23	26.409
521.58	26.625
521.92	26.346
522.26	26.350
522.61	26.429
522.95	27.020
523.29	26.302
523.64	27.510
523.98	27.414
524.32	26.869
524.66	26.761
525.01	26.104
525.35	26.766
525.69	26.465
526.04	25.794
526.38	26.783
526.72	26.357
527.06	26.135
527.41	26.913
527.75	27.212
528.09	25.449
528.43	27.076
528.78	26.733
529.12	26.258
529.46	25.926
529.80	26.599
530.15	25.941
530.49	26.869
530.83	26.813
531.17	26.528
531.51	26.744
531.86	26.377
532.20	26.722
532.54	26.617
532.88	27.105
533.22	26.277
533.57	26.933
533.91	26.110
534.25	26.693
534.59	26.876
534.93	25.928
535.27	25.825
535.62	26.053
535.96	25.962
536.30	27.309
536.64	26.878
536.98	26.899
537.32	26.600
537.66	26.718
538.01	26.923
538.35	26.491
538.69	27.031
539.03	24.949
539.37	26.649
539.71	26.585
540.05	26.205
540.39	26.731
540.73	26.360
541.07	27.693
541.42	27.487
541.76	26.910
542.10	26.979
542.44	27.658
542.78	25.602
543.12	25.962
543.46	26.356
543.80	27.342
544.14	26.435
544.48	26.582
544.82	26.726
545.16	26.298
545.50	26.702
545.84	27.337
546.18	27.730
546.52	26.965
546.86	27.175
547.20	27.110
547.54	25.654
547.88	26.427
548.22	25.641
548.56	26.121
548.90	26.954
549.24	26.240
549.58	27.433
549.92	26.019
550.26	27.253
550.60	27.732
550.94	27.782
551.28	28.130
551.62	27.462
551.96	27.293
552.30	27.339
552.64	25.882
552.98	26.020
553.32	27.318
553.66	26.343
554.00	27.956
554.34	26.883
554.68	26.917
555.02	27.232
555.36	27.225
555.69	26.667
556.03	27.552
556.37	26.904
556.71	27.076
557.05	27.591
557.39	25.799
557.73	27.811
558.07	28.808
558.41	25.574
558.75	27.670
559.08	25.926
559.42	27.619
559.76	27.782
560.10	26.835
560.44	26.806
560.78	27.133
561.12	27.715
561.45	26.774
561.79	26.751
562.13	27.182
562.47	27.194
562.81	26.585
563.15	26.375
563.48	26.945
563.82	27.042
564.16	26.393
564.50	26.959
564.84	27.443
565.17	26.425
565.51	27.732
565.85	27.366
566.19	27.454
566.52	27.480
566.86	27.185
567.20	25.965
567.54	26.703
567.88	26.362
568.21	26.471
568.55	26.087
568.89	25.616
569.23	25.373
569.56	25.000
569.90	24.970
570.24	23.893
570.57	24.691
570.91	24.538
571.25	23.117
571.59	23.264
571.92	23.526
572.26	23.641
572.60	23.566
572.93	23.533
573.27	22.947
573.61	22.912
573.95	23.157
574.28	22.775
574.62	22.578
574.96	23.037
575.29	22.413
575.63	22.571
575.97	22.310
576.30	22.322
576.64	22.623
576.98	23.320
577.31	22.954
577.65	22.615
577.98	22.760
578.32	22.607
578.66	22.179
578.99	22.695
579.33	22.383
579.67	22.584
580.00	22.759
580.34	22.811
580.67	22.774
581.01	23.391
581.35	22.416
581.68	22.456
582.02	22.353
582.35	21.894
582.69	22.458
583.02	22.068
583.36	22.758
583.70	23.209
584.03	23.825
584.37	23.885
584.70	23.297
585.04	22.280
585.37	22.899
585.71	22.809
586.04	22.365
586.38	23.313
586.72	22.956
587.05	23.715
587.39	22.840
587.72	23.893
588.06	23.249
588.39	23.526
588.73	23.871
589.06	23.973
589.40	24.196
589.73	24.242
590.07	24.773
590.40	24.110
590.73	24.959
591.07	24.809
591.40	24.176
591.74	24.570
592.07	24.768
592.41	24.470
592.74	23.536
593.08	22.948
593.41	23.196
593.75	23.487
594.08	22.760
594.41	23.654
594.75	23.817
595.08	23.647
595.42	23.739
595.75	23.094
596.09	24.003
596.42	24.142
596.75	24.734
597.09	24.647
597.42	23.848
597.75	24.737
598.09	24.581
598.42	23.782
598.76	23.638
599.09	24.279
599.42	23.456
599.76	23.401
600.09	23.379
600.42	23.124
600.76	23.551
601.09	23.435
601.42	24.207
601.76	23.422
602.09	23.680
602.42	25.105
602.76	23.175
603.09	24.460
603.42	24.791
603.76	23.185
604.09	23.491
604.42	23.858
604.76	24.299
605.09	24.543
605.42	24.470
605.75	23.730
606.09	24.416
606.42	23.061
606.75	24.286
607.09	24.396
607.42	24.369
607.75	23.490
608.08	23.765
608.42	24.029
608.75	25.108
609.08	24.863
609.41	24.670
609.75	24.345
610.08	24.863
610.41	23.865
610.74	23.842
611.07	24.703
611.41	24.702
611.74	24.627
612.07	24.625
612.40	24.179
612.73	25.311
613.07	24.522
613.40	25.109
613.73	24.846
614.06	25.097
614.39	25.550
614.72	24.370
615.06	24.860
615.39	24.236
615.72	23.735
616.05	24.972
616.38	24.330
616.71	25.994
617.05	26.065
617.38	25.644
617.71	24.780
618.04	24.190
618.37	26.230
618.70	26.007
619.03	27.014
619.36	25.470
619.69	26.308
620.03	26.954
620.36	26.252
620.69	25.125
621.02	26.988
621.35	27.220
621.68	26.786
622.01	27.167
622.34	26.975
622.67	26.814
623.00	26.417
623.33	26.982
623.66	26.028
623.99	25.794
624.32	26.008
624.65	26.316
624.99	26.411
625.32	26.611
625.65	27.730
625.98	26.833
626.31	26.101
626.64	27.730
626.97	27.051
627.30	28.021
627.63	27.470
627.96	28.661
628.29	27.567
628.62	29.794
628.95	28.958
629.28	29.738
629.61	27.218
629.94	29.619
630.26	28.557
630.59	28.304
630.92	29.128
631.25	28.308
631.58	28.414
631.91	28.509
632.24	29.014
632.57	31.250
632.90	28.944
633.23	31.176
633.56	31.108
633.89	30.456
634.22	31.605
634.55	30.368
634.88	30.524
635.20	29.744
635.53	28.667
635.86	29.779
636.19	29.884
636.52	29.209
636.85	28.660
637.18	30.063
637.51	31.321
637.83	31.406
638.16	31.787
638.49	28.202
638.82	31.316
639.15	30.665
639.48	30.812
639.81	30.962
640.13	31.457
640.46	30.758
640.79	31.517
641.12	29.985
641.45	30.931
641.77	31.704
642.10	33.333
642.43	31.994
642.76	31.023
643.09	33.279
643.41	32.201
643.74	31.631
644.07	33.498
644.40	34.291
644.73	32.224
645.05	32.383
645.38	33.157
645.71	34.397
646.04	32.496
646.36	32.447
646.69	32.734
647.02	34.783
647.35	34.142
647.67	31.810
648.00	33.209
648.33	33.618
648.66	31.525
648.98	29.146
649.31	29.421
649.64	31.240
649.96	31.118
650.29	31.346
650.62	33.162
650.94	31.852
651.27	30.726
651.60	32.072
651.92	32.517
652.25	29.307
652.58	31.667
652.90	33.962
653.23	29.412
653.56	29.780
653.88	29.553
654.21	30.298
654.54	31.070
654.86	32.767
655.19	27.778
655.52	25.310
655.84	21.293
656.17	23.265
656.49	31.497
656.82	32.572
657.15	24.981
657.47	18.687
657.80	13.863
658.13	14.026
658.45	21.305
658.78	22.039
659.10	21.745
659.43	22.278
659.75	24.075
660.08	24.621
660.41	29.213
660.73	29.696
661.06	32.062
661.38	31.311
661.71	32.033
662.03	34.549
662.36	34.945
662.68	30.531
663.01	36.026
663.33	32.715
663.66	30.000
663.98	31.163
664.31	34.328
664.63	31.797
664.96	32.174
665.28	32.230
665.61	29.221
665.93	32.609
666.26	34.490
666.58	30.201
666.91	32.706
667.23	38.915
667.56	33.412
667.88	33.573
668.21	33.174
668.53	35.934
668.86	34.198
669.18	31.604
669.50	33.172
669.83	31.395
670.15	30.769
670.48	32.536
670.80	32.488
671.13	33.333
671.45	31.279
671.77	32.403
672.10	33.663
672.42	30.150
672.75	30.373
673.07	31.306
673.39	30.092
673.72	28.600
674.04	31.042
674.37	30.508
674.69	31.692
675.01	32.444
675.34	31.982
675.66	33.565
675.98	30.599
676.31	33.486
676.63	29.691
676.95	29.091
677.28	34.588
677.60	33.735
677.92	29.817
678.25	32.823
678.57	28.788
678.89	31.723
679.22	33.557
679.54	30.321
679.86	29.026
680.18	30.485
680.51	28.220
680.83	29.821
681.15	30.200
681.48	32.377
681.80	32.645
682.12	30.040
682.44	30.544
682.77	30.243
683.09	29.977
683.41	32.955
683.73	33.410
684.06	31.637
684.38	31.398
684.70	29.194
685.02	30.290
685.34	32.806
685.67	27.580
685.99	29.295
686.31	30.088
686.63	30.241
686.96	29.658
687.28	26.061
687.60	28.327
687.92	31.919
688.24	30.040
688.56	34.716
688.89	34.152
689.21	33.111
689.53	28.538
689.85	32.093
690.17	29.018
690.49	31.678
690.82	29.369
691.14	26.190
691.46	32.944
691.78	30.856
692.10	31.183
692.42	31.602
692.74	29.701
693.06	31.757
693.39	27.602
693.71	28.054
694.03	31.640
694.35	29.673
694.67	30.051
694.99	30.026
695.31	35.248
695.63	33.250
695.95	29.545
696.27	29.793
696.59	30.556
696.91	30.812
697.23	29.306
697.56	28.465
697.88	29.892
698.20	28.929
698.52	28.471
698.84	28.708
699.16	27.250
699.48	32.832
699.80	27.047
700.12	33.962
700.44	29.692
700.76	28.488
701.08	29.394
701.40	30.120
701.72	37.037
702.04	33.993
702.36	32.441
702.68	31.532
703.00	30.303
703.32	26.686
703.64	31.921
703.96	32.174
704.28	30.675
704.60	33.333
704.91	30.284
705.23	29.900
705.55	34.276
705.87	35.379
706.19	29.630
706.51	35.395
706.83	30.868
707.15	28.660
707.47	32.773
707.79	29.427
708.11	27.500
708.43	28.000
708.74	30.233
709.06	29.577
709.38	33.945
709.70	30.473
710.02	29.299
710.34	31.269
710.66	27.244
710.98	32.450
711.29	33.770
711.61	29.492
711.93	30.945
712.25	35.052
712.57	30.403
712.89	29.851
713.20	32.526
713.52	32.753
713.84	29.010
714.16	31.959
714.48	30.000
714.80	32.051
715.11	27.660
715.43	29.154
715.75	30.000
716.07	27.907
716.39	27.852
716.70	35.793
717.02	31.679
717.34	35.223
717.66	38.053
717.97	34.348
718.29	31.799
718.61	30.709
718.93	34.109
719.24	31.179
719.56	30.924
719.88	32.646
720.20	28.788
720.51	27.586
720.83	28.571
721.15	30.252
721.46	31.855
721.78	31.225
722.10	30.483
722.42	26.141
722.73	30.612
723.05	36.327
723.37	31.356
723.68	32.432
724.00	30.769
724.32	28.444
724.63	33.636
724.95	30.568
725.27	32.719
725.58	33.475
725.90	29.365
726.22	31.274
726.53	29.831
726.85	34.457
727.16	34.340
727.48	31.579
727.80	27.935
728.11	33.051
728.43	31.373
728.74	22.984
729.06	32.000
729.38	35.714
729.69	28.287
730.01	30.000
730.32	33.209
730.64	33.922
730.96	31.321
731.27	27.333
731.59	27.119
731.90	26.433
732.22	33.123
732.53	30.565
732.85	31.206
733.16	31.313
733.48	25.540
733.80	25.000
734.11	29.153
734.43	32.990
734.74	28.485
735.06	28.664
735.37	28.701
735.69	30.303
736.00	27.875
736.32	25.168
736.63	28.873
736.95	30.717
737.26	25.979
737.58	24.832
737.89	30.037
738.21	25.564
738.52	35.391
738.83	30.568
739.15	21.834
739.46	26.378
739.78	28.205
740.09	28.431
740.41	29.710
740.72	25.197
741.04	28.745
741.35	26.383
741.66	31.280
741.98	30.612
742.29	32.178
742.61	34.031
742.92	25.118
743.23	20.833
743.55	29.864
743.86	32.536
744.18	23.445
744.49	24.468
744.80	26.087
745.12	34.225
745.43	26.829
745.74	29.688
746.06	26.829
746.37	29.319
746.68	32.227
747.00	33.511
747.31	32.836
747.62	34.466
747.94	36.842
748.25	25.743
748.56	32.787
748.88	30.366
749.19	36.170
749.50	26.601
749.82	29.245
750.13	29.358
750.44	31.579
750.75	26.493
751.07	35.036
751.38	27.586
751.69	25.098
752.01	31.008
752.32	29.880
752.63	28.458
752.94	26.293
753.26	35.146
753.57	29.412
753.88	27.876
754.19	26.667
754.51	22.727
754.82	23.887
755.13	30.417
755.44	27.419
755.75	28.125
756.07	29.183
756.38	26.792
756.69	26.054
757.00	29.000
757.31	26.144
757.63	23.780
757.94	25.833
758.25	26.575
758.56	25.532
758.87	26.912
759.18	23.988
759.50	26.545
759.81	25.084
760.12	23.226
760.43	24.545
760.74	27.160
761.05	25.846
761.36	23.580
761.67	28.182
761.99	28.912
762.30	25.091
762.61	22.134
762.92	28.507
763.23	30.631
763.54	24.299
763.85	27.119
764.16	25.726
764.47	25.000
764.78	28.205
765.10	26.599
765.41	26.498
765.72	26.032
766.03	22.932
766.34	27.007
766.65	30.279
766.96	27.778
767.27	26.064
767.58	31.034
767.89	24.823
768.20	30.114
768.51	30.220
768.82	30.542
769.13	29.032
769.44	27.897
769.75	24.201
770.06	28.017
770.37	27.404
770.68	26.396
770.99	25.792
771.30	26.961
771.61	29.864
771.92	28.017
772.23	32.020
772.54	28.495
772.85	25.309
773.16	25.843
773.47	35.948
773.78	30.719
774.09	30.539
774.39	30.000
774.70	26.115
775.01	30.345
775.32	32.857
775.63	23.967
775.94	23.664
776.25	32.283
776.56	24.167
776.87	25.000
777.18	31.624
777.48	26.724
777.79	26.957
778.10	19.048
778.41	30.631
778.72	34.921
779.03	36.090
779.34	29.787
779.65	34.932
779.95	26.712
780.26	29.655
780.57	29.268
780.88	31.496
781.19	33.621
781.50	27.132
781.80	25.444
782.11	22.013
782.42	24.615
782.73	30.216
783.04	27.407
783.34	20.833
783.65	19.658
783.96	30.328
784.27	33.103
784.57	24.390
784.88	31.250
785.19	31.000
785.50	37.000
785.81	33.621
786.11	26.724
786.42	16.505
786.73	32.727
787.04	23.469
787.34	36.607
787.65	22.857
787.96	30.088
788.26	26.364
788.57	27.350
788.88	27.344
789.19	27.778
789.49	26.957
789.80	25.510
790.11	23.232
790.41	15.455
790.72	39.130
791.03	28.409
791.33	33.750
791.64	15.000
791.95	34.884
792.25	30.851
792.56	41.573
792.87	27.397
793.17	15.942
793.48	21.333
793.79	20.000
794.09	45.000
794.40	26.415
794.70	33.010
795.01	26.016
795.32	23.932
795.62	19.048
795.93	35.294
796.23	29.245
796.54	31.250
796.85	38.235
797.15	33.803
797.46	19.444
797.76	36.364
798.07	25.581
798.37	28.947
798.68	18.182
798.99	37.037
799.29	30.000
799.60	23.188
799.90	26.667
800.21	29.508
800.51	27.692
800.82	30.508
801.12	30.435
801.43	18.033
801.73	31.746
802.04	10.000
802.34	28.358
802.65	19.231
802.95	26.786
803.26	17.308
803.56	35.294
803.87	8.696
804.17	24.000
804.48	52.381
804.78	22.222
805.09	45.652
805.39	8.889
805.70	27.778
806.00	15.789
806.30	15.493
806.61	32.857
806.91	16.667
807.22	50.000
807.52	40.000
807.83	10.909
808.13	23.611
808.43	30.882
808.74	31.343
809.04	20.339
809.35	30.769
809.65	29.688
809.95	-2.703
810.26	20.455
810.56	27.397
810.86	42.857
811.17	38.000
811.47	38.776
811.77	36.842
812.08	11.364
812.38	28.302
812.69	17.500
812.99	21.212
813.29	23.684
813.59	-2.857
813.90	27.273
814.20	15.385
814.50	19.231
814.81	13.208
815.11	-17.021
815.41	37.288
815.72	47.619
816.02	47.059
816.32	18.750
816.62	19.512
816.93	24.324
817.23	14.286
817.53	31.250
817.84	32.609
818.14	25.000
818.44	34.211
818.74	34.783
819.04	20.000
819.35	43.243
819.65	14.706
819.95	30.556
820.25	-16.667
820.56	27.500
820.86	24.138
821.16	35.000
821.46	29.787
821.76	40.000
822.07	46.512
822.37	-2.703
822.67	-12.500
822.97	23.810
823.27	39.286
823.57	-20.000
823.88	-25.926
824.18	32.143
824.48	58.824
824.78	22.581
825.08	26.087
825.38	24.242
825.69	25.000
825.99	23.684
826.29	33.333
826.59	6.667
826.89	14.286
827.19	30.435
827.49	30.000
827.79	25.714
828.09	60.714
828.39	-6.061
828.70	48.649
829.00	50.000
829.30	9.524
829.60	26.667
829.90	25.000
830.20	18.421
830.50	-3.704
830.80	0.000
831.10	31.818
831.40	51.515
831.70	54.839
832.00	23.810
832.30	19.048
832.60	33.333
832.90	17.241
833.20	30.000
833.50	21.212
833.80	18.519
834.10	38.462
834.40	43.750
834.70	-11.111
835.00	57.895
835.30	80.769
835.60	53.333
835.90	22.581
836.20	45.455
836.50	0.000
836.80	-53.846
837.10	50.000
837.40	-100.000
837.70	50.000
838.00	-18.182
838.30	21.739
838.60	7.692
838.90	54.545
839.19	-3.571
839.49	33.333
839.79	-7.692
840.09	-8.333
840.39	28.571
840.69	39.286
840.99	7.692
841.29	5.263
841.59	-90.000
841.88	100.000
842.18	180.000
842.48	18.750
842.78	33.333
843.08	74.074
843.38	20.000
843.68	34.783
843.97	66.667
844.27	26.667
844.57	25.000
844.87	50.000
845.17	23.810
845.47	73.333
845.76	47.619
846.06	52.941
846.36	70.000
846.66	28.571
846.96	0.000
847.25	-37.500
847.55	71.429
847.85	87.500
848.15	22.727
848.44	-333.333
848.74	65.000
849.04	48.148
849.34	45.455
849.63	-283.333
849.93	-100.000
850.23	0.000
850.53	20.000
850.82	-69.231
851.12	-88.889
851.42	46.667
851.71	42.308
852.01	71.429
852.31	100.000
852.61	-9.091
852.90	-5.000
853.20	15.789
853.50	-8.333
853.79	30.435
854.09	70.833
854.39	63.158
854.68	37.500
854.98	29.032
855.28	34.615
855.57	-5.000
855.87	72.222
856.17	25.926
856.46	92.857
856.76	-6.667
857.05	0.000
857.35	56.000
857.65	5.556
857.94	-53.846
858.24	34.483
858.53	72.222
858.83	22.222
859.13	54.545
859.42	82.609
859.72	0.000
860.01	-200.000
860.31	48.000
860.60	23.810
860.90	-166.667
861.20	13.333
861.49	0.000
861.79	46.667
862.08	50.000
862.38	100.000
862.67	100.000
862.97	-16.667
863.26	8.333
863.56	38.889
863.85	-400.000
864.15	66.667
864.44	40.000
864.74	85.714
865.03	-75.000
865.33	-120.000
865.62	50.000
865.92	-16.667
866.21	33.333
866.51	56.250
866.80	-27.273
867.10	150.000
867.39	58.333
867.69	0.000
867.98	46.154
868.27	-66.667
868.57	-40.000
868.86	-27.778
869.16	-61.538
869.45	33.333
869.75	-1200.000
870.04	0.000
870.33	-42.857
870.63	80.952
870.92	33.333
871.22	40.000
871.51	-600.000
871.80	11.111
872.10	366.667
>>>>>End Processed Spectral Data<<<<<
