SpectraSuite Data File
++++++++++++++++++++++++++++++++++++
Date: Fri May 15 17:05:10 PDT 2015
User: schluterlab
Dark Spectrum Present: Yes
Reference Spectrum Present: Yes
Number of Sampled Component Spectra: 1
Spectrometers: USB2E3373
Integration Time (usec): 3000 (USB2E3373)
Spectra Averaged: 3 (USB2E3373)
Boxcar Smoothing: 0 (USB2E3373)
Correct for Electrical Dark: No (USB2E3373)
Strobe/Lamp Enabled: No (USB2E3373)
Correct for Detector Non-linearity: No (USB2E3373)
Correct for Stray Light: No (USB2E3373)
Number of Pixels in Processed Spectrum: 2048
>>>>>Begin Processed Spectral Data<<<<<
178.53	0.000
178.91	0.000
179.29	150.000
179.67	-50.000
180.04	-171.429
180.42	50.000
180.80	900.000
181.18	-300.000
181.56	-50.000
181.94	150.000
182.31	-100.000
182.69	80.000
183.07	-33.333
183.45	-80.000
183.83	-200.000
184.20	0.000
184.58	55.556
184.96	-225.000
185.34	-133.333
185.72	-300.000
186.09	38.462
186.47	600.000
186.85	16.667
187.23	55.556
187.61	-200.000
187.98	-233.333
188.36	44.444
188.74	-33.333
189.12	94.118
189.49	44.444
189.87	0.000
190.25	42.857
190.63	300.000
191.00	200.000
191.38	26.316
191.76	800.000
192.14	-325.000
192.51	500.000
192.89	33.333
193.27	-14.286
193.65	16.667
194.02	81.818
194.40	-20.000
194.78	-100.000
195.15	8.333
195.53	-12.500
195.91	-75.000
196.29	-75.000
196.66	-30.769
197.04	-57.143
197.42	22.222
197.79	-33.333
198.17	-46.154
198.55	1100.000
198.92	0.000
199.30	1500.000
199.68	0.000
200.05	133.333
200.43	0.000
200.81	266.667
201.18	100.000
201.56	300.000
201.94	-50.000
202.31	-300.000
202.69	0.000
203.07	50.000
203.44	1500.000
203.82	0.000
204.19	107.143
204.57	100.000
204.95	-12.500
205.32	-10.000
205.70	128.571
206.08	125.000
206.45	222.222
206.83	78.571
207.20	-14.286
207.58	-700.000
207.96	333.333
208.33	0.000
208.71	225.000
209.08	33.333
209.46	-900.000
209.84	-120.000
210.21	-100.000
210.59	114.286
210.96	116.667
211.34	225.000
211.71	93.333
212.09	-57.143
212.46	-900.000
212.84	0.000
213.22	110.000
213.59	700.000
213.97	92.308
214.34	100.000
214.72	50.000
215.09	225.000
215.47	-7.692
215.84	36.364
216.22	0.000
216.59	100.000
216.97	650.000
217.34	125.000
217.72	120.000
218.09	112.500
218.47	12.500
218.84	800.000
219.22	-22.222
219.59	-100.000
219.97	-100.000
220.34	125.000
220.72	128.571
221.09	100.000
221.47	150.000
221.84	-200.000
222.22	-550.000
222.59	109.091
222.97	58.333
223.34	33.333
223.72	28.571
224.09	33.333
224.46	42.857
224.84	100.000
225.21	160.000
225.59	80.000
225.96	50.000
226.34	-75.000
226.71	114.286
227.08	50.000
227.46	-12.500
227.83	-150.000
228.21	111.111
228.58	54.545
228.95	50.000
229.33	-30.000
229.70	75.000
230.08	-100.000
230.45	-57.143
230.82	171.429
231.20	-20.000
231.57	50.000
231.95	157.143
232.32	0.000
232.69	71.429
233.07	400.000
233.44	140.000
233.81	30.000
234.19	88.889
234.56	-23.529
234.93	350.000
235.31	175.000
235.68	-120.000
236.05	-7.692
236.43	-25.000
236.80	29.412
237.17	50.000
237.55	55.000
237.92	11.111
238.29	58.333
238.67	6.667
239.04	44.118
239.41	4.878
239.79	16.667
240.16	34.146
240.53	28.947
240.91	10.870
241.28	14.286
241.65	19.643
242.02	43.836
242.40	16.667
242.77	16.949
243.14	1.515
243.51	21.250
243.89	18.391
244.26	16.092
244.63	10.714
245.00	18.557
245.38	24.742
245.75	14.607
246.12	17.241
246.49	21.488
246.87	12.500
247.24	13.445
247.61	13.158
247.98	21.138
248.36	21.875
248.73	18.421
249.10	20.130
249.47	21.519
249.84	18.954
250.22	17.647
250.59	19.608
250.96	19.718
251.33	18.605
251.70	21.765
252.08	26.396
252.45	18.812
252.82	18.593
253.19	10.138
253.56	15.888
253.94	19.820
254.31	20.435
254.68	21.930
255.05	14.173
255.42	20.524
255.79	20.463
256.16	17.510
256.54	21.269
256.91	17.490
257.28	16.729
257.65	16.479
258.02	14.894
258.39	18.182
258.76	18.681
259.14	18.605
259.51	17.799
259.88	19.244
260.25	16.340
260.62	20.486
260.99	16.949
261.36	16.096
261.73	16.139
262.10	18.845
262.47	17.178
262.85	15.987
263.22	15.077
263.59	14.330
263.96	19.565
264.33	16.667
264.70	17.560
265.07	19.048
265.44	17.564
265.81	19.209
266.18	17.486
266.55	18.252
266.92	18.394
267.29	19.060
267.66	14.834
268.03	16.492
268.40	13.838
268.77	21.658
269.14	17.746
269.51	16.452
269.88	15.212
270.25	15.816
270.62	18.293
270.99	16.368
271.36	16.381
271.73	17.136
272.10	17.032
272.47	15.839
272.84	16.337
273.21	16.241
273.58	14.699
273.95	16.705
274.32	12.240
274.69	13.575
275.06	17.634
275.43	16.553
275.80	15.453
276.17	16.552
276.54	14.989
276.91	15.570
277.28	14.192
277.65	16.322
278.02	16.596
278.39	17.287
278.76	15.514
279.13	14.938
279.50	16.597
279.87	17.495
280.23	15.269
280.60	19.493
280.97	15.354
281.34	14.231
281.71	18.480
282.08	13.497
282.45	13.894
282.82	15.444
283.19	15.474
283.56	16.570
283.92	14.042
284.29	14.038
284.66	11.822
285.03	14.145
285.40	13.800
285.77	13.181
286.14	14.440
286.51	13.653
286.87	14.808
287.24	13.628
287.61	13.757
287.98	14.035
288.35	13.345
288.72	16.112
289.08	13.021
289.45	16.344
289.82	13.811
290.19	13.140
290.56	12.693
290.93	12.458
291.29	13.405
291.66	14.016
292.03	13.078
292.40	14.677
292.77	12.759
293.13	11.526
293.50	11.836
293.87	12.519
294.24	12.365
294.60	14.605
294.97	14.435
295.34	12.423
295.71	12.519
296.08	13.154
296.44	9.246
296.81	11.389
297.18	12.029
297.55	12.737
297.91	12.466
298.28	12.797
298.65	10.855
299.02	10.647
299.38	10.123
299.75	10.759
300.12	10.340
300.48	9.486
300.85	12.041
301.22	11.429
301.59	10.921
301.95	12.911
302.32	12.322
302.69	9.950
303.05	9.035
303.42	11.083
303.79	11.332
304.15	12.425
304.52	9.512
304.89	10.994
305.25	10.048
305.62	9.335
305.99	10.058
306.35	10.751
306.72	8.549
307.09	11.859
307.45	11.251
307.82	9.606
308.19	10.453
308.55	9.815
308.92	11.547
309.29	9.721
309.65	9.257
310.02	10.671
310.38	10.428
310.75	9.727
311.12	10.980
311.48	9.650
311.85	10.471
312.22	8.966
312.58	9.342
312.95	9.498
313.31	9.420
313.68	8.796
314.05	9.694
314.41	10.000
314.78	8.866
315.14	10.894
315.51	10.455
315.87	10.348
316.24	11.021
316.61	10.630
316.97	10.417
317.34	10.254
317.70	10.707
318.07	9.808
318.43	10.000
318.80	10.322
319.16	11.328
319.53	11.016
319.89	10.728
320.26	10.425
320.62	11.133
320.99	8.977
321.35	10.791
321.72	11.215
322.08	10.675
322.45	10.964
322.81	10.609
323.18	10.991
323.54	9.556
323.91	10.127
324.27	11.523
324.64	10.674
325.00	11.861
325.37	12.029
325.73	10.335
326.10	11.081
326.46	12.377
326.83	12.161
327.19	10.898
327.56	10.860
327.92	12.236
328.29	10.893
328.65	11.604
329.01	11.121
329.38	11.521
329.74	11.143
330.11	11.677
330.47	10.668
330.84	10.769
331.20	12.357
331.56	11.481
331.93	10.685
332.29	11.641
332.66	11.403
333.02	11.710
333.38	10.266
333.75	12.271
334.11	10.654
334.48	11.605
334.84	11.996
335.20	11.436
335.57	11.786
335.93	11.111
336.29	10.405
336.66	11.353
337.02	9.944
337.38	10.926
337.75	10.818
338.11	11.452
338.47	11.131
338.84	11.368
339.20	10.786
339.56	12.752
339.93	11.012
340.29	12.202
340.65	11.918
341.02	10.993
341.38	10.531
341.74	11.042
342.11	9.619
342.47	11.210
342.83	11.332
343.20	11.237
343.56	11.130
343.92	11.957
344.28	12.212
344.65	10.190
345.01	10.804
345.37	10.765
345.73	12.050
346.10	11.993
346.46	10.849
346.82	10.311
347.19	9.726
347.55	10.693
347.91	10.599
348.27	10.428
348.63	11.158
349.00	9.926
349.36	9.975
349.72	11.360
350.08	11.639
350.45	10.136
350.81	9.967
351.17	9.853
351.53	10.939
351.89	10.652
352.26	10.720
352.62	9.355
352.98	11.004
353.34	9.742
353.70	11.084
354.07	9.839
354.43	9.287
354.79	9.083
355.15	11.587
355.51	11.155
355.87	10.518
356.24	8.238
356.60	9.943
356.96	11.111
357.32	10.064
357.68	9.304
358.04	10.339
358.40	9.566
358.77	11.483
359.13	9.367
359.49	9.784
359.85	9.282
360.21	9.410
360.57	9.946
360.93	10.136
361.29	9.592
361.66	10.893
362.02	10.379
362.38	9.520
362.74	9.992
363.10	10.158
363.46	9.266
363.82	10.443
364.18	9.668
364.54	8.676
364.90	10.394
365.26	9.753
365.62	11.314
365.98	9.971
366.35	10.852
366.71	9.978
367.07	9.579
367.43	9.202
367.79	10.318
368.15	9.763
368.51	10.124
368.87	10.122
369.23	9.819
369.59	10.131
369.95	10.924
370.31	9.754
370.67	9.403
371.03	9.709
371.39	9.336
371.75	10.256
372.11	10.485
372.47	10.281
372.83	9.936
373.19	9.843
373.55	9.531
373.91	10.007
374.27	9.851
374.63	10.912
374.99	9.716
375.35	9.540
375.71	10.000
376.07	10.042
376.42	9.388
376.78	9.597
377.14	10.291
377.50	9.960
377.86	9.572
378.22	9.764
378.58	9.808
378.94	9.074
379.30	9.357
379.66	9.592
380.02	9.994
380.38	9.373
380.74	9.695
381.09	9.816
381.45	9.419
381.81	9.192
382.17	9.264
382.53	9.931
382.89	9.981
383.25	9.645
383.61	10.671
383.97	8.381
384.32	9.694
384.68	9.659
385.04	8.701
385.40	8.774
385.76	10.252
386.12	9.444
386.48	9.898
386.83	8.751
387.19	10.073
387.55	8.971
387.91	9.841
388.27	9.524
388.62	9.188
388.98	9.699
389.34	8.994
389.70	10.006
390.06	9.629
390.42	9.715
390.77	9.483
391.13	8.638
391.49	10.091
391.85	9.292
392.20	9.416
392.56	9.091
392.92	10.159
393.28	9.670
393.64	9.550
393.99	9.906
394.35	8.982
394.71	9.834
395.07	9.177
395.42	9.897
395.78	9.707
396.14	10.404
396.50	9.639
396.85	9.659
397.21	9.336
397.57	9.718
397.92	9.826
398.28	10.000
398.64	9.518
399.00	10.214
399.35	8.916
399.71	9.190
400.07	9.311
400.42	10.710
400.78	10.165
401.14	10.284
401.49	10.125
401.85	9.689
402.21	10.542
402.57	9.000
402.92	9.975
403.28	10.714
403.63	9.899
403.99	11.161
404.35	9.057
404.70	9.762
405.06	9.283
405.42	10.068
405.77	9.413
406.13	9.953
406.49	9.710
406.84	8.863
407.20	9.994
407.55	8.757
407.91	9.893
408.27	9.943
408.62	10.400
408.98	9.735
409.34	9.975
409.69	9.044
410.05	10.160
410.40	10.309
410.76	9.590
411.11	10.062
411.47	8.744
411.83	9.918
412.18	9.653
412.54	9.675
412.89	9.421
413.25	10.108
413.60	10.248
413.96	9.325
414.31	9.695
414.67	9.622
415.03	9.521
415.38	9.399
415.74	10.293
416.09	9.928
416.45	9.993
416.80	9.914
417.16	10.014
417.51	10.127
417.87	9.844
418.22	10.557
418.58	9.164
418.93	10.533
419.29	8.899
419.64	9.851
420.00	11.146
420.35	9.910
420.71	10.510
421.06	9.638
421.42	10.036
421.77	10.347
422.12	9.308
422.48	10.070
422.83	10.035
423.19	10.045
423.54	9.406
423.90	9.658
424.25	10.218
424.61	10.159
424.96	10.105
425.31	10.341
425.67	11.033
426.02	11.131
426.38	9.330
426.73	10.169
427.09	10.316
427.44	10.824
427.79	10.725
428.15	10.498
428.50	9.994
428.85	9.091
429.21	11.149
429.56	10.296
429.92	10.786
430.27	10.727
430.62	9.252
430.98	9.820
431.33	11.251
431.68	9.681
432.04	10.900
432.39	10.782
432.74	9.681
433.10	12.069
433.45	10.693
433.80	10.215
434.16	10.139
434.51	10.323
434.86	10.511
435.22	9.871
435.57	10.543
435.92	10.479
436.28	9.839
436.63	11.067
436.98	10.371
437.34	10.042
437.69	10.018
438.04	10.085
438.39	10.141
438.75	10.018
439.10	10.583
439.45	11.564
439.81	10.765
440.16	10.867
440.51	11.522
440.86	11.782
441.22	10.747
441.57	11.038
441.92	11.542
442.27	11.364
442.63	11.456
442.98	11.258
443.33	10.740
443.68	10.663
444.03	11.128
444.39	10.674
444.74	11.204
445.09	11.303
445.44	10.655
445.79	11.604
446.15	11.289
446.50	10.593
446.85	11.530
447.20	10.428
447.55	11.998
447.91	11.224
448.26	11.497
448.61	11.111
448.96	11.245
449.31	10.231
449.66	11.150
450.02	11.010
450.37	11.203
450.72	11.340
451.07	11.139
451.42	10.924
451.77	10.488
452.12	10.885
452.47	11.011
452.83	11.779
453.18	11.069
453.53	11.884
453.88	11.718
454.23	11.494
454.58	11.209
454.93	11.856
455.28	10.476
455.63	11.283
455.98	12.147
456.34	11.558
456.69	12.071
457.04	11.846
457.39	11.665
457.74	11.669
458.09	11.065
458.44	10.415
458.79	11.429
459.14	12.357
459.49	11.701
459.84	12.126
460.19	11.833
460.54	11.919
460.89	11.420
461.24	10.807
461.59	12.233
461.94	10.755
462.29	12.304
462.64	12.027
462.99	11.916
463.34	11.266
463.69	11.519
464.04	11.441
464.39	12.250
464.74	11.288
465.09	12.102
465.44	12.291
465.79	11.224
466.14	11.973
466.49	11.041
466.84	12.731
467.19	12.015
467.54	11.750
467.89	11.497
468.24	12.105
468.59	12.190
468.94	11.746
469.29	12.525
469.64	12.509
469.99	12.193
470.34	11.195
470.68	12.155
471.03	12.102
471.38	11.198
471.73	12.675
472.08	11.872
472.43	11.946
472.78	11.035
473.13	12.585
473.48	11.987
473.83	11.644
474.17	12.370
474.52	11.295
474.87	12.727
475.22	11.775
475.57	12.253
475.92	12.178
476.27	12.398
476.61	12.211
476.96	11.322
477.31	12.493
477.66	12.247
478.01	12.184
478.36	11.983
478.70	12.452
479.05	13.077
479.40	12.401
479.75	12.409
480.10	12.033
480.45	12.350
480.79	12.638
481.14	12.551
481.49	12.020
481.84	11.776
482.19	11.693
482.53	12.422
482.88	12.363
483.23	11.804
483.58	12.500
483.92	12.585
484.27	11.851
484.62	11.295
484.97	11.982
485.31	11.994
485.66	11.284
486.01	11.314
486.36	10.950
486.70	11.009
487.05	10.922
487.40	11.298
487.75	11.380
488.09	11.341
488.44	11.486
488.79	11.842
489.13	12.660
489.48	12.398
489.83	12.332
490.17	11.596
490.52	12.656
490.87	12.448
491.22	12.369
491.56	11.907
491.91	12.380
492.26	12.737
492.60	12.428
492.95	12.494
493.30	12.750
493.64	12.574
493.99	13.237
494.34	12.670
494.68	11.952
495.03	11.825
495.37	12.218
495.72	12.620
496.07	13.366
496.41	12.830
496.76	12.713
497.11	12.296
497.45	12.840
497.80	12.664
498.14	12.121
498.49	12.849
498.84	12.475
499.18	12.851
499.53	12.847
499.87	12.549
500.22	11.771
500.56	12.557
500.91	12.751
501.26	12.259
501.60	12.248
501.95	12.518
502.29	12.930
502.64	12.886
502.98	12.926
503.33	12.392
503.67	12.434
504.02	13.001
504.36	12.716
504.71	12.727
505.06	12.733
505.40	13.147
505.75	12.887
506.09	13.229
506.44	12.731
506.78	13.520
507.13	12.875
507.47	12.428
507.82	12.874
508.16	12.203
508.51	13.326
508.85	13.344
509.19	11.815
509.54	12.976
509.88	12.082
510.23	12.910
510.57	12.827
510.92	12.047
511.26	12.602
511.61	13.421
511.95	12.603
512.30	12.971
512.64	13.133
512.98	12.633
513.33	13.430
513.67	12.962
514.02	13.844
514.36	13.771
514.70	13.636
515.05	13.278
515.39	14.109
515.74	13.713
516.08	13.389
516.42	13.722
516.77	14.336
517.11	13.650
517.46	13.285
517.80	13.468
518.14	12.982
518.49	12.560
518.83	13.609
519.17	12.856
519.52	13.795
519.86	12.605
520.20	13.548
520.55	13.946
520.89	14.429
521.23	13.110
521.58	14.006
521.92	13.974
522.26	14.574
522.61	14.416
522.95	13.775
523.29	13.342
523.64	14.612
523.98	14.323
524.32	13.531
524.66	14.277
525.01	14.026
525.35	14.712
525.69	13.401
526.04	13.426
526.38	15.045
526.72	13.865
527.06	13.684
527.41	14.446
527.75	13.539
528.09	14.419
528.43	14.517
528.78	13.531
529.12	13.871
529.46	13.385
529.80	15.073
530.15	13.597
530.49	13.670
530.83	13.953
531.17	13.902
531.51	13.611
531.86	13.664
532.20	13.709
532.54	14.636
532.88	14.716
533.22	14.315
533.57	14.220
533.91	13.185
534.25	14.062
534.59	13.727
534.93	13.468
535.27	13.071
535.62	13.351
535.96	13.699
536.30	13.127
536.64	13.646
536.98	12.613
537.32	14.225
537.66	14.236
538.01	13.846
538.35	13.523
538.69	14.048
539.03	13.602
539.37	13.997
539.71	13.020
540.05	13.714
540.39	13.296
540.73	14.365
541.07	14.088
541.42	14.651
541.76	14.591
542.10	14.384
542.44	14.524
542.78	13.214
543.12	13.118
543.46	14.743
543.80	13.740
544.14	13.284
544.48	14.590
544.82	13.465
545.16	14.822
545.50	14.820
545.84	15.156
546.18	14.043
546.52	13.915
546.86	13.372
547.20	14.735
547.54	13.922
547.88	14.674
548.22	14.201
548.56	13.061
548.90	14.084
549.24	13.774
549.58	13.752
549.92	13.081
550.26	14.066
550.60	13.978
550.94	13.518
551.28	14.683
551.62	14.846
551.96	14.361
552.30	14.474
552.64	13.329
552.98	13.924
553.32	13.909
553.66	13.933
554.00	14.015
554.34	14.623
554.68	13.717
555.02	15.179
555.36	13.687
555.69	14.139
556.03	13.348
556.37	13.452
556.71	13.863
557.05	13.945
557.39	13.829
557.73	14.693
558.07	14.630
558.41	13.706
558.75	14.575
559.08	14.184
559.42	13.889
559.76	13.931
560.10	13.838
560.44	13.999
560.78	15.175
561.12	14.175
561.45	14.547
561.79	13.025
562.13	13.343
562.47	13.957
562.81	13.833
563.15	14.175
563.48	14.639
563.82	14.482
564.16	13.301
564.50	13.581
564.84	14.257
565.17	13.481
565.51	14.891
565.85	14.609
566.19	13.926
566.52	14.410
566.86	14.717
567.20	12.765
567.54	14.234
567.88	13.240
568.21	12.896
568.55	13.098
568.89	13.604
569.23	12.807
569.56	12.215
569.90	12.952
570.24	12.765
570.57	12.291
570.91	12.443
571.25	11.805
571.59	12.208
571.92	12.356
572.26	11.957
572.60	12.124
572.93	12.143
573.27	11.661
573.61	11.844
573.95	11.715
574.28	11.653
574.62	11.442
574.96	12.117
575.29	11.736
575.63	11.246
575.97	11.602
576.30	11.864
576.64	11.974
576.98	12.201
577.31	11.452
577.65	11.972
577.98	11.877
578.32	11.449
578.66	11.369
578.99	11.558
579.33	11.641
579.67	11.834
580.00	11.418
580.34	11.716
580.67	12.141
581.01	11.623
581.35	11.606
581.68	11.395
582.02	11.158
582.35	11.161
582.69	11.531
583.02	11.408
583.36	11.923
583.70	12.279
584.03	12.149
584.37	12.084
584.70	11.896
585.04	11.554
585.37	11.769
585.71	11.972
586.04	11.750
586.38	11.283
586.72	12.253
587.05	12.016
587.39	12.133
587.72	12.192
588.06	11.957
588.39	12.105
588.73	12.271
589.06	12.296
589.40	12.651
589.73	12.377
590.07	12.462
590.40	12.693
590.73	12.232
591.07	13.147
591.40	12.912
591.74	13.258
592.07	13.358
592.41	13.339
592.74	12.505
593.08	12.469
593.41	12.586
593.75	12.659
594.08	11.878
594.41	12.991
594.75	12.481
595.08	12.032
595.42	12.440
595.75	13.256
596.09	12.940
596.42	12.774
596.75	13.144
597.09	12.574
597.42	12.466
597.75	12.552
598.09	12.675
598.42	13.222
598.76	12.999
599.09	13.662
599.42	12.922
599.76	12.641
600.09	12.745
600.42	12.851
600.76	11.961
601.09	12.557
601.42	13.004
601.76	12.505
602.09	12.459
602.42	13.690
602.76	12.861
603.09	13.206
603.42	13.294
603.76	12.581
604.09	12.232
604.42	13.240
604.76	13.307
605.09	13.300
605.42	13.905
605.75	12.522
606.09	12.017
606.42	13.053
606.75	12.381
607.09	13.187
607.42	12.494
607.75	13.099
608.08	12.713
608.42	13.020
608.75	13.060
609.08	12.855
609.41	12.893
609.75	13.508
610.08	13.530
610.41	13.092
610.74	12.433
611.07	13.023
611.41	13.389
611.74	13.326
612.07	12.580
612.40	13.348
612.73	12.881
613.07	13.273
613.40	13.403
613.73	12.703
614.06	14.023
614.39	13.311
614.72	13.501
615.06	13.520
615.39	13.319
615.72	12.702
616.05	13.687
616.38	12.023
616.71	12.477
617.05	13.527
617.38	14.268
617.71	13.396
618.04	13.460
618.37	14.880
618.70	14.521
619.03	14.583
619.36	13.314
619.69	13.874
620.03	15.121
620.36	13.662
620.69	13.847
621.02	13.609
621.35	14.606
621.68	13.946
622.01	15.500
622.34	14.366
622.67	15.457
623.00	15.620
623.33	13.491
623.66	13.837
623.99	13.616
624.32	14.677
624.65	13.233
624.99	15.199
625.32	13.647
625.65	14.847
625.98	14.746
626.31	13.549
626.64	15.165
626.97	15.358
627.30	15.849
627.63	15.165
627.96	14.735
628.29	14.801
628.62	15.241
628.95	14.028
629.28	15.524
629.61	15.354
629.94	16.325
630.26	14.032
630.59	16.129
630.92	14.974
631.25	14.974
631.58	15.308
631.91	14.912
632.24	15.596
632.57	15.909
632.90	15.896
633.23	16.118
633.56	15.491
633.89	15.413
634.22	16.790
634.55	15.248
634.88	16.731
635.20	14.231
635.53	16.000
635.86	14.824
636.19	16.041
636.52	15.689
636.85	16.501
637.18	15.849
637.51	17.233
637.83	15.900
638.16	18.145
638.49	14.578
638.82	16.316
639.15	15.739
639.48	15.268
639.81	17.294
640.13	16.595
640.46	15.306
640.79	16.789
641.12	15.510
641.45	17.417
641.77	16.000
642.10	17.062
642.43	17.042
642.76	16.502
643.09	17.932
643.41	18.123
643.74	17.298
644.07	19.704
644.40	16.554
644.73	18.389
645.05	18.624
645.38	18.342
645.71	17.199
646.04	18.671
646.36	16.489
646.69	19.784
647.02	17.769
647.35	18.097
647.67	18.099
648.00	17.724
648.33	18.089
648.66	18.136
648.98	16.080
649.31	15.207
649.64	16.797
649.96	17.018
650.29	16.865
650.62	15.897
650.94	17.778
651.27	15.270
651.60	18.919
651.92	16.783
652.25	14.920
652.58	17.500
652.90	18.010
653.23	15.966
653.56	16.244
653.88	15.808
654.21	15.762
654.54	15.110
654.86	18.166
655.19	15.205
655.52	14.009
655.84	11.409
656.17	12.680
656.49	17.556
656.82	17.726
657.15	13.666
657.47	10.280
657.80	7.677
658.13	7.541
658.45	11.717
658.78	11.751
659.10	11.897
659.43	12.043
659.75	12.087
660.08	12.690
660.41	15.117
660.73	14.779
661.06	17.851
661.38	15.264
661.71	14.374
662.03	20.386
662.36	16.923
662.68	17.699
663.01	18.559
663.33	17.865
663.66	15.349
663.98	14.884
664.31	19.616
664.63	16.129
664.96	16.522
665.28	13.687
665.61	20.563
665.93	17.826
666.26	18.655
666.58	18.345
666.91	18.588
667.23	22.406
667.56	17.062
667.88	15.588
668.21	19.332
668.53	21.513
668.86	17.453
669.18	15.566
669.50	16.465
669.83	17.907
670.15	20.047
670.48	17.225
670.80	17.742
671.13	16.555
671.45	16.895
671.77	17.811
672.10	18.614
672.42	15.543
672.75	17.052
673.07	19.857
673.39	19.083
673.72	14.201
674.04	15.208
674.37	19.068
674.69	15.418
675.01	19.333
675.34	20.946
675.66	16.204
675.98	18.404
676.31	18.119
676.63	17.340
676.95	15.227
677.28	20.706
677.60	16.627
677.92	17.431
678.25	18.381
678.57	16.450
678.89	15.966
679.22	20.358
679.54	15.462
679.86	13.718
680.18	16.699
680.51	16.477
680.83	15.507
681.15	16.800
681.48	19.877
681.80	17.355
682.12	17.339
682.44	16.946
682.77	16.556
683.09	17.849
683.41	14.545
683.73	18.433
684.06	16.593
684.38	13.763
684.70	17.647
685.02	16.390
685.34	15.217
685.67	15.572
685.99	15.371
686.31	15.398
686.63	16.141
686.96	15.019
687.28	12.525
687.60	17.110
687.92	15.556
688.24	15.323
688.56	17.467
688.89	16.071
689.21	18.444
689.53	16.937
689.85	15.581
690.17	18.750
690.49	15.603
690.82	14.320
691.14	14.048
691.46	17.056
691.78	18.468
692.10	17.204
692.42	17.532
692.74	16.453
693.06	15.541
693.39	14.027
693.71	14.480
694.03	14.781
694.35	17.523
694.67	20.202
694.99	14.883
695.31	19.321
695.63	16.250
695.95	14.141
696.27	15.026
696.59	17.500
696.91	17.367
697.23	14.910
697.56	16.584
697.88	18.925
698.20	15.490
698.52	16.471
698.84	15.072
699.16	15.000
699.48	16.792
699.80	13.151
700.12	16.442
700.44	16.527
700.76	14.826
701.08	13.333
701.40	16.566
701.72	20.370
702.04	17.162
702.36	16.388
702.68	19.520
703.00	20.000
703.32	17.009
703.64	15.537
703.96	17.971
704.28	19.939
704.60	18.413
704.91	17.035
705.23	17.940
705.55	18.375
705.87	20.217
706.19	19.259
706.51	16.495
706.83	19.614
707.15	16.511
707.47	15.966
707.79	17.188
708.11	18.250
708.43	16.250
708.74	15.245
709.06	19.718
709.38	18.349
709.70	16.272
710.02	16.242
710.34	18.576
710.66	14.423
710.98	15.232
711.29	18.033
711.61	16.610
711.93	17.590
712.25	16.151
712.57	15.751
712.89	14.179
713.20	22.491
713.52	16.725
713.84	16.041
714.16	14.433
714.48	14.839
714.80	18.269
715.11	19.757
715.43	10.972
715.75	17.333
716.07	17.276
716.39	18.792
716.70	11.808
717.02	15.267
717.34	18.219
717.66	17.699
717.97	11.304
718.29	19.247
718.61	22.047
718.93	14.341
719.24	18.631
719.56	18.474
719.88	16.838
720.20	16.288
720.51	16.092
720.83	16.216
721.15	16.807
721.46	16.532
721.78	14.625
722.10	20.074
722.42	11.618
722.73	21.633
723.05	21.224
723.37	24.576
723.68	21.171
724.00	14.957
724.32	16.889
724.63	18.182
724.95	17.031
725.27	15.207
725.58	19.492
725.90	13.492
726.22	19.305
726.53	22.034
726.85	19.101
727.16	21.509
727.48	13.765
727.80	17.814
728.11	19.068
728.43	15.294
728.74	13.710
729.06	20.000
729.38	21.805
729.69	13.944
730.01	14.615
730.32	17.164
730.64	19.788
730.96	16.226
731.27	17.667
731.59	16.949
731.90	16.242
732.22	19.243
732.53	20.598
732.85	18.440
733.16	21.549
733.48	13.309
733.80	13.768
734.11	14.915
734.43	15.120
734.74	17.879
735.06	10.098
735.37	15.408
735.69	18.182
736.00	13.240
736.32	13.758
736.63	17.606
736.95	16.724
737.26	17.794
737.58	16.443
737.89	18.681
738.21	15.038
738.52	20.576
738.83	12.227
739.15	12.664
739.46	18.898
739.78	13.919
740.09	15.033
740.41	18.116
740.72	17.323
741.04	18.623
741.35	18.298
741.66	17.062
741.98	19.388
742.29	14.851
742.61	16.230
742.92	11.848
743.23	12.037
743.55	21.267
743.86	12.919
744.18	16.746
744.49	11.702
744.80	16.848
745.12	18.182
745.43	20.000
745.74	17.188
746.06	18.537
746.37	17.277
746.68	19.431
747.00	12.766
747.31	20.398
747.62	17.961
747.94	17.703
748.25	17.327
748.56	17.486
748.88	15.183
749.19	17.553
749.50	16.256
749.82	15.566
750.13	11.009
750.44	19.549
750.75	19.030
751.07	19.343
751.38	21.839
751.69	13.333
752.01	16.279
752.32	16.733
752.63	12.253
752.94	15.086
753.26	23.013
753.57	17.647
753.88	15.929
754.19	10.833
754.51	14.463
754.82	14.980
755.13	20.833
755.44	19.758
755.75	17.578
756.07	16.342
756.38	15.094
756.69	18.774
757.00	17.000
757.31	11.765
757.63	13.110
757.94	15.278
758.25	15.068
758.56	11.702
758.87	16.147
759.18	15.265
759.50	13.818
759.81	15.385
760.12	16.774
760.43	13.636
760.74	14.506
761.05	15.077
761.36	15.057
761.67	18.788
761.99	20.068
762.30	16.000
762.61	17.787
762.92	19.910
763.23	10.360
763.54	13.084
763.85	18.220
764.16	19.917
764.47	14.516
764.78	14.286
765.10	15.488
765.41	14.511
765.72	13.651
766.03	14.286
766.34	15.328
766.65	21.514
766.96	18.182
767.27	20.213
767.58	12.069
767.89	14.184
768.20	16.477
768.51	18.132
768.82	14.286
769.13	10.138
769.44	14.163
769.75	9.589
770.06	16.379
770.37	17.308
770.68	11.675
770.99	11.312
771.30	20.098
771.61	15.385
771.92	21.121
772.23	18.719
772.54	17.742
772.85	22.222
773.16	13.483
773.47	22.222
773.78	20.261
774.09	20.359
774.39	16.667
774.70	21.656
775.01	24.828
775.32	17.857
775.63	22.314
775.94	19.084
776.25	15.748
776.56	10.000
776.87	14.423
777.18	6.838
777.48	10.345
777.79	17.391
778.10	12.381
778.41	21.622
778.72	21.429
779.03	13.534
779.34	15.603
779.65	10.959
779.95	19.178
780.26	15.862
780.57	7.317
780.88	11.811
781.19	10.345
781.50	18.605
781.80	14.201
782.11	16.981
782.42	16.923
782.73	16.547
783.04	19.259
783.34	14.583
783.65	3.419
783.96	14.754
784.27	17.931
784.57	14.634
784.88	18.750
785.19	29.000
785.50	20.000
785.81	23.276
786.11	18.966
786.42	24.272
786.73	21.818
787.04	10.204
787.34	13.393
787.65	14.286
787.96	14.159
788.26	11.818
788.57	9.402
788.88	17.969
789.19	18.254
789.49	9.565
789.80	10.204
790.11	25.253
790.41	14.545
790.72	31.522
791.03	14.773
791.33	26.250
791.64	17.500
791.95	24.419
792.25	18.085
792.56	20.225
792.87	8.219
793.17	18.841
793.48	14.667
793.79	10.000
794.09	32.500
794.40	14.151
794.70	14.563
795.01	14.634
795.32	18.803
795.62	10.476
795.93	16.667
796.23	26.415
796.54	7.292
796.85	27.941
797.15	19.718
797.46	27.778
797.76	25.758
798.07	17.442
798.37	21.053
798.68	21.212
798.99	16.049
799.29	18.571
799.60	8.696
799.90	14.667
800.21	31.148
800.51	33.846
800.82	13.559
801.12	24.638
801.43	27.869
801.73	15.873
802.04	14.000
802.34	7.463
802.65	34.615
802.95	23.214
803.26	21.154
803.56	31.373
803.87	4.348
804.17	22.667
804.48	20.635
804.78	16.667
805.09	-6.522
805.39	24.444
805.70	24.074
806.00	-1.754
806.30	21.127
806.61	22.857
806.91	22.222
807.22	34.211
807.52	29.333
807.83	5.455
808.13	16.667
808.43	22.059
808.74	20.896
809.04	6.780
809.35	3.846
809.65	6.250
809.95	-13.514
810.26	-4.545
810.56	15.068
810.86	7.143
811.17	2.000
811.47	34.694
811.77	21.053
812.08	31.818
812.38	33.962
812.69	7.500
812.99	24.242
813.29	39.474
813.59	-2.857
813.90	2.273
814.20	-2.564
814.50	15.385
814.81	16.981
815.11	23.404
815.41	32.203
815.72	40.476
816.02	21.569
816.32	35.417
816.62	7.317
816.93	16.216
817.23	8.571
817.53	10.417
817.84	17.391
818.14	36.538
818.44	0.000
818.74	21.739
819.04	10.000
819.35	16.216
819.65	17.647
819.95	44.444
820.25	30.952
820.56	37.500
820.86	-34.483
821.16	62.500
821.46	19.149
821.76	30.000
822.07	20.930
822.37	-21.622
822.67	3.125
822.97	26.190
823.27	21.429
823.57	12.000
823.88	7.407
824.18	28.571
824.48	17.647
824.78	48.387
825.08	39.130
825.38	27.273
825.69	8.333
825.99	34.211
826.29	25.000
826.59	60.000
826.89	-14.286
827.19	10.870
827.49	27.500
827.79	20.000
828.09	17.857
828.39	39.394
828.70	51.351
829.00	50.000
829.30	0.000
829.60	16.667
829.90	18.750
830.20	13.158
830.50	48.148
830.80	34.783
831.10	40.909
831.40	84.848
831.70	41.935
832.00	28.571
832.30	9.524
832.60	0.000
832.90	37.931
833.20	-5.000
833.50	69.697
833.80	25.926
834.10	34.615
834.40	43.750
834.70	55.556
835.00	63.158
835.30	57.692
835.60	53.333
835.90	51.613
836.20	36.364
836.50	107.143
836.80	0.000
837.10	53.571
837.40	133.333
837.70	36.364
838.00	90.909
838.30	26.087
838.60	38.462
838.90	13.636
839.19	17.857
839.49	50.000
839.79	-23.077
840.09	0.000
840.39	85.714
840.69	17.857
840.99	0.000
841.29	-26.316
841.59	-100.000
841.88	9.091
842.18	150.000
842.48	31.250
842.78	26.667
843.08	22.222
843.38	0.000
843.68	52.174
843.97	40.000
844.27	26.667
844.57	35.000
844.87	11.111
845.17	42.857
845.47	60.000
845.76	-33.333
846.06	52.941
846.36	10.000
846.66	21.429
846.96	6.667
847.25	-100.000
847.55	35.714
847.85	187.500
848.15	9.091
848.44	-266.667
848.74	10.000
849.04	40.741
849.34	81.818
849.63	-83.333
849.93	-380.000
850.23	0.000
850.53	90.000
850.82	0.000
851.12	44.444
851.42	93.333
851.71	34.615
852.01	92.857
852.31	175.000
852.61	-9.091
852.90	15.000
853.20	100.000
853.50	-41.667
853.79	30.435
854.09	75.000
854.39	-5.263
854.68	16.667
854.98	45.161
855.28	53.846
855.57	0.000
855.87	50.000
856.17	62.963
856.46	-7.143
856.76	53.333
857.05	55.556
857.35	-36.000
857.65	27.778
857.94	-15.385
858.24	55.172
858.53	55.556
858.83	66.667
859.13	22.727
859.42	34.783
859.72	25.000
860.01	-533.333
860.31	36.000
860.60	9.524
860.90	133.333
861.20	20.000
861.49	-300.000
861.79	60.000
862.08	55.000
862.38	86.667
862.67	-20.000
862.97	0.000
863.26	25.000
863.56	33.333
863.85	-133.333
864.15	44.444
864.44	80.000
864.74	100.000
865.03	175.000
865.33	-80.000
865.62	50.000
865.92	83.333
866.21	-33.333
866.51	75.000
866.80	36.364
867.10	50.000
867.39	108.333
867.69	0.000
867.98	30.769
868.27	-100.000
868.57	40.000
868.86	55.556
869.16	-7.692
869.45	100.000
869.75	-1200.000
870.04	0.000
870.33	71.429
870.63	61.905
870.92	-200.000
871.22	-40.000
871.51	900.000
871.80	100.000
872.10	266.667
>>>>>End Processed Spectral Data<<<<<
