SpectraSuite Data File
++++++++++++++++++++++++++++++++++++
Date: Fri May 15 17:19:15 PDT 2015
User: schluterlab
Dark Spectrum Present: Yes
Reference Spectrum Present: Yes
Number of Sampled Component Spectra: 1
Spectrometers: USB2E3373
Integration Time (usec): 3000 (USB2E3373)
Spectra Averaged: 3 (USB2E3373)
Boxcar Smoothing: 0 (USB2E3373)
Correct for Electrical Dark: No (USB2E3373)
Strobe/Lamp Enabled: No (USB2E3373)
Correct for Detector Non-linearity: No (USB2E3373)
Correct for Stray Light: No (USB2E3373)
Number of Pixels in Processed Spectrum: 2048
>>>>>Begin Processed Spectral Data<<<<<
178.53	0.000
178.91	0.000
179.29	137.500
179.67	150.000
180.04	-214.286
180.42	350.000
180.80	200.000
181.18	-366.667
181.56	100.000
181.94	550.000
182.31	-100.000
182.69	200.000
183.07	33.333
183.45	-80.000
183.83	-16.667
184.20	72.727
184.58	11.111
184.96	-175.000
185.34	-400.000
185.72	50.000
186.09	-7.692
186.47	0.000
186.85	-0.000
187.23	-22.222
187.61	-700.000
187.98	33.333
188.36	11.111
188.74	33.333
189.12	23.529
189.49	72.222
189.87	0.000
190.25	71.429
190.63	200.000
191.00	166.667
191.38	36.842
191.76	1300.000
192.14	-225.000
192.51	100.000
192.89	-22.222
193.27	85.714
193.65	-16.667
194.02	81.818
194.40	170.000
194.78	-125.000
195.15	16.667
195.53	100.000
195.91	175.000
196.29	100.000
196.66	92.308
197.04	-14.286
197.42	122.222
197.79	-33.333
198.17	7.692
198.55	-1000.000
198.92	300.000
199.30	800.000
199.68	20.000
200.05	233.333
200.43	0.000
200.81	-33.333
201.18	133.333
201.56	-0.000
201.94	250.000
202.31	-166.667
202.69	-40.000
203.07	-125.000
203.44	1700.000
203.82	0.000
204.19	178.571
204.57	-200.000
204.95	112.500
205.32	110.000
205.70	42.857
206.08	250.000
206.45	288.889
206.83	78.571
207.20	28.571
207.58	-0.000
207.96	200.000
208.33	-40.000
208.71	75.000
209.08	66.667
209.46	0.000
209.84	-120.000
210.21	200.000
210.59	57.143
210.96	66.667
211.34	-50.000
211.71	80.000
212.09	-114.286
212.46	400.000
212.84	0.000
213.22	160.000
213.59	400.000
213.97	0.000
214.34	109.091
214.72	0.000
215.09	300.000
215.47	15.385
215.84	9.091
216.22	166.667
216.59	150.000
216.97	200.000
217.34	150.000
217.72	120.000
218.09	162.500
218.47	-25.000
218.84	500.000
219.22	77.778
219.59	0.000
219.97	300.000
220.34	175.000
220.72	157.143
221.09	0.000
221.47	150.000
221.84	50.000
222.22	50.000
222.59	118.182
222.97	66.667
223.34	200.000
223.72	28.571
224.09	52.381
224.46	50.000
224.84	33.333
225.21	20.000
225.59	46.667
225.96	550.000
226.34	100.000
226.71	-57.143
227.08	183.333
227.46	150.000
227.83	300.000
228.21	100.000
228.58	127.273
228.95	-25.000
229.33	-0.000
229.70	25.000
230.08	-37.500
230.45	-114.286
230.82	200.000
231.20	6.667
231.57	135.714
231.95	214.286
232.32	10.000
232.69	100.000
233.07	300.000
233.44	140.000
233.81	50.000
234.19	211.111
234.56	94.118
234.93	-600.000
235.31	250.000
235.68	120.000
236.05	84.615
236.43	20.000
236.80	64.706
237.17	56.250
237.55	45.000
237.92	66.667
238.29	38.889
238.67	20.000
239.04	67.647
239.41	0.000
239.79	60.000
240.16	41.463
240.53	60.526
240.91	39.130
241.28	49.206
241.65	58.929
242.02	53.425
242.40	61.667
242.77	44.068
243.14	34.848
243.51	51.250
243.89	52.874
244.26	44.828
244.63	45.238
245.00	45.361
245.38	46.392
245.75	30.337
246.12	39.655
246.49	37.190
246.87	51.923
247.24	40.336
247.61	32.456
247.98	42.276
248.36	31.875
248.73	33.553
249.10	45.455
249.47	44.304
249.84	41.830
250.22	44.118
250.59	47.712
250.96	36.620
251.33	37.209
251.70	47.059
252.08	39.594
252.45	34.653
252.82	43.216
253.19	36.866
253.56	37.850
253.94	45.045
254.31	42.609
254.68	42.544
255.05	44.094
255.42	43.231
255.79	39.768
256.16	36.187
256.54	41.791
256.91	38.403
257.28	39.033
257.65	39.326
258.02	36.879
258.39	39.731
258.76	41.392
259.14	39.535
259.51	39.806
259.88	39.519
260.25	41.830
260.62	43.056
260.99	45.424
261.36	40.753
261.73	45.253
262.10	41.033
262.47	41.718
262.85	41.693
263.22	42.769
263.59	39.252
263.96	39.130
264.33	42.727
264.70	41.667
265.07	41.667
265.44	42.493
265.81	40.395
266.18	42.350
266.55	43.445
266.92	41.451
267.29	42.820
267.66	39.130
268.03	41.361
268.40	38.903
268.77	46.791
269.14	40.288
269.51	39.846
269.88	40.150
270.25	37.245
270.62	38.537
270.99	39.386
271.36	38.142
271.73	37.793
272.10	41.363
272.47	41.371
272.84	41.089
273.21	39.211
273.58	42.410
273.95	39.359
274.32	40.185
274.69	38.688
275.06	37.723
275.43	37.415
275.80	37.307
276.17	37.011
276.54	38.544
276.91	41.009
277.28	34.934
277.65	36.983
278.02	37.021
278.39	38.512
278.76	38.155
279.13	33.817
279.50	39.706
279.87	37.581
280.23	35.054
280.60	37.622
280.97	37.172
281.34	36.923
281.71	38.193
282.08	35.787
282.45	35.616
282.82	37.066
283.19	35.977
283.56	38.728
283.92	36.812
284.29	37.692
284.66	35.659
285.03	33.988
285.40	36.484
285.77	36.380
286.14	35.921
286.51	36.900
286.87	34.918
287.24	35.543
287.61	34.568
287.98	35.614
288.35	34.142
288.72	35.026
289.08	33.854
289.45	36.204
289.82	33.741
290.19	34.642
290.56	32.762
290.93	32.492
291.29	31.279
291.66	32.126
292.03	31.738
292.40	32.419
292.77	30.941
293.13	28.247
293.50	29.742
293.87	31.603
294.24	29.057
294.60	28.167
294.97	28.869
295.34	28.374
295.71	29.508
296.08	30.194
296.44	28.734
296.81	28.333
297.18	26.667
297.55	29.404
297.91	28.630
298.28	28.892
298.65	26.866
299.02	27.358
299.38	27.086
299.75	27.586
300.12	25.524
300.48	26.746
300.85	27.757
301.22	28.312
301.59	26.316
301.95	26.329
302.32	28.145
302.69	26.990
303.05	25.990
303.42	25.654
303.79	25.000
304.15	27.360
304.52	24.970
304.89	22.807
305.25	24.213
305.62	23.337
305.99	25.146
306.35	25.202
306.72	26.097
307.09	24.629
307.45	24.684
307.82	24.653
308.19	25.319
308.55	24.755
308.92	26.580
309.29	25.698
309.65	23.036
310.02	24.642
310.38	26.894
310.75	25.792
311.12	25.081
311.48	25.027
311.85	24.712
312.22	24.156
312.58	25.265
312.95	24.973
313.31	25.155
313.68	24.817
314.05	24.388
314.41	25.876
314.78	24.330
315.14	27.235
315.51	25.983
315.87	26.127
316.24	26.390
316.61	25.886
316.97	26.687
317.34	25.586
317.70	26.482
318.07	25.481
318.43	29.020
318.80	27.178
319.16	28.809
319.53	28.395
319.89	27.165
320.26	30.364
320.62	28.786
320.99	27.871
321.35	28.571
321.72	30.218
322.08	29.406
322.45	29.949
322.81	30.550
323.18	30.128
323.54	30.405
323.91	29.893
324.27	31.348
324.64	32.772
325.00	33.942
325.37	34.803
325.73	32.910
326.10	33.878
326.46	35.067
326.83	35.871
327.19	36.356
327.56	36.664
327.92	37.412
328.29	36.786
328.65	39.434
329.01	37.868
329.38	39.171
329.74	39.093
330.11	39.110
330.47	40.538
330.84	40.385
331.20	43.441
331.56	40.556
331.93	41.553
332.29	40.605
332.66	41.991
333.02	41.636
333.38	43.080
333.75	41.941
334.11	42.883
334.48	44.334
334.84	43.407
335.20	42.818
335.57	42.792
335.93	45.619
336.29	44.567
336.66	44.323
337.02	43.216
337.38	43.889
337.75	45.727
338.11	45.537
338.47	45.529
338.84	46.396
339.20	44.607
339.56	45.780
339.93	45.568
340.29	46.789
340.65	44.803
341.02	45.390
341.38	44.159
341.74	44.258
342.11	44.887
342.47	44.751
342.83	44.896
343.20	46.603
343.56	47.391
343.92	46.058
344.28	46.285
344.65	45.682
345.01	46.154
345.37	45.164
345.73	46.025
346.10	47.282
346.46	45.921
346.82	45.008
347.19	44.223
347.55	46.282
347.91	47.087
348.27	46.645
348.63	45.656
349.00	45.119
349.36	46.883
349.72	46.517
350.08	46.066
350.45	46.049
350.81	47.425
351.17	46.498
351.53	47.265
351.89	46.408
352.26	45.840
352.62	46.532
352.98	45.382
353.34	44.767
353.70	47.735
354.07	47.984
354.43	46.197
354.79	46.325
355.15	48.810
355.51	47.310
355.87	47.249
356.24	46.819
356.60	47.939
356.96	47.381
357.32	46.486
357.68	45.817
358.04	47.254
358.40	46.463
358.77	47.847
359.13	47.478
359.49	46.302
359.85	48.752
360.21	47.847
360.57	46.289
360.93	48.109
361.29	47.961
361.66	48.824
362.02	48.864
362.38	49.505
362.74	48.827
363.10	49.661
363.46	49.073
363.82	49.286
364.18	48.044
364.54	47.279
364.90	48.602
365.26	47.962
365.62	49.927
365.98	49.120
366.35	49.672
366.71	49.889
367.07	50.290
367.43	49.533
367.79	49.823
368.15	50.682
368.51	50.255
368.87	49.174
369.23	49.170
369.59	51.531
369.95	51.760
370.31	50.650
370.67	50.970
371.03	50.112
371.39	50.401
371.75	50.989
372.11	50.000
372.47	52.293
372.83	50.816
373.19	50.999
373.55	50.903
373.91	52.124
374.27	53.225
374.63	51.687
374.99	52.199
375.35	52.507
375.71	52.448
376.07	52.739
376.42	52.517
376.78	53.624
377.14	51.659
377.50	52.656
377.86	53.548
378.22	53.414
378.58	53.654
378.94	52.363
379.30	53.400
379.66	53.730
380.02	53.096
380.38	52.343
380.74	53.321
381.09	53.681
381.45	54.006
381.81	53.054
382.17	54.505
382.53	54.279
382.89	55.995
383.25	54.512
383.61	54.512
383.97	54.413
384.32	55.472
384.68	55.851
385.04	55.086
385.40	55.072
385.76	57.044
386.12	55.757
386.48	57.280
386.83	55.739
387.19	57.021
387.55	58.720
387.91	56.785
388.27	55.800
388.62	58.024
388.98	56.047
389.34	56.652
389.70	55.562
390.06	55.255
390.42	56.412
390.77	57.031
391.13	56.494
391.49	56.533
391.85	57.115
392.20	56.246
392.56	57.470
392.92	57.663
393.28	56.073
393.64	54.895
393.99	58.370
394.35	57.685
394.71	58.685
395.07	56.694
395.42	56.709
395.78	57.264
396.14	58.953
396.50	58.846
396.85	58.789
397.21	56.892
397.57	57.868
397.92	56.980
398.28	58.506
398.64	55.723
399.00	58.239
399.35	56.151
399.71	55.198
400.07	56.590
400.42	57.283
400.78	57.195
401.14	57.290
401.49	57.177
401.85	58.257
402.21	58.373
402.57	57.562
402.92	57.340
403.28	58.459
403.63	58.134
403.99	57.653
404.35	59.026
404.70	56.786
405.06	56.580
405.42	57.427
405.77	57.060
406.13	57.101
406.49	56.898
406.84	56.846
407.20	56.231
407.55	56.600
407.91	55.147
408.27	56.597
408.62	57.538
408.98	57.116
409.34	57.187
409.69	56.783
410.05	55.111
410.40	56.543
410.76	57.419
411.11	56.687
411.47	58.251
411.83	56.937
412.18	56.692
412.54	56.679
412.89	56.650
413.25	57.040
413.60	56.335
413.96	55.337
414.31	55.427
414.67	55.869
415.03	56.258
415.38	55.352
415.74	56.808
416.09	57.087
416.45	56.718
416.80	57.039
417.16	59.116
417.51	56.096
417.87	55.867
418.22	56.412
418.58	57.592
418.93	57.179
419.29	55.954
419.64	57.161
420.00	57.557
420.35	57.552
420.71	58.445
421.06	55.801
421.42	57.452
421.77	57.919
422.12	58.116
422.48	57.445
422.83	57.135
423.19	58.126
423.54	58.319
423.90	57.185
424.25	58.496
424.61	58.201
424.96	59.001
425.31	58.925
425.67	59.977
426.02	59.187
426.38	59.361
426.73	58.838
427.09	58.924
427.44	59.471
427.79	58.928
428.15	58.313
428.50	59.176
428.85	58.170
429.21	58.687
429.56	61.186
429.92	59.527
430.27	58.897
430.62	59.331
430.98	59.395
431.33	58.044
431.68	58.556
432.04	60.201
432.39	58.871
432.74	58.629
433.10	60.172
433.45	60.155
433.80	59.779
434.16	59.834
434.51	59.194
434.86	61.440
435.22	60.123
435.57	61.884
435.92	60.838
436.28	59.451
436.63	60.411
436.98	59.849
437.34	60.557
437.69	60.763
438.04	60.342
438.39	60.171
438.75	62.902
439.10	60.441
439.45	62.386
439.81	61.957
440.16	61.936
440.51	62.090
440.86	65.257
441.22	61.143
441.57	60.817
441.92	61.910
442.27	62.084
442.63	62.794
442.98	62.091
443.33	61.436
443.68	61.432
444.03	61.401
444.39	61.485
444.74	62.207
445.09	62.138
445.44	62.621
445.79	64.312
446.15	62.445
446.50	62.451
446.85	62.380
447.20	61.731
447.55	62.612
447.91	61.985
448.26	63.062
448.61	62.406
448.96	63.167
449.31	62.659
449.66	62.544
450.02	63.776
450.37	62.833
450.72	63.574
451.07	63.734
451.42	62.235
451.77	61.844
452.12	62.141
452.47	62.460
452.83	63.663
453.18	63.251
453.53	63.021
453.88	62.295
454.23	64.044
454.58	63.980
454.93	62.951
455.28	63.048
455.63	63.484
455.98	64.642
456.34	63.027
456.69	63.914
457.04	63.957
457.39	64.338
457.74	63.845
458.09	62.684
458.44	62.668
458.79	62.857
459.14	63.501
459.49	64.000
459.84	63.790
460.19	64.320
460.54	64.059
460.89	64.943
461.24	64.348
461.59	63.302
461.94	61.447
462.29	63.390
462.64	64.651
462.99	62.627
463.34	63.004
463.69	64.093
464.04	63.983
464.39	63.614
464.74	63.558
465.09	63.132
465.44	65.205
465.79	61.281
466.14	64.310
466.49	63.025
466.84	62.284
467.19	65.457
467.54	63.538
467.89	64.940
468.24	64.355
468.59	64.000
468.94	62.794
469.29	64.000
469.64	64.798
469.99	65.172
470.34	64.300
470.68	64.430
471.03	64.897
471.38	63.695
471.73	65.686
472.08	62.822
472.43	64.832
472.78	63.537
473.13	64.422
473.48	64.169
473.83	63.823
474.17	65.738
474.52	64.135
474.87	64.727
475.22	64.979
475.57	63.749
475.92	64.564
476.27	64.959
476.61	64.525
476.96	63.246
477.31	65.008
477.66	64.382
478.01	65.413
478.36	64.216
478.70	66.449
479.05	65.165
479.40	65.554
479.75	64.755
480.10	64.567
480.45	64.850
480.79	65.458
481.14	65.574
481.49	64.138
481.84	65.347
482.19	65.014
482.53	64.508
482.88	63.150
483.23	64.107
483.58	64.528
483.92	65.053
484.27	64.540
484.62	65.173
484.97	64.677
485.31	65.282
485.66	64.831
486.01	66.136
486.36	64.764
486.70	64.414
487.05	63.904
487.40	63.857
487.75	64.704
488.09	63.041
488.44	63.927
488.79	63.429
489.13	65.304
489.48	64.429
489.83	65.112
490.17	64.225
490.52	63.741
490.87	64.507
491.22	65.998
491.56	64.706
491.91	64.149
492.26	65.046
492.60	63.676
492.95	65.912
493.30	63.703
493.64	66.110
493.99	65.362
494.34	65.243
494.68	65.000
495.03	63.942
495.37	64.720
495.72	65.119
496.07	65.415
496.41	65.000
496.76	65.408
497.11	64.322
497.45	65.776
497.80	65.943
498.14	65.276
498.49	65.160
498.84	64.770
499.18	66.215
499.53	66.022
499.87	64.689
500.22	64.243
500.56	65.003
500.91	65.010
501.26	65.892
501.60	65.027
501.95	66.521
502.29	65.182
502.64	65.927
502.98	66.354
503.33	64.121
503.67	65.831
504.02	64.907
504.36	65.760
504.71	64.242
505.06	64.217
505.40	66.142
505.75	65.412
506.09	65.079
506.44	66.119
506.78	66.735
507.13	66.960
507.47	64.334
507.82	66.293
508.16	66.191
508.51	67.051
508.85	65.829
509.19	65.194
509.54	65.147
509.88	65.534
510.23	65.896
510.57	66.328
510.92	64.606
511.26	65.739
511.61	66.722
511.95	66.466
512.30	65.632
512.64	66.611
512.98	66.760
513.33	67.096
513.67	65.833
514.02	68.364
514.36	66.743
514.70	67.133
515.05	68.038
515.39	67.355
515.74	67.545
516.08	67.125
516.42	67.727
516.77	67.700
517.11	67.300
517.46	68.642
517.80	67.104
518.14	67.789
518.49	66.466
518.83	66.646
519.17	66.465
519.52	67.200
519.86	67.047
520.20	67.315
520.55	67.980
520.89	68.632
521.23	67.384
521.58	67.571
521.92	68.141
522.26	67.014
522.61	69.026
522.95	69.735
523.29	68.615
523.64	68.551
523.98	68.503
524.32	66.881
524.66	68.758
525.01	69.156
525.35	67.855
525.69	69.293
526.04	67.394
526.38	68.872
526.72	67.822
527.06	68.936
527.41	68.865
527.75	69.370
528.09	68.638
528.43	70.020
528.78	68.053
529.12	68.323
529.46	69.201
529.80	67.131
530.15	70.429
530.49	69.899
530.83	69.973
531.17	67.495
531.51	69.836
531.86	68.117
532.20	68.128
532.54	69.367
532.88	68.515
533.22	69.355
533.57	68.283
533.91	68.864
534.25	69.010
534.59	69.147
534.93	68.534
535.27	67.957
535.62	67.855
535.96	68.624
536.30	68.536
536.64	70.434
536.98	68.153
537.32	69.915
537.66	69.705
538.01	68.252
538.35	69.417
538.69	67.643
539.03	66.849
539.37	68.170
539.71	68.371
540.05	68.839
540.39	69.183
540.73	70.014
541.07	69.475
541.42	69.086
541.76	70.544
542.10	68.754
542.44	70.952
542.78	65.864
543.12	69.162
543.46	69.054
543.80	68.563
544.14	66.689
544.48	68.621
544.82	67.601
545.16	69.740
545.50	68.024
545.84	70.042
546.18	70.496
546.52	69.214
546.86	69.878
547.20	69.313
547.54	69.117
547.88	69.633
548.22	67.982
548.56	68.272
548.90	68.935
549.24	68.664
549.58	68.124
549.92	66.333
550.26	68.498
550.60	68.773
550.94	70.127
551.28	70.093
551.62	69.769
551.96	70.301
552.30	70.322
552.64	67.983
552.98	68.425
553.32	70.114
553.66	69.594
554.00	69.781
554.34	70.015
554.68	69.248
555.02	68.973
555.36	70.007
555.69	68.278
556.03	69.165
556.37	69.324
556.71	70.108
557.05	70.321
557.39	67.212
557.73	68.591
558.07	71.267
558.41	70.061
558.75	68.979
559.08	70.370
559.42	69.683
559.76	71.497
560.10	70.948
560.44	70.216
560.78	69.301
561.12	70.663
561.45	70.625
561.79	69.538
562.13	71.469
562.47	69.137
562.81	70.173
563.15	68.265
563.48	70.721
563.82	70.968
564.16	72.006
564.50	68.716
564.84	69.277
565.17	69.551
565.51	72.336
565.85	72.016
566.19	69.828
566.52	71.247
566.86	69.923
567.20	70.237
567.54	72.019
567.88	71.236
568.21	70.645
568.55	71.467
568.89	70.585
569.23	71.208
569.56	70.096
569.90	72.351
570.24	70.041
570.57	70.255
570.91	69.955
571.25	69.845
571.59	68.639
571.92	67.793
572.26	69.203
572.60	67.411
572.93	68.372
573.27	67.712
573.61	69.332
573.95	68.706
574.28	69.041
574.62	67.607
574.96	68.686
575.29	68.551
575.63	66.805
575.97	67.877
576.30	68.204
576.64	67.338
576.98	68.366
577.31	69.157
577.65	69.404
577.98	68.766
578.32	68.592
578.66	67.011
578.99	67.899
579.33	67.050
579.67	67.272
580.00	67.671
580.34	68.333
580.67	67.013
581.01	69.044
581.35	68.798
581.68	68.845
582.02	68.820
582.35	69.118
582.69	68.582
583.02	68.468
583.36	68.630
583.70	69.211
584.03	69.669
584.37	69.170
584.70	68.242
585.04	68.212
585.37	69.165
585.71	68.502
586.04	68.608
586.38	68.525
586.72	69.498
587.05	69.902
587.39	69.947
587.72	70.202
588.06	68.669
588.39	68.414
588.73	69.689
589.06	69.928
589.40	69.340
589.73	69.989
590.07	70.431
590.40	70.317
590.73	71.005
591.07	69.720
591.40	70.659
591.74	70.543
592.07	70.547
592.41	71.511
592.74	69.693
593.08	68.704
593.41	70.412
593.75	69.611
594.08	68.864
594.41	68.741
594.75	69.656
595.08	71.093
595.42	70.151
595.75	70.710
596.09	70.289
596.42	70.608
596.75	69.893
597.09	69.886
597.42	69.648
597.75	70.728
598.09	69.307
598.42	69.224
598.76	69.326
599.09	70.152
599.42	68.473
599.76	69.187
600.09	68.854
600.42	69.333
600.76	69.391
601.09	69.008
601.42	67.842
601.76	70.504
602.09	69.224
602.42	70.851
602.76	69.779
603.09	70.598
603.42	70.861
603.76	70.121
604.09	69.583
604.42	70.262
604.76	71.028
605.09	70.430
605.42	69.887
605.75	70.403
606.09	70.234
606.42	69.016
606.75	70.996
607.09	69.319
607.42	69.872
607.75	69.583
608.08	69.991
608.42	68.159
608.75	71.277
609.08	70.304
609.41	70.508
609.75	70.817
610.08	70.944
610.41	70.580
610.74	69.235
611.07	71.266
611.41	70.317
611.74	71.535
612.07	69.004
612.40	70.897
612.73	71.864
613.07	70.416
613.40	69.803
613.73	70.901
614.06	69.338
614.39	71.404
614.72	69.524
615.06	70.782
615.39	68.614
615.72	68.945
616.05	69.330
616.38	69.459
616.71	70.703
617.05	70.908
617.38	71.025
617.71	69.748
618.04	72.635
618.37	72.383
618.70	72.211
619.03	72.083
619.36	70.333
619.69	72.328
620.03	72.169
620.36	69.671
620.69	70.307
621.02	71.024
621.35	70.954
621.68	74.065
622.01	72.417
622.34	72.706
622.67	71.767
623.00	71.133
623.33	72.713
623.66	72.102
623.99	71.861
624.32	72.395
624.65	71.955
624.99	72.761
625.32	71.190
625.65	73.291
625.98	71.716
626.31	71.987
626.64	74.610
626.97	73.124
627.30	73.818
627.63	72.877
627.96	73.226
628.29	71.878
628.62	71.976
628.95	73.246
629.28	73.891
629.61	72.183
629.94	71.848
630.26	72.233
630.59	76.379
630.92	73.128
631.25	70.462
631.58	75.881
631.91	73.246
632.24	73.968
632.57	75.341
632.90	73.428
633.23	71.176
633.56	76.322
633.89	74.476
634.22	77.284
634.55	74.079
634.88	74.457
635.20	73.846
635.53	76.800
635.86	74.252
636.19	73.739
636.52	75.255
636.85	72.829
637.18	74.214
637.51	71.069
637.83	74.770
638.16	76.944
638.49	74.659
638.82	74.342
639.15	74.491
639.48	76.341
639.81	74.059
640.13	74.747
640.46	73.615
640.79	73.932
641.12	72.378
641.45	72.673
641.77	74.815
642.10	79.463
642.43	73.151
642.76	76.733
643.09	74.475
643.41	72.977
643.74	75.783
644.07	73.399
644.40	77.027
644.73	77.058
645.05	75.336
645.38	74.427
645.71	75.709
646.04	77.020
646.36	73.582
646.69	74.640
647.02	78.072
647.35	75.746
647.67	76.051
648.00	77.799
648.33	72.355
648.66	76.271
648.98	76.549
649.31	75.702
649.64	73.312
649.96	73.420
650.29	76.150
650.62	74.701
650.94	76.481
651.27	75.791
651.60	76.216
651.92	73.601
652.25	76.199
652.58	73.500
652.90	76.672
653.23	72.605
653.56	72.589
653.88	76.632
654.21	74.081
654.54	72.666
654.86	76.231
655.19	73.538
655.52	74.613
655.84	70.747
656.17	79.332
656.49	100.000
656.82	100.000
657.15	92.145
657.47	60.830
657.80	45.731
658.13	44.561
658.45	68.510
658.78	67.116
659.10	66.358
659.43	67.957
659.75	68.229
660.08	67.172
660.41	71.297
660.73	74.033
661.06	76.776
661.38	72.407
661.71	73.717
662.03	76.395
662.36	76.923
662.68	75.000
663.01	76.638
663.33	76.102
663.66	78.605
663.98	76.279
664.31	73.561
664.63	75.115
664.96	71.739
665.28	73.951
665.61	74.026
665.93	77.174
666.26	75.922
666.58	75.391
666.91	74.118
667.23	78.302
667.56	76.777
667.88	74.820
668.21	75.656
668.53	76.359
668.86	77.123
669.18	74.057
669.50	74.334
669.83	76.512
670.15	74.359
670.48	78.708
670.80	80.645
671.13	75.839
671.45	73.516
671.77	72.318
672.10	73.861
672.42	74.532
672.75	76.732
673.07	75.850
673.39	74.128
673.72	72.584
674.04	71.875
674.37	78.390
674.69	76.231
675.01	73.778
675.34	75.000
675.66	76.852
675.98	75.831
676.31	76.376
676.63	79.810
676.95	72.045
677.28	77.412
677.60	80.241
677.92	74.771
678.25	75.711
678.57	76.623
678.89	75.420
679.22	77.629
679.54	71.486
679.86	70.577
680.18	75.922
680.51	74.811
680.83	71.571
681.15	73.800
681.48	79.508
681.80	74.380
682.12	76.210
682.44	76.360
682.77	76.380
683.09	74.600
683.41	74.545
683.73	72.581
684.06	70.796
684.38	72.043
684.70	79.956
685.02	75.104
685.34	72.925
685.67	75.422
685.99	73.237
686.31	73.274
686.63	71.985
686.96	72.433
687.28	68.485
687.60	71.483
687.92	74.343
688.24	74.194
688.56	73.581
688.89	76.786
689.21	74.889
689.53	75.174
689.85	75.814
690.17	72.321
690.49	76.359
690.82	74.515
691.14	73.333
691.46	76.636
691.78	75.000
692.10	76.774
692.42	70.779
692.74	71.795
693.06	76.126
693.39	75.339
693.71	70.814
694.03	72.286
694.35	74.533
694.67	73.737
694.99	73.107
695.31	74.413
695.63	77.750
695.95	70.707
696.27	76.425
696.59	76.944
696.91	77.311
697.23	73.008
697.56	77.475
697.88	71.828
698.20	74.260
698.52	75.765
698.84	68.900
699.16	74.000
699.48	73.183
699.80	71.464
700.12	76.011
700.44	77.311
700.76	74.128
701.08	71.818
701.40	73.193
701.72	73.765
702.04	82.838
702.36	78.595
702.68	72.072
703.00	73.030
703.32	72.434
703.64	72.599
703.96	69.275
704.28	76.687
704.60	75.556
704.91	71.609
705.23	73.090
705.55	81.272
705.87	78.700
706.19	78.519
706.51	74.914
706.83	77.814
707.15	74.143
707.47	76.471
707.79	72.917
708.11	72.250
708.43	72.500
708.74	72.610
709.06	79.437
709.38	78.593
709.70	78.698
710.02	75.478
710.34	74.303
710.66	70.513
710.98	72.185
711.29	76.066
711.61	71.864
711.93	73.616
712.25	79.725
712.57	78.022
712.89	75.373
713.20	73.010
713.52	76.655
713.84	78.498
714.16	78.694
714.48	76.774
714.80	75.321
715.11	72.948
715.43	70.533
715.75	77.000
716.07	72.425
716.39	71.477
716.70	76.015
717.02	71.756
717.34	80.972
717.66	76.106
717.97	80.000
718.29	77.824
718.61	78.346
718.93	74.806
719.24	75.285
719.56	81.928
719.88	71.478
720.20	76.515
720.51	74.330
720.83	74.903
721.15	75.630
721.46	79.032
721.78	76.680
722.10	71.747
722.42	77.178
722.73	76.327
723.05	75.102
723.37	79.237
723.68	77.477
724.00	75.641
724.32	76.000
724.63	75.000
724.95	73.362
725.27	82.028
725.58	81.356
725.90	67.857
726.22	76.834
726.53	68.136
726.85	76.030
727.16	71.321
727.48	76.113
727.80	76.518
728.11	75.424
728.43	73.725
728.74	70.968
729.06	77.200
729.38	77.820
729.69	76.096
730.01	73.462
730.32	77.985
730.64	72.792
730.96	77.358
731.27	72.333
731.59	80.000
731.90	69.745
732.22	71.924
732.53	75.748
732.85	70.567
733.16	72.054
733.48	73.741
733.80	72.464
734.11	72.542
734.43	79.038
734.74	75.455
735.06	72.313
735.37	74.622
735.69	76.768
736.00	71.777
736.32	72.483
736.63	76.761
736.95	75.768
737.26	73.665
737.58	70.470
737.89	73.260
738.21	75.940
738.52	76.132
738.83	78.166
739.15	77.293
739.46	73.622
739.78	71.429
740.09	65.686
740.41	78.623
740.72	79.921
741.04	79.352
741.35	70.213
741.66	69.668
741.98	77.041
742.29	76.733
742.61	76.963
742.92	67.773
743.23	71.759
743.55	74.208
743.86	74.641
744.18	69.856
744.49	74.468
744.80	75.543
745.12	81.818
745.43	71.220
745.74	78.125
746.06	76.585
746.37	78.010
746.68	74.882
747.00	75.000
747.31	75.622
747.62	65.049
747.94	77.990
748.25	74.752
748.56	85.792
748.88	79.581
749.19	78.723
749.50	76.355
749.82	73.585
750.13	77.064
750.44	73.308
750.75	80.224
751.07	78.102
751.38	75.862
751.69	77.647
752.01	76.744
752.32	78.486
752.63	71.146
752.94	72.845
753.26	80.753
753.57	74.661
753.88	73.009
754.19	73.750
754.51	71.074
754.82	70.850
755.13	78.333
755.44	71.774
755.75	83.594
756.07	76.265
756.38	71.321
756.69	73.563
757.00	68.000
757.31	73.203
757.63	71.646
757.94	70.833
758.25	70.959
758.56	68.085
758.87	66.289
759.18	70.405
759.50	76.000
759.81	68.562
760.12	74.516
760.43	71.818
760.74	70.370
761.05	71.692
761.36	69.886
761.67	75.758
761.99	74.150
762.30	69.091
762.61	66.008
762.92	71.041
763.23	75.676
763.54	69.159
763.85	75.000
764.16	67.635
764.47	68.952
764.78	68.498
765.10	73.737
765.41	70.032
765.72	72.063
766.03	71.053
766.34	72.628
766.65	73.705
766.96	75.253
767.27	75.532
767.58	69.540
767.89	75.887
768.20	71.591
768.51	73.077
768.82	72.906
769.13	74.194
769.44	75.107
769.75	70.320
770.06	65.948
770.37	70.673
770.68	75.635
770.99	65.158
771.30	81.373
771.61	70.588
771.92	77.155
772.23	75.369
772.54	74.731
772.85	85.185
773.16	71.910
773.47	88.889
773.78	79.085
774.09	64.671
774.39	66.000
774.70	68.153
775.01	73.793
775.32	75.000
775.63	68.595
775.94	65.649
776.25	80.315
776.56	76.667
776.87	75.962
777.18	77.778
777.48	83.621
777.79	67.826
778.10	68.571
778.41	81.081
778.72	77.778
779.03	72.180
779.34	77.305
779.65	72.603
779.95	76.712
780.26	69.655
780.57	72.358
780.88	70.079
781.19	74.138
781.50	93.798
781.80	68.047
782.11	66.038
782.42	77.692
782.73	73.381
783.04	73.333
783.34	63.194
783.65	71.795
783.96	75.410
784.27	70.345
784.57	69.919
784.88	75.781
785.19	79.000
785.50	94.000
785.81	74.138
786.11	67.241
786.42	69.903
786.73	89.091
787.04	70.408
787.34	76.786
787.65	78.095
787.96	65.487
788.26	80.909
788.57	78.632
788.88	75.000
789.19	66.667
789.49	80.870
789.80	86.735
790.11	81.818
790.41	68.182
790.72	76.087
791.03	71.591
791.33	85.000
791.64	76.250
791.95	67.442
792.25	89.362
792.56	76.404
792.87	68.493
793.17	69.565
793.48	70.667
793.79	71.250
794.09	78.750
794.40	66.981
794.70	68.932
795.01	65.041
795.32	68.376
795.62	70.476
795.93	70.588
796.23	68.868
796.54	65.625
796.85	83.824
797.15	85.915
797.46	73.611
797.76	78.788
798.07	66.279
798.37	63.158
798.68	89.394
798.99	70.370
799.29	72.857
799.60	76.812
799.90	80.000
800.21	88.525
800.51	66.154
800.82	54.237
801.12	84.058
801.43	70.492
801.73	101.587
802.04	94.000
802.34	70.149
802.65	71.154
802.95	66.071
803.26	76.923
803.56	92.157
803.87	82.609
804.17	57.333
804.48	69.841
804.78	83.333
805.09	73.913
805.39	100.000
805.70	75.926
806.00	57.895
806.30	69.014
806.61	70.000
806.91	66.667
807.22	82.895
807.52	86.667
807.83	83.636
808.13	72.222
808.43	72.059
808.74	70.149
809.04	67.797
809.35	73.077
809.65	65.625
809.95	78.378
810.26	61.364
810.56	53.425
810.86	69.048
811.17	72.000
811.47	83.673
811.77	73.684
812.08	90.909
812.38	67.925
812.69	77.500
812.99	84.848
813.29	52.632
813.59	45.714
813.90	77.273
814.20	66.667
814.50	88.462
814.81	67.925
815.11	82.979
815.41	66.102
815.72	92.857
816.02	62.745
816.32	87.500
816.62	70.732
816.93	78.378
817.23	65.714
817.53	64.583
817.84	76.087
818.14	73.077
818.44	105.263
818.74	76.087
819.04	47.500
819.35	91.892
819.65	70.588
819.95	72.222
820.25	59.524
820.56	87.500
820.86	62.069
821.16	107.500
821.46	46.809
821.76	82.500
822.07	65.116
822.37	37.838
822.67	90.625
822.97	85.714
823.27	85.714
823.57	84.000
823.88	62.963
824.18	67.857
824.48	105.882
824.78	74.194
825.08	73.913
825.38	60.606
825.69	58.333
825.99	63.158
826.29	63.889
826.59	46.667
826.89	85.714
827.19	63.043
827.49	62.500
827.79	62.857
828.09	139.286
828.39	100.000
828.70	108.108
829.00	67.857
829.30	90.476
829.60	70.000
829.90	90.625
830.20	47.368
830.50	33.333
830.80	86.957
831.10	86.364
831.40	106.061
831.70	67.742
832.00	76.190
832.30	28.571
832.60	108.333
832.90	58.621
833.20	110.000
833.50	48.485
833.80	48.148
834.10	69.231
834.40	81.250
834.70	255.556
835.00	89.474
835.30	119.231
835.60	133.333
835.90	80.645
836.20	150.000
836.50	42.857
836.80	34.615
837.10	67.857
837.40	266.667
837.70	81.818
838.00	81.818
838.30	78.261
838.60	38.462
838.90	140.909
839.19	64.286
839.49	80.000
839.79	53.846
840.09	50.000
840.39	121.429
840.69	42.857
840.99	26.923
841.29	52.632
841.59	50.000
841.88	181.818
842.18	180.000
842.48	56.250
842.78	100.000
843.08	81.481
843.38	30.000
843.68	69.565
843.97	73.333
844.27	26.667
844.57	60.000
844.87	83.333
845.17	52.381
845.47	100.000
845.76	95.238
846.06	88.235
846.36	150.000
846.66	42.857
846.96	173.333
847.25	62.500
847.55	171.429
847.85	162.500
848.15	59.091
848.44	233.333
848.74	70.000
849.04	85.185
849.34	163.636
849.63	0.000
849.93	220.000
850.23	33.333
850.53	230.000
850.82	0.000
851.12	122.222
851.42	113.333
851.71	7.692
852.01	121.429
852.31	125.000
852.61	127.273
852.90	115.000
853.20	52.632
853.50	75.000
853.79	95.652
854.09	100.000
854.39	110.526
854.68	120.833
854.98	51.613
855.28	126.923
855.57	45.000
855.87	72.222
856.17	77.778
856.46	71.429
856.76	40.000
857.05	66.667
857.35	76.000
857.65	94.444
857.94	84.615
858.24	68.966
858.53	66.667
858.83	70.370
859.13	113.636
859.42	78.261
859.72	600.000
860.01	-133.333
860.31	40.000
860.60	66.667
860.90	300.000
861.20	20.000
861.49	0.000
861.79	20.000
862.08	95.000
862.38	120.000
862.67	160.000
862.97	183.333
863.26	116.667
863.56	61.111
863.85	166.667
864.15	111.111
864.44	100.000
864.74	107.143
865.03	50.000
865.33	100.000
865.62	316.667
865.92	75.000
866.21	216.667
866.51	81.250
866.80	0.000
867.10	550.000
867.39	166.667
867.69	0.000
867.98	84.615
868.27	0.000
868.57	73.333
868.86	88.889
869.16	38.462
869.45	133.333
869.75	0.000
870.04	0.000
870.33	157.143
870.63	85.714
870.92	-66.667
871.22	0.000
871.51	700.000
871.80	122.222
872.10	-0.000
>>>>>End Processed Spectral Data<<<<<
