SpectraSuite Data File
++++++++++++++++++++++++++++++++++++
Date: Fri May 15 17:30:36 PDT 2015
User: schluterlab
Dark Spectrum Present: Yes
Reference Spectrum Present: Yes
Number of Sampled Component Spectra: 1
Spectrometers: USB2E3373
Integration Time (usec): 3000 (USB2E3373)
Spectra Averaged: 3 (USB2E3373)
Boxcar Smoothing: 0 (USB2E3373)
Correct for Electrical Dark: No (USB2E3373)
Strobe/Lamp Enabled: No (USB2E3373)
Correct for Detector Non-linearity: No (USB2E3373)
Correct for Stray Light: No (USB2E3373)
Number of Pixels in Processed Spectrum: 2048
>>>>>Begin Processed Spectral Data<<<<<
178.53	0.000
178.91	0.000
179.29	25.000
179.67	-100.000
180.04	-128.571
180.42	300.000
180.80	100.000
181.18	-200.000
181.56	-300.000
181.94	50.000
182.31	-200.000
182.69	120.000
183.07	-66.667
183.45	-200.000
183.83	133.333
184.20	72.727
184.58	-11.111
184.96	-25.000
185.34	-466.667
185.72	-50.000
186.09	115.385
186.47	100.000
186.85	133.333
187.23	22.222
187.61	-400.000
187.98	-166.667
188.36	44.444
188.74	-100.000
189.12	5.882
189.49	77.778
189.87	0.000
190.25	71.429
190.63	50.000
191.00	133.333
191.38	47.368
191.76	450.000
192.14	-200.000
192.51	200.000
192.89	144.444
193.27	0.000
193.65	166.667
194.02	109.091
194.40	20.000
194.78	-87.500
195.15	41.667
195.53	-50.000
195.91	25.000
196.29	-100.000
196.66	130.769
197.04	57.143
197.42	66.667
197.79	-233.333
198.17	-100.000
198.55	100.000
198.92	-166.667
199.30	400.000
199.68	100.000
200.05	-233.333
200.43	0.000
200.81	266.667
201.18	200.000
201.56	600.000
201.94	-100.000
202.31	-0.000
202.69	-60.000
203.07	200.000
203.44	1300.000
203.82	0.000
204.19	92.857
204.57	-266.667
204.95	100.000
205.32	20.000
205.70	100.000
206.08	150.000
206.45	233.333
206.83	64.286
207.20	-85.714
207.58	500.000
207.96	33.333
208.33	-30.000
208.71	-75.000
209.08	-66.667
209.46	200.000
209.84	40.000
210.21	-800.000
210.59	114.286
210.96	0.000
211.34	225.000
211.71	13.333
212.09	-128.571
212.46	-500.000
212.84	0.000
213.22	10.000
213.59	650.000
213.97	69.231
214.34	9.091
214.72	16.667
215.09	250.000
215.47	-15.385
215.84	36.364
216.22	-333.333
216.59	-150.000
216.97	200.000
217.34	0.000
217.72	-180.000
218.09	125.000
218.47	50.000
218.84	100.000
219.22	-33.333
219.59	40.000
219.97	-66.667
220.34	-125.000
220.72	185.714
221.09	25.000
221.47	400.000
221.84	50.000
222.22	-150.000
222.59	54.545
222.97	33.333
223.34	-133.333
223.72	14.286
224.09	4.762
224.46	67.857
224.84	166.667
225.21	40.000
225.59	33.333
225.96	100.000
226.34	-75.000
226.71	-42.857
227.08	133.333
227.46	162.500
227.83	-250.000
228.21	66.667
228.58	90.909
228.95	12.500
229.33	10.000
229.70	75.000
230.08	-25.000
230.45	-114.286
230.82	0.000
231.20	26.667
231.57	28.571
231.95	71.429
232.32	-30.000
232.69	71.429
233.07	366.667
233.44	-180.000
233.81	-30.000
234.19	100.000
234.56	29.412
234.93	500.000
235.31	200.000
235.68	-100.000
236.05	-53.846
236.43	50.000
236.80	29.412
237.17	50.000
237.55	35.000
237.92	40.741
238.29	11.111
238.67	53.333
239.04	38.235
239.41	7.317
239.79	36.667
240.16	46.341
240.53	7.895
240.91	41.304
241.28	26.984
241.65	62.500
242.02	41.096
242.40	46.667
242.77	42.373
243.14	33.333
243.51	52.500
243.89	66.667
244.26	33.333
244.63	27.381
245.00	42.268
245.38	45.361
245.75	37.079
246.12	43.103
246.49	39.669
246.87	55.769
247.24	35.294
247.61	35.088
247.98	41.463
248.36	41.250
248.73	46.053
249.10	44.805
249.47	41.139
249.84	41.830
250.22	38.824
250.59	42.484
250.96	42.723
251.33	43.023
251.70	49.412
252.08	41.117
252.45	34.653
252.82	43.216
253.19	46.083
253.56	45.794
253.94	42.793
254.31	40.000
254.68	51.316
255.05	43.701
255.42	43.231
255.79	42.085
256.16	41.634
256.54	44.776
256.91	41.065
257.28	39.405
257.65	43.820
258.02	43.617
258.39	43.098
258.76	41.026
259.14	43.522
259.51	42.071
259.88	39.863
260.25	40.523
260.62	45.139
260.99	43.051
261.36	43.151
261.73	43.671
262.10	37.994
262.47	44.785
262.85	41.066
263.22	36.615
263.59	40.498
263.96	44.720
264.33	42.121
264.70	44.048
265.07	43.452
265.44	42.210
265.81	43.785
266.18	40.984
266.55	42.159
266.92	44.819
267.29	43.081
267.66	44.246
268.03	42.147
268.40	39.426
268.77	45.722
269.14	40.288
269.51	42.674
269.88	41.147
270.25	38.520
270.62	42.195
270.99	39.642
271.36	38.386
271.73	41.315
272.10	38.686
272.47	38.771
272.84	39.109
273.21	39.443
273.58	41.205
273.95	39.817
274.32	40.416
274.69	38.009
275.06	41.295
275.43	38.549
275.80	41.280
276.17	43.218
276.54	39.829
276.91	42.325
277.28	39.301
277.65	39.876
278.02	38.723
278.39	39.825
278.76	39.623
279.13	36.307
279.50	40.336
279.87	36.933
280.23	39.355
280.60	38.791
280.97	42.626
281.34	39.423
281.71	40.862
282.08	39.877
282.45	39.139
282.82	39.961
283.19	40.232
283.56	36.416
283.92	39.848
284.29	38.077
284.66	37.791
285.03	40.079
285.40	37.618
285.77	38.664
286.14	36.282
286.51	38.930
286.87	35.649
287.24	38.122
287.61	37.037
287.98	37.193
288.35	35.875
288.72	34.851
289.08	37.153
289.45	39.016
289.82	35.664
290.19	35.495
290.56	35.163
290.93	34.848
291.29	32.820
291.66	34.331
292.03	34.609
292.40	34.839
292.77	31.260
293.13	31.494
293.50	33.080
293.87	32.366
294.24	31.685
294.60	30.849
294.97	30.208
295.34	31.288
295.71	30.551
296.08	29.895
296.44	28.876
296.81	29.861
297.18	29.130
297.55	32.249
297.91	28.904
298.28	29.420
298.65	30.258
299.02	29.650
299.38	26.949
299.75	29.241
300.12	27.487
300.48	30.303
300.85	28.264
301.22	29.870
301.59	28.816
301.95	27.342
302.32	29.442
302.69	27.861
303.05	26.361
303.42	27.148
303.79	24.883
304.15	27.479
304.52	26.278
304.89	27.018
305.25	25.545
305.62	26.604
305.99	26.667
306.35	26.012
306.72	25.534
307.09	28.278
307.45	26.406
307.82	25.926
308.19	27.642
308.55	26.827
308.92	26.362
309.29	26.704
309.65	26.265
310.02	25.743
310.38	25.906
310.75	26.230
311.12	26.588
311.48	25.239
311.85	26.073
312.22	25.422
312.58	26.008
312.95	24.867
313.31	23.499
313.68	25.864
314.05	23.776
314.41	25.155
314.78	24.948
315.14	26.002
315.51	24.431
315.87	25.307
316.24	25.076
316.61	24.803
316.97	25.794
317.34	24.414
317.70	24.761
318.07	24.519
318.43	24.706
318.80	23.769
319.16	24.902
319.53	25.641
319.89	24.311
320.26	24.494
320.62	23.972
320.99	23.800
321.35	26.310
321.72	25.441
322.08	24.673
322.45	24.365
322.81	23.969
323.18	24.730
323.54	23.938
323.91	23.661
324.27	24.219
324.64	24.625
325.00	23.905
325.37	25.344
325.73	24.207
326.10	23.978
326.46	23.229
326.83	24.759
327.19	24.499
327.56	23.284
327.92	23.856
328.29	24.196
328.65	23.962
329.01	24.449
329.38	23.594
329.74	21.907
330.11	24.745
330.47	22.263
330.84	21.538
331.20	25.190
331.56	22.500
331.93	24.018
332.29	24.106
332.66	22.624
333.02	22.491
333.38	22.640
333.75	24.634
334.11	22.650
334.48	23.753
334.84	23.535
335.20	22.873
335.57	21.940
335.93	23.397
336.29	23.297
336.66	23.070
337.02	22.119
337.38	22.593
337.75	22.273
338.11	23.354
338.47	22.993
338.84	22.828
339.20	22.669
339.56	22.294
339.93	23.814
340.29	21.560
340.65	23.297
341.02	23.050
341.38	23.009
341.74	20.848
342.11	22.184
342.47	22.776
342.83	22.751
343.20	22.822
343.56	23.217
343.92	21.878
344.28	22.459
344.65	22.193
345.01	21.867
345.37	22.540
345.73	22.762
346.10	23.123
346.46	21.615
346.82	21.686
347.19	21.031
347.55	21.972
347.91	22.087
348.27	21.827
348.63	21.295
349.00	21.493
349.36	22.195
349.72	22.471
350.08	21.475
350.45	22.825
350.81	21.512
351.17	20.277
351.53	22.204
351.89	21.470
352.26	21.200
352.62	21.774
352.98	20.482
353.34	21.417
353.70	22.654
354.07	21.290
354.43	20.897
354.79	20.727
355.15	22.460
355.51	21.598
355.87	21.521
356.24	20.147
356.60	21.665
356.96	21.587
357.32	21.326
357.68	20.876
358.04	21.809
358.40	21.222
358.77	22.089
359.13	20.336
359.49	20.570
359.85	20.671
360.21	20.415
360.57	20.964
360.93	20.272
361.29	19.940
361.66	21.708
362.02	21.667
362.38	21.325
362.74	21.120
363.10	21.520
363.46	20.608
363.82	21.938
364.18	21.033
364.54	20.735
364.90	20.645
365.26	20.888
365.62	21.314
365.98	20.455
366.35	21.340
366.71	21.212
367.07	20.972
367.43	20.345
367.79	20.777
368.15	21.034
368.51	21.340
368.87	20.531
369.23	20.794
369.59	20.481
369.95	20.235
370.31	20.592
370.67	20.821
371.03	19.866
371.39	20.058
371.75	19.853
372.11	21.041
372.47	20.710
372.83	20.298
373.19	21.969
373.55	19.495
373.91	21.166
374.27	20.269
374.63	21.106
374.99	20.213
375.35	20.961
375.71	20.909
376.07	19.874
376.42	20.204
376.78	20.738
377.14	19.973
377.50	19.655
377.86	20.415
378.22	19.528
378.58	20.192
378.94	19.849
379.30	20.524
379.66	20.752
380.02	20.049
380.38	20.146
380.74	19.210
381.09	20.613
381.45	19.694
381.81	19.803
382.17	20.178
382.53	20.737
382.89	19.460
383.25	20.784
383.61	21.341
383.97	19.746
384.32	19.450
384.68	20.186
385.04	19.730
385.40	19.851
385.76	20.440
386.12	20.246
386.48	20.754
386.83	19.404
387.19	20.513
387.55	20.013
387.91	20.293
388.27	19.475
388.62	20.013
388.98	20.012
389.34	19.550
389.70	20.634
390.06	19.132
390.42	19.754
390.77	19.751
391.13	19.924
391.49	19.858
391.85	20.728
392.20	19.711
392.56	19.453
392.92	19.965
393.28	19.458
393.64	20.360
393.99	20.878
394.35	19.798
394.71	19.796
395.07	19.862
395.42	19.733
395.78	19.479
396.14	19.609
396.50	20.419
396.85	20.992
397.21	19.361
397.57	19.624
397.92	19.593
398.28	20.115
398.64	18.795
399.00	19.470
399.35	18.736
399.71	19.816
400.07	20.133
400.42	20.563
400.78	19.780
401.14	19.540
401.49	20.965
401.85	19.988
402.21	19.940
402.57	19.938
402.92	19.511
403.28	20.489
403.63	18.916
403.99	19.196
404.35	20.237
404.70	19.821
405.06	19.565
405.42	19.702
405.77	19.117
406.13	19.499
406.49	19.538
406.84	20.477
407.20	19.868
407.55	19.511
407.91	19.385
408.27	19.949
408.62	20.246
408.98	19.470
409.34	19.393
409.69	19.444
410.05	19.212
410.40	20.432
410.76	20.084
411.11	19.875
411.47	20.513
411.83	19.021
412.18	20.013
412.54	19.600
412.89	19.458
413.25	20.999
413.60	19.814
413.96	19.325
414.31	20.183
414.67	19.307
415.03	19.241
415.38	19.713
415.74	20.782
416.09	20.314
416.45	20.459
416.80	20.026
417.16	20.028
417.51	18.987
417.87	19.687
418.22	20.272
418.58	19.532
418.93	20.502
419.29	19.974
419.64	20.026
420.00	21.725
420.35	18.985
420.71	19.502
421.06	20.135
421.42	20.974
421.77	20.116
422.12	19.977
422.48	19.870
422.83	19.780
423.19	20.824
423.54	19.518
423.90	19.022
424.25	19.920
424.61	21.114
424.96	20.151
425.31	20.277
425.67	19.308
426.02	20.318
426.38	20.601
426.73	20.097
427.09	21.013
427.44	20.176
427.79	20.507
428.15	20.024
428.50	20.291
428.85	19.779
429.21	20.147
429.56	20.593
429.92	19.671
430.27	20.551
430.62	19.550
430.98	20.435
431.33	20.189
431.68	19.309
432.04	19.508
432.39	19.966
432.74	19.603
433.10	20.805
433.45	20.430
433.80	20.371
434.16	19.391
434.51	20.054
434.86	20.325
435.22	20.359
435.57	20.274
435.92	20.778
436.28	20.930
436.63	19.738
436.98	19.641
437.34	19.661
437.69	20.394
438.04	20.228
438.39	19.731
438.75	19.794
439.10	20.487
439.45	20.268
439.81	20.550
440.16	20.249
440.51	20.478
440.86	21.631
441.22	20.136
441.57	19.757
441.92	20.409
442.27	20.067
442.63	21.146
442.98	20.620
443.33	19.978
443.68	20.477
444.03	20.964
444.39	20.610
444.74	21.405
445.09	20.713
445.44	20.912
445.79	21.970
446.15	20.264
446.50	19.190
446.85	20.616
447.20	20.647
447.55	20.759
447.91	20.812
448.26	21.571
448.61	20.956
448.96	21.113
449.31	20.520
449.66	21.080
450.02	20.821
450.37	21.280
450.72	20.790
451.07	21.013
451.42	22.035
451.77	20.494
452.12	19.318
452.47	20.090
452.83	20.554
453.18	20.683
453.53	21.492
453.88	21.251
454.23	21.266
454.58	21.222
454.93	21.972
455.28	20.698
455.63	21.265
455.98	21.587
456.34	21.520
456.69	21.537
457.04	21.361
457.39	21.446
457.74	21.100
458.09	19.541
458.44	21.065
458.79	21.232
459.14	21.911
459.49	21.791
459.84	21.376
460.19	21.602
460.54	21.577
460.89	22.443
461.24	20.807
461.59	22.209
461.94	20.755
462.29	22.014
462.64	21.927
462.99	21.530
463.34	21.140
463.69	21.879
464.04	21.610
464.39	21.528
464.74	20.798
465.09	21.460
465.44	21.408
465.79	20.465
466.14	21.152
466.49	21.277
466.84	22.368
467.19	21.089
467.54	21.201
467.89	21.415
468.24	22.202
468.59	21.587
468.94	21.968
469.29	21.902
469.64	21.394
469.99	22.425
470.34	21.638
470.68	22.595
471.03	22.788
471.38	22.753
471.73	22.899
472.08	22.999
472.43	21.879
472.78	22.138
473.13	22.041
473.48	21.694
473.83	22.291
474.17	22.409
474.52	22.336
474.87	22.545
475.22	22.453
475.57	21.513
475.92	22.381
476.27	21.944
476.61	22.917
476.96	21.695
477.31	22.499
477.66	22.191
478.01	21.729
478.36	21.187
478.70	22.132
479.05	22.967
479.40	22.840
479.75	22.054
480.10	21.608
480.45	21.700
480.79	22.558
481.14	23.053
481.49	21.281
481.84	22.587
482.19	21.703
482.53	22.926
482.88	22.053
483.23	22.169
483.58	22.547
483.92	21.781
484.27	21.285
484.62	21.784
484.97	21.434
485.31	21.604
485.66	21.010
486.01	20.409
486.36	19.663
486.70	19.892
487.05	20.907
487.40	20.217
487.75	21.239
488.09	21.261
488.44	21.596
488.79	21.778
489.13	22.596
489.48	21.975
489.83	22.691
490.17	21.663
490.52	22.263
490.87	22.258
491.22	23.591
491.56	22.628
491.91	22.467
492.26	23.043
492.60	23.321
492.95	23.610
493.30	22.325
493.64	22.839
493.99	22.850
494.34	22.087
494.68	22.476
495.03	22.725
495.37	23.160
495.72	22.312
496.07	23.756
496.41	22.830
496.76	22.616
497.11	22.636
497.45	23.675
497.80	23.360
498.14	22.206
498.49	22.651
498.84	23.004
499.18	23.193
499.53	22.817
499.87	23.152
500.22	23.145
500.56	23.500
500.91	22.088
501.26	22.837
501.60	23.315
501.95	22.465
502.29	23.293
502.64	22.780
502.98	22.694
503.33	22.719
503.67	23.277
504.02	23.558
504.36	23.998
504.71	23.384
505.06	23.654
505.40	23.147
505.75	23.454
506.09	23.315
506.44	23.614
506.78	23.827
507.13	23.371
507.47	22.977
507.82	22.917
508.16	22.979
508.51	23.557
508.85	23.129
509.19	23.736
509.54	23.592
509.88	23.679
510.23	23.669
510.57	24.532
510.92	23.401
511.26	23.841
511.61	24.257
511.95	24.164
512.30	24.002
512.64	24.318
512.98	23.751
513.33	25.294
513.67	24.787
514.02	25.343
514.36	25.771
514.70	25.117
515.05	25.793
515.39	25.384
515.74	25.269
516.08	25.284
516.42	26.090
516.77	25.688
517.11	24.332
517.46	25.314
517.80	25.507
518.14	24.923
518.49	24.459
518.83	24.727
519.17	24.500
519.52	24.571
519.86	24.610
520.20	25.334
520.55	24.390
520.89	25.345
521.23	26.092
521.58	25.300
521.92	26.154
522.26	25.114
522.61	25.844
522.95	26.556
523.29	25.667
523.64	25.286
523.98	26.377
524.32	24.871
524.66	26.056
525.01	26.948
525.35	25.405
525.69	25.926
526.04	25.265
526.38	27.562
526.72	25.114
527.06	25.292
527.41	26.451
527.75	25.134
528.09	25.980
528.43	26.941
528.78	25.611
529.12	25.677
529.46	25.146
529.80	25.522
530.15	25.545
530.49	25.589
530.83	26.265
531.17	25.453
531.51	26.197
531.86	25.697
532.20	25.678
532.54	26.208
532.88	26.557
533.22	25.202
533.57	25.229
533.91	24.608
534.25	25.846
534.59	26.427
534.93	25.236
535.27	24.937
535.62	24.951
535.96	26.288
536.30	25.726
536.64	25.362
536.98	25.505
537.32	26.743
537.66	25.806
538.01	24.825
538.35	25.659
538.69	25.632
539.03	24.744
539.37	26.245
539.71	25.835
540.05	25.730
540.39	25.554
540.73	25.732
541.07	26.243
541.42	26.075
541.76	26.290
542.10	25.052
542.44	25.782
542.78	23.675
543.12	24.519
543.46	26.356
543.80	25.260
544.14	23.899
544.48	24.917
544.82	25.769
545.16	26.298
545.50	25.567
545.84	24.788
546.18	26.738
546.52	25.090
546.86	24.802
547.20	25.680
547.54	25.300
547.88	25.815
548.22	24.195
548.56	24.472
548.90	24.394
549.24	25.413
549.58	24.824
549.92	25.018
550.26	25.714
550.60	26.766
550.94	26.960
551.28	26.816
551.62	26.231
551.96	25.489
552.30	26.096
552.64	25.317
552.98	25.457
553.32	26.248
553.66	25.109
554.00	25.474
554.34	26.071
554.68	25.885
555.02	26.637
555.36	25.430
555.69	24.615
556.03	24.554
556.37	24.840
556.71	25.487
557.05	25.652
557.39	24.610
557.73	25.262
558.07	25.716
558.41	26.570
558.75	26.189
559.08	26.005
559.42	27.143
559.76	25.861
560.10	25.153
560.44	26.433
560.78	26.573
561.12	26.164
561.45	26.072
561.79	24.790
562.13	27.253
562.47	25.612
562.81	25.000
563.15	26.164
563.48	25.884
563.82	25.738
564.16	25.209
564.50	25.676
564.84	25.502
565.17	25.017
565.51	25.888
565.85	25.171
566.19	25.597
566.52	26.273
566.86	25.000
567.20	24.533
567.54	25.912
567.88	24.077
568.21	23.925
568.55	23.750
568.89	25.000
569.23	23.544
569.56	22.942
569.90	23.549
570.24	22.702
570.57	23.236
570.91	22.098
571.25	21.769
571.59	21.769
571.92	21.778
572.26	21.407
572.60	21.240
572.93	22.090
573.27	21.473
573.61	21.987
573.95	21.764
574.28	21.690
574.62	20.849
574.96	21.117
575.29	21.454
575.63	20.808
575.97	21.415
576.30	20.888
576.64	20.848
576.98	21.338
577.31	21.037
577.65	20.688
577.98	20.541
578.32	20.959
578.66	20.266
578.99	20.847
579.33	20.834
579.67	20.742
580.00	20.861
580.34	21.095
580.67	20.722
581.01	21.254
581.35	20.887
581.68	20.193
582.02	20.095
582.35	20.130
582.69	20.841
583.02	20.081
583.36	21.173
583.70	21.340
584.03	21.796
584.37	21.316
584.70	21.374
585.04	20.725
585.37	20.835
585.71	20.612
586.04	20.676
586.38	20.912
586.72	21.980
587.05	21.462
587.39	21.275
587.72	21.870
588.06	21.118
588.39	21.789
588.73	21.398
589.06	22.048
589.40	21.569
589.73	22.234
590.07	22.583
590.40	22.601
590.73	23.270
591.07	22.774
591.40	23.241
591.74	23.258
592.07	23.377
592.41	22.792
592.74	22.461
593.08	21.306
593.41	22.142
593.75	21.721
594.08	21.559
594.41	22.052
594.75	21.641
595.08	21.945
595.42	22.598
595.75	22.080
596.09	22.088
596.42	22.323
596.75	22.780
597.09	22.506
597.42	23.397
597.75	23.271
598.09	21.775
598.42	21.886
598.76	21.750
599.09	21.755
599.42	21.106
599.76	21.369
600.09	21.456
600.42	21.342
600.76	20.728
601.09	21.641
601.42	21.974
601.76	21.874
602.09	22.607
602.42	22.831
602.76	22.156
603.09	22.633
603.42	22.575
603.76	21.815
604.09	22.195
604.42	22.589
604.76	23.498
605.09	22.898
605.42	22.302
605.75	22.373
606.09	22.420
606.42	22.185
606.75	22.424
607.09	22.286
607.42	22.109
607.75	21.581
608.08	22.552
608.42	22.293
608.75	22.988
609.08	22.870
609.41	23.553
609.75	23.437
610.08	22.317
610.41	21.691
610.74	23.306
611.07	23.307
611.41	23.768
611.74	23.241
612.07	23.233
612.40	22.867
612.73	24.068
613.07	22.947
613.40	23.414
613.73	23.335
614.06	23.595
614.39	23.125
614.72	24.034
615.06	23.911
615.39	23.253
615.72	22.551
616.05	23.520
616.38	23.818
616.71	23.609
617.05	23.039
617.38	24.576
617.71	23.836
618.04	24.190
618.37	25.221
618.70	25.281
619.03	25.069
619.36	24.168
619.69	25.474
620.03	25.931
620.36	24.821
620.69	25.553
621.02	25.535
621.35	26.888
621.68	26.616
622.01	24.500
622.34	25.858
622.67	23.975
623.00	25.498
623.33	25.610
623.66	23.785
623.99	24.962
624.32	26.464
624.65	24.962
624.99	26.411
625.32	24.792
625.65	27.180
625.98	24.738
626.31	25.935
626.64	25.563
626.97	26.876
627.30	26.532
627.63	26.690
627.96	26.685
628.29	27.660
628.62	26.647
628.95	27.054
629.28	28.931
629.61	27.119
629.94	27.957
630.26	26.680
630.59	27.471
630.92	28.308
631.25	28.308
631.58	27.753
631.91	26.206
632.24	28.670
632.57	30.114
632.90	28.707
633.23	28.235
633.56	30.227
633.89	28.360
634.22	29.753
634.55	29.225
634.88	28.352
635.20	27.821
635.53	30.133
635.86	27.828
636.19	29.884
636.52	30.612
636.85	26.799
637.18	27.673
637.51	29.686
637.83	29.304
638.16	30.559
638.49	29.428
638.82	30.526
639.15	29.037
639.48	30.536
639.81	30.265
640.13	30.014
640.46	28.571
640.79	28.719
641.12	29.247
641.45	32.583
641.77	31.704
642.10	29.700
642.43	31.672
642.76	33.003
643.09	31.179
643.41	32.362
643.74	30.148
644.07	30.213
644.40	33.446
644.73	31.874
645.05	32.550
645.38	32.099
645.71	34.043
646.04	32.496
646.36	31.028
646.69	34.173
647.02	32.325
647.35	29.478
647.67	33.272
648.00	32.463
648.33	31.399
648.66	31.356
648.98	30.318
649.31	28.430
649.64	29.984
649.96	26.742
650.29	31.346
650.62	30.427
650.94	30.370
651.27	30.168
651.60	34.775
651.92	30.944
652.25	31.439
652.58	29.833
652.90	29.846
653.23	30.420
653.56	28.257
653.88	30.241
654.21	27.846
654.54	30.390
654.86	31.919
655.19	25.439
655.52	24.071
655.84	18.568
656.17	20.208
656.49	27.822
656.82	29.072
657.15	22.527
657.47	17.205
657.80	12.926
658.13	13.118
658.45	20.430
658.78	20.785
659.10	21.493
659.43	22.206
659.75	24.075
660.08	24.690
660.41	27.171
660.73	28.729
661.06	32.062
661.38	29.159
661.71	28.747
662.03	31.760
662.36	31.429
662.68	32.743
663.01	31.878
663.33	33.179
663.66	30.930
663.98	29.535
664.31	31.983
664.63	33.871
664.96	30.870
665.28	29.801
665.61	32.251
665.93	32.391
666.26	31.670
666.58	31.096
666.91	34.353
667.23	32.075
667.56	35.545
667.88	33.333
668.21	31.026
668.53	34.988
668.86	33.019
669.18	31.840
669.50	31.235
669.83	30.698
670.15	36.364
670.48	32.536
670.80	35.484
671.13	29.978
671.45	28.082
671.77	32.189
672.10	31.089
672.42	28.652
672.75	30.728
673.07	31.843
673.39	30.642
673.72	28.797
674.04	30.208
674.37	30.085
674.69	33.191
675.01	31.333
675.34	28.829
675.66	31.944
675.98	31.929
676.31	31.193
676.63	32.304
676.95	29.773
677.28	32.235
677.60	34.940
677.92	29.128
678.25	30.853
678.57	30.303
678.89	32.773
679.22	33.333
679.54	24.900
679.86	27.833
680.18	30.291
680.51	28.977
680.83	28.827
681.15	30.800
681.48	32.582
681.80	30.165
682.12	31.653
682.44	27.197
682.77	31.788
683.09	30.435
683.41	31.818
683.73	32.719
684.06	29.425
684.38	27.527
684.70	30.283
685.02	29.876
685.34	24.506
685.67	25.891
685.99	27.306
686.31	28.496
686.63	28.015
686.96	27.376
687.28	28.081
687.60	29.087
687.92	30.303
688.24	27.823
688.56	29.258
688.89	31.473
689.21	31.111
689.53	28.538
689.85	30.000
690.17	33.259
690.49	29.551
690.82	29.854
691.14	26.905
691.46	30.374
691.78	29.730
692.10	28.602
692.42	29.654
692.74	27.564
693.06	28.153
693.39	26.018
693.71	28.733
694.03	26.328
694.35	29.439
694.67	28.788
694.99	28.460
695.31	33.420
695.63	29.250
695.95	25.758
696.27	27.461
696.59	31.944
696.91	34.734
697.23	28.535
697.56	27.228
697.88	28.387
698.20	29.157
698.52	28.000
698.84	25.359
699.16	26.250
699.48	29.825
699.80	29.280
700.12	27.224
700.44	29.132
700.76	28.779
701.08	30.000
701.40	32.530
701.72	37.037
702.04	33.663
702.36	35.452
702.68	33.333
703.00	32.727
703.32	27.273
703.64	27.684
703.96	30.725
704.28	33.436
704.60	32.698
704.91	30.284
705.23	33.887
705.55	39.223
705.87	31.047
706.19	35.556
706.51	31.959
706.83	35.691
707.15	30.841
707.47	30.532
707.79	28.906
708.11	30.250
708.43	29.500
708.74	26.873
709.06	29.859
709.38	32.110
709.70	31.953
710.02	29.299
710.34	32.508
710.66	25.000
710.98	28.477
711.29	30.492
711.61	33.898
711.93	31.596
712.25	36.426
712.57	36.630
712.89	28.358
713.20	28.374
713.52	31.707
713.84	31.058
714.16	30.584
714.48	30.645
714.80	29.167
715.11	28.571
715.43	28.213
715.75	30.000
716.07	29.568
716.39	31.208
716.70	30.627
717.02	27.099
717.34	39.271
717.66	31.416
717.97	32.609
718.29	31.799
718.61	32.283
718.93	31.783
719.24	33.080
719.56	32.129
719.88	29.897
720.20	31.061
720.51	27.203
720.83	29.730
721.15	28.992
721.46	30.645
721.78	29.249
722.10	31.970
722.42	30.705
722.73	30.204
723.05	34.694
723.37	33.475
723.68	31.982
724.00	26.496
724.32	28.889
724.63	30.455
724.95	28.821
725.27	33.180
725.58	28.814
725.90	30.159
726.22	26.255
726.53	33.559
726.85	29.213
727.16	29.434
727.48	28.340
727.80	31.174
728.11	27.119
728.43	26.667
728.74	20.565
729.06	31.200
729.38	31.203
729.69	25.896
730.01	23.846
730.32	26.866
730.64	30.742
730.96	29.057
731.27	22.667
731.59	26.441
731.90	26.433
732.22	32.492
732.53	30.565
732.85	28.369
733.16	30.640
733.48	26.619
733.80	30.072
734.11	26.102
734.43	27.491
734.74	22.121
735.06	25.407
735.37	29.003
735.69	26.263
736.00	26.829
736.32	27.181
736.63	28.521
736.95	27.986
737.26	24.555
737.58	30.201
737.89	21.612
738.21	25.188
738.52	28.395
738.83	30.131
739.15	29.694
739.46	29.134
739.78	27.473
740.09	28.105
740.41	26.087
740.72	23.622
741.04	29.150
741.35	29.362
741.66	32.701
741.98	28.571
742.29	28.218
742.61	31.937
742.92	24.645
743.23	28.241
743.55	36.652
743.86	27.273
744.18	30.144
744.49	30.851
744.80	26.630
745.12	29.412
745.43	27.805
745.74	26.562
746.06	28.780
746.37	22.513
746.68	36.967
747.00	26.064
747.31	31.343
747.62	31.068
747.94	32.536
748.25	30.693
748.56	31.694
748.88	26.178
749.19	36.702
749.50	27.586
749.82	24.528
750.13	25.229
750.44	30.451
750.75	32.090
751.07	31.022
751.38	29.119
751.69	22.745
752.01	27.519
752.32	28.287
752.63	28.063
752.94	27.155
753.26	31.799
753.57	29.412
753.88	31.416
754.19	25.833
754.51	27.686
754.82	28.745
755.13	30.417
755.44	26.613
755.75	33.203
756.07	32.296
756.38	26.415
756.69	26.054
757.00	24.000
757.31	22.876
757.63	23.476
757.94	23.333
758.25	23.562
758.56	22.606
758.87	20.397
759.18	21.807
759.50	22.182
759.81	26.087
760.12	26.452
760.43	26.364
760.74	26.543
761.05	23.077
761.36	25.284
761.67	26.061
761.99	25.850
762.30	24.727
762.61	26.877
762.92	28.959
763.23	28.378
763.54	27.103
763.85	31.356
764.16	28.216
764.47	22.984
764.78	25.275
765.10	26.599
765.41	26.183
765.72	22.857
766.03	21.053
766.34	29.197
766.65	28.685
766.96	26.263
767.27	26.064
767.58	31.609
767.89	23.404
768.20	28.977
768.51	30.220
768.82	25.123
769.13	21.659
769.44	24.034
769.75	23.288
770.06	28.448
770.37	26.923
770.68	21.320
770.99	23.982
771.30	32.353
771.61	29.864
771.92	29.741
772.23	29.064
772.54	27.419
772.85	28.395
773.16	28.652
773.47	26.144
773.78	33.987
774.09	26.347
774.39	24.000
774.70	30.573
775.01	35.862
775.32	32.143
775.63	25.620
775.94	29.771
776.25	29.134
776.56	27.500
776.87	31.731
777.18	37.607
777.48	33.621
777.79	28.696
778.10	14.286
778.41	27.928
778.72	34.921
779.03	22.556
779.34	28.369
779.65	19.863
779.95	23.288
780.26	28.966
780.57	25.203
780.88	33.858
781.19	25.862
781.50	24.806
781.80	25.444
782.11	20.126
782.42	23.077
782.73	33.094
783.04	25.185
783.34	20.833
783.65	13.675
783.96	26.230
784.27	30.345
784.57	27.642
784.88	32.031
785.19	38.000
785.50	39.000
785.81	32.759
786.11	25.862
786.42	27.184
786.73	30.909
787.04	28.571
787.34	29.464
787.65	31.429
787.96	23.009
788.26	28.182
788.57	28.205
788.88	38.281
789.19	15.873
789.49	25.217
789.80	19.388
790.11	18.182
790.41	31.818
790.72	34.783
791.03	37.500
791.33	38.750
791.64	22.500
791.95	31.395
792.25	32.979
792.56	24.719
792.87	13.699
793.17	23.188
793.48	17.333
793.79	27.500
794.09	27.500
794.40	22.642
794.70	28.155
795.01	16.260
795.32	22.222
795.62	22.857
795.93	17.647
796.23	33.962
796.54	34.375
796.85	23.529
797.15	33.803
797.46	18.056
797.76	36.364
798.07	31.395
798.37	18.421
798.68	25.758
798.99	13.580
799.29	30.000
799.60	24.638
799.90	38.667
800.21	42.623
800.51	21.538
800.82	23.729
801.12	34.783
801.43	54.098
801.73	44.444
802.04	18.000
802.34	17.910
802.65	44.231
802.95	16.071
803.26	15.385
803.56	29.412
803.87	34.783
804.17	29.333
804.48	26.984
804.78	31.481
805.09	19.565
805.39	35.556
805.70	20.370
806.00	8.772
806.30	32.394
806.61	31.429
806.91	15.278
807.22	43.421
807.52	33.333
807.83	20.000
808.13	30.556
808.43	32.353
808.74	22.388
809.04	25.424
809.35	21.154
809.65	31.250
809.95	5.405
810.26	29.545
810.56	26.027
810.86	38.095
811.17	38.000
811.47	12.245
811.77	36.842
812.08	31.818
812.38	35.849
812.69	30.000
812.99	33.333
813.29	15.789
813.59	5.714
813.90	70.455
814.20	23.077
814.50	23.077
814.81	49.057
815.11	29.787
815.41	35.593
815.72	57.143
816.02	52.941
816.32	25.000
816.62	21.951
816.93	35.135
817.23	34.286
817.53	39.583
817.84	-4.348
818.14	30.769
818.44	10.526
818.74	34.783
819.04	-20.000
819.35	13.514
819.65	17.647
819.95	22.222
820.25	21.429
820.56	50.000
820.86	10.345
821.16	65.000
821.46	36.170
821.76	62.500
822.07	9.302
822.37	-13.514
822.67	21.875
822.97	40.476
823.27	17.857
823.57	16.000
823.88	18.519
824.18	17.857
824.48	35.294
824.78	80.645
825.08	21.739
825.38	39.394
825.69	16.667
825.99	36.842
826.29	27.778
826.59	73.333
826.89	-19.048
827.19	36.957
827.49	35.000
827.79	45.714
828.09	46.429
828.39	12.121
828.70	62.162
829.00	46.429
829.30	38.095
829.60	43.333
829.90	37.500
830.20	15.789
830.50	55.556
830.80	13.043
831.10	36.364
831.40	51.515
831.70	51.613
832.00	76.190
832.30	14.286
832.60	58.333
832.90	-3.448
833.20	10.000
833.50	54.545
833.80	88.889
834.10	26.923
834.40	37.500
834.70	0.000
835.00	94.737
835.30	53.846
835.60	6.667
835.90	45.161
836.20	68.182
836.50	28.571
836.80	-11.538
837.10	21.429
837.40	66.667
837.70	-13.636
838.00	-9.091
838.30	52.174
838.60	53.846
838.90	27.273
839.19	35.714
839.49	43.333
839.79	30.769
840.09	-8.333
840.39	57.143
840.69	71.429
840.99	3.846
841.29	-21.053
841.59	60.000
841.88	18.182
842.18	110.000
842.48	6.250
842.78	46.667
843.08	22.222
843.38	-100.000
843.68	56.522
843.97	60.000
844.27	-20.000
844.57	25.000
844.87	27.778
845.17	57.143
845.47	26.667
845.76	-9.524
846.06	5.882
846.36	40.000
846.66	-35.714
846.96	80.000
847.25	-112.500
847.55	71.429
847.85	50.000
848.15	50.000
848.44	-466.667
848.74	55.000
849.04	66.667
849.34	36.364
849.63	166.667
849.93	-100.000
850.23	-16.667
850.53	70.000
850.82	46.154
851.12	22.222
851.42	33.333
851.71	38.462
852.01	85.714
852.31	-25.000
852.61	-54.545
852.90	35.000
853.20	63.158
853.50	50.000
853.79	82.609
854.09	66.667
854.39	15.789
854.68	0.000
854.98	45.161
855.28	34.615
855.57	-5.000
855.87	55.556
856.17	40.741
856.46	-50.000
856.76	20.000
857.05	77.778
857.35	36.000
857.65	16.667
857.94	53.846
858.24	82.759
858.53	33.333
858.83	37.037
859.13	45.455
859.42	13.043
859.72	125.000
860.01	-266.667
860.31	68.000
860.60	28.571
860.90	0.000
861.20	-20.000
861.49	-200.000
861.79	-20.000
862.08	75.000
862.38	140.000
862.67	40.000
862.97	66.667
863.26	50.000
863.56	27.778
863.85	-233.333
864.15	50.000
864.44	120.000
864.74	114.286
865.03	175.000
865.33	60.000
865.62	166.667
865.92	50.000
866.21	-100.000
866.51	18.750
866.80	-63.636
867.10	250.000
867.39	125.000
867.69	0.000
867.98	38.462
868.27	-166.667
868.57	-20.000
868.86	16.667
869.16	-38.462
869.45	73.333
869.75	-800.000
870.04	0.000
870.33	-85.714
870.63	52.381
870.92	266.667
871.22	60.000
871.51	-200.000
871.80	0.000
872.10	233.333
>>>>>End Processed Spectral Data<<<<<
