SpectraSuite Data File
++++++++++++++++++++++++++++++++++++
Date: Fri May 15 20:03:28 PDT 2015
User: schluterlab
Dark Spectrum Present: Yes
Reference Spectrum Present: Yes
Number of Sampled Component Spectra: 1
Spectrometers: USB2E3373
Integration Time (usec): 3000 (USB2E3373)
Spectra Averaged: 3 (USB2E3373)
Boxcar Smoothing: 0 (USB2E3373)
Correct for Electrical Dark: No (USB2E3373)
Strobe/Lamp Enabled: No (USB2E3373)
Correct for Detector Non-linearity: No (USB2E3373)
Correct for Stray Light: No (USB2E3373)
Number of Pixels in Processed Spectrum: 2048
>>>>>Begin Processed Spectral Data<<<<<
178.53	0.000
178.91	0.000
179.29	125.000
179.67	-500.000
180.04	-185.714
180.42	-100.000
180.80	-200.000
181.18	-33.333
181.56	450.000
181.94	150.000
182.31	-400.000
182.69	40.000
183.07	-166.667
183.45	-200.000
183.83	116.667
184.20	27.273
184.58	-0.000
184.96	-150.000
185.34	-66.667
185.72	-250.000
186.09	69.231
186.47	-200.000
186.85	166.667
187.23	188.889
187.61	-1000.000
187.98	-166.667
188.36	11.111
188.74	33.333
189.12	-23.529
189.49	50.000
189.87	0.000
190.25	107.143
190.63	200.000
191.00	-200.000
191.38	100.000
191.76	100.000
192.14	25.000
192.51	600.000
192.89	-88.889
193.27	14.286
193.65	83.333
194.02	145.455
194.40	100.000
194.78	-112.500
195.15	-66.667
195.53	12.500
195.91	200.000
196.29	100.000
196.66	130.769
197.04	14.286
197.42	-11.111
197.79	-100.000
198.17	-76.923
198.55	200.000
198.92	-366.667
199.30	-400.000
199.68	-200.000
200.05	-333.333
200.43	0.000
200.81	66.667
201.18	66.667
201.56	-300.000
201.94	-50.000
202.31	-233.333
202.69	-100.000
203.07	200.000
203.44	0.000
203.82	0.000
204.19	7.143
204.57	-366.667
204.95	125.000
205.32	20.000
205.70	-57.143
206.08	-75.000
206.45	222.222
206.83	164.286
207.20	14.286
207.58	400.000
207.96	-33.333
208.33	-140.000
208.71	-150.000
209.08	-183.333
209.46	-400.000
209.84	20.000
210.21	-100.000
210.59	-71.429
210.96	-50.000
211.34	125.000
211.71	20.000
212.09	-57.143
212.46	-1200.000
212.84	0.000
213.22	80.000
213.59	500.000
213.97	100.000
214.34	81.818
214.72	-66.667
215.09	150.000
215.47	46.154
215.84	-45.455
216.22	0.000
216.59	-62.500
216.97	-100.000
217.34	75.000
217.72	0.000
218.09	25.000
218.47	37.500
218.84	200.000
219.22	-33.333
219.59	80.000
219.97	466.667
220.34	175.000
220.72	0.000
221.09	50.000
221.47	-300.000
221.84	-550.000
222.22	-450.000
222.59	36.364
222.97	-66.667
223.34	-200.000
223.72	-57.143
224.09	14.286
224.46	10.714
224.84	333.333
225.21	-40.000
225.59	33.333
225.96	-100.000
226.34	450.000
226.71	-100.000
227.08	-100.000
227.46	62.500
227.83	-350.000
228.21	66.667
228.58	54.545
228.95	12.500
229.33	70.000
229.70	56.250
230.08	-37.500
230.45	100.000
230.82	0.000
231.20	-13.333
231.57	50.000
231.95	14.286
232.32	-30.000
232.69	21.429
233.07	100.000
233.44	20.000
233.81	-40.000
234.19	0.000
234.56	47.059
234.93	550.000
235.31	300.000
235.68	-160.000
236.05	0.000
236.43	0.000
236.80	-41.176
237.17	15.625
237.55	-15.000
237.92	-3.704
238.29	5.556
238.67	6.667
239.04	-23.529
239.41	-31.707
239.79	-10.000
240.16	17.073
240.53	-15.789
240.91	-17.391
241.28	20.635
241.65	-7.143
242.02	2.740
242.40	6.667
242.77	-1.695
243.14	-4.545
243.51	-2.500
243.89	13.793
244.26	0.000
244.63	-4.762
245.00	-3.093
245.38	6.186
245.75	-4.494
246.12	0.862
246.49	4.132
246.87	6.731
247.24	2.521
247.61	-13.158
247.98	-7.317
248.36	-0.625
248.73	2.632
249.10	1.299
249.47	-1.266
249.84	-3.268
250.22	-2.353
250.59	0.654
250.96	8.451
251.33	-9.884
251.70	-0.588
252.08	2.538
252.45	1.980
252.82	-2.513
253.19	5.530
253.56	-4.206
253.94	5.856
254.31	2.174
254.68	4.386
255.05	-2.756
255.42	-0.873
255.79	-0.772
256.16	2.335
256.54	1.866
256.91	0.760
257.28	-2.230
257.65	-0.749
258.02	-0.355
258.39	0.673
258.76	1.832
259.14	0.000
259.51	3.236
259.88	0.687
260.25	0.980
260.62	-0.347
260.99	-2.373
261.36	-1.712
261.73	-2.848
262.10	1.520
262.47	-0.307
262.85	0.000
263.22	-1.538
263.59	-1.246
263.96	1.553
264.33	1.212
264.70	-1.488
265.07	-0.298
265.44	-0.567
265.81	0.000
266.18	0.546
266.55	0.514
266.92	1.036
267.29	1.828
267.66	1.023
268.03	1.571
268.40	-2.350
268.77	3.476
269.14	2.878
269.51	0.257
269.88	0.000
270.25	-0.255
270.62	-2.439
270.99	-3.836
271.36	-2.689
271.73	1.878
272.10	2.190
272.47	2.364
272.84	-2.475
273.21	3.480
273.58	-0.482
273.95	2.975
274.32	-0.231
274.69	-1.810
275.06	3.348
275.43	-0.227
275.80	-1.104
276.17	-1.839
276.54	0.428
276.91	0.658
277.28	-2.620
277.65	1.446
278.02	0.426
278.39	-2.845
278.76	0.210
279.13	-2.075
279.50	1.261
279.87	2.160
280.23	-0.215
280.60	1.754
280.97	1.212
281.34	-1.346
281.71	1.643
282.08	-1.431
282.45	-0.783
282.82	0.000
283.19	1.741
283.56	1.349
283.92	0.000
284.29	-0.769
284.66	0.194
285.03	0.000
285.40	-0.567
285.77	0.000
286.14	1.986
286.51	2.030
286.87	0.000
287.24	-1.289
287.61	-1.235
287.98	1.754
288.35	-0.173
288.72	1.226
289.08	-0.347
289.45	0.176
289.82	0.699
290.19	-0.341
290.56	-0.686
290.93	0.337
291.29	-0.770
291.66	1.417
292.03	0.159
292.40	-0.323
292.77	0.478
293.13	-1.299
293.50	-0.455
293.87	0.153
294.24	0.773
294.60	0.447
294.97	0.149
295.34	-0.613
295.71	1.341
296.08	-0.598
296.44	-1.280
296.81	0.000
297.18	0.580
297.55	1.762
297.91	0.548
298.28	1.847
298.65	0.407
299.02	-0.270
299.38	-1.642
299.75	0.414
300.12	0.000
300.48	-1.186
300.85	0.887
301.22	-0.130
301.59	-1.316
301.95	2.532
302.32	2.724
302.69	1.244
303.05	0.124
303.42	0.872
303.79	1.051
304.15	1.553
304.52	-0.238
304.89	-0.117
305.25	0.363
305.62	0.350
305.99	0.000
306.35	-0.347
306.72	-0.450
307.09	-0.228
307.45	1.148
307.82	-0.579
308.19	1.278
308.55	0.436
308.92	1.307
309.29	-0.782
309.65	0.646
310.02	0.880
310.38	-0.439
310.75	0.984
311.12	0.861
311.48	1.060
311.85	0.838
312.22	0.105
312.58	1.486
312.95	-0.427
313.31	0.621
313.68	0.942
314.05	0.510
314.41	2.268
314.78	0.515
315.14	1.028
315.51	1.449
315.87	1.844
316.24	2.123
316.61	2.362
316.97	2.679
317.34	1.562
317.70	1.816
318.07	1.635
318.43	3.137
318.80	2.273
319.16	2.832
319.53	3.609
319.89	2.953
320.26	3.340
320.62	4.614
320.99	3.027
321.35	3.392
321.72	4.673
322.08	3.726
322.45	5.787
322.81	5.992
323.18	6.281
323.54	5.792
323.91	5.940
324.27	7.422
324.64	9.270
325.00	8.942
325.37	10.285
325.73	8.160
326.10	9.900
326.46	11.839
326.83	10.674
327.19	11.508
327.56	12.685
327.92	12.852
328.29	12.946
328.65	12.925
329.01	13.695
329.38	15.300
329.74	13.975
330.11	15.941
330.47	15.492
330.84	16.538
331.20	18.821
331.56	17.407
331.93	19.178
332.29	18.240
332.66	18.824
333.02	18.030
333.38	18.332
333.75	19.963
334.11	19.427
334.48	19.855
334.84	20.696
335.20	20.860
335.57	19.674
335.93	20.687
336.29	21.915
336.66	20.527
337.02	20.539
337.38	21.019
337.75	20.818
338.11	22.904
338.47	22.810
338.84	23.105
339.20	23.035
339.56	22.385
339.93	22.471
340.29	22.661
340.65	24.552
341.02	22.163
341.38	22.478
341.74	21.996
342.11	21.924
342.47	22.598
342.83	22.491
343.20	22.909
343.56	22.348
343.92	21.701
344.28	22.459
344.65	23.057
345.01	22.213
345.37	23.381
345.73	21.339
346.10	21.829
346.46	22.372
346.82	21.931
347.19	21.197
347.55	22.389
347.91	22.330
348.27	22.312
348.63	24.106
349.00	21.247
349.36	21.114
349.72	23.632
350.08	21.967
350.45	22.426
350.81	22.093
351.17	20.603
351.53	21.714
351.89	22.130
352.26	22.080
352.62	21.774
352.98	20.884
353.34	22.464
353.70	21.764
354.07	22.177
354.43	22.338
354.79	22.213
355.15	22.937
355.51	21.598
355.87	21.845
356.24	21.289
356.60	21.665
356.96	21.984
357.32	21.805
357.68	21.032
358.04	21.648
358.40	22.106
358.77	22.488
359.13	21.697
359.49	22.034
359.85	22.075
360.21	22.010
360.57	22.647
360.93	22.466
361.29	21.073
361.66	22.257
362.02	22.273
362.38	22.468
362.74	21.877
363.10	22.874
363.46	22.980
363.82	23.516
364.18	22.066
364.54	22.059
364.90	22.437
365.26	21.616
365.62	22.701
365.98	23.021
366.35	21.923
366.71	22.173
367.07	23.149
367.43	21.927
367.79	22.544
368.15	22.613
368.51	22.651
368.87	21.895
369.23	21.877
369.59	21.283
369.95	22.874
370.31	22.254
370.67	21.194
371.03	22.181
371.39	22.465
371.75	23.223
372.11	23.609
372.47	24.704
372.83	24.414
373.19	23.324
373.55	22.816
373.91	22.606
374.27	22.821
374.63	23.546
374.99	23.475
375.35	22.632
375.71	23.776
376.07	22.542
376.42	24.150
376.78	24.228
377.14	24.035
377.50	23.705
377.86	24.632
378.22	24.059
378.58	23.269
378.94	23.314
379.30	24.329
379.66	24.389
380.02	23.605
380.38	23.859
380.74	24.536
381.09	25.092
381.45	24.954
381.81	24.121
382.17	24.365
382.53	25.484
382.89	23.792
383.25	25.016
383.61	24.512
383.97	24.381
384.32	24.453
384.68	24.644
385.04	24.877
385.40	24.082
385.76	25.975
386.12	27.232
386.48	24.904
386.83	25.238
387.19	25.031
387.55	25.408
387.91	25.428
388.27	25.336
388.62	25.865
388.98	25.476
389.34	24.859
389.70	25.792
390.06	25.551
390.42	26.036
390.77	24.918
391.13	24.527
391.49	25.032
391.85	25.666
392.20	25.424
392.56	25.683
392.92	25.719
393.28	25.472
393.64	25.345
393.99	25.016
394.35	24.605
394.71	25.607
395.07	25.330
395.42	24.894
395.78	25.863
396.14	24.590
396.50	25.111
396.85	25.370
397.21	24.436
397.57	25.643
397.92	25.884
398.28	24.598
398.64	25.602
399.00	25.903
399.35	24.379
399.71	24.813
400.07	25.272
400.42	24.908
400.78	25.413
401.14	25.166
401.49	24.479
401.85	25.168
402.21	25.301
402.57	23.625
402.92	23.714
403.28	25.063
403.63	24.590
403.99	24.745
404.35	25.484
404.70	23.869
405.06	24.677
405.42	24.114
405.77	23.765
406.13	23.981
406.49	24.038
406.84	24.205
407.20	24.082
407.55	23.825
407.91	23.195
408.27	24.092
408.62	25.108
408.98	24.276
409.34	24.473
409.69	24.225
410.05	23.461
410.40	24.568
410.76	24.487
411.11	24.187
411.47	24.655
411.83	23.164
412.18	24.196
412.54	24.220
412.89	22.660
413.25	24.188
413.60	25.093
413.96	23.558
414.31	23.720
414.67	24.439
415.03	23.968
415.38	22.846
415.74	24.039
416.09	24.624
416.45	24.510
416.80	23.662
417.16	24.309
417.51	24.384
417.87	24.185
418.22	23.251
418.58	24.147
418.93	25.266
419.29	23.047
419.64	23.720
420.00	24.874
420.35	24.358
420.71	23.998
421.06	24.125
421.42	24.880
421.77	25.202
422.12	24.574
422.48	24.418
422.83	24.362
423.19	24.661
423.54	24.691
423.90	24.205
424.25	24.340
424.61	25.949
424.96	24.913
425.31	26.285
425.67	25.998
426.02	25.383
426.38	25.485
426.73	25.484
427.09	26.519
427.44	25.941
427.79	24.867
428.15	26.092
428.50	26.227
428.85	25.000
429.21	25.863
429.56	26.469
429.92	25.937
430.27	24.962
430.62	26.660
430.98	25.796
431.33	26.551
431.68	26.478
432.04	26.775
432.39	25.784
432.74	25.556
433.10	26.839
433.45	26.105
433.80	25.885
434.16	25.097
434.51	27.204
434.86	26.423
435.22	27.033
435.57	27.012
435.92	27.425
436.28	27.013
436.63	26.868
436.98	26.304
437.34	26.013
437.69	27.191
438.04	26.895
438.39	25.962
438.75	26.351
439.10	27.221
439.45	27.937
439.81	28.379
440.16	26.663
440.51	27.522
440.86	27.009
441.22	26.923
441.57	27.318
441.92	27.702
442.27	27.827
442.63	28.319
442.98	27.455
443.33	27.379
443.68	27.745
444.03	28.465
444.39	26.513
444.74	27.982
445.09	28.229
445.44	28.661
445.79	28.881
446.15	27.863
446.50	28.064
446.85	28.533
447.20	27.529
447.55	29.185
447.91	27.468
448.26	28.628
448.61	27.519
448.96	28.399
449.31	27.572
449.66	28.165
450.02	28.294
450.37	28.631
450.72	27.721
451.07	28.544
451.42	28.277
451.77	29.054
452.12	26.914
452.47	28.397
452.83	28.210
453.18	28.463
453.53	29.204
453.88	29.508
454.23	28.765
454.58	29.975
454.93	29.446
455.28	26.984
455.63	29.200
455.98	29.044
456.34	29.119
456.69	28.907
457.04	29.427
457.39	28.797
457.74	28.960
458.09	28.840
458.44	29.023
458.79	28.964
459.14	29.119
459.49	28.597
459.84	29.103
460.19	27.973
460.54	28.973
460.89	28.523
461.24	29.255
461.59	29.929
461.94	28.050
462.29	29.795
462.64	30.432
462.99	29.452
463.34	28.303
463.69	29.601
464.04	29.661
464.39	29.109
464.74	28.160
465.09	29.382
465.44	29.025
465.79	28.061
466.14	29.475
466.49	28.465
466.84	29.685
467.19	29.662
467.54	28.097
467.89	28.617
468.24	29.440
468.59	29.841
468.94	29.333
469.29	29.115
469.64	30.075
469.99	28.872
470.34	27.440
470.68	30.127
471.03	29.653
471.38	29.529
471.73	29.482
472.08	29.308
472.43	28.591
472.78	29.335
473.13	28.163
473.48	28.925
473.83	29.078
474.17	29.922
474.52	29.866
474.87	29.818
475.22	28.737
475.57	29.136
475.92	30.170
476.27	29.511
476.61	29.919
476.96	29.448
477.31	29.908
477.66	29.270
478.01	28.748
478.36	29.139
478.70	30.125
479.05	29.945
479.40	29.571
479.75	28.728
480.10	30.056
480.45	28.850
480.79	29.909
481.14	29.406
481.49	28.966
481.84	29.537
482.19	29.280
482.53	29.305
482.88	29.069
483.23	29.319
483.58	28.915
483.92	28.654
484.27	29.444
484.62	30.031
484.97	28.731
485.31	28.540
485.66	28.076
486.01	28.796
486.36	28.910
486.70	29.405
487.05	29.774
487.40	29.317
487.75	29.211
488.09	28.986
488.44	29.574
488.79	28.838
489.13	29.487
489.48	29.201
489.83	30.045
490.17	30.337
490.52	28.545
490.87	28.644
491.22	29.417
491.56	28.843
491.91	30.258
492.26	29.023
492.60	29.415
492.95	30.251
493.30	28.823
493.64	29.912
493.99	30.435
494.34	29.466
494.68	30.048
495.03	29.440
495.37	29.833
495.72	29.732
496.07	30.146
496.41	28.774
496.76	30.447
497.11	29.669
497.45	29.212
497.80	30.121
498.14	29.210
498.49	28.695
498.84	29.291
499.18	29.367
499.53	29.365
499.87	28.940
500.22	29.624
500.56	29.955
500.91	29.920
501.26	29.412
501.60	29.316
501.95	30.713
502.29	30.169
502.64	29.102
502.98	29.650
503.33	28.915
503.67	29.446
504.02	30.108
504.36	29.787
504.71	28.384
505.06	29.139
505.40	28.528
505.75	29.124
506.09	28.535
506.44	30.852
506.78	29.694
507.13	30.352
507.47	28.721
507.82	28.579
508.16	29.319
508.51	28.961
508.85	29.304
509.19	28.952
509.54	29.223
509.88	29.612
510.23	28.994
510.57	29.182
510.92	27.505
511.26	29.787
511.61	29.648
511.95	29.808
512.30	29.379
512.64	29.772
512.98	29.478
513.33	29.267
513.67	29.449
514.02	30.034
514.36	30.114
514.70	30.769
515.05	29.553
515.39	28.808
515.74	30.659
516.08	30.066
516.42	30.153
516.77	30.193
517.11	29.674
517.46	29.683
517.80	29.082
518.14	29.394
518.49	28.906
518.83	29.344
519.17	29.169
519.52	29.603
519.86	29.232
520.20	29.648
520.55	29.143
520.89	29.548
521.23	29.766
521.58	29.779
521.92	29.231
522.26	29.278
522.61	30.065
522.95	30.795
523.29	30.051
523.64	29.479
523.98	29.942
524.32	30.219
524.66	29.962
525.01	30.195
525.35	30.201
525.69	29.091
526.04	29.167
526.38	30.026
526.72	28.908
527.06	28.599
527.41	30.541
527.75	30.161
528.09	29.767
528.43	30.182
528.78	29.175
529.12	30.065
529.46	29.500
529.80	29.386
530.15	29.901
530.49	29.495
530.83	29.617
531.17	29.349
531.51	30.301
531.86	28.824
532.20	28.949
532.54	29.204
532.88	29.500
533.22	29.704
533.57	29.620
533.91	29.047
534.25	29.232
534.59	29.891
534.93	27.816
535.27	28.807
535.62	28.516
535.96	30.137
536.30	29.354
536.64	29.704
536.98	28.711
537.32	29.516
537.66	29.663
538.01	28.601
538.35	30.166
538.69	29.361
539.03	28.571
539.37	29.341
539.71	29.789
540.05	28.242
540.39	28.740
540.73	29.707
541.07	29.006
541.42	29.704
541.76	29.181
542.10	29.250
542.44	29.326
542.78	27.805
543.12	27.610
543.46	29.485
543.80	29.632
544.14	28.438
544.48	28.314
544.82	29.050
545.16	29.645
545.50	29.907
545.84	30.099
546.18	29.574
546.52	28.911
546.86	29.835
547.20	29.256
547.54	28.127
547.88	29.212
548.22	28.665
548.56	29.551
548.90	30.054
549.24	27.686
549.58	30.395
549.92	28.449
550.26	28.864
550.60	29.368
550.94	29.350
551.28	29.598
551.62	29.538
551.96	29.023
552.30	28.728
552.64	29.196
552.98	29.466
553.32	28.174
553.66	28.592
554.00	30.438
554.34	29.099
554.68	28.982
555.02	29.539
555.36	29.170
555.69	28.278
556.03	27.766
556.37	28.826
556.71	29.025
557.05	29.157
557.39	27.732
557.73	29.235
558.07	29.940
558.41	29.250
558.75	28.995
559.08	28.763
559.42	28.810
559.76	29.063
560.10	29.128
560.44	27.848
560.78	30.629
561.12	28.843
561.45	29.656
561.79	29.412
562.13	29.028
562.47	28.273
562.81	29.755
563.15	29.478
563.48	28.784
563.82	29.375
564.16	28.552
564.50	28.514
564.84	29.987
565.17	29.779
565.51	30.123
565.85	29.835
566.19	29.443
566.52	29.290
566.86	30.077
567.20	28.207
567.54	29.562
567.88	29.115
568.21	29.129
568.55	28.696
568.89	29.363
569.23	28.021
569.56	28.984
569.90	29.070
570.24	28.024
570.57	28.255
570.91	29.104
571.25	28.313
571.59	27.811
571.92	28.207
572.26	27.989
572.60	28.496
572.93	28.083
573.27	28.182
573.61	28.103
573.95	27.799
574.28	27.940
574.62	27.485
574.96	27.973
575.29	27.764
575.63	27.339
575.97	27.596
576.30	27.889
576.64	27.285
576.98	27.671
577.31	27.722
577.65	28.073
577.98	27.663
578.32	27.842
578.66	27.574
578.99	27.749
579.33	27.604
579.67	27.227
580.00	27.823
580.34	27.413
580.67	27.967
581.01	27.810
581.35	27.821
581.68	27.672
582.02	27.363
582.35	27.744
582.69	27.659
583.02	27.580
583.36	27.892
583.70	28.375
584.03	28.746
584.37	28.600
584.70	28.187
585.04	27.513
585.37	27.617
585.71	27.993
586.04	27.559
586.38	27.821
586.72	28.350
587.05	28.683
587.39	28.068
587.72	28.786
588.06	27.678
588.39	28.340
588.73	28.388
589.06	29.061
589.40	28.344
589.73	28.697
590.07	28.399
590.40	28.251
590.73	29.077
591.07	28.159
591.40	28.183
591.74	28.914
592.07	28.989
592.41	29.108
592.74	29.112
593.08	27.803
593.41	28.797
593.75	28.001
594.08	28.184
594.41	28.493
594.75	27.481
595.08	27.847
595.42	28.082
595.75	28.239
596.09	27.795
596.42	29.144
596.75	28.996
597.09	28.610
597.42	28.500
597.75	29.088
598.09	28.474
598.42	27.933
598.76	28.486
599.09	27.965
599.42	27.814
599.76	28.029
600.09	27.413
600.42	28.052
600.76	28.306
601.09	28.206
601.42	27.967
601.76	28.742
602.09	28.878
602.42	29.191
602.76	29.202
603.09	28.987
603.42	29.390
603.76	28.387
604.09	28.149
604.42	28.130
604.76	28.749
605.09	28.519
605.42	28.713
605.75	27.933
606.09	28.790
606.42	28.107
606.75	28.485
607.09	28.615
607.42	28.135
607.75	28.286
608.08	28.527
608.42	28.186
608.75	29.060
609.08	28.401
609.41	28.985
609.75	28.579
610.08	29.206
610.41	28.164
610.74	28.718
611.07	28.269
611.41	28.853
611.74	28.838
612.07	28.051
612.40	28.884
612.73	29.040
613.07	28.571
613.40	28.556
613.73	28.483
614.06	28.548
614.39	28.483
614.72	28.515
615.06	28.212
615.39	27.893
615.72	28.310
616.05	28.603
616.38	28.148
616.71	28.440
617.05	29.339
617.38	28.598
617.71	28.302
618.04	29.206
618.37	29.950
618.70	29.505
619.03	30.486
619.36	27.713
619.69	29.719
620.03	30.752
620.36	28.684
620.69	27.409
621.02	28.517
621.35	30.124
621.68	29.592
622.01	30.083
622.34	29.370
622.67	29.495
623.00	28.484
623.33	28.277
623.66	29.245
623.99	28.593
624.32	28.441
624.65	27.895
624.99	29.646
625.32	28.052
625.65	29.694
625.98	30.137
626.31	28.845
626.64	29.549
626.97	30.628
627.30	29.860
627.63	28.769
627.96	30.099
628.29	29.325
628.62	28.712
628.95	29.559
629.28	30.343
629.61	28.714
629.94	30.108
630.26	28.261
630.59	31.322
630.92	30.872
631.25	27.282
631.58	29.075
631.91	28.070
632.24	29.931
632.57	28.750
632.90	29.300
633.23	29.059
633.56	31.360
633.89	28.607
634.22	30.123
634.55	29.733
634.88	30.651
635.20	28.590
635.53	30.133
635.86	28.218
636.19	31.177
636.52	29.592
636.85	28.040
637.18	28.805
637.51	28.050
637.83	30.618
638.16	32.333
638.49	28.883
638.82	30.789
639.15	29.851
639.48	29.574
639.81	30.823
640.13	30.736
640.46	29.738
640.79	29.013
641.12	31.462
641.45	28.228
641.77	31.704
642.10	32.227
642.43	30.707
642.76	32.673
643.09	28.433
643.41	29.126
643.74	29.654
644.07	32.020
644.40	29.899
644.73	30.998
645.05	32.383
645.38	29.277
645.71	29.965
646.04	31.598
646.36	26.596
646.69	31.655
647.02	28.733
647.35	29.664
647.67	28.519
648.00	32.649
648.33	31.911
648.66	29.661
648.98	27.806
649.31	27.107
649.64	29.199
649.96	29.984
650.29	28.790
650.62	29.060
650.94	30.926
651.27	30.168
651.60	30.811
651.92	29.021
652.25	29.840
652.58	29.667
652.90	32.075
653.23	29.244
653.56	26.227
653.88	28.351
654.21	30.298
654.54	27.844
654.86	32.937
655.19	27.632
655.52	28.638
655.84	26.497
656.17	29.286
656.49	39.640
656.82	41.380
657.15	31.814
657.47	24.052
657.80	17.936
658.13	17.712
658.45	28.049
658.78	27.915
659.10	27.441
659.43	27.306
659.75	28.022
660.08	28.069
660.41	28.703
660.73	28.867
661.06	30.503
661.38	28.180
661.71	29.979
662.03	33.906
662.36	29.011
662.68	30.973
663.01	31.659
663.33	29.698
663.66	28.372
663.98	26.512
664.31	29.211
664.63	28.571
664.96	28.043
665.28	28.698
665.61	30.519
665.93	31.522
666.26	31.020
666.58	28.412
666.91	27.294
667.23	33.491
667.56	31.280
667.88	29.976
668.21	29.833
668.53	32.388
668.86	33.019
669.18	27.358
669.50	28.087
669.83	29.767
670.15	31.002
670.48	29.426
670.80	32.258
671.13	27.964
671.45	26.484
671.77	31.974
672.10	31.287
672.42	26.030
672.75	28.064
673.07	28.801
673.39	32.110
673.72	24.063
674.04	28.958
674.37	30.932
674.69	31.478
675.01	27.556
675.34	30.180
675.66	29.398
675.98	28.603
676.31	30.963
676.63	28.266
676.95	26.818
677.28	30.118
677.60	29.157
677.92	27.294
678.25	28.009
678.57	30.736
678.89	31.092
679.22	29.530
679.54	26.908
679.86	24.851
680.18	26.214
680.51	27.462
680.83	25.646
681.15	28.200
681.48	31.352
681.80	30.165
682.12	27.823
682.44	25.523
682.77	27.815
683.09	28.375
683.41	27.500
683.73	29.263
684.06	27.876
684.38	26.667
684.70	28.105
685.02	26.763
685.34	24.704
685.67	26.829
685.99	28.933
686.31	26.195
686.63	27.829
686.96	26.806
687.28	23.838
687.60	29.468
687.92	28.485
688.24	26.815
688.56	28.166
688.89	27.679
689.21	26.222
689.53	26.450
689.85	28.837
690.17	29.464
690.49	26.714
690.82	24.757
691.14	28.571
691.46	29.206
691.78	27.703
692.10	29.032
692.42	27.273
692.74	28.419
693.06	28.604
693.39	25.113
693.71	25.792
694.03	25.173
694.35	25.467
694.67	24.747
694.99	27.154
695.31	28.982
695.63	29.250
695.95	25.253
696.27	24.870
696.59	28.889
696.91	25.210
697.23	23.393
697.56	26.238
697.88	30.538
698.20	30.296
698.52	28.000
698.84	22.727
699.16	26.250
699.48	23.810
699.80	26.055
700.12	28.571
700.44	30.252
700.76	30.523
701.08	26.364
701.40	25.301
701.72	29.938
702.04	30.693
702.36	30.435
702.68	31.532
703.00	26.970
703.32	25.806
703.64	23.164
703.96	28.116
704.28	28.834
704.60	28.254
704.91	24.290
705.23	26.578
705.55	30.035
705.87	29.964
706.19	24.444
706.51	26.117
706.83	30.547
707.15	24.611
707.47	24.650
707.79	26.302
708.11	27.750
708.43	27.000
708.74	24.031
709.06	31.831
709.38	28.440
709.70	26.923
710.02	25.159
710.34	28.173
710.66	19.551
710.98	25.497
711.29	26.885
711.61	24.746
711.93	29.642
712.25	30.928
712.57	28.205
712.89	27.612
713.20	27.682
713.52	27.526
713.84	23.891
714.16	25.086
714.48	27.097
714.80	24.359
715.11	26.140
715.43	23.511
715.75	23.667
716.07	22.924
716.39	27.181
716.70	23.616
717.02	24.046
717.34	25.101
717.66	24.336
717.97	27.826
718.29	24.686
718.61	26.378
718.93	25.581
719.24	29.658
719.56	25.301
719.88	27.491
720.20	27.652
720.51	24.521
720.83	29.344
721.15	30.252
721.46	26.613
721.78	22.925
722.10	22.677
722.42	20.332
722.73	28.980
723.05	30.612
723.37	28.390
723.68	30.631
724.00	26.068
724.32	24.889
724.63	25.000
724.95	23.581
725.27	27.189
725.58	25.424
725.90	21.032
726.22	24.324
726.53	26.780
726.85	29.213
727.16	27.170
727.48	23.077
727.80	25.506
728.11	21.186
728.43	25.098
728.74	20.968
729.06	27.600
729.38	30.075
729.69	24.701
730.01	25.000
730.32	25.746
730.64	27.915
730.96	23.774
731.27	25.333
731.59	28.475
731.90	22.293
732.22	24.290
732.53	23.920
732.85	28.369
733.16	28.956
733.48	23.381
733.80	25.362
734.11	25.424
734.43	26.117
734.74	22.727
735.06	22.801
735.37	23.867
735.69	29.966
736.00	23.345
736.32	24.497
736.63	26.761
736.95	23.208
737.26	19.573
737.58	22.819
737.89	23.810
738.21	27.068
738.52	30.453
738.83	26.638
739.15	21.834
739.46	27.165
739.78	24.908
740.09	23.529
740.41	26.087
740.72	22.835
741.04	21.457
741.35	25.106
741.66	26.540
741.98	22.959
742.29	20.297
742.61	24.084
742.92	23.223
743.23	20.370
743.55	26.244
743.86	29.187
744.18	23.445
744.49	23.404
744.80	23.913
745.12	32.086
745.43	19.512
745.74	26.562
746.06	27.317
746.37	29.319
746.68	32.701
747.00	17.553
747.31	25.373
747.62	21.845
747.94	24.402
748.25	22.277
748.56	29.508
748.88	26.178
749.19	23.936
749.50	24.138
749.82	19.340
750.13	20.642
750.44	30.827
750.75	29.104
751.07	28.102
751.38	21.073
751.69	18.431
752.01	28.295
752.32	24.303
752.63	22.134
752.94	19.828
753.26	32.636
753.57	23.529
753.88	21.239
754.19	21.250
754.51	20.248
754.82	20.648
755.13	27.083
755.44	21.774
755.75	23.828
756.07	22.179
756.38	20.377
756.69	18.774
757.00	20.000
757.31	22.876
757.63	20.122
757.94	24.444
758.25	20.274
758.56	19.681
758.87	17.847
759.18	22.118
759.50	20.000
759.81	24.415
760.12	21.290
760.43	20.303
760.74	24.383
761.05	21.538
761.36	21.307
761.67	23.636
761.99	23.129
762.30	18.182
762.61	25.296
762.92	25.792
763.23	23.874
763.54	18.224
763.85	17.373
764.16	21.992
764.47	19.758
764.78	19.414
765.10	26.936
765.41	21.767
765.72	24.444
766.03	20.301
766.34	20.073
766.65	27.092
766.96	28.283
767.27	21.277
767.58	18.391
767.89	24.823
768.20	21.591
768.51	17.033
768.82	22.660
769.13	18.433
769.44	23.605
769.75	22.831
770.06	22.414
770.37	20.192
770.68	23.350
770.99	22.172
771.30	21.569
771.61	23.529
771.92	21.552
772.23	28.079
772.54	18.280
772.85	26.543
773.16	25.281
773.47	22.222
773.78	18.954
774.09	19.760
774.39	14.000
774.70	15.287
775.01	33.103
775.32	27.143
775.63	14.050
775.94	17.557
776.25	21.260
776.56	17.500
776.87	25.962
777.18	23.932
777.48	25.862
777.79	33.913
778.10	17.143
778.41	12.613
778.72	29.365
779.03	18.797
779.34	25.532
779.65	24.658
779.95	13.699
780.26	18.621
780.57	24.390
780.88	16.535
781.19	15.517
781.50	19.380
781.80	17.751
782.11	16.981
782.42	22.308
782.73	21.583
783.04	20.741
783.34	18.056
783.65	8.547
783.96	13.934
784.27	22.069
784.57	20.325
784.88	25.000
785.19	25.000
785.50	28.000
785.81	19.828
786.11	23.276
786.42	13.592
786.73	13.636
787.04	31.633
787.34	15.179
787.65	25.714
787.96	10.619
788.26	23.636
788.57	18.803
788.88	18.750
789.19	17.460
789.49	12.174
789.80	21.429
790.11	13.131
790.41	18.182
790.72	19.565
791.03	17.045
791.33	32.500
791.64	16.250
791.95	2.326
792.25	20.213
792.56	13.483
792.87	19.178
793.17	7.246
793.48	-2.667
793.79	22.500
794.09	30.000
794.40	20.755
794.70	9.709
795.01	17.886
795.32	11.966
795.62	20.952
795.93	20.588
796.23	18.868
796.54	13.542
796.85	30.882
797.15	21.127
797.46	36.111
797.76	22.727
798.07	19.767
798.37	14.474
798.68	0.000
798.99	19.753
799.29	32.857
799.60	0.000
799.90	13.333
800.21	26.230
800.51	12.308
800.82	22.034
801.12	8.696
801.43	29.508
801.73	38.095
802.04	20.000
802.34	20.896
802.65	38.462
802.95	-10.714
803.26	17.308
803.56	0.000
803.87	10.870
804.17	16.000
804.48	26.984
804.78	22.222
805.09	-17.391
805.39	0.000
805.70	18.519
806.00	5.263
806.30	22.535
806.61	21.429
806.91	-13.889
807.22	17.105
807.52	33.333
807.83	-3.636
808.13	29.167
808.43	27.941
808.74	17.910
809.04	0.000
809.35	34.615
809.65	21.875
809.95	-10.811
810.26	-11.364
810.56	-2.740
810.86	23.810
811.17	10.000
811.47	20.408
811.77	23.684
812.08	11.364
812.38	39.623
812.69	-2.500
812.99	-21.212
813.29	36.842
813.59	0.000
813.90	4.545
814.20	-12.821
814.50	11.538
814.81	16.981
815.11	2.128
815.41	20.339
815.72	19.048
816.02	31.373
816.32	20.833
816.62	-9.756
816.93	8.108
817.23	25.714
817.53	31.250
817.84	23.913
818.14	13.462
818.44	2.632
818.74	32.609
819.04	-7.500
819.35	-10.811
819.65	8.824
819.95	8.333
820.25	7.143
820.56	37.500
820.86	-31.034
821.16	60.000
821.46	27.660
821.76	20.000
822.07	39.535
822.37	-24.324
822.67	6.250
822.97	-4.762
823.27	-10.714
823.57	24.000
823.88	7.407
824.18	-7.143
824.48	5.882
824.78	3.226
825.08	4.348
825.38	21.212
825.69	-20.833
825.99	28.947
826.29	11.111
826.59	40.000
826.89	-52.381
827.19	32.609
827.49	22.500
827.79	20.000
828.09	7.143
828.39	27.273
828.70	32.432
829.00	32.143
829.30	-9.524
829.60	13.333
829.90	43.750
830.20	5.263
830.50	-40.741
830.80	26.087
831.10	0.000
831.40	36.364
831.70	3.226
832.00	-4.762
832.30	-33.333
832.60	8.333
832.90	24.138
833.20	5.000
833.50	0.000
833.80	25.926
834.10	3.846
834.40	18.750
834.70	-77.778
835.00	-21.053
835.30	-15.385
835.60	33.333
835.90	35.484
836.20	18.182
836.50	35.714
836.80	-50.000
837.10	25.000
837.40	0.000
837.70	40.909
838.00	-63.636
838.30	13.043
838.60	-53.846
838.90	36.364
839.19	17.857
839.49	13.333
839.79	-15.385
840.09	-25.000
840.39	71.429
840.69	0.000
840.99	0.000
841.29	-5.263
841.59	-130.000
841.88	9.091
842.18	40.000
842.48	68.750
842.78	-46.667
843.08	22.222
843.38	-70.000
843.68	-17.391
843.97	-13.333
844.27	-6.667
844.57	20.000
844.87	16.667
845.17	38.095
845.47	46.667
845.76	19.048
846.06	-17.647
846.36	-10.000
846.66	14.286
846.96	20.000
847.25	-75.000
847.55	35.714
847.85	37.500
848.15	-31.818
848.44	-266.667
848.74	15.000
849.04	81.481
849.34	36.364
849.63	-66.667
849.93	-100.000
850.23	-16.667
850.53	70.000
850.82	46.154
851.12	-88.889
851.42	6.667
851.71	-3.846
852.01	14.286
852.31	-200.000
852.61	45.455
852.90	-30.000
853.20	47.368
853.50	-33.333
853.79	17.391
854.09	33.333
854.39	5.263
854.68	20.833
854.98	32.258
855.28	65.385
855.57	-15.000
855.87	50.000
856.17	11.111
856.46	50.000
856.76	53.333
857.05	-66.667
857.35	-12.000
857.65	0.000
857.94	-61.538
858.24	6.897
858.53	61.111
858.83	55.556
859.13	4.545
859.42	26.087
859.72	225.000
860.01	-266.667
860.31	28.000
860.60	38.095
860.90	-200.000
861.20	6.667
861.49	-600.000
861.79	20.000
862.08	55.000
862.38	60.000
862.67	-120.000
862.97	16.667
863.26	66.667
863.56	22.222
863.85	-400.000
864.15	44.444
864.44	-40.000
864.74	35.714
865.03	75.000
865.33	-340.000
865.62	116.667
865.92	50.000
866.21	-150.000
866.51	25.000
866.80	-45.455
867.10	-250.000
867.39	66.667
867.69	0.000
867.98	15.385
868.27	-300.000
868.57	33.333
868.86	61.111
869.16	-69.231
869.45	13.333
869.75	-1100.000
870.04	0.000
870.33	-100.000
870.63	61.905
870.92	366.667
871.22	-100.000
871.51	-500.000
871.80	133.333
872.10	600.000
>>>>>End Processed Spectral Data<<<<<
