SpectraSuite Data File
++++++++++++++++++++++++++++++++++++
Date: Fri May 15 20:05:58 PDT 2015
User: schluterlab
Dark Spectrum Present: Yes
Reference Spectrum Present: Yes
Number of Sampled Component Spectra: 1
Spectrometers: USB2E3373
Integration Time (usec): 3000 (USB2E3373)
Spectra Averaged: 3 (USB2E3373)
Boxcar Smoothing: 0 (USB2E3373)
Correct for Electrical Dark: No (USB2E3373)
Strobe/Lamp Enabled: No (USB2E3373)
Correct for Detector Non-linearity: No (USB2E3373)
Correct for Stray Light: No (USB2E3373)
Number of Pixels in Processed Spectrum: 2048
>>>>>Begin Processed Spectral Data<<<<<
178.53	0.000
178.91	0.000
179.29	37.500
179.67	-350.000
180.04	-42.857
180.42	175.000
180.80	-100.000
181.18	-100.000
181.56	550.000
181.94	50.000
182.31	800.000
182.69	20.000
183.07	-400.000
183.45	-40.000
183.83	116.667
184.20	-72.727
184.58	222.222
184.96	-25.000
185.34	266.667
185.72	-600.000
186.09	92.308
186.47	-1400.000
186.85	133.333
187.23	133.333
187.61	-700.000
187.98	-266.667
188.36	11.111
188.74	-66.667
189.12	47.059
189.49	38.889
189.87	0.000
190.25	71.429
190.63	0.000
191.00	-300.000
191.38	-26.316
191.76	300.000
192.14	200.000
192.51	550.000
192.89	55.556
193.27	-114.286
193.65	83.333
194.02	63.636
194.40	-20.000
194.78	-212.500
195.15	-91.667
195.53	62.500
195.91	125.000
196.29	-325.000
196.66	53.846
197.04	71.429
197.42	77.778
197.79	-233.333
198.17	-130.769
198.55	-200.000
198.92	-233.333
199.30	-600.000
199.68	-300.000
200.05	-166.667
200.43	0.000
200.81	-66.667
201.18	33.333
201.56	900.000
201.94	-50.000
202.31	100.000
202.69	-120.000
203.07	-25.000
203.44	200.000
203.82	0.000
204.19	21.429
204.57	-566.667
204.95	62.500
205.32	-10.000
205.70	-14.286
206.08	-50.000
206.45	266.667
206.83	57.143
207.20	-85.714
207.58	600.000
207.96	100.000
208.33	-130.000
208.71	50.000
209.08	-150.000
209.46	-1000.000
209.84	-180.000
210.21	-900.000
210.59	100.000
210.96	0.000
211.34	150.000
211.71	53.333
212.09	-71.429
212.46	-2000.000
212.84	0.000
213.22	150.000
213.59	700.000
213.97	53.846
214.34	-9.091
214.72	16.667
215.09	225.000
215.47	69.231
215.84	-45.455
216.22	-166.667
216.59	-50.000
216.97	0.000
217.34	-100.000
217.72	-20.000
218.09	62.500
218.47	300.000
218.84	-400.000
219.22	-22.222
219.59	-120.000
219.97	-0.000
220.34	175.000
220.72	0.000
221.09	50.000
221.47	200.000
221.84	-800.000
222.22	-250.000
222.59	36.364
222.97	-16.667
223.34	-300.000
223.72	-50.000
224.09	9.524
224.46	25.000
224.84	333.333
225.21	20.000
225.59	0.000
225.96	-200.000
226.34	350.000
226.71	-28.571
227.08	-133.333
227.46	-62.500
227.83	0.000
228.21	-11.111
228.58	0.000
228.95	-62.500
229.33	100.000
229.70	43.750
230.08	-75.000
230.45	-42.857
230.82	0.000
231.20	-13.333
231.57	57.143
231.95	14.286
232.32	-60.000
232.69	57.143
233.07	-200.000
233.44	0.000
233.81	-70.000
234.19	-44.444
234.56	-23.529
234.93	1050.000
235.31	-25.000
235.68	-120.000
236.05	-61.538
236.43	-40.000
236.80	0.000
237.17	6.250
237.55	-40.000
237.92	11.111
238.29	5.556
238.67	30.000
239.04	-11.765
239.41	0.000
239.79	30.000
240.16	29.268
240.53	0.000
240.91	0.000
241.28	14.286
241.65	21.429
242.02	16.438
242.40	20.000
242.77	-1.695
243.14	-9.091
243.51	10.000
243.89	27.586
244.26	19.540
244.63	1.190
245.00	1.031
245.38	9.278
245.75	2.247
246.12	-0.862
246.49	16.529
246.87	21.154
247.24	10.924
247.61	2.632
247.98	8.130
248.36	20.625
248.73	11.184
249.10	10.390
249.47	11.392
249.84	15.686
250.22	12.941
250.59	13.072
250.96	20.188
251.33	12.791
251.70	13.529
252.08	11.675
252.45	15.842
252.82	10.050
253.19	14.747
253.56	13.551
253.94	10.360
254.31	11.739
254.68	18.421
255.05	11.024
255.42	13.537
255.79	13.514
256.16	15.175
256.54	19.030
256.91	13.308
257.28	11.152
257.65	16.854
258.02	10.284
258.39	16.162
258.76	17.949
259.14	16.279
259.51	13.916
259.88	13.402
260.25	12.745
260.62	15.625
260.99	7.797
261.36	7.877
261.73	13.608
262.10	14.894
262.47	13.190
262.85	12.226
263.22	13.231
263.59	13.707
263.96	15.839
264.33	14.848
264.70	13.393
265.07	15.476
265.44	16.431
265.81	14.689
266.18	13.115
266.55	15.167
266.92	15.285
267.29	13.838
267.66	14.066
268.03	12.304
268.40	10.966
268.77	13.904
269.14	15.108
269.51	14.139
269.88	13.716
270.25	11.224
270.62	11.220
270.99	12.276
271.36	8.557
271.73	13.850
272.10	11.436
272.47	13.239
272.84	12.624
273.21	12.297
273.58	13.494
273.95	13.959
274.32	12.471
274.69	11.991
275.06	13.170
275.43	14.966
275.80	13.687
276.17	13.793
276.54	13.704
276.91	13.816
277.28	12.445
277.65	11.983
278.02	12.979
278.39	14.442
278.76	13.208
279.13	11.826
279.50	12.815
279.87	13.391
280.23	12.258
280.60	11.891
280.97	12.323
281.34	11.538
281.71	14.168
282.08	10.634
282.45	10.568
282.82	11.197
283.19	14.507
283.56	12.139
283.92	12.334
284.29	10.385
284.66	11.240
285.03	11.395
285.40	10.397
285.77	10.721
286.14	12.274
286.51	13.838
286.87	10.786
287.24	11.786
287.61	9.877
287.98	14.912
288.35	11.265
288.72	13.310
289.08	11.979
289.45	12.302
289.82	12.587
290.19	12.287
290.56	11.149
290.93	10.943
291.29	11.864
291.66	12.441
292.03	11.643
292.40	10.806
292.77	12.759
293.13	9.253
293.50	10.015
293.87	11.603
294.24	11.128
294.60	11.326
294.97	12.054
295.34	11.810
295.71	9.985
296.08	12.108
296.44	8.819
296.81	11.250
297.18	12.319
297.55	11.653
297.91	10.000
298.28	13.588
298.65	9.769
299.02	9.299
299.38	9.439
299.75	8.828
300.12	10.209
300.48	10.145
300.85	9.886
301.22	9.221
301.59	10.395
301.95	12.278
302.32	11.803
302.69	10.572
303.05	10.644
303.42	8.717
303.79	10.397
304.15	10.872
304.52	9.631
304.89	8.421
305.25	9.927
305.62	10.385
305.99	8.889
306.35	10.520
306.72	9.786
307.09	10.490
307.45	10.677
307.82	9.954
308.19	10.221
308.55	10.251
308.92	9.913
309.29	9.721
309.65	10.872
310.02	10.781
310.38	10.648
310.75	11.257
311.12	10.872
311.48	10.498
311.85	11.937
312.22	10.970
312.58	10.085
312.95	10.139
313.31	9.834
313.68	10.576
314.05	10.000
314.41	10.103
314.78	11.649
315.14	11.922
315.51	11.180
315.87	11.373
316.24	11.325
316.61	12.303
316.97	12.103
317.34	11.816
317.70	12.333
318.07	12.212
318.43	11.569
318.80	12.879
319.16	13.184
319.53	14.245
319.89	14.075
320.26	12.247
320.62	14.644
320.99	12.422
321.35	13.669
321.72	14.642
322.08	14.300
322.45	13.807
322.81	13.851
323.18	13.837
323.54	15.154
323.91	15.385
324.27	15.723
324.64	16.199
325.00	16.788
325.37	17.539
325.73	16.319
326.10	15.895
326.46	16.502
326.83	16.185
327.19	17.698
327.56	17.202
327.92	17.606
328.29	18.036
328.65	16.509
329.01	18.382
329.38	17.880
329.74	16.714
330.11	17.794
330.47	17.625
330.84	16.538
331.20	19.962
331.56	17.500
331.93	17.717
332.29	18.882
332.66	17.738
333.02	18.309
333.38	16.865
333.75	19.505
334.11	17.457
334.48	18.676
334.84	19.139
335.20	18.390
335.57	17.860
335.93	18.699
336.29	17.127
336.66	17.348
337.02	18.123
337.38	16.481
337.75	18.000
338.11	18.215
338.47	18.522
338.84	18.484
339.20	17.367
339.56	18.165
339.93	18.263
340.29	18.073
340.65	18.548
341.02	17.819
341.38	17.080
341.74	17.138
342.11	17.331
342.47	18.416
342.83	17.907
343.20	18.031
343.56	18.261
343.92	17.981
344.28	18.617
344.65	16.408
345.01	17.545
345.37	17.662
345.73	18.075
346.10	17.601
346.46	17.998
346.82	18.249
347.19	16.209
347.55	18.379
347.91	18.123
348.27	17.542
348.63	18.825
349.00	17.145
349.36	17.539
349.72	17.496
350.08	17.049
350.45	17.558
350.81	16.611
351.17	17.427
351.53	18.122
351.89	16.185
352.26	17.280
352.62	17.903
352.98	17.430
353.34	17.230
353.70	18.366
354.07	18.145
354.43	16.974
354.79	17.506
355.15	18.651
355.51	17.326
355.87	17.961
356.24	16.150
356.60	17.704
356.96	17.381
357.32	18.211
357.68	17.123
358.04	17.609
358.40	17.042
358.77	18.341
359.13	18.094
359.49	18.259
359.85	18.643
360.21	17.624
360.57	18.210
360.93	18.533
361.29	16.541
361.66	16.928
362.02	18.030
362.38	16.908
362.74	17.033
363.10	17.758
363.46	18.087
363.82	19.083
364.18	18.376
364.54	17.647
364.90	17.993
365.26	17.322
365.62	18.832
365.98	18.475
366.35	18.500
366.71	19.364
367.07	19.013
367.43	17.973
367.79	19.011
368.15	18.378
368.51	18.281
368.87	17.516
369.23	17.040
369.59	18.149
369.95	17.742
370.31	18.569
370.67	19.254
371.03	18.073
371.39	18.381
371.75	19.414
372.11	18.688
372.47	18.121
372.83	19.375
373.19	17.974
373.55	19.061
373.91	18.287
374.27	18.568
374.63	19.383
374.99	19.078
375.35	19.499
375.71	18.392
376.07	19.874
376.42	19.388
376.78	19.933
377.14	19.634
377.50	18.725
377.86	20.080
378.22	19.528
378.58	19.679
378.94	19.408
379.30	19.588
379.66	20.752
380.02	20.478
380.38	19.477
380.74	20.108
381.09	19.571
381.45	19.939
381.81	20.790
382.17	20.495
382.53	19.363
382.89	19.774
383.25	20.473
383.61	20.366
383.97	20.508
384.32	21.013
384.68	20.929
385.04	19.730
385.40	19.291
385.76	21.132
386.12	21.475
386.48	21.648
386.83	20.101
387.19	21.184
387.55	20.389
387.91	20.416
388.27	21.673
388.62	21.775
388.98	20.933
389.34	20.924
389.70	22.312
390.06	21.271
390.42	22.021
390.77	20.471
391.13	20.744
391.49	21.410
391.85	22.157
392.20	21.406
392.56	20.915
392.92	21.550
393.28	21.993
393.64	21.201
393.99	23.009
394.35	21.569
394.71	21.775
395.07	21.307
395.42	20.947
395.78	21.303
396.14	21.690
396.50	21.433
396.85	21.507
397.21	21.303
397.57	21.379
397.92	20.911
398.28	21.494
398.64	20.964
399.00	21.896
399.35	20.598
399.71	21.195
400.07	21.463
400.42	21.420
400.78	21.310
401.14	21.113
401.49	21.263
401.85	20.475
402.21	20.542
402.57	20.750
402.92	19.385
403.28	21.178
403.63	20.807
403.99	20.855
404.35	21.424
404.70	20.119
405.06	20.975
405.42	21.877
405.77	21.150
406.13	20.198
406.49	21.018
406.84	20.293
407.20	21.011
407.55	20.155
407.91	19.786
408.27	20.650
408.62	21.908
408.98	19.162
409.34	20.012
409.69	20.478
410.05	19.951
410.40	20.926
410.76	20.145
411.11	20.625
411.47	19.987
411.83	20.402
412.18	20.013
412.54	19.788
412.89	19.889
413.25	20.096
413.60	20.186
413.96	19.448
414.31	20.305
414.67	19.820
415.03	19.707
415.38	20.104
415.74	20.977
416.09	20.379
416.45	19.851
416.80	20.423
417.16	20.649
417.51	19.987
417.87	20.209
418.22	20.596
418.58	20.201
418.93	21.254
419.29	19.910
419.64	19.767
420.00	21.096
420.35	20.239
420.71	20.960
421.06	21.056
421.42	21.214
421.77	20.983
422.12	20.204
422.48	21.224
422.83	20.998
423.19	19.977
423.54	19.459
423.90	20.141
424.25	20.264
424.61	21.236
424.96	21.487
425.31	22.126
425.67	22.007
426.02	21.614
426.38	21.853
426.73	21.671
427.09	22.215
427.44	22.059
427.79	21.096
428.15	21.966
428.50	21.320
428.85	20.639
429.21	22.015
429.56	21.887
429.92	21.212
430.27	21.855
430.62	21.223
430.98	22.187
431.33	21.609
431.68	21.978
432.04	22.023
432.39	22.761
432.74	21.708
433.10	22.471
433.45	22.640
433.80	21.880
434.16	21.496
434.51	22.903
434.86	21.835
435.22	23.724
435.57	22.583
435.92	22.575
436.28	21.765
436.63	22.761
436.98	21.611
437.34	21.839
437.69	22.540
438.04	22.735
438.39	22.419
438.75	22.890
439.10	23.033
439.45	23.068
439.81	22.875
440.16	23.694
440.51	23.642
440.86	23.565
441.22	22.568
441.57	22.572
441.92	23.715
442.27	23.725
442.63	24.143
442.98	24.124
443.33	23.150
443.68	23.183
444.03	23.795
444.39	23.709
444.74	24.415
445.09	23.719
445.44	24.387
445.79	24.497
446.15	23.238
446.50	23.960
446.85	24.336
447.20	24.035
447.55	25.223
447.91	24.591
448.26	24.986
448.61	24.352
448.96	25.244
449.31	24.104
449.66	23.926
450.02	24.358
450.37	24.007
450.72	24.857
451.07	24.937
451.42	23.720
451.77	24.834
452.12	24.222
452.47	24.018
452.83	23.910
453.18	24.478
453.53	25.221
453.88	24.833
454.23	25.507
454.58	25.567
454.93	25.515
455.28	24.190
455.63	25.170
455.98	24.474
456.34	25.670
456.69	24.524
457.04	25.961
457.39	25.395
457.74	25.453
458.09	24.132
458.44	24.225
458.79	24.650
459.14	25.629
459.49	25.134
459.84	25.268
460.19	25.303
460.54	26.222
460.89	25.170
461.24	25.404
461.59	25.475
461.94	24.906
462.29	25.935
462.64	25.581
462.99	25.389
463.34	25.243
463.69	24.903
464.04	25.787
464.39	25.167
464.74	25.337
465.09	25.140
465.44	25.678
465.79	24.887
466.14	25.428
466.49	24.324
466.84	26.056
467.19	24.906
467.54	24.713
467.89	26.153
468.24	24.818
468.59	25.651
468.94	25.333
469.29	25.902
469.64	24.675
469.99	26.489
470.34	25.324
470.68	26.547
471.03	25.690
471.38	25.749
471.73	25.700
472.08	25.237
472.43	25.570
472.78	25.565
473.13	26.122
473.48	25.472
473.83	25.342
474.17	25.777
474.52	25.399
474.87	26.606
475.22	25.869
475.57	26.087
475.92	25.617
476.27	25.728
476.61	26.505
476.96	25.488
477.31	25.581
477.66	25.000
478.01	26.053
478.36	25.218
478.70	25.449
479.05	26.264
479.40	25.967
479.75	25.652
480.10	25.602
480.45	25.400
480.79	26.586
481.14	26.178
481.49	26.010
481.84	26.448
482.19	25.257
482.53	26.091
482.88	25.442
483.23	25.768
483.58	25.802
483.92	25.605
484.27	24.977
484.62	25.325
484.97	25.166
485.31	24.855
485.66	24.449
486.01	24.769
486.36	24.337
486.70	24.865
487.05	24.816
487.40	25.000
487.75	24.901
488.09	25.216
488.44	24.656
488.79	24.953
489.13	25.721
489.48	26.165
489.83	25.022
490.17	24.899
490.52	25.635
490.87	25.729
491.22	26.074
491.56	25.285
491.91	25.191
492.26	25.571
492.60	24.952
492.95	25.922
493.30	25.940
493.64	26.031
493.99	25.169
494.34	25.340
494.68	25.333
495.03	25.109
495.37	24.975
495.72	26.451
496.07	26.000
496.41	25.755
496.76	26.163
497.11	24.732
497.45	25.967
497.80	27.043
498.14	26.130
498.49	25.394
498.84	25.948
499.18	26.004
499.53	26.042
499.87	25.875
500.22	25.865
500.56	25.567
500.91	25.502
501.26	25.803
501.60	24.545
501.95	26.249
502.29	25.424
502.64	25.772
502.98	26.344
503.33	25.552
503.67	25.157
504.02	25.806
504.36	26.274
504.71	25.404
505.06	25.717
505.40	26.447
505.75	25.979
506.09	25.393
506.44	26.489
506.78	26.378
507.13	26.474
507.47	25.535
507.82	25.481
508.16	25.092
508.51	25.918
508.85	26.060
509.19	26.503
509.54	25.952
509.88	25.674
510.23	26.573
510.57	26.456
510.92	25.800
511.26	26.350
511.61	26.183
511.95	26.137
512.30	26.053
512.64	26.989
512.98	26.558
513.33	26.973
513.67	26.777
514.02	27.174
514.36	26.400
514.70	27.156
515.05	27.556
515.39	26.505
515.74	28.024
516.08	26.599
516.42	27.797
516.77	27.736
517.11	26.469
517.46	26.870
517.80	26.818
518.14	27.312
518.49	27.284
518.83	27.096
519.17	26.501
519.52	26.584
519.86	26.050
520.20	26.914
520.55	25.453
520.89	27.353
521.23	26.916
521.58	27.382
521.92	27.372
522.26	27.846
522.61	26.753
522.95	26.954
523.29	27.700
523.64	27.319
523.98	27.544
524.32	26.546
524.66	27.465
525.01	26.948
525.35	27.673
525.69	27.542
526.04	27.116
526.38	27.756
526.72	26.292
527.06	27.173
527.41	27.243
527.75	26.877
528.09	26.578
528.43	28.832
528.78	27.129
529.12	27.161
529.46	26.901
529.80	27.296
530.15	27.921
530.49	27.138
530.83	27.223
531.17	26.394
531.51	27.497
531.86	26.717
532.20	27.209
532.54	26.753
532.88	27.105
533.22	27.083
533.57	26.671
533.91	26.762
534.25	27.865
534.59	26.042
534.93	25.802
535.27	25.063
535.62	26.572
535.96	26.419
536.30	26.187
536.64	26.051
536.98	27.387
537.32	27.240
537.66	27.980
538.01	27.483
538.35	25.728
538.69	26.764
539.03	26.111
539.37	27.995
539.71	27.130
540.05	27.223
540.39	26.801
540.73	27.336
541.07	26.727
541.42	27.083
541.76	28.080
542.10	26.910
542.44	26.685
542.78	25.671
543.12	25.412
543.46	25.869
543.80	26.856
544.14	26.502
544.48	27.448
544.82	26.726
545.16	26.981
545.50	27.036
545.84	27.479
546.18	26.667
546.52	26.965
546.86	26.815
547.20	26.037
547.54	25.654
547.88	26.834
548.22	25.904
548.56	26.121
548.90	26.954
549.24	26.240
549.58	27.010
549.92	25.661
550.26	26.374
550.60	27.361
550.94	26.662
551.28	27.202
551.62	28.154
551.96	27.293
552.30	27.778
552.64	26.023
552.98	26.793
553.32	26.391
553.66	26.778
554.00	27.664
554.34	26.071
554.68	26.549
555.02	28.348
555.36	28.272
555.69	26.886
556.03	26.410
556.37	27.616
556.71	27.509
557.05	27.517
557.39	27.063
557.73	27.436
558.07	27.300
558.41	27.029
558.75	28.761
559.08	26.872
559.42	28.095
559.76	27.222
560.10	26.147
560.44	26.731
560.78	26.643
561.12	27.010
561.45	26.634
561.79	27.591
562.13	26.828
562.47	26.835
562.81	26.801
563.15	26.869
563.48	27.511
563.82	28.209
564.16	26.184
564.50	25.946
564.84	27.577
565.17	26.559
565.51	28.620
565.85	27.915
566.19	26.923
566.52	27.413
566.86	27.506
567.20	26.339
567.54	26.825
567.88	27.475
568.21	26.018
568.55	26.522
568.89	26.027
569.23	26.143
569.56	26.007
569.90	26.188
570.24	25.530
570.57	25.236
570.91	25.723
571.25	24.564
571.59	25.319
571.92	25.007
572.26	24.698
572.60	24.434
572.93	24.569
573.27	24.075
573.61	24.612
573.95	24.959
574.28	23.914
574.62	23.977
574.96	24.258
575.29	24.104
575.63	23.452
575.97	24.180
576.30	24.206
576.64	24.318
576.98	24.324
577.31	23.986
577.65	24.587
577.98	24.197
578.32	23.879
578.66	23.662
578.99	24.146
579.33	24.007
579.67	23.846
580.00	24.532
580.34	23.930
580.67	23.863
581.01	24.015
581.35	24.053
581.68	24.208
582.02	24.427
582.35	23.993
582.69	24.289
583.02	24.140
583.36	25.030
583.70	24.948
584.03	24.798
584.37	24.732
584.70	24.890
585.04	23.990
585.37	24.619
585.71	24.858
586.04	24.710
586.38	24.433
586.72	25.308
587.05	24.986
587.39	25.328
587.72	25.314
588.06	25.076
588.39	25.491
588.73	25.549
589.06	26.288
589.40	25.544
589.73	26.543
590.07	25.793
590.40	26.122
590.73	26.771
591.07	26.675
591.40	25.779
591.74	26.561
592.07	26.948
592.41	26.988
592.74	26.603
593.08	25.637
593.41	26.557
593.75	26.006
594.08	25.438
594.41	25.946
594.75	26.107
595.08	26.523
595.42	26.021
595.75	26.098
596.09	26.036
596.42	26.953
596.75	26.465
597.09	26.424
597.42	26.378
597.75	26.798
598.09	26.981
598.42	26.309
598.76	26.169
599.09	26.923
599.42	26.033
599.76	26.448
600.09	25.038
600.42	25.815
600.76	25.780
601.09	25.878
601.42	25.734
601.76	26.082
602.09	26.279
602.42	26.959
602.76	26.740
603.09	26.786
603.42	27.007
603.76	26.210
604.09	26.448
604.42	27.115
604.76	26.658
605.09	27.011
605.42	27.494
605.75	26.313
606.09	26.115
606.42	26.439
606.75	26.494
607.09	26.374
607.42	26.097
607.75	26.599
608.08	26.325
608.42	26.450
608.75	27.614
609.08	27.404
609.41	27.056
609.75	26.613
610.08	27.609
610.41	26.908
610.74	26.182
611.07	27.132
611.41	27.556
611.74	27.026
612.07	26.392
612.40	26.696
612.73	27.175
613.07	27.278
613.40	28.173
613.73	27.308
614.06	27.268
614.39	28.032
614.72	27.059
615.06	27.263
615.39	26.528
615.72	27.072
616.05	27.263
616.38	27.521
616.71	27.829
617.05	27.548
617.38	27.090
617.71	28.428
618.04	29.143
618.37	28.815
618.70	28.383
619.03	29.167
619.36	27.279
619.69	28.961
620.03	28.926
620.36	27.969
620.69	28.622
621.02	28.287
621.35	29.129
621.68	28.912
622.01	29.583
622.34	28.731
622.67	29.732
623.00	28.025
623.33	29.421
623.66	28.048
623.99	28.517
624.32	29.506
624.65	28.496
624.99	28.969
625.32	27.218
625.65	29.615
625.98	29.331
626.31	28.346
626.64	29.029
626.97	28.970
627.30	30.210
627.63	29.376
627.96	29.111
628.29	30.527
628.62	29.695
628.95	29.960
629.28	29.738
629.61	29.811
629.94	31.476
630.26	31.028
630.59	31.009
630.92	29.128
631.25	28.615
631.58	30.947
631.91	30.263
632.24	30.161
632.57	29.886
632.90	30.842
633.23	31.529
633.56	31.612
633.89	30.580
634.22	31.605
634.55	30.877
634.88	32.056
635.20	31.923
635.53	31.733
635.86	31.860
636.19	30.401
636.52	32.015
636.85	28.536
637.18	30.189
637.51	31.447
637.83	32.326
638.16	30.969
638.49	30.109
638.82	33.421
639.15	30.393
639.48	30.399
639.81	32.775
640.13	30.014
640.46	32.362
640.79	32.106
641.12	33.973
641.45	30.631
641.77	33.333
642.10	32.701
642.43	31.029
642.76	34.488
643.09	35.057
643.41	31.230
643.74	32.455
644.07	32.841
644.40	32.939
644.73	33.450
645.05	31.040
645.38	32.804
645.71	32.092
646.04	32.316
646.36	34.574
646.69	35.612
647.02	33.648
647.35	31.343
647.67	32.724
648.00	35.821
648.33	33.447
648.66	35.424
648.98	29.146
649.31	31.736
649.64	31.240
649.96	31.442
650.29	32.368
650.62	33.504
650.94	30.556
651.27	33.520
651.60	31.892
651.92	33.217
652.25	32.682
652.58	33.500
652.90	32.590
653.23	31.933
653.56	30.795
653.88	30.928
654.21	30.648
654.54	30.221
654.86	32.767
655.19	29.678
655.52	29.412
655.84	25.958
656.17	28.553
656.49	39.001
656.82	40.162
657.15	30.681
657.47	22.894
657.80	16.726
658.13	16.508
658.45	24.945
658.78	25.523
659.10	24.916
659.43	25.353
659.75	26.048
660.08	26.276
660.41	27.273
660.73	28.591
661.06	29.636
661.38	31.507
661.71	31.828
662.03	32.618
662.36	34.286
662.68	31.637
663.01	36.026
663.33	33.411
663.66	32.093
663.98	34.419
664.31	35.821
664.63	32.028
664.96	31.087
665.28	30.464
665.61	31.818
665.93	34.565
666.26	30.803
666.58	32.662
666.91	34.588
667.23	33.255
667.56	33.649
667.88	32.134
668.21	34.129
668.53	33.570
668.86	31.132
669.18	32.075
669.50	30.024
669.83	30.698
670.15	32.867
670.48	35.407
670.80	29.263
671.13	31.991
671.45	29.224
671.77	32.189
672.10	32.475
672.42	32.210
672.75	34.103
673.07	33.631
673.39	32.661
673.72	30.178
674.04	32.917
674.37	32.415
674.69	32.762
675.01	33.333
675.34	29.054
675.66	36.806
675.98	35.033
676.31	32.798
676.63	34.679
676.95	32.273
677.28	35.765
677.60	31.807
677.92	33.486
678.25	29.759
678.57	29.654
678.89	32.983
679.22	32.886
679.54	29.116
679.86	31.412
680.18	30.097
680.51	31.061
680.83	31.213
681.15	33.400
681.48	33.197
681.80	34.504
682.12	31.250
682.44	29.707
682.77	30.684
683.09	28.833
683.41	29.773
683.73	30.645
684.06	31.195
684.38	28.172
684.70	32.462
685.02	30.705
685.34	30.040
685.67	30.206
685.99	32.369
686.31	30.619
686.63	29.128
686.96	28.897
687.28	26.667
687.60	29.278
687.92	33.131
688.24	29.435
688.56	31.659
688.89	30.804
689.21	32.667
689.53	29.930
689.85	27.209
690.17	29.911
690.49	29.551
690.82	31.553
691.14	29.286
691.46	30.841
691.78	31.532
692.10	29.462
692.42	30.952
692.74	33.120
693.06	31.081
693.39	30.090
693.71	28.281
694.03	29.330
694.35	30.841
694.67	29.798
694.99	32.115
695.31	34.204
695.63	33.500
695.95	30.808
696.27	32.902
696.59	28.889
696.91	33.333
697.23	31.877
697.56	30.693
697.88	31.183
698.20	30.524
698.52	33.412
698.84	32.057
699.16	32.500
699.48	29.073
699.80	31.017
700.12	29.111
700.44	31.653
700.76	28.779
701.08	32.121
701.40	29.819
701.72	36.728
702.04	30.363
702.36	35.786
702.68	32.432
703.00	33.333
703.32	34.311
703.64	29.944
703.96	31.014
704.28	30.982
704.60	35.873
704.91	28.391
705.23	29.900
705.55	39.576
705.87	34.296
706.19	32.222
706.51	30.928
706.83	32.797
707.15	28.349
707.47	29.972
707.79	30.469
708.11	31.750
708.43	28.250
708.74	33.075
709.06	33.239
709.38	31.498
709.70	31.361
710.02	31.529
710.34	31.579
710.66	27.244
710.98	30.795
711.29	34.426
711.61	29.831
711.93	34.202
712.25	34.708
712.57	32.234
712.89	31.343
713.20	32.526
713.52	29.268
713.84	30.034
714.16	30.928
714.48	33.548
714.80	33.333
715.11	32.219
715.43	33.856
715.75	27.667
716.07	30.565
716.39	30.537
716.70	32.841
717.02	32.824
717.34	37.652
717.66	34.513
717.97	28.261
718.29	31.381
718.61	35.433
718.93	32.171
719.24	33.460
719.56	34.538
719.88	30.241
720.20	29.545
720.51	30.268
720.83	32.046
721.15	36.134
721.46	30.645
721.78	31.621
722.10	27.881
722.42	34.025
722.73	28.571
723.05	37.143
723.37	31.780
723.68	36.937
724.00	29.915
724.32	31.111
724.63	29.091
724.95	31.004
725.27	35.023
725.58	33.475
725.90	28.968
726.22	31.660
726.53	35.593
726.85	33.333
727.16	38.113
727.48	31.174
727.80	31.984
728.11	30.932
728.43	27.843
728.74	28.226
729.06	29.600
729.38	39.474
729.69	29.084
730.01	29.231
730.32	32.463
730.64	32.509
730.96	33.962
731.27	33.000
731.59	30.847
731.90	30.255
732.22	31.546
732.53	30.233
732.85	34.043
733.16	34.680
733.48	27.698
733.80	28.261
734.11	27.797
734.43	31.615
734.74	27.273
735.06	25.407
735.37	29.909
735.69	32.660
736.00	30.314
736.32	30.872
736.63	31.338
736.95	27.304
737.26	27.046
737.58	26.846
737.89	28.938
738.21	24.060
738.52	29.630
738.83	31.441
739.15	27.074
739.46	31.890
739.78	27.106
740.09	26.471
740.41	30.435
740.72	29.921
741.04	30.769
741.35	25.532
741.66	27.962
741.98	31.633
742.29	35.644
742.61	34.031
742.92	26.066
743.23	25.926
743.55	32.579
743.86	32.057
744.18	32.057
744.49	27.660
744.80	30.978
745.12	38.503
745.43	25.854
745.74	35.417
746.06	28.780
746.37	37.696
746.68	32.227
747.00	30.851
747.31	39.303
747.62	27.184
747.94	34.928
748.25	33.663
748.56	39.344
748.88	29.319
749.19	37.234
749.50	33.990
749.82	25.943
750.13	26.147
750.44	33.083
750.75	30.224
751.07	33.577
751.38	27.586
751.69	26.667
752.01	32.558
752.32	27.888
752.63	26.087
752.94	30.172
753.26	34.310
753.57	28.959
753.88	32.301
754.19	26.667
754.51	31.405
754.82	28.745
755.13	35.417
755.44	32.258
755.75	32.422
756.07	35.409
756.38	24.906
756.69	28.352
757.00	30.000
757.31	32.680
757.63	25.000
757.94	28.056
758.25	26.849
758.56	24.734
758.87	24.079
759.18	22.430
759.50	21.818
759.81	33.110
760.12	29.355
760.43	25.455
760.74	30.247
761.05	26.462
761.36	27.557
761.67	31.212
761.99	30.612
762.30	25.091
762.61	29.249
762.92	31.222
763.23	27.928
763.54	26.636
763.85	30.932
764.16	31.120
764.47	28.629
764.78	29.670
765.10	32.660
765.41	29.653
765.72	28.889
766.03	20.677
766.34	25.547
766.65	31.474
766.96	31.313
767.27	32.979
767.58	27.586
767.89	24.823
768.20	28.409
768.51	26.923
768.82	30.542
769.13	26.728
769.44	28.755
769.75	24.658
770.06	31.034
770.37	33.173
770.68	26.396
770.99	28.054
771.30	30.392
771.61	28.054
771.92	30.172
772.23	28.079
772.54	31.720
772.85	29.630
773.16	28.652
773.47	35.948
773.78	30.719
774.09	29.341
774.39	26.000
774.70	31.847
775.01	33.793
775.32	27.857
775.63	25.620
775.94	26.718
776.25	27.559
776.56	28.333
776.87	30.769
777.18	36.752
777.48	25.000
777.79	28.696
778.10	22.857
778.41	33.333
778.72	34.921
779.03	24.060
779.34	37.589
779.65	26.027
779.95	21.233
780.26	30.345
780.57	21.138
780.88	28.346
781.19	26.724
781.50	31.008
781.80	22.485
782.11	25.157
782.42	30.769
782.73	25.180
783.04	26.667
783.34	24.306
783.65	14.530
783.96	21.311
784.27	21.379
784.57	38.211
784.88	27.344
785.19	30.000
785.50	34.000
785.81	26.724
786.11	17.241
786.42	22.330
786.73	35.455
787.04	16.327
787.34	25.893
787.65	27.619
787.96	29.204
788.26	30.909
788.57	24.786
788.88	37.500
789.19	26.190
789.49	24.348
789.80	22.449
790.11	23.232
790.41	20.000
790.72	44.565
791.03	28.409
791.33	30.000
791.64	30.000
791.95	23.256
792.25	24.468
792.56	25.843
792.87	17.808
793.17	23.188
793.48	13.333
793.79	26.250
794.09	36.250
794.40	14.151
794.70	19.417
795.01	19.512
795.32	26.496
795.62	21.905
795.93	20.588
796.23	35.849
796.54	22.917
796.85	27.941
797.15	29.577
797.46	40.278
797.76	39.394
798.07	29.070
798.37	21.053
798.68	24.242
798.99	29.630
799.29	40.000
799.60	21.739
799.90	33.333
800.21	36.066
800.51	21.538
800.82	28.814
801.12	36.232
801.43	22.951
801.73	39.683
802.04	38.000
802.34	26.866
802.65	26.923
802.95	7.143
803.26	19.231
803.56	39.216
803.87	21.739
804.17	14.667
804.48	41.270
804.78	35.185
805.09	13.043
805.39	24.444
805.70	50.000
806.00	0.000
806.30	28.169
806.61	31.429
806.91	20.833
807.22	26.316
807.52	33.333
807.83	29.091
808.13	22.222
808.43	27.941
808.74	37.313
809.04	28.814
809.35	36.538
809.65	28.125
809.95	0.000
810.26	-4.545
810.56	21.918
810.86	30.952
811.17	32.000
811.47	26.531
811.77	0.000
812.08	2.273
812.38	28.302
812.69	-5.000
812.99	30.303
813.29	7.895
813.59	8.571
813.90	40.909
814.20	0.000
814.50	32.692
814.81	24.528
815.11	25.532
815.41	27.119
815.72	38.095
816.02	27.451
816.32	8.333
816.62	9.756
816.93	32.432
817.23	5.714
817.53	20.833
817.84	23.913
818.14	26.923
818.44	13.158
818.74	41.304
819.04	-7.500
819.35	24.324
819.65	26.471
819.95	11.111
820.25	33.333
820.56	40.000
820.86	-10.345
821.16	60.000
821.46	44.681
821.76	45.000
822.07	23.256
822.37	-8.108
822.67	18.750
822.97	26.190
823.27	10.714
823.57	28.000
823.88	-14.815
824.18	28.571
824.48	2.941
824.78	16.129
825.08	30.435
825.38	54.545
825.69	8.333
825.99	31.579
826.29	47.222
826.59	26.667
826.89	-42.857
827.19	34.783
827.49	25.000
827.79	42.857
828.09	64.286
828.39	57.576
828.70	67.568
829.00	-14.286
829.30	14.286
829.60	23.333
829.90	71.875
830.20	42.105
830.50	22.222
830.80	17.391
831.10	40.909
831.40	36.364
831.70	58.065
832.00	28.571
832.30	-19.048
832.60	-58.333
832.90	-20.690
833.20	10.000
833.50	6.061
833.80	22.222
834.10	30.769
834.40	3.125
834.70	-44.444
835.00	26.316
835.30	57.692
835.60	73.333
835.90	12.903
836.20	27.273
836.50	60.714
836.80	-11.538
837.10	-21.429
837.40	-133.333
837.70	63.636
838.00	36.364
838.30	-8.696
838.60	-15.385
838.90	13.636
839.19	64.286
839.49	30.000
839.79	30.769
840.09	-50.000
840.39	50.000
840.69	-14.286
840.99	-3.846
841.29	-57.895
841.59	-140.000
841.88	72.727
842.18	30.000
842.48	43.750
842.78	60.000
843.08	7.407
843.38	10.000
843.68	21.739
843.97	73.333
844.27	20.000
844.57	10.000
844.87	-5.556
845.17	4.762
845.47	26.667
845.76	9.524
846.06	41.176
846.36	50.000
846.66	-14.286
846.96	80.000
847.25	50.000
847.55	0.000
847.85	62.500
848.15	0.000
848.44	-300.000
848.74	45.000
849.04	62.963
849.34	-9.091
849.63	-116.667
849.93	-120.000
850.23	50.000
850.53	70.000
850.82	23.077
851.12	-11.111
851.42	6.667
851.71	-3.846
852.01	14.286
852.31	125.000
852.61	36.364
852.90	-5.000
853.20	26.316
853.50	-50.000
853.79	47.826
854.09	50.000
854.39	31.579
854.68	54.167
854.98	29.032
855.28	80.769
855.57	40.000
855.87	-16.667
856.17	14.815
856.46	42.857
856.76	-46.667
857.05	33.333
857.35	28.000
857.65	72.222
857.94	69.231
858.24	20.690
858.53	61.111
858.83	22.222
859.13	0.000
859.42	-8.696
859.72	-275.000
860.01	-166.667
860.31	36.000
860.60	14.286
860.90	33.333
861.20	-26.667
861.49	-250.000
861.79	20.000
862.08	-5.000
862.38	93.333
862.67	-20.000
862.97	-33.333
863.26	16.667
863.56	77.778
863.85	-300.000
864.15	38.889
864.44	30.000
864.74	64.286
865.03	-25.000
865.33	-20.000
865.62	-100.000
865.92	50.000
866.21	-150.000
866.51	-25.000
866.80	-36.364
867.10	-100.000
867.39	25.000
867.69	0.000
867.98	69.231
868.27	-300.000
868.57	-13.333
868.86	50.000
869.16	-61.538
869.45	60.000
869.75	-900.000
870.04	0.000
870.33	-157.143
870.63	-14.286
870.92	433.333
871.22	-320.000
871.51	200.000
871.80	177.778
872.10	100.000
>>>>>End Processed Spectral Data<<<<<
