SpectraSuite Data File
++++++++++++++++++++++++++++++++++++
Date: Fri May 15 20:09:07 PDT 2015
User: schluterlab
Dark Spectrum Present: Yes
Reference Spectrum Present: Yes
Number of Sampled Component Spectra: 1
Spectrometers: USB2E3373
Integration Time (usec): 3000 (USB2E3373)
Spectra Averaged: 3 (USB2E3373)
Boxcar Smoothing: 0 (USB2E3373)
Correct for Electrical Dark: No (USB2E3373)
Strobe/Lamp Enabled: No (USB2E3373)
Correct for Detector Non-linearity: No (USB2E3373)
Correct for Stray Light: No (USB2E3373)
Number of Pixels in Processed Spectrum: 2048
>>>>>Begin Processed Spectral Data<<<<<
178.53	0.000
178.91	0.000
179.29	-50.000
179.67	250.000
180.04	-142.857
180.42	175.000
180.80	-400.000
181.18	300.000
181.56	-0.000
181.94	-250.000
182.31	300.000
182.69	-40.000
183.07	0.000
183.45	60.000
183.83	100.000
184.20	36.364
184.58	100.000
184.96	-25.000
185.34	133.333
185.72	-150.000
186.09	46.154
186.47	-1300.000
186.85	-33.333
187.23	100.000
187.61	-0.000
187.98	-66.667
188.36	22.222
188.74	-33.333
189.12	52.941
189.49	22.222
189.87	0.000
190.25	78.571
190.63	250.000
191.00	-33.333
191.38	52.632
191.76	200.000
192.14	125.000
192.51	550.000
192.89	44.444
193.27	-28.571
193.65	33.333
194.02	172.727
194.40	-80.000
194.78	12.500
195.15	16.667
195.53	-25.000
195.91	100.000
196.29	275.000
196.66	61.538
197.04	28.571
197.42	155.556
197.79	-200.000
198.17	15.385
198.55	1000.000
198.92	-233.333
199.30	300.000
199.68	0.000
200.05	-233.333
200.43	0.000
200.81	-66.667
201.18	-200.000
201.56	1000.000
201.94	-350.000
202.31	-100.000
202.69	-120.000
203.07	50.000
203.44	1000.000
203.82	0.000
204.19	57.143
204.57	-633.333
204.95	-0.000
205.32	50.000
205.70	85.714
206.08	-150.000
206.45	211.111
206.83	71.429
207.20	-85.714
207.58	600.000
207.96	-100.000
208.33	10.000
208.71	225.000
209.08	-183.333
209.46	-100.000
209.84	-40.000
210.21	-1400.000
210.59	14.286
210.96	16.667
211.34	-50.000
211.71	73.333
212.09	0.000
212.46	-1400.000
212.84	0.000
213.22	90.000
213.59	400.000
213.97	46.154
214.34	36.364
214.72	83.333
215.09	575.000
215.47	-15.385
215.84	9.091
216.22	200.000
216.59	-12.500
216.97	850.000
217.34	75.000
217.72	-60.000
218.09	25.000
218.47	62.500
218.84	-800.000
219.22	-55.556
219.59	-280.000
219.97	166.667
220.34	175.000
220.72	100.000
221.09	-25.000
221.47	350.000
221.84	-350.000
222.22	-700.000
222.59	18.182
222.97	33.333
223.34	-233.333
223.72	-35.714
224.09	57.143
224.46	3.571
224.84	166.667
225.21	30.000
225.59	33.333
225.96	250.000
226.34	200.000
226.71	14.286
227.08	116.667
227.46	75.000
227.83	-150.000
228.21	22.222
228.58	-9.091
228.95	12.500
229.33	10.000
229.70	25.000
230.08	-37.500
230.45	0.000
230.82	-42.857
231.20	-46.667
231.57	-28.571
231.95	42.857
232.32	-30.000
232.69	50.000
233.07	166.667
233.44	-120.000
233.81	20.000
234.19	33.333
234.56	76.471
234.93	750.000
235.31	-25.000
235.68	-180.000
236.05	-38.462
236.43	-25.000
236.80	29.412
237.17	15.625
237.55	-20.000
237.92	0.000
238.29	19.444
238.67	10.000
239.04	17.647
239.41	-7.317
239.79	-10.000
240.16	31.707
240.53	13.158
240.91	13.043
241.28	14.286
241.65	30.357
242.02	24.658
242.40	20.000
242.77	13.559
243.14	7.576
243.51	13.750
243.89	20.690
244.26	8.046
244.63	14.286
245.00	23.711
245.38	24.742
245.75	3.371
246.12	6.034
246.49	18.182
246.87	19.231
247.24	10.924
247.61	10.526
247.98	4.878
248.36	20.625
248.73	19.079
249.10	11.688
249.47	10.127
249.84	8.497
250.22	15.294
250.59	22.876
250.96	21.127
251.33	12.209
251.70	20.588
252.08	19.289
252.45	21.287
252.82	12.060
253.19	16.590
253.56	11.215
253.94	17.117
254.31	16.957
254.68	17.982
255.05	12.598
255.42	17.031
255.79	13.514
256.16	19.066
256.54	16.418
256.91	12.548
257.28	16.357
257.65	15.356
258.02	14.539
258.39	14.141
258.76	15.018
259.14	16.611
259.51	17.152
259.88	18.557
260.25	15.033
260.62	20.139
260.99	10.847
261.36	16.438
261.73	15.823
262.10	16.413
262.47	16.871
262.85	15.674
263.22	15.692
263.59	17.445
263.96	19.565
264.33	15.455
264.70	18.155
265.07	14.881
265.44	20.397
265.81	15.819
266.18	15.847
266.55	16.195
266.92	18.653
267.29	17.232
267.66	17.391
268.03	17.801
268.40	16.449
268.77	14.439
269.14	18.705
269.51	16.452
269.88	13.217
270.25	10.969
270.62	11.951
270.99	16.880
271.36	12.714
271.73	15.962
272.10	15.815
272.47	15.603
272.84	15.594
273.21	17.865
273.58	15.422
273.95	17.162
274.32	15.242
274.69	14.932
275.06	17.411
275.43	17.914
275.80	15.673
276.17	17.241
276.54	14.561
276.91	16.447
277.28	14.192
277.65	15.496
278.02	15.319
278.39	14.442
278.76	15.094
279.13	12.863
279.50	14.706
279.87	15.119
280.23	15.054
280.60	15.789
280.97	15.152
281.34	13.654
281.71	15.811
282.08	14.315
282.45	14.286
282.82	15.637
283.19	16.054
283.56	14.451
283.92	13.472
284.29	11.731
284.66	13.372
285.03	13.163
285.40	17.769
285.77	15.641
286.14	13.177
286.51	15.314
286.87	14.808
287.24	14.549
287.61	12.875
287.98	16.140
288.35	14.038
288.72	15.587
289.08	13.715
289.45	16.344
289.82	14.161
290.19	13.140
290.56	12.693
290.93	13.300
291.29	11.556
291.66	12.913
292.03	13.078
292.40	11.935
292.77	12.440
293.13	11.039
293.50	11.988
293.87	14.198
294.24	13.292
294.60	12.072
294.97	13.095
295.34	14.110
295.71	12.370
296.08	11.958
296.44	11.664
296.81	11.250
297.18	10.580
297.55	13.686
297.91	11.644
298.28	11.873
298.65	12.076
299.02	13.208
299.38	9.029
299.75	10.759
300.12	13.220
300.48	11.331
300.85	11.153
301.22	10.130
301.59	9.211
301.95	12.152
302.32	12.451
302.69	10.697
303.05	11.262
303.42	11.706
303.79	10.631
304.15	11.350
304.52	9.750
304.89	10.175
305.25	10.048
305.62	10.035
305.99	10.994
306.35	9.942
306.72	9.449
307.09	11.973
307.45	10.792
307.82	10.764
308.19	10.918
308.55	10.360
308.92	11.438
309.29	8.268
309.65	9.903
310.02	11.331
310.38	10.648
310.75	10.601
311.12	11.195
311.48	9.438
311.85	9.424
312.22	9.916
312.58	10.191
312.95	9.819
313.31	9.317
313.68	9.634
314.05	9.796
314.41	11.031
314.78	11.031
315.14	12.333
315.51	10.455
315.87	8.811
316.24	12.740
316.61	11.417
316.97	12.401
317.34	11.230
317.70	11.568
318.07	10.865
318.43	10.784
318.80	10.322
319.16	11.523
319.53	12.061
319.89	11.909
320.26	10.931
320.62	11.635
320.99	11.482
321.35	11.922
321.72	12.357
322.08	11.782
322.45	12.386
322.81	11.690
323.18	10.795
323.54	12.934
323.91	12.658
324.27	12.695
324.64	13.951
325.00	14.325
325.37	15.519
325.73	13.237
326.10	13.624
326.46	15.695
326.83	13.911
327.19	14.647
327.56	14.683
327.92	15.405
328.29	15.357
328.65	14.906
329.01	16.452
329.38	14.931
329.74	13.503
330.11	17.238
330.47	16.048
330.84	16.058
331.20	17.776
331.56	15.370
331.93	16.895
332.29	17.599
332.66	17.285
333.02	16.729
333.38	15.215
333.75	17.216
334.11	16.383
334.48	17.498
334.84	18.040
335.20	17.475
335.57	17.135
335.93	17.435
336.29	17.587
336.66	17.075
337.02	16.264
337.38	16.389
337.75	17.636
338.11	18.395
338.47	18.066
338.84	18.669
339.20	17.733
339.56	19.358
339.93	17.457
340.29	18.165
340.65	18.548
341.02	17.376
341.38	17.965
341.74	16.166
342.11	17.331
342.47	18.327
342.83	18.253
343.20	18.467
343.56	18.261
343.92	18.158
344.28	18.531
344.65	17.098
345.01	19.101
345.37	18.335
345.73	19.079
346.10	18.119
346.46	18.419
346.82	17.758
347.19	16.708
347.55	18.797
347.91	19.013
348.27	18.270
348.63	18.569
349.00	16.325
349.36	17.623
349.72	17.413
350.08	18.279
350.45	18.117
350.81	18.106
351.17	17.834
351.53	18.122
351.89	16.598
352.26	18.080
352.62	19.355
352.98	16.867
353.34	17.633
353.70	18.528
354.07	19.274
354.43	18.815
354.79	17.424
355.15	19.048
355.51	18.987
355.87	18.366
356.24	17.700
356.60	18.108
356.96	18.492
357.32	17.812
357.68	19.547
358.04	18.255
358.40	18.489
358.77	19.617
359.13	18.655
359.49	18.644
359.85	17.785
360.21	18.262
360.57	18.592
360.93	19.743
361.29	17.372
361.66	19.436
362.02	19.394
362.38	18.431
362.74	17.714
363.10	19.940
363.46	18.384
363.82	19.835
364.18	18.376
364.54	18.676
364.90	18.853
365.26	17.904
365.62	21.022
365.98	18.622
366.35	19.519
366.71	19.660
367.07	19.884
367.43	19.770
367.79	19.717
368.15	19.742
368.51	19.592
368.87	18.449
369.23	18.700
369.59	20.262
369.95	20.894
370.31	19.942
370.67	19.254
371.03	18.820
371.39	19.548
371.75	19.927
372.11	19.044
372.47	18.935
372.83	20.866
373.19	20.043
373.55	19.639
373.91	20.662
374.27	20.695
374.63	21.321
374.99	20.355
375.35	20.822
375.71	20.699
376.07	20.295
376.42	20.476
376.78	20.134
377.14	21.124
377.50	19.456
377.86	20.817
378.22	21.251
378.58	20.962
378.94	20.731
379.30	21.522
379.66	22.320
380.02	21.091
380.38	20.755
380.74	21.065
381.09	22.209
381.45	21.284
381.81	21.900
382.17	21.637
382.53	22.049
382.89	21.971
383.25	21.842
383.61	22.866
383.97	21.905
384.32	22.076
384.68	22.601
385.04	22.059
385.40	22.340
385.76	22.830
386.12	22.445
386.48	24.202
386.83	22.638
387.19	23.138
387.55	23.463
387.91	23.411
388.27	22.955
388.62	23.411
388.98	22.836
389.34	23.298
389.70	23.555
390.06	23.537
390.42	23.381
390.77	23.479
391.13	23.329
391.49	23.545
391.85	23.327
392.20	23.352
392.56	22.886
392.92	22.783
393.28	23.585
393.64	24.324
393.99	24.639
394.35	24.099
394.71	24.330
395.07	24.450
395.42	23.012
395.78	23.583
396.14	23.834
396.50	23.462
396.85	24.018
397.21	23.935
397.57	24.451
397.92	23.367
398.28	24.138
398.64	22.711
399.00	24.097
399.35	22.968
399.71	24.009
400.07	24.244
400.42	23.562
400.78	24.862
401.14	23.412
401.49	24.002
401.85	24.436
402.21	24.398
402.57	24.000
402.92	23.400
403.28	25.188
403.63	24.716
403.99	22.895
404.35	24.672
404.70	24.762
405.06	24.207
405.42	23.741
405.77	23.010
406.13	24.098
406.49	23.801
406.84	24.083
407.20	23.901
407.55	24.469
407.91	23.396
408.27	24.474
408.62	25.046
408.98	23.660
409.34	24.226
409.69	23.837
410.05	23.276
410.40	24.753
410.76	24.427
411.11	24.250
411.47	24.260
411.83	24.168
412.18	25.290
412.54	24.345
412.89	23.645
413.25	24.007
413.60	23.851
413.96	23.313
414.31	25.061
414.67	24.631
415.03	24.035
415.38	23.629
415.74	24.365
416.09	25.016
416.45	24.173
416.80	23.992
417.16	23.964
417.51	25.050
417.87	24.446
418.22	25.324
418.58	24.482
418.93	24.765
419.29	23.431
419.64	24.498
420.00	25.819
420.35	24.776
420.71	26.185
421.06	24.678
421.42	24.940
421.77	25.780
422.12	25.255
422.48	24.256
422.83	24.304
423.19	25.113
423.54	25.691
423.90	24.971
424.25	25.545
424.61	25.092
424.96	25.319
425.31	25.708
425.67	25.763
426.02	25.913
426.38	25.924
426.73	25.666
427.09	25.127
427.44	25.824
427.79	25.692
428.15	25.364
428.50	26.166
428.85	25.369
429.21	25.297
429.56	26.577
429.92	25.681
430.27	25.263
430.62	25.196
430.98	25.902
431.33	25.394
431.68	26.007
432.04	26.831
432.39	25.670
432.74	25.496
433.10	26.494
433.45	24.910
433.80	26.059
434.16	25.817
434.51	26.075
434.86	26.771
435.22	25.687
435.57	27.324
435.92	25.988
436.28	26.595
436.63	26.127
436.98	26.419
437.34	26.195
437.69	27.728
438.04	26.439
438.39	27.062
438.75	26.897
439.10	27.504
439.45	27.632
439.81	27.584
440.16	27.435
440.51	27.403
440.86	28.036
441.22	26.527
441.57	26.711
441.92	27.597
442.27	28.326
442.63	27.677
442.98	27.628
443.33	27.212
443.68	27.003
444.03	27.769
444.39	27.300
444.74	27.592
445.09	27.339
445.44	28.262
445.79	27.282
446.15	27.533
446.50	27.565
446.85	27.683
447.20	27.059
447.55	27.623
447.91	28.201
448.26	27.888
448.61	28.037
448.96	28.342
449.31	27.457
449.66	28.397
450.02	28.351
450.37	27.979
450.72	27.950
451.07	29.747
451.42	26.966
451.77	27.848
452.12	27.632
452.47	28.268
452.83	27.739
453.18	27.830
453.53	28.824
453.88	27.930
454.23	28.765
454.58	29.030
454.93	28.802
455.28	26.730
455.63	29.262
455.98	28.563
456.34	28.608
456.69	29.352
457.04	28.986
457.39	28.311
457.74	29.262
458.09	27.958
458.44	29.901
458.79	28.347
459.14	29.005
459.49	29.910
459.84	28.032
460.19	28.095
460.54	29.340
460.89	29.318
461.24	28.696
461.59	29.097
461.94	28.931
462.29	29.554
462.64	29.967
462.99	31.144
463.34	30.459
463.69	29.344
464.04	29.358
464.39	29.654
464.74	29.387
465.09	30.256
465.44	29.890
465.79	29.082
466.14	29.647
466.49	29.040
466.84	29.744
467.19	29.850
467.54	30.140
467.89	29.438
468.24	29.501
468.59	30.794
468.94	30.730
469.29	29.770
469.64	31.100
469.99	31.184
470.34	29.488
470.68	30.052
471.03	30.078
471.38	30.670
471.73	29.832
472.08	30.461
472.43	30.604
472.78	29.815
473.13	29.864
473.48	30.293
473.83	30.511
474.17	31.282
474.52	30.057
474.87	30.606
475.22	30.018
475.57	30.152
475.92	30.609
476.27	31.141
476.61	30.845
476.96	30.508
477.31	31.098
477.66	29.775
478.01	30.320
478.36	29.630
478.70	30.886
479.05	31.703
479.40	31.055
479.75	30.709
480.10	30.568
480.45	30.150
480.79	30.614
481.14	31.557
481.49	30.542
481.84	31.371
482.19	30.823
482.53	31.511
482.88	30.883
483.23	30.614
483.58	31.038
483.92	30.542
484.27	29.672
484.62	31.107
484.97	30.307
485.31	30.600
485.66	29.312
486.01	29.267
486.36	29.210
486.70	29.351
487.05	29.194
487.40	29.679
487.75	29.859
488.09	29.512
488.44	30.365
488.79	30.370
489.13	30.769
489.48	31.552
489.83	30.897
490.17	31.551
490.52	31.039
490.87	30.495
491.22	31.853
491.56	31.973
491.91	31.979
492.26	32.669
492.60	32.102
492.95	32.464
493.30	31.216
493.64	32.908
493.99	32.899
494.34	32.621
494.68	32.190
495.03	31.922
495.37	32.434
495.72	32.408
496.07	32.439
496.41	32.736
496.76	32.243
497.11	31.905
497.45	32.267
497.80	32.896
498.14	31.694
498.49	32.555
498.84	33.184
499.18	32.681
499.53	33.532
499.87	33.220
500.22	32.443
500.56	33.485
500.91	32.380
501.26	31.389
501.60	33.104
501.95	31.635
502.29	32.688
502.64	33.494
502.98	32.067
503.33	33.141
503.67	32.675
504.02	32.698
504.36	33.003
504.71	32.727
505.06	33.015
505.40	33.503
505.75	33.299
506.09	33.452
506.44	33.984
506.78	34.592
507.13	32.937
507.47	33.264
507.82	33.440
508.16	34.337
508.51	34.260
508.85	33.438
509.19	34.540
509.54	33.995
509.88	34.304
510.23	34.266
510.57	34.260
510.92	32.783
511.26	33.333
511.61	34.268
511.95	34.192
512.30	33.315
512.64	33.445
512.98	34.082
513.33	34.863
513.67	34.679
514.02	35.183
514.36	34.686
514.70	35.315
515.05	36.075
515.39	35.301
515.74	35.569
516.08	34.130
516.42	36.219
516.77	34.640
517.11	35.015
517.46	35.248
517.80	35.042
518.14	36.558
518.49	33.954
518.83	34.812
519.17	35.233
519.52	34.991
519.86	35.114
520.20	35.419
520.55	35.647
520.89	36.073
521.23	35.845
521.58	36.215
521.92	36.859
522.26	35.719
522.61	35.779
522.95	36.291
523.29	36.213
523.64	36.912
523.98	35.904
524.32	36.018
524.66	36.364
525.01	36.883
525.35	36.423
525.69	35.623
526.04	35.582
526.38	36.641
526.72	35.710
527.06	36.706
527.41	36.939
527.75	35.389
528.09	36.678
528.43	37.947
528.78	35.578
529.12	35.806
529.46	35.867
529.80	35.655
530.15	36.502
530.49	37.845
530.83	36.731
531.17	37.139
531.51	37.073
531.86	35.962
532.20	35.282
532.54	36.487
532.88	36.619
533.22	37.097
533.57	34.993
533.91	35.705
534.25	36.849
534.59	36.690
534.93	34.865
535.27	35.406
535.62	34.997
535.96	36.269
536.30	36.873
536.64	35.562
536.98	36.585
537.32	36.842
537.66	35.764
538.01	35.594
538.35	35.714
538.69	36.884
539.03	35.954
539.37	36.474
539.71	36.742
540.05	35.709
540.39	36.704
540.73	36.402
541.07	37.224
541.42	36.223
541.76	36.889
542.10	35.375
542.44	35.789
542.78	36.407
543.12	35.852
543.46	36.787
543.80	36.572
544.14	34.579
544.48	36.309
544.82	35.065
545.16	37.090
545.50	35.981
545.84	36.686
546.18	37.163
546.52	37.203
546.86	36.377
547.20	38.054
547.54	35.406
547.88	36.005
548.22	35.897
548.56	35.356
548.90	36.119
549.24	35.882
549.58	36.530
549.92	35.525
550.26	36.703
550.60	37.918
550.94	36.520
551.28	38.331
551.62	38.000
551.96	36.541
552.30	36.988
552.64	36.319
552.98	36.357
553.32	36.163
553.66	36.647
554.00	36.861
554.34	37.223
554.68	36.504
555.02	37.946
555.36	36.948
555.69	35.531
556.03	35.903
556.37	35.587
556.71	35.884
557.05	37.658
557.39	35.911
557.73	37.931
558.07	37.179
558.41	38.132
558.75	37.724
559.08	36.485
559.42	37.222
559.76	37.550
560.10	37.385
560.44	36.709
560.78	36.364
561.12	36.601
561.45	37.597
561.79	37.675
562.13	36.764
562.47	37.122
562.81	36.744
563.15	36.601
563.48	36.917
563.82	36.788
564.16	36.699
564.50	36.486
564.84	36.212
565.17	37.089
565.51	37.022
565.85	37.449
566.19	36.605
566.52	37.265
566.86	37.853
567.20	36.052
567.54	35.766
567.88	36.614
568.21	35.803
568.55	34.783
568.89	36.550
569.23	34.569
569.56	34.194
569.90	34.348
570.24	32.304
570.57	33.491
570.91	33.113
571.25	32.358
571.59	32.046
571.92	31.674
572.26	31.884
572.60	32.496
572.93	31.723
573.27	31.912
573.61	32.369
573.95	31.759
574.28	31.515
574.62	31.045
574.96	31.738
575.29	31.878
575.63	30.682
575.97	31.201
576.30	31.206
576.64	31.232
576.98	31.686
577.31	31.654
577.65	31.284
577.98	31.171
578.32	30.970
578.66	30.625
578.99	30.814
579.33	30.652
579.67	30.835
580.00	31.063
580.34	31.368
580.67	30.811
581.01	31.508
581.35	30.857
581.68	30.624
582.02	31.235
582.35	30.789
582.69	30.989
583.02	30.570
583.36	31.251
583.70	31.282
584.03	32.249
584.37	32.609
584.70	31.429
585.04	31.166
585.37	30.909
585.71	31.252
586.04	30.988
586.38	31.368
586.72	31.908
587.05	32.293
587.39	31.619
587.72	32.750
588.06	31.553
588.39	31.558
588.73	32.234
589.06	32.322
589.40	32.077
589.73	33.991
590.07	33.535
590.40	33.475
590.73	34.514
591.07	33.291
591.40	33.037
591.74	33.620
592.07	34.323
592.41	33.966
592.74	32.816
593.08	32.414
593.41	32.586
593.75	31.829
594.08	32.372
594.41	32.496
594.75	32.328
595.08	32.614
595.42	32.941
595.75	33.421
596.09	32.721
596.42	33.816
596.75	33.259
597.09	33.303
597.42	33.514
597.75	33.623
598.09	32.866
598.42	33.439
598.76	32.990
599.09	33.173
599.42	32.247
599.76	32.882
600.09	32.240
600.42	32.297
600.76	32.467
601.09	32.481
601.42	32.707
601.76	32.989
602.09	32.508
602.42	33.488
602.76	33.149
603.09	33.555
603.42	34.323
603.76	32.903
604.09	32.807
604.42	33.503
604.76	34.312
605.09	33.592
605.42	33.138
605.75	33.275
606.09	33.631
606.42	32.902
606.75	33.247
607.09	34.022
607.42	33.274
607.75	32.948
608.08	32.570
608.42	33.486
608.75	34.265
609.08	34.529
609.41	33.401
609.75	34.224
610.08	35.047
610.41	33.285
610.74	33.935
611.07	34.367
611.41	34.250
611.74	35.021
612.07	33.672
612.40	34.190
612.73	35.198
613.07	34.533
613.40	34.737
613.73	33.520
614.06	34.112
614.39	35.195
614.72	34.398
615.06	34.804
615.39	33.897
615.72	33.423
616.05	34.134
616.38	34.131
616.71	36.147
617.05	34.404
617.38	35.072
617.71	34.465
618.04	36.635
618.37	36.255
618.70	35.908
619.03	37.292
619.36	35.528
619.69	37.528
620.03	37.107
620.36	35.765
620.69	36.974
621.02	37.080
621.35	38.423
621.68	37.330
622.01	38.500
622.34	37.350
622.67	37.934
623.00	36.524
623.33	36.738
623.66	37.173
623.99	36.611
624.32	36.654
624.65	36.917
624.99	37.923
625.32	36.088
625.65	38.492
625.98	38.034
626.31	37.822
626.64	38.648
626.97	38.656
627.30	38.179
627.63	36.828
627.96	37.556
628.29	39.500
628.62	39.823
628.95	39.279
629.28	40.121
629.61	38.684
629.94	39.101
630.26	39.130
630.59	40.479
630.92	39.692
631.25	39.897
631.58	40.088
631.91	40.132
632.24	41.628
632.57	42.159
632.90	39.858
633.23	41.882
633.56	42.947
633.89	41.554
634.22	42.716
634.55	43.964
634.88	43.934
635.20	41.795
635.53	42.800
635.86	41.873
636.19	43.596
636.52	42.092
636.85	41.935
637.18	41.258
637.51	43.774
637.83	40.867
638.16	42.974
638.49	41.144
638.82	43.816
639.15	41.384
639.48	43.054
639.81	42.120
640.13	44.444
640.46	44.023
640.79	43.888
641.12	44.756
641.45	44.294
641.77	43.556
642.10	44.076
642.43	45.498
642.76	44.884
643.09	45.557
643.41	43.528
643.74	43.657
644.07	44.499
644.40	46.115
644.73	46.235
645.05	42.450
645.38	43.915
645.71	43.440
646.04	47.935
646.36	45.567
646.69	46.403
647.02	44.612
647.35	46.455
647.67	43.327
648.00	47.015
648.33	44.369
648.66	43.898
648.98	39.698
649.31	42.810
649.64	40.816
649.96	42.464
650.29	44.463
650.62	45.299
650.94	45.000
651.27	41.899
651.60	43.423
651.92	44.930
652.25	41.918
652.58	42.667
652.90	45.969
653.23	41.008
653.56	42.301
653.88	42.612
654.21	41.681
654.54	42.784
654.86	43.803
655.19	39.327
655.52	34.365
655.84	29.592
656.17	32.641
656.49	43.750
656.82	45.290
657.15	34.242
657.47	25.551
657.80	19.044
658.13	19.191
658.45	29.202
658.78	29.354
659.10	29.714
659.43	30.561
659.75	32.610
660.08	33.103
660.41	37.794
660.73	39.365
661.06	41.594
661.38	45.205
661.71	42.300
662.03	46.781
662.36	43.297
662.68	44.690
663.01	47.817
663.33	44.780
663.66	49.302
663.98	45.116
664.31	46.055
664.63	40.783
664.96	42.174
665.28	42.384
665.61	44.589
665.93	42.391
666.26	44.902
666.58	41.834
666.91	47.529
667.23	49.292
667.56	49.289
667.88	45.564
668.21	47.971
668.53	46.572
668.86	47.170
669.18	46.934
669.50	47.942
669.83	45.581
670.15	44.522
670.48	46.411
670.80	44.931
671.13	43.400
671.45	40.183
671.77	44.850
672.10	43.960
672.42	42.697
672.75	41.918
673.07	42.397
673.39	44.404
673.72	40.434
674.04	44.167
674.37	46.398
674.69	45.182
675.01	46.444
675.34	46.171
675.66	46.759
675.98	47.450
676.31	45.872
676.63	45.368
676.95	43.182
677.28	48.941
677.60	45.542
677.92	45.642
678.25	43.764
678.57	41.342
678.89	42.437
679.22	45.414
679.54	42.570
679.86	39.364
680.18	39.806
680.51	42.235
680.83	41.153
681.15	41.800
681.48	42.008
681.80	46.074
682.12	40.927
682.44	42.259
682.77	45.916
683.09	42.334
683.41	42.955
683.73	41.705
684.06	41.150
684.38	40.215
684.70	44.880
685.02	41.909
685.34	39.921
685.67	38.837
685.99	38.879
686.31	38.053
686.63	41.929
686.96	38.213
687.28	38.788
687.60	40.684
687.92	42.828
688.24	39.315
688.56	42.795
688.89	43.080
689.21	43.556
689.53	45.940
689.85	41.860
690.17	42.188
690.49	43.972
690.82	41.262
691.14	42.143
691.46	41.121
691.78	43.468
692.10	41.935
692.42	41.991
692.74	41.453
693.06	42.793
693.39	40.950
693.71	40.498
694.03	39.723
694.35	41.822
694.67	45.202
694.99	40.731
695.31	44.648
695.63	45.000
695.95	40.657
696.27	45.337
696.59	46.944
696.91	41.457
697.23	40.360
697.56	39.851
697.88	41.290
698.20	42.141
698.52	42.118
698.84	37.799
699.16	38.250
699.48	39.850
699.80	42.928
700.12	42.857
700.44	42.577
700.76	39.244
701.08	43.939
701.40	43.373
701.72	49.383
702.04	45.875
702.36	45.819
702.68	42.643
703.00	40.000
703.32	44.282
703.64	41.243
703.96	42.029
704.28	39.571
704.60	44.762
704.91	41.325
705.23	41.196
705.55	48.410
705.87	47.292
706.19	46.667
706.51	43.986
706.83	44.695
707.15	40.810
707.47	42.857
707.79	40.104
708.11	39.000
708.43	37.000
708.74	39.276
709.06	49.014
709.38	44.343
709.70	44.675
710.02	43.631
710.34	44.582
710.66	40.064
710.98	40.728
711.29	46.885
711.61	42.034
711.93	44.300
712.25	45.017
712.57	46.154
712.89	42.537
713.20	44.983
713.52	40.418
713.84	40.614
714.16	39.175
714.48	40.000
714.80	41.987
715.11	38.602
715.43	39.498
715.75	41.333
716.07	41.528
716.39	40.940
716.70	42.435
717.02	41.221
717.34	44.534
717.66	48.673
717.97	42.174
718.29	44.351
718.61	40.945
718.93	42.636
719.24	43.726
719.56	44.980
719.88	40.893
720.20	43.939
720.51	40.230
720.83	41.313
721.15	44.958
721.46	46.774
721.78	40.316
722.10	38.662
722.42	42.739
722.73	38.367
723.05	46.122
723.37	47.458
723.68	46.847
724.00	44.444
724.32	40.889
724.63	46.364
724.95	41.048
725.27	43.318
725.58	40.254
725.90	39.683
726.22	40.154
726.53	44.068
726.85	39.700
727.16	41.887
727.48	35.628
727.80	42.510
728.11	42.373
728.43	45.490
728.74	33.871
729.06	39.200
729.38	48.120
729.69	41.833
730.01	40.769
730.32	41.791
730.64	37.102
730.96	40.755
731.27	38.667
731.59	39.661
731.90	35.669
732.22	42.902
732.53	40.864
732.85	36.879
733.16	38.721
733.48	37.410
733.80	39.855
734.11	36.610
734.43	36.770
734.74	38.182
735.06	33.876
735.37	37.160
735.69	41.414
736.00	36.585
736.32	36.242
736.63	35.563
736.95	36.519
737.26	39.146
737.58	37.919
737.89	37.363
738.21	39.850
738.52	39.506
738.83	43.231
739.15	37.991
739.46	40.551
739.78	35.897
740.09	36.275
740.41	39.130
740.72	33.071
741.04	37.247
741.35	36.596
741.66	36.967
741.98	38.265
742.29	41.089
742.61	41.885
742.92	35.071
743.23	35.185
743.55	40.271
743.86	40.191
744.18	36.364
744.49	37.234
744.80	39.130
745.12	45.989
745.43	36.098
745.74	45.312
746.06	40.976
746.37	39.791
746.68	37.441
747.00	40.957
747.31	43.781
747.62	41.262
747.94	44.019
748.25	42.574
748.56	38.251
748.88	41.885
749.19	43.085
749.50	39.409
749.82	37.736
750.13	33.945
750.44	39.474
750.75	38.433
751.07	40.876
751.38	37.165
751.69	34.902
752.01	43.798
752.32	41.434
752.63	37.945
752.94	40.517
753.26	47.280
753.57	37.104
753.88	40.265
754.19	38.750
754.51	35.950
754.82	33.603
755.13	43.333
755.44	38.710
755.75	39.453
756.07	40.856
756.38	36.604
756.69	36.782
757.00	32.667
757.31	38.562
757.63	33.232
757.94	32.500
758.25	32.603
758.56	33.777
758.87	32.861
759.18	33.333
759.50	28.364
759.81	32.776
760.12	38.065
760.43	33.939
760.74	33.951
761.05	35.077
761.36	34.091
761.67	37.273
761.99	38.776
762.30	34.909
762.61	36.759
762.92	38.914
763.23	33.784
763.54	37.850
763.85	30.508
764.16	38.589
764.47	34.274
764.78	33.700
765.10	37.374
765.41	32.808
765.72	33.333
766.03	31.579
766.34	36.861
766.65	37.849
766.96	42.424
767.27	42.553
767.58	42.529
767.89	31.915
768.20	38.068
768.51	40.110
768.82	38.916
769.13	28.111
769.44	27.039
769.75	34.703
770.06	38.362
770.37	34.135
770.68	34.518
770.99	31.222
771.30	38.235
771.61	33.937
771.92	39.224
772.23	40.887
772.54	32.796
772.85	45.679
773.16	33.708
773.47	44.444
773.78	46.405
774.09	39.521
774.39	32.667
774.70	34.395
775.01	41.379
775.32	35.714
775.63	40.496
775.94	39.695
776.25	41.732
776.56	32.500
776.87	48.077
777.18	35.897
777.48	38.793
777.79	40.870
778.10	37.143
778.41	30.631
778.72	36.508
779.03	36.842
779.34	34.752
779.65	37.671
779.95	31.507
780.26	31.724
780.57	23.577
780.88	41.732
781.19	40.517
781.50	38.760
781.80	26.627
782.11	32.075
782.42	41.538
782.73	30.935
783.04	33.333
783.34	31.250
783.65	33.333
783.96	29.508
784.27	41.379
784.57	37.398
784.88	35.938
785.19	54.000
785.50	45.000
785.81	37.069
786.11	37.931
786.42	33.010
786.73	46.364
787.04	36.735
787.34	43.750
787.65	32.381
787.96	34.513
788.26	33.636
788.57	35.043
788.88	38.281
789.19	42.857
789.49	33.043
789.80	39.796
790.11	34.343
790.41	31.818
790.72	35.870
791.03	47.727
791.33	47.500
791.64	51.250
791.95	45.349
792.25	45.745
792.56	37.079
792.87	32.877
793.17	50.725
793.48	29.333
793.79	46.250
794.09	33.750
794.40	31.132
794.70	39.806
795.01	27.642
795.32	28.205
795.62	34.286
795.93	34.314
796.23	28.302
796.54	33.333
796.85	35.294
797.15	22.535
797.46	31.944
797.76	50.000
798.07	38.372
798.37	25.000
798.68	22.727
798.99	32.099
799.29	41.429
799.60	20.290
799.90	48.000
800.21	45.902
800.51	49.231
800.82	23.729
801.12	53.623
801.43	21.311
801.73	38.095
802.04	44.000
802.34	37.313
802.65	51.923
802.95	19.643
803.26	30.769
803.56	35.294
803.87	36.957
804.17	40.000
804.48	42.857
804.78	24.074
805.09	28.261
805.39	37.778
805.70	55.556
806.00	29.825
806.30	40.845
806.61	51.429
806.91	31.944
807.22	44.737
807.52	41.333
807.83	32.727
808.13	43.056
808.43	41.176
808.74	35.821
809.04	16.949
809.35	17.308
809.65	26.563
809.95	13.514
810.26	25.000
810.56	26.027
810.86	42.857
811.17	22.000
811.47	38.776
811.77	10.526
812.08	56.818
812.38	26.415
812.69	25.000
812.99	30.303
813.29	65.789
813.59	28.571
813.90	29.545
814.20	15.385
814.50	21.154
814.81	32.075
815.11	14.894
815.41	47.458
815.72	59.524
816.02	27.451
816.32	39.583
816.62	29.268
816.93	43.243
817.23	22.857
817.53	35.417
817.84	26.087
818.14	42.308
818.44	39.474
818.74	47.826
819.04	22.500
819.35	35.135
819.65	32.353
819.95	11.111
820.25	30.952
820.56	47.500
820.86	-27.586
821.16	45.000
821.46	25.532
821.76	42.500
822.07	23.256
822.37	2.703
822.67	34.375
822.97	64.286
823.27	32.143
823.57	4.000
823.88	3.704
824.18	64.286
824.48	5.882
824.78	32.258
825.08	-8.696
825.38	33.333
825.69	0.000
825.99	52.632
826.29	-5.556
826.59	26.667
826.89	19.048
827.19	39.130
827.49	27.500
827.79	51.429
828.09	46.429
828.39	36.364
828.70	72.973
829.00	25.000
829.30	14.286
829.60	33.333
829.90	37.500
830.20	2.632
830.50	48.148
830.80	30.435
831.10	9.091
831.40	45.455
831.70	38.710
832.00	47.619
832.30	52.381
832.60	33.333
832.90	44.828
833.20	15.000
833.50	63.636
833.80	37.037
834.10	19.231
834.40	59.375
834.70	-133.333
835.00	84.211
835.30	65.385
835.60	20.000
835.90	19.355
836.20	45.455
836.50	42.857
836.80	0.000
837.10	-10.714
837.40	-33.333
837.70	31.818
838.00	-63.636
838.30	8.696
838.60	61.538
838.90	13.636
839.19	35.714
839.49	26.667
839.79	53.846
840.09	-25.000
840.39	64.286
840.69	35.714
840.99	0.000
841.29	-5.263
841.59	20.000
841.88	81.818
842.18	-30.000
842.48	100.000
842.78	20.000
843.08	48.148
843.38	-60.000
843.68	65.217
843.97	46.667
844.27	6.667
844.57	75.000
844.87	0.000
845.17	19.048
845.47	40.000
845.76	14.286
846.06	17.647
846.36	-40.000
846.66	42.857
846.96	86.667
847.25	-12.500
847.55	85.714
847.85	-12.500
848.15	13.636
848.44	-666.667
848.74	0.000
849.04	55.556
849.34	63.636
849.63	33.333
849.93	-80.000
850.23	-27.778
850.53	80.000
850.82	23.077
851.12	-33.333
851.42	33.333
851.71	34.615
852.01	0.000
852.31	150.000
852.61	-45.455
852.90	55.000
853.20	-10.526
853.50	41.667
853.79	65.217
854.09	54.167
854.39	57.895
854.68	29.167
854.98	48.387
855.28	111.538
855.57	20.000
855.87	61.111
856.17	62.963
856.46	35.714
856.76	-6.667
857.05	55.556
857.35	40.000
857.65	27.778
857.94	46.154
858.24	65.517
858.53	16.667
858.83	55.556
859.13	27.273
859.42	0.000
859.72	200.000
860.01	-400.000
860.31	64.000
860.60	42.857
860.90	66.667
861.20	-53.333
861.49	-550.000
861.79	-73.333
862.08	40.000
862.38	126.667
862.67	-60.000
862.97	116.667
863.26	8.333
863.56	72.222
863.85	-200.000
864.15	0.000
864.44	-30.000
864.74	28.571
865.03	50.000
865.33	-260.000
865.62	50.000
865.92	58.333
866.21	-100.000
866.51	75.000
866.80	-36.364
867.10	-150.000
867.39	75.000
867.69	0.000
867.98	115.385
868.27	-166.667
868.57	33.333
868.86	72.222
869.16	-7.692
869.45	73.333
869.75	-100.000
870.04	0.000
870.33	-71.429
870.63	14.286
870.92	400.000
871.22	-320.000
871.51	-100.000
871.80	100.000
872.10	133.333
>>>>>End Processed Spectral Data<<<<<
