SpectraSuite Data File
++++++++++++++++++++++++++++++++++++
Date: Fri May 15 17:16:01 PDT 2015
User: schluterlab
Dark Spectrum Present: Yes
Reference Spectrum Present: Yes
Number of Sampled Component Spectra: 1
Spectrometers: USB2E3373
Integration Time (usec): 3000 (USB2E3373)
Spectra Averaged: 3 (USB2E3373)
Boxcar Smoothing: 0 (USB2E3373)
Correct for Electrical Dark: No (USB2E3373)
Strobe/Lamp Enabled: No (USB2E3373)
Correct for Detector Non-linearity: No (USB2E3373)
Correct for Stray Light: No (USB2E3373)
Number of Pixels in Processed Spectrum: 2048
>>>>>Begin Processed Spectral Data<<<<<
178.53	0.000
178.91	0.000
179.29	100.000
179.67	200.000
180.04	-42.857
180.42	200.000
180.80	-100.000
181.18	200.000
181.56	100.000
181.94	250.000
182.31	-100.000
182.69	40.000
183.07	-100.000
183.45	40.000
183.83	66.667
184.20	36.364
184.58	33.333
184.96	-150.000
185.34	-200.000
185.72	100.000
186.09	15.385
186.47	-100.000
186.85	116.667
187.23	-0.000
187.61	-500.000
187.98	233.333
188.36	100.000
188.74	33.333
189.12	0.000
189.49	100.000
189.87	0.000
190.25	14.286
190.63	600.000
191.00	-200.000
191.38	36.842
191.76	400.000
192.14	-125.000
192.51	400.000
192.89	0.000
193.27	71.429
193.65	-16.667
194.02	109.091
194.40	30.000
194.78	-37.500
195.15	-66.667
195.53	-87.500
195.91	50.000
196.29	0.000
196.66	-7.692
197.04	100.000
197.42	33.333
197.79	-266.667
198.17	15.385
198.55	-100.000
198.92	233.333
199.30	200.000
199.68	0.000
200.05	-266.667
200.43	0.000
200.81	266.667
201.18	100.000
201.56	-200.000
201.94	50.000
202.31	-166.667
202.69	0.000
203.07	-125.000
203.44	1000.000
203.82	0.000
204.19	85.714
204.57	-166.667
204.95	75.000
205.32	-10.000
205.70	-42.857
206.08	275.000
206.45	122.222
206.83	135.714
207.20	-128.571
207.58	-900.000
207.96	233.333
208.33	-80.000
208.71	150.000
209.08	-66.667
209.46	-200.000
209.84	120.000
210.21	0.000
210.59	242.857
210.96	100.000
211.34	-75.000
211.71	33.333
212.09	42.857
212.46	-900.000
212.84	0.000
213.22	60.000
213.59	200.000
213.97	100.000
214.34	154.545
214.72	-66.667
215.09	-25.000
215.47	92.308
215.84	54.545
216.22	166.667
216.59	162.500
216.97	400.000
217.34	125.000
217.72	200.000
218.09	162.500
218.47	87.500
218.84	0.000
219.22	-77.778
219.59	180.000
219.97	-266.667
220.34	50.000
220.72	71.429
221.09	-225.000
221.47	150.000
221.84	-350.000
222.22	-350.000
222.59	72.727
222.97	125.000
223.34	-133.333
223.72	-7.143
224.09	14.286
224.46	50.000
224.84	-33.333
225.21	90.000
225.59	66.667
225.96	-100.000
226.34	75.000
226.71	-28.571
227.08	16.667
227.46	112.500
227.83	-450.000
228.21	33.333
228.58	27.273
228.95	-25.000
229.33	60.000
229.70	43.750
230.08	37.500
230.45	128.571
230.82	57.143
231.20	20.000
231.57	100.000
231.95	157.143
232.32	50.000
232.69	71.429
233.07	300.000
233.44	0.000
233.81	-20.000
234.19	44.444
234.56	47.059
234.93	300.000
235.31	0.000
235.68	-120.000
236.05	7.692
236.43	-60.000
236.80	41.176
237.17	25.000
237.55	-5.000
237.92	11.111
238.29	30.556
238.67	50.000
239.04	0.000
239.41	-2.439
239.79	-10.000
240.16	34.146
240.53	-7.895
240.91	2.174
241.28	14.286
241.65	32.143
242.02	12.329
242.40	10.000
242.77	18.644
243.14	-1.515
243.51	11.250
243.89	16.092
244.26	1.149
244.63	10.714
245.00	3.093
245.38	7.216
245.75	-13.483
246.12	0.862
246.49	7.438
246.87	6.731
247.24	-3.361
247.61	-6.140
247.98	-0.813
248.36	6.250
248.73	6.579
249.10	1.299
249.47	0.000
249.84	2.614
250.22	7.059
250.59	-2.614
250.96	7.042
251.33	-0.581
251.70	4.706
252.08	11.675
252.45	0.495
252.82	1.005
253.19	3.687
253.56	2.804
253.94	7.207
254.31	2.609
254.68	5.263
255.05	1.575
255.42	3.493
255.79	2.317
256.16	6.226
256.54	5.970
256.91	0.380
257.28	4.089
257.65	0.749
258.02	2.128
258.39	4.377
258.76	6.227
259.14	2.658
259.51	7.443
259.88	-1.718
260.25	1.307
260.62	5.903
260.99	2.034
261.36	0.685
261.73	3.797
262.10	5.167
262.47	1.227
262.85	-1.254
263.22	1.231
263.59	4.673
263.96	4.037
264.33	0.000
264.70	1.190
265.07	2.083
265.44	4.533
265.81	3.390
266.18	3.825
266.55	5.141
266.92	5.699
267.29	0.522
267.66	2.558
268.03	4.974
268.40	1.044
268.77	4.011
269.14	3.597
269.51	4.884
269.88	0.748
270.25	-1.020
270.62	0.244
270.99	-0.256
271.36	1.467
271.73	4.225
272.10	2.433
272.47	2.364
272.84	1.980
273.21	3.712
273.58	3.614
273.95	2.059
274.32	2.771
274.69	0.000
275.06	4.241
275.43	1.814
275.80	2.870
276.17	2.759
276.54	2.784
276.91	3.289
277.28	2.183
277.65	2.686
278.02	2.766
278.39	3.939
278.76	1.677
279.13	1.452
279.50	1.050
279.87	0.864
280.23	1.935
280.60	3.704
280.97	3.030
281.34	1.731
281.71	3.491
282.08	-1.022
282.45	1.566
282.82	3.861
283.19	3.288
283.56	3.661
283.92	0.759
284.29	3.269
284.66	1.550
285.03	1.179
285.40	1.134
285.77	4.218
286.14	2.347
286.51	1.476
286.87	2.559
287.24	2.210
287.61	1.235
287.98	3.860
288.35	2.080
288.72	4.028
289.08	1.736
289.45	4.569
289.82	2.972
290.19	1.706
290.56	1.887
290.93	1.515
291.29	2.003
291.66	2.992
292.03	3.030
292.40	1.935
292.77	1.914
293.13	0.649
293.50	0.910
293.87	3.664
294.24	1.236
294.60	2.385
294.97	2.827
295.34	1.227
295.71	1.043
296.08	1.943
296.44	0.996
296.81	1.528
297.18	2.899
297.55	3.930
297.91	1.096
298.28	4.090
298.65	1.628
299.02	3.100
299.38	-0.137
299.75	0.966
300.12	0.654
300.48	2.503
300.85	2.788
301.22	1.429
301.59	1.053
301.95	3.038
302.32	2.724
302.69	3.109
303.05	2.723
303.42	2.989
303.79	1.752
304.15	3.345
304.52	0.951
304.89	1.988
305.25	1.332
305.62	1.867
305.99	2.105
306.35	0.462
306.72	0.562
307.09	2.509
307.45	1.033
307.82	1.273
308.19	1.974
308.55	0.872
308.92	2.397
309.29	1.788
309.65	2.260
310.02	0.880
310.38	2.086
310.75	2.951
311.12	1.938
311.48	2.439
311.85	3.141
312.22	1.477
312.58	2.654
312.95	1.067
313.31	0.725
313.68	1.571
314.05	1.939
314.41	3.505
314.78	2.371
315.14	3.700
315.51	3.416
315.87	1.947
316.24	4.348
316.61	3.642
316.97	3.671
317.34	3.613
317.70	2.677
318.07	3.750
318.43	4.216
318.80	3.883
319.16	3.906
319.53	5.033
319.89	4.134
320.26	5.263
320.62	5.416
320.99	3.549
321.35	5.242
321.72	7.061
322.08	6.143
322.45	6.497
322.81	7.760
323.18	6.771
323.54	7.432
323.91	6.719
324.27	7.227
324.64	7.772
325.00	9.672
325.37	11.111
325.73	9.066
326.10	10.082
326.46	11.659
326.83	9.799
327.19	12.031
327.56	10.947
327.92	13.116
328.29	12.143
328.65	14.528
329.01	14.430
329.38	13.733
329.74	15.109
330.11	15.570
330.47	15.770
330.84	16.346
331.20	19.297
331.56	17.315
331.93	18.265
332.29	18.882
332.66	18.552
333.02	19.703
333.38	20.257
333.75	21.795
334.11	20.233
334.48	21.668
334.84	22.802
335.20	22.781
335.57	21.759
335.93	22.493
336.29	22.192
336.66	22.071
337.02	22.212
337.38	24.259
337.75	23.727
338.11	25.338
338.47	24.179
338.84	24.584
339.20	25.411
339.56	24.404
339.93	25.515
340.29	23.761
340.65	25.717
341.02	25.621
341.38	25.752
341.74	24.028
342.11	24.350
342.47	23.843
342.83	25.519
343.20	25.000
343.56	25.565
343.92	25.421
344.28	24.680
344.65	25.130
345.01	25.411
345.37	25.315
345.73	25.941
346.10	25.971
346.46	24.979
346.82	24.141
347.19	25.104
347.55	25.564
347.91	23.706
348.27	24.576
348.63	24.957
349.00	24.938
349.36	24.439
349.72	25.373
350.08	24.508
350.45	24.900
350.81	24.086
351.17	23.697
351.53	25.061
351.89	24.773
352.26	25.600
352.62	25.645
352.98	24.980
353.34	24.718
353.70	25.081
354.07	25.403
354.43	25.460
354.79	24.112
355.15	25.794
355.51	25.949
355.87	25.162
356.24	24.470
356.60	25.546
356.96	26.984
357.32	25.319
357.68	26.349
358.04	26.171
358.40	25.402
358.77	25.678
359.13	25.300
359.49	23.575
359.85	24.961
360.21	24.641
360.57	24.637
360.93	25.416
361.29	24.622
361.66	24.765
362.02	25.833
362.38	25.133
362.74	25.587
363.10	25.884
363.46	25.204
363.82	25.394
364.18	25.830
364.54	25.441
364.90	25.161
365.26	25.691
365.62	26.715
365.98	25.806
366.35	27.167
366.71	25.795
367.07	26.197
367.43	25.162
367.79	25.936
368.15	24.767
368.51	25.929
368.87	24.982
369.23	25.993
369.59	25.802
369.95	25.733
370.31	26.228
370.67	25.672
371.03	24.944
371.39	26.623
371.75	27.253
372.11	26.106
372.47	25.740
372.83	26.473
373.19	25.678
373.55	26.065
373.91	27.070
374.27	26.152
374.63	26.920
374.99	26.879
375.35	25.905
375.71	28.112
376.07	27.037
376.42	27.755
376.78	27.114
377.14	26.337
377.50	26.892
377.86	26.908
378.22	26.611
378.58	26.410
378.94	26.843
379.30	26.887
379.66	28.025
380.02	27.284
380.38	27.024
380.74	27.409
381.09	27.239
381.45	27.768
381.81	28.192
382.17	28.236
382.53	27.545
382.89	28.311
383.25	28.874
383.61	28.659
383.97	27.238
384.32	28.143
384.68	28.050
385.04	27.574
385.40	28.189
385.76	28.994
386.12	28.719
386.48	29.566
386.83	28.282
387.19	29.060
387.55	30.050
387.91	28.606
388.27	28.632
388.62	28.886
388.98	28.300
389.34	29.482
389.70	29.708
390.06	28.446
390.42	28.756
390.77	29.300
391.13	28.373
391.49	28.784
391.85	29.175
392.20	29.127
392.56	28.226
392.92	29.184
393.28	28.892
393.64	28.348
393.99	29.592
394.35	28.969
394.71	29.949
395.07	28.661
395.42	28.415
395.78	29.577
396.14	29.319
396.50	29.486
396.85	29.234
397.21	28.321
397.57	28.715
397.92	29.059
398.28	29.195
398.64	28.976
399.00	29.910
399.35	27.540
399.71	28.489
400.07	28.779
400.42	28.213
400.78	29.210
401.14	29.038
401.49	29.244
401.85	29.311
402.21	28.675
402.57	29.250
402.92	28.733
403.28	29.073
403.63	28.499
403.99	28.635
404.35	29.669
404.70	28.155
405.06	27.615
405.42	28.651
405.77	27.600
406.13	28.754
406.49	28.182
406.84	28.667
407.20	28.718
407.55	28.203
407.91	28.275
408.27	27.852
408.62	27.692
408.98	28.281
409.34	29.120
409.69	27.842
410.05	28.510
410.40	28.272
410.76	29.011
411.11	28.937
411.47	29.257
411.83	27.495
412.18	29.151
412.54	28.215
412.89	28.264
413.25	27.978
413.60	28.447
413.96	28.405
414.31	28.049
414.67	28.672
415.03	27.164
415.38	27.611
415.74	29.121
416.09	28.413
416.45	28.157
416.80	28.817
417.16	29.765
417.51	28.914
417.87	28.031
418.22	29.469
418.58	28.829
418.93	29.906
419.29	28.169
419.64	29.682
420.00	29.849
420.35	28.418
420.71	29.951
421.06	29.650
421.42	29.808
421.77	29.075
422.12	29.171
422.48	29.182
422.83	29.350
423.19	29.458
423.54	28.689
423.90	29.270
424.25	30.482
424.61	30.906
424.96	30.081
425.31	31.196
425.67	31.279
426.02	31.567
426.38	30.683
426.73	32.264
427.09	32.278
427.44	31.000
427.79	31.173
428.15	32.039
428.50	31.133
428.85	31.634
429.21	32.032
429.56	32.183
429.92	31.330
430.27	31.830
430.62	31.208
430.98	32.166
431.33	32.597
431.68	31.763
432.04	32.588
432.39	31.432
432.74	32.411
433.10	34.023
433.45	33.692
433.80	33.256
434.16	32.632
434.51	33.280
434.86	33.391
435.22	33.202
435.57	34.186
435.92	32.575
436.28	33.154
436.63	32.687
436.98	33.662
437.34	33.394
437.69	34.466
438.04	34.302
438.39	34.209
438.75	35.701
439.10	35.201
439.45	35.058
439.81	35.291
440.16	36.105
440.51	36.239
440.86	36.677
441.22	35.520
441.57	36.755
441.92	36.097
442.27	36.475
442.63	36.456
442.98	36.646
443.33	36.060
443.68	36.499
444.03	36.562
444.39	35.170
444.74	36.845
445.09	36.748
445.44	36.467
445.79	38.164
446.15	36.399
446.50	35.829
446.85	37.726
447.20	36.392
447.55	36.942
447.91	37.563
448.26	37.621
448.61	37.306
448.96	37.866
449.31	38.092
449.66	38.560
450.02	38.391
450.37	39.360
450.72	38.202
451.07	39.430
451.42	38.889
451.77	38.517
452.12	38.158
452.47	37.411
452.83	38.339
453.18	39.089
453.53	40.582
453.88	40.437
454.23	39.213
454.58	40.491
454.93	40.077
455.28	39.873
455.63	39.616
455.98	40.649
456.34	39.527
456.69	39.708
457.04	41.210
457.39	40.887
457.74	40.629
458.09	39.082
458.44	40.023
458.79	39.944
459.14	40.904
459.49	41.433
459.84	40.722
460.19	40.716
460.54	41.076
460.89	40.795
461.24	41.491
461.59	41.686
461.94	41.761
462.29	42.220
462.64	42.791
462.99	42.316
463.34	42.142
463.69	41.828
464.04	42.554
464.39	41.844
464.74	42.086
465.09	42.545
465.44	42.297
465.79	41.667
466.14	41.790
466.49	41.518
466.84	43.070
467.19	41.865
467.54	41.252
467.89	42.198
468.24	43.491
468.59	43.810
468.94	42.730
469.29	44.197
469.64	44.361
469.99	44.639
470.34	43.413
470.68	44.444
471.03	45.577
471.38	44.650
471.73	45.658
472.08	43.826
472.43	45.570
472.78	44.277
473.13	44.966
473.48	44.365
473.83	44.583
474.17	45.402
474.52	45.054
474.87	45.394
475.22	45.577
475.57	44.438
475.92	44.707
476.27	44.587
476.61	45.949
476.96	43.726
477.31	46.079
477.66	45.449
478.01	45.536
478.36	45.370
478.70	46.982
479.05	45.440
479.40	47.165
479.75	45.985
480.10	44.598
480.45	46.100
480.79	46.022
481.14	47.182
481.49	45.123
481.84	46.911
482.19	45.510
482.53	47.146
482.88	46.444
483.23	46.257
483.58	46.651
483.92	46.176
484.27	45.305
484.62	46.437
484.97	45.813
485.31	45.340
485.66	44.438
486.01	45.335
486.36	44.750
486.70	44.541
487.05	45.678
487.40	45.217
487.75	46.000
488.09	45.828
488.44	47.283
488.79	48.188
489.13	48.197
489.48	47.969
489.83	48.610
490.17	48.045
490.52	47.483
490.87	48.913
491.22	48.567
491.56	47.770
491.91	48.327
492.26	49.052
492.60	48.512
492.95	49.729
493.30	49.047
493.64	49.214
493.99	48.792
494.34	49.223
494.68	48.667
495.03	48.662
495.37	49.215
495.72	50.177
496.07	50.439
496.41	49.245
496.76	50.299
497.11	48.486
497.45	50.072
497.80	50.757
498.14	49.429
498.49	50.889
498.84	50.000
499.18	50.452
499.53	51.240
499.87	49.368
500.22	50.346
500.56	50.681
500.91	50.803
501.26	50.371
501.60	51.205
501.95	50.704
502.29	50.993
502.64	51.786
502.98	51.505
503.33	50.336
503.67	50.072
504.02	51.026
504.36	51.311
504.71	50.909
505.06	50.981
505.40	51.371
505.75	52.990
506.09	51.749
506.44	53.388
506.78	52.347
507.13	52.120
507.47	51.070
507.82	52.030
508.16	53.038
508.51	53.778
508.85	53.375
509.19	53.379
509.54	53.083
509.88	53.074
510.23	52.985
510.57	53.982
510.92	52.452
511.26	53.028
511.61	54.125
511.95	53.918
512.30	54.102
512.64	54.535
512.98	54.688
513.33	53.609
513.67	55.088
514.02	55.149
514.36	55.371
514.70	56.352
515.05	54.935
515.39	56.257
515.74	56.108
516.08	56.007
516.42	56.537
516.77	55.530
517.11	57.033
517.46	56.074
517.80	56.555
518.14	57.257
518.49	55.349
518.83	56.683
519.17	55.913
519.52	56.424
519.86	56.363
520.20	58.019
520.55	57.036
520.89	57.842
521.23	58.201
521.58	57.855
521.92	58.141
522.26	58.621
522.61	57.922
522.95	59.139
523.29	57.179
523.64	58.323
523.98	58.652
524.32	57.796
524.66	59.155
525.01	58.377
525.35	59.430
525.69	58.316
526.04	58.532
526.38	59.209
526.72	57.031
527.06	58.301
527.41	60.950
527.75	58.378
528.09	57.874
528.43	61.445
528.78	58.812
529.12	59.290
529.46	59.324
529.80	57.315
530.15	60.594
530.49	59.461
530.83	62.038
531.17	59.503
531.51	61.423
531.86	59.143
532.20	60.334
532.54	58.407
532.88	60.096
533.22	60.887
533.57	58.585
533.91	60.183
534.25	60.612
534.59	58.691
534.93	57.709
535.27	58.566
535.62	59.430
535.96	59.035
536.30	59.697
536.64	61.544
536.98	60.418
537.32	61.522
537.66	61.010
538.01	60.909
538.35	59.362
538.69	59.055
539.03	59.809
539.37	60.767
539.71	60.600
540.05	60.760
540.39	60.942
540.73	60.879
541.07	61.188
541.42	59.677
541.76	60.358
542.10	60.083
542.44	60.320
542.78	59.394
543.12	59.615
543.46	61.196
543.80	61.693
544.14	59.813
544.48	60.693
544.82	61.791
545.16	62.158
545.50	60.147
545.84	61.473
546.18	61.348
546.52	61.139
546.86	60.532
547.20	61.087
547.54	61.272
547.88	61.685
548.22	60.618
548.56	60.488
548.90	61.456
549.24	60.124
549.58	60.719
549.92	60.615
550.26	62.125
550.60	63.346
550.94	62.733
551.28	62.133
551.62	62.615
551.96	62.707
552.30	62.939
552.64	61.142
552.98	62.588
553.32	62.126
553.66	61.901
554.00	62.190
554.34	62.555
554.68	62.537
555.02	63.244
555.36	63.126
555.69	61.392
556.03	61.599
556.37	62.633
556.71	62.527
557.05	63.087
557.39	62.602
557.73	62.594
558.07	63.047
558.41	64.701
558.75	64.692
559.08	63.593
559.42	64.603
559.76	64.452
560.10	65.902
560.44	63.440
560.78	63.846
561.12	63.822
561.45	65.074
561.79	61.134
562.13	63.378
562.47	63.669
562.81	63.473
563.15	62.623
563.48	63.154
563.82	63.898
564.16	63.788
564.50	62.703
564.84	62.048
565.17	63.112
565.51	64.276
565.85	64.060
566.19	62.334
566.52	64.410
566.86	63.496
567.20	60.834
567.54	61.922
567.88	64.030
568.21	62.274
568.55	62.174
568.89	60.678
569.23	60.713
569.56	60.289
569.90	60.049
570.24	58.467
570.57	59.782
570.91	60.160
571.25	57.514
571.59	57.334
571.92	56.267
572.26	56.310
572.60	57.395
572.93	57.327
573.27	56.897
573.61	56.653
573.95	57.346
574.28	57.071
574.62	56.242
574.96	56.195
575.29	55.755
575.63	55.766
575.97	55.815
576.30	56.902
576.64	56.079
576.98	57.014
577.31	57.311
577.65	56.583
577.98	56.488
578.32	55.746
578.66	55.642
578.99	55.849
579.33	55.983
579.67	55.917
580.00	56.380
580.34	56.841
580.67	56.528
581.01	56.916
581.35	56.137
581.68	55.835
582.02	55.808
582.35	55.339
582.69	55.727
583.02	56.291
583.36	56.920
583.70	57.503
584.03	59.077
584.37	58.865
584.70	57.500
585.04	56.244
585.37	56.953
585.71	56.801
586.04	57.186
586.38	57.189
586.72	58.651
587.05	59.157
587.39	58.010
587.72	59.158
588.06	57.902
588.39	57.761
588.73	58.364
589.06	59.491
589.40	59.108
589.73	60.204
590.07	59.932
590.40	60.642
590.73	61.038
591.07	60.941
591.40	61.754
591.74	61.719
592.07	62.106
592.41	61.263
592.74	59.538
593.08	58.295
593.41	59.769
593.75	58.423
594.08	58.599
594.41	59.461
594.75	59.771
595.08	60.348
595.42	60.508
595.75	61.547
596.09	60.868
596.42	61.596
596.75	61.456
597.09	62.232
597.42	62.376
597.75	62.941
598.09	61.249
598.42	60.785
598.76	60.875
599.09	60.617
599.42	58.090
599.76	59.481
600.09	59.238
600.42	59.098
600.76	59.101
601.09	59.809
601.42	59.381
601.76	60.699
602.09	60.726
602.42	61.837
602.76	61.036
603.09	61.462
603.42	62.375
603.76	60.685
604.09	60.834
604.42	61.760
604.76	62.750
605.09	61.380
605.42	61.716
605.75	60.946
606.09	60.977
606.42	60.676
606.75	61.126
607.09	61.143
607.42	61.320
607.75	61.146
608.08	60.377
608.42	60.530
608.75	61.783
609.08	62.830
609.41	62.792
609.75	62.500
610.08	63.904
610.41	62.174
610.74	62.116
611.07	62.274
611.41	63.985
611.74	64.552
612.07	62.473
612.40	62.418
612.73	64.124
613.07	62.655
613.40	63.512
613.73	63.626
614.06	63.383
614.39	64.241
614.72	63.529
615.06	63.352
615.39	62.664
615.72	61.948
616.05	63.296
616.38	62.336
616.71	64.220
617.05	65.040
617.38	63.419
617.71	64.277
618.04	65.714
618.37	65.700
618.70	65.347
619.03	66.389
619.36	66.281
619.69	67.854
620.03	68.809
620.36	66.452
620.69	67.595
621.02	68.425
621.35	70.207
621.68	69.643
622.01	69.417
622.34	67.917
622.67	67.350
623.00	67.458
623.33	66.616
623.66	66.791
623.99	68.003
624.32	68.441
624.65	66.842
624.99	69.225
625.32	66.566
625.65	70.621
625.98	69.702
626.31	68.329
626.64	70.017
626.97	69.284
627.30	71.629
627.63	70.191
627.96	71.069
628.29	70.028
628.62	71.190
628.95	71.142
629.28	72.077
629.61	72.183
629.94	73.314
630.26	71.344
630.59	72.633
630.92	70.872
631.25	70.051
631.58	74.780
631.91	72.588
632.24	76.606
632.57	74.432
632.90	75.089
633.23	72.588
633.56	76.952
633.89	76.695
634.22	76.914
634.55	75.095
634.88	77.011
635.20	76.538
635.53	76.800
635.86	74.772
636.19	75.550
636.52	74.235
636.85	74.442
637.18	72.704
637.51	74.088
637.83	75.690
638.16	76.944
638.49	75.886
638.82	75.132
639.15	74.355
639.48	77.717
639.81	76.848
640.13	77.633
640.46	77.114
640.79	78.351
641.12	76.219
641.45	76.577
641.77	76.889
642.10	78.831
642.43	78.296
642.76	81.518
643.09	79.645
643.41	78.155
643.74	77.430
644.07	80.952
644.40	80.912
644.73	80.736
645.05	79.195
645.38	80.952
645.71	76.596
646.04	80.072
646.36	80.851
646.69	83.453
647.02	85.633
647.35	82.649
647.67	81.718
648.00	82.090
648.33	76.792
648.66	78.644
648.98	75.042
649.31	78.678
649.64	74.882
649.96	76.499
650.29	79.557
650.62	78.803
650.94	79.815
651.27	77.840
651.60	80.901
651.92	77.622
652.25	79.751
652.58	75.833
652.90	81.304
653.23	76.807
653.56	72.758
653.88	75.601
654.21	76.182
654.54	75.891
654.86	78.438
655.19	72.661
655.52	64.474
655.84	54.334
656.17	59.882
656.49	81.378
656.82	86.158
657.15	66.567
657.47	50.226
657.80	38.054
658.13	37.790
658.45	59.439
658.78	59.847
659.10	61.083
659.43	62.134
659.75	66.058
660.08	66.759
660.41	72.727
660.73	73.204
661.06	76.256
661.38	77.886
661.71	75.359
662.03	82.618
662.36	81.099
662.68	78.540
663.01	81.004
663.33	83.295
663.66	80.233
663.98	82.558
664.31	80.384
664.63	81.336
664.96	75.870
665.28	79.029
665.61	80.087
665.93	81.087
666.26	83.297
666.58	77.405
666.91	84.706
667.23	80.660
667.56	82.938
667.88	82.014
668.21	84.010
668.53	86.998
668.86	85.142
669.18	80.189
669.50	79.419
669.83	81.163
670.15	81.119
670.48	83.493
670.80	80.645
671.13	78.076
671.45	77.397
671.77	79.399
672.10	75.446
672.42	76.592
672.75	75.488
673.07	74.240
673.39	78.165
673.72	73.570
674.04	77.083
674.37	80.932
674.69	78.373
675.01	80.667
675.34	78.378
675.66	78.472
675.98	77.605
676.31	78.899
676.63	81.710
676.95	77.045
677.28	79.765
677.60	82.892
677.92	80.734
678.25	80.306
678.57	80.519
678.89	75.840
679.22	79.195
679.54	70.683
679.86	74.155
680.18	75.534
680.51	72.727
680.83	74.354
681.15	75.800
681.48	76.639
681.80	76.240
682.12	74.395
682.44	73.640
682.77	79.029
683.09	78.947
683.41	72.273
683.73	76.728
684.06	75.885
684.38	76.774
684.70	75.817
685.02	74.481
685.34	74.111
685.67	71.295
685.99	72.152
686.31	71.327
686.63	70.130
686.96	71.673
687.28	73.333
687.60	69.202
687.92	75.152
688.24	74.395
688.56	74.672
688.89	77.679
689.21	74.889
689.53	75.406
689.85	72.791
690.17	72.991
690.49	74.468
690.82	76.699
691.14	73.810
691.46	75.701
691.78	75.225
692.10	75.914
692.42	71.212
692.74	72.009
693.06	75.901
693.39	72.851
693.71	71.493
694.03	72.748
694.35	72.430
694.67	75.758
694.99	75.718
695.31	77.285
695.63	77.750
695.95	73.232
696.27	74.093
696.59	81.944
696.91	78.711
697.23	72.751
697.56	75.990
697.88	71.613
698.20	70.159
698.52	70.588
698.84	75.598
699.16	74.750
699.48	73.434
699.80	71.464
700.12	72.237
700.44	75.070
700.76	75.291
701.08	75.758
701.40	77.108
701.72	80.864
702.04	81.518
702.36	81.605
702.68	79.580
703.00	78.182
703.32	79.179
703.64	74.576
703.96	77.101
704.28	76.380
704.60	76.825
704.91	72.555
705.23	73.422
705.55	84.452
705.87	82.671
706.19	78.519
706.51	75.601
706.83	72.990
707.15	68.536
707.47	73.109
707.79	72.135
708.11	68.000
708.43	69.750
708.74	70.026
709.06	76.056
709.38	75.229
709.70	74.556
710.02	73.248
710.34	75.851
710.66	69.231
710.98	74.172
711.29	78.689
711.61	75.593
711.93	75.896
712.25	75.601
712.57	72.527
712.89	75.000
713.20	75.433
713.52	74.564
713.84	74.403
714.16	79.725
714.48	71.935
714.80	72.115
715.11	66.261
715.43	65.517
715.75	73.333
716.07	73.422
716.39	69.463
716.70	69.004
717.02	74.046
717.34	76.923
717.66	84.956
717.97	80.000
718.29	83.682
718.61	74.409
718.93	71.318
719.24	75.665
719.56	79.116
719.88	71.821
720.20	71.591
720.51	72.797
720.83	74.131
721.15	78.571
721.46	70.565
721.78	73.123
722.10	64.312
722.42	71.369
722.73	73.469
723.05	73.061
723.37	73.729
723.68	77.027
724.00	72.650
724.32	76.000
724.63	80.455
724.95	76.419
725.27	77.880
725.58	78.814
725.90	69.048
726.22	67.568
726.53	69.492
726.85	65.543
727.16	69.434
727.48	68.421
727.80	74.089
728.11	75.000
728.43	69.804
728.74	68.145
729.06	69.600
729.38	72.556
729.69	70.120
730.01	65.000
730.32	69.776
730.64	67.138
730.96	69.057
731.27	64.667
731.59	71.525
731.90	67.834
732.22	61.514
732.53	66.445
732.85	69.858
733.16	75.758
733.48	63.669
733.80	67.754
734.11	65.424
734.43	63.574
734.74	63.939
735.06	65.472
735.37	63.142
735.69	68.013
736.00	64.111
736.32	62.416
736.63	66.901
736.95	60.751
737.26	66.904
737.58	63.423
737.89	63.370
738.21	66.165
738.52	76.132
738.83	70.742
739.15	67.249
739.46	71.260
739.78	65.568
740.09	60.458
740.41	61.232
740.72	63.780
741.04	63.158
741.35	68.936
741.66	64.929
741.98	72.449
742.29	75.743
742.61	73.298
742.92	64.455
743.23	65.741
743.55	67.873
743.86	67.943
744.18	67.943
744.49	69.681
744.80	72.826
745.12	74.332
745.43	70.732
745.74	76.562
746.06	67.805
746.37	73.298
746.68	70.616
747.00	64.894
747.31	76.119
747.62	68.447
747.94	72.727
748.25	71.287
748.56	74.317
748.88	74.346
749.19	75.532
749.50	69.458
749.82	62.736
750.13	70.642
750.44	59.774
750.75	69.030
751.07	66.058
751.38	68.199
751.69	67.843
752.01	65.891
752.32	62.151
752.63	61.265
752.94	64.655
753.26	70.711
753.57	66.516
753.88	70.796
754.19	65.833
754.51	65.702
754.82	64.777
755.13	67.083
755.44	64.919
755.75	67.578
756.07	61.868
756.38	60.377
756.69	59.770
757.00	61.000
757.31	62.092
757.63	59.451
757.94	58.056
758.25	53.973
758.56	57.447
758.87	55.524
759.18	57.944
759.50	58.545
759.81	62.207
760.12	60.323
760.43	60.303
760.74	58.951
761.05	64.308
761.36	56.818
761.67	61.212
761.99	62.245
762.30	57.818
762.61	56.126
762.92	58.371
763.23	68.468
763.54	58.879
763.85	61.864
764.16	60.581
764.47	63.306
764.78	56.410
765.10	65.993
765.41	52.681
765.72	56.825
766.03	57.519
766.34	59.124
766.65	58.566
766.96	69.697
767.27	69.681
767.58	61.494
767.89	77.305
768.20	63.636
768.51	63.187
768.82	58.621
769.13	60.829
769.44	56.652
769.75	57.991
770.06	63.362
770.37	61.058
770.68	62.944
770.99	58.371
771.30	62.255
771.61	61.991
771.92	59.052
772.23	64.039
772.54	58.065
772.85	64.815
773.16	63.483
773.47	75.163
773.78	71.242
774.09	57.485
774.39	60.667
774.70	71.338
775.01	65.517
775.32	64.286
775.63	59.504
775.94	58.779
776.25	63.780
776.56	66.667
776.87	59.615
777.18	71.795
777.48	67.241
777.79	65.217
778.10	67.619
778.41	72.072
778.72	69.048
779.03	66.165
779.34	63.121
779.65	71.233
779.95	61.644
780.26	58.621
780.57	60.976
780.88	56.693
781.19	62.931
781.50	68.992
781.80	50.888
782.11	54.717
782.42	69.231
782.73	58.273
783.04	60.741
783.34	54.167
783.65	66.667
783.96	53.279
784.27	66.207
784.57	64.228
784.88	58.594
785.19	69.000
785.50	77.000
785.81	67.241
786.11	54.310
786.42	62.136
786.73	63.636
787.04	67.347
787.34	50.000
787.65	70.476
787.96	61.062
788.26	60.909
788.57	63.248
788.88	59.375
789.19	62.698
789.49	56.522
789.80	69.388
790.11	56.566
790.41	55.455
790.72	68.478
791.03	55.682
791.33	85.000
791.64	67.500
791.95	59.302
792.25	57.447
792.56	59.551
792.87	57.534
793.17	57.971
793.48	49.333
793.79	52.500
794.09	70.000
794.40	54.717
794.70	56.311
795.01	52.033
795.32	59.829
795.62	60.000
795.93	56.863
796.23	46.226
796.54	83.333
796.85	73.529
797.15	67.606
797.46	80.556
797.76	68.182
798.07	62.791
798.37	64.474
798.68	57.576
798.99	51.852
799.29	72.857
799.60	50.725
799.90	73.333
800.21	83.607
800.51	58.462
800.82	64.407
801.12	52.174
801.43	72.131
801.73	76.190
802.04	56.000
802.34	77.612
802.65	80.769
802.95	62.500
803.26	59.615
803.56	72.549
803.87	41.304
804.17	57.333
804.48	69.841
804.78	68.519
805.09	58.696
805.39	64.444
805.70	61.111
806.00	52.632
806.30	57.746
806.61	57.143
806.91	65.278
807.22	64.474
807.52	66.667
807.83	43.636
808.13	55.556
808.43	58.824
808.74	50.746
809.04	47.458
809.35	53.846
809.65	67.188
809.95	67.568
810.26	59.091
810.56	52.055
810.86	100.000
811.17	56.000
811.47	53.061
811.77	76.316
812.08	36.364
812.38	67.925
812.69	52.500
812.99	45.455
813.29	92.105
813.59	65.714
813.90	72.727
814.20	61.538
814.50	55.769
814.81	54.717
815.11	57.447
815.41	52.542
815.72	71.429
816.02	64.706
816.32	47.917
816.62	65.854
816.93	75.676
817.23	65.714
817.53	56.250
817.84	78.261
818.14	46.154
818.44	55.263
818.74	60.870
819.04	47.500
819.35	54.054
819.65	50.000
819.95	69.444
820.25	42.857
820.56	65.000
820.86	3.448
821.16	60.000
821.46	55.319
821.76	85.000
822.07	51.163
822.37	48.649
822.67	93.750
822.97	83.333
823.27	32.143
823.57	48.000
823.88	88.889
824.18	53.571
824.48	50.000
824.78	54.839
825.08	39.130
825.38	63.636
825.69	33.333
825.99	68.421
826.29	36.111
826.59	120.000
826.89	38.095
827.19	54.348
827.49	67.500
827.79	97.143
828.09	85.714
828.39	48.485
828.70	86.486
829.00	50.000
829.30	90.476
829.60	43.333
829.90	103.125
830.20	28.947
830.50	92.593
830.80	60.870
831.10	86.364
831.40	51.515
831.70	54.839
832.00	128.571
832.30	0.000
832.60	-16.667
832.90	27.586
833.20	90.000
833.50	51.515
833.80	37.037
834.10	34.615
834.40	40.625
834.70	66.667
835.00	0.000
835.30	80.769
835.60	106.667
835.90	80.645
836.20	40.909
836.50	82.143
836.80	53.846
837.10	39.286
837.40	366.667
837.70	50.000
838.00	90.909
838.30	73.913
838.60	69.231
838.90	104.545
839.19	53.571
839.49	76.667
839.79	107.692
840.09	75.000
840.39	71.429
840.69	60.714
840.99	69.231
841.29	21.053
841.59	-70.000
841.88	90.909
842.18	100.000
842.48	50.000
842.78	60.000
843.08	37.037
843.38	-30.000
843.68	43.478
843.97	113.333
844.27	33.333
844.57	65.000
844.87	61.111
845.17	9.524
845.47	113.333
845.76	71.429
846.06	111.765
846.36	90.000
846.66	57.143
846.96	86.667
847.25	37.500
847.55	135.714
847.85	137.500
848.15	13.636
848.44	133.333
848.74	100.000
849.04	55.556
849.34	-27.273
849.63	-16.667
849.93	140.000
850.23	72.222
850.53	110.000
850.82	15.385
851.12	88.889
851.42	106.667
851.71	61.538
852.01	50.000
852.31	150.000
852.61	36.364
852.90	45.000
853.20	84.211
853.50	66.667
853.79	52.174
854.09	91.667
854.39	73.684
854.68	54.167
854.98	51.613
855.28	38.462
855.57	50.000
855.87	105.556
856.17	77.778
856.46	71.429
856.76	73.333
857.05	100.000
857.35	24.000
857.65	55.556
857.94	176.923
858.24	68.966
858.53	127.778
858.83	66.667
859.13	77.273
859.42	8.696
859.72	150.000
860.01	233.333
860.31	64.000
860.60	42.857
860.90	300.000
861.20	106.667
861.49	600.000
861.79	46.667
862.08	25.000
862.38	120.000
862.67	220.000
862.97	0.000
863.26	125.000
863.56	105.556
863.85	-100.000
864.15	155.556
864.44	100.000
864.74	150.000
865.03	100.000
865.33	20.000
865.62	133.333
865.92	66.667
866.21	66.667
866.51	112.500
866.80	36.364
867.10	-150.000
867.39	66.667
867.69	0.000
867.98	76.923
868.27	-33.333
868.57	120.000
868.86	72.222
869.16	15.385
869.45	113.333
869.75	0.000
870.04	0.000
870.33	-128.571
870.63	57.143
870.92	166.667
871.22	-160.000
871.51	800.000
871.80	88.889
872.10	233.333
>>>>>End Processed Spectral Data<<<<<
