SpectraSuite Data File
++++++++++++++++++++++++++++++++++++
Date: Fri May 15 20:05:08 PDT 2015
User: schluterlab
Dark Spectrum Present: Yes
Reference Spectrum Present: Yes
Number of Sampled Component Spectra: 1
Spectrometers: USB2E3373
Integration Time (usec): 3000 (USB2E3373)
Spectra Averaged: 3 (USB2E3373)
Boxcar Smoothing: 0 (USB2E3373)
Correct for Electrical Dark: No (USB2E3373)
Strobe/Lamp Enabled: No (USB2E3373)
Correct for Detector Non-linearity: No (USB2E3373)
Correct for Stray Light: No (USB2E3373)
Number of Pixels in Processed Spectrum: 2048
>>>>>Begin Processed Spectral Data<<<<<
178.53	0.000
178.91	0.000
179.29	75.000
179.67	-450.000
180.04	71.429
180.42	125.000
180.80	-300.000
181.18	66.667
181.56	150.000
181.94	250.000
182.31	800.000
182.69	-160.000
183.07	266.667
183.45	-20.000
183.83	50.000
184.20	-72.727
184.58	100.000
184.96	-200.000
185.34	100.000
185.72	0.000
186.09	76.923
186.47	-500.000
186.85	166.667
187.23	77.778
187.61	-500.000
187.98	-33.333
188.36	233.333
188.74	-133.333
189.12	47.059
189.49	55.556
189.87	0.000
190.25	78.571
190.63	150.000
191.00	-100.000
191.38	-10.526
191.76	100.000
192.14	-25.000
192.51	450.000
192.89	-33.333
193.27	0.000
193.65	133.333
194.02	145.455
194.40	-10.000
194.78	-62.500
195.15	0.000
195.53	-12.500
195.91	175.000
196.29	50.000
196.66	153.846
197.04	-0.000
197.42	-11.111
197.79	-166.667
198.17	0.000
198.55	1200.000
198.92	-566.667
199.30	-800.000
199.68	-20.000
200.05	-166.667
200.43	0.000
200.81	66.667
201.18	166.667
201.56	900.000
201.94	150.000
202.31	33.333
202.69	-220.000
203.07	250.000
203.44	-300.000
203.82	0.000
204.19	107.143
204.57	-300.000
204.95	-0.000
205.32	0.000
205.70	71.429
206.08	-50.000
206.45	77.778
206.83	157.143
207.20	-142.857
207.58	400.000
207.96	-366.667
208.33	-110.000
208.71	-25.000
209.08	-266.667
209.46	-200.000
209.84	-140.000
210.21	-500.000
210.59	-14.286
210.96	-83.333
211.34	25.000
211.71	0.000
212.09	-28.571
212.46	-1000.000
212.84	0.000
213.22	50.000
213.59	50.000
213.97	69.231
214.34	54.545
214.72	33.333
215.09	450.000
215.47	-46.154
215.84	-81.818
216.22	166.667
216.59	50.000
216.97	100.000
217.34	0.000
217.72	0.000
218.09	25.000
218.47	175.000
218.84	100.000
219.22	-88.889
219.59	140.000
219.97	400.000
220.34	250.000
220.72	-42.857
221.09	-50.000
221.47	-450.000
221.84	-450.000
222.22	-200.000
222.59	63.636
222.97	41.667
223.34	-200.000
223.72	14.286
224.09	0.000
224.46	-17.857
224.84	433.333
225.21	-40.000
225.59	-13.333
225.96	-150.000
226.34	25.000
226.71	-85.714
227.08	33.333
227.46	75.000
227.83	-950.000
228.21	100.000
228.58	0.000
228.95	-62.500
229.33	70.000
229.70	-12.500
230.08	25.000
230.45	-71.429
230.82	-42.857
231.20	6.667
231.57	28.571
231.95	85.714
232.32	-130.000
232.69	21.429
233.07	-200.000
233.44	60.000
233.81	-90.000
234.19	122.222
234.56	-35.294
234.93	650.000
235.31	0.000
235.68	-60.000
236.05	-30.769
236.43	-5.000
236.80	-29.412
237.17	3.125
237.55	50.000
237.92	7.407
238.29	22.222
238.67	53.333
239.04	14.706
239.41	14.634
239.79	-13.333
240.16	7.317
240.53	10.526
240.91	13.043
241.28	25.397
241.65	17.857
242.02	42.466
242.40	25.000
242.77	18.644
243.14	4.545
243.51	30.000
243.89	26.437
244.26	10.345
244.63	11.905
245.00	15.464
245.38	22.680
245.75	10.112
246.12	13.793
246.49	23.967
246.87	25.962
247.24	18.487
247.61	18.421
247.98	24.390
248.36	22.500
248.73	19.079
249.10	14.286
249.47	20.253
249.84	21.569
250.22	19.412
250.59	26.144
250.96	27.700
251.33	23.837
251.70	30.000
252.08	27.919
252.45	23.762
252.82	18.593
253.19	24.885
253.56	20.093
253.94	24.775
254.31	23.478
254.68	23.684
255.05	20.079
255.42	18.341
255.79	19.691
256.16	25.681
256.54	27.239
256.91	23.954
257.28	24.535
257.65	21.723
258.02	21.277
258.39	25.589
258.76	27.839
259.14	21.927
259.51	21.359
259.88	21.306
260.25	25.163
260.62	27.083
260.99	19.661
261.36	21.918
261.73	21.203
262.10	25.228
262.47	21.166
262.85	22.884
263.22	24.000
263.59	24.611
263.96	25.466
264.33	25.455
264.70	22.619
265.07	26.190
265.44	24.929
265.81	26.836
266.18	25.137
266.55	25.707
266.92	24.870
267.29	25.849
267.66	25.064
268.03	24.084
268.40	23.760
268.77	24.599
269.14	23.501
269.51	24.422
269.88	23.691
270.25	23.724
270.62	23.171
270.99	24.552
271.36	24.450
271.73	24.648
272.10	25.061
272.47	26.950
272.84	24.257
273.21	25.754
273.58	24.096
273.95	24.027
274.32	21.940
274.69	24.661
275.06	23.884
275.43	22.449
275.80	24.724
276.17	25.517
276.54	21.199
276.91	25.658
277.28	24.236
277.65	24.174
278.02	22.553
278.39	24.289
278.76	23.480
279.13	20.332
279.50	23.109
279.87	23.974
280.23	24.301
280.60	23.977
280.97	22.222
281.34	21.154
281.71	24.846
282.08	21.268
282.45	22.505
282.82	21.622
283.19	23.791
283.56	22.929
283.92	24.478
284.29	21.731
284.66	20.543
285.03	22.790
285.40	22.306
285.77	21.617
286.14	22.924
286.51	24.170
286.87	21.024
287.24	23.389
287.61	18.342
287.98	20.000
288.35	22.184
288.72	23.818
289.08	21.528
289.45	21.617
289.82	21.853
290.19	20.990
290.56	19.039
290.93	19.865
291.29	19.260
291.66	19.843
292.03	21.850
292.40	20.645
292.77	19.139
293.13	17.370
293.50	19.120
293.87	17.405
294.24	20.402
294.60	19.523
294.97	19.196
295.34	18.558
295.71	17.288
296.08	18.236
296.44	16.501
296.81	17.639
297.18	16.667
297.55	18.835
297.91	18.219
298.28	18.074
298.65	16.961
299.02	16.577
299.38	15.048
299.75	17.379
300.12	16.623
300.48	16.469
300.85	16.857
301.22	16.494
301.59	16.447
301.95	18.481
302.32	17.380
302.69	16.169
303.05	14.728
303.42	17.559
303.79	16.005
304.15	16.965
304.52	16.409
304.89	16.374
305.25	15.254
305.62	15.986
305.99	14.503
306.35	16.416
306.72	15.523
307.09	15.165
307.45	15.959
307.82	16.551
308.19	16.028
308.55	14.940
308.92	16.449
309.29	16.872
309.65	16.362
310.02	14.961
310.38	16.026
310.75	16.831
311.12	15.070
311.48	15.801
311.85	15.079
312.22	15.295
312.58	14.968
312.95	14.728
313.31	13.768
313.68	15.602
314.05	14.388
314.41	15.670
314.78	15.464
315.14	16.650
315.51	16.046
315.87	14.857
316.24	17.189
316.61	15.453
316.97	16.667
317.34	14.941
317.70	14.914
318.07	15.288
318.43	15.784
318.80	15.720
319.16	14.844
319.53	16.239
319.89	13.878
320.26	16.903
320.62	14.945
320.99	14.301
321.35	16.444
321.72	15.784
322.08	15.911
322.45	16.244
322.81	15.619
323.18	15.604
323.54	16.023
323.91	16.845
324.27	15.918
324.64	16.479
325.00	16.332
325.37	17.080
325.73	16.500
326.10	16.258
326.46	17.309
326.83	17.760
327.19	18.221
327.56	17.202
327.92	17.958
328.29	16.696
328.65	17.925
329.01	17.739
329.38	18.157
329.74	19.263
330.11	18.072
330.47	17.347
330.84	17.404
331.20	19.677
331.56	17.685
331.93	18.174
332.29	19.798
332.66	18.462
333.02	17.565
333.38	18.607
333.75	19.963
334.11	18.621
334.48	19.583
334.84	18.223
335.20	18.939
335.57	17.588
335.93	17.977
336.29	19.613
336.66	18.256
337.02	19.052
337.38	17.500
337.75	18.818
338.11	19.657
338.47	20.164
338.84	19.316
339.20	20.110
339.56	19.541
339.93	19.248
340.29	20.734
340.65	19.803
341.02	19.238
341.38	18.938
341.74	18.905
342.11	18.631
342.47	18.505
342.83	19.637
343.20	19.425
343.56	19.130
343.92	18.423
344.28	20.068
344.65	18.307
345.01	18.150
345.37	18.755
345.73	20.084
346.10	19.758
346.46	19.092
346.82	20.131
347.19	20.116
347.55	19.215
347.91	20.146
348.27	19.887
348.63	20.698
349.00	19.114
349.36	18.953
349.72	20.730
350.08	19.426
350.45	20.511
350.81	18.937
351.17	19.951
351.53	20.653
351.89	19.158
352.26	20.160
352.62	19.758
352.98	18.956
353.34	19.565
353.70	21.278
354.07	19.758
354.43	20.096
354.79	19.571
355.15	19.683
355.51	20.253
355.87	20.874
356.24	19.657
356.60	20.453
356.96	20.238
357.32	20.367
357.68	19.468
358.04	19.790
358.40	20.981
358.77	20.734
359.13	20.336
359.49	19.260
359.85	20.515
360.21	20.734
360.57	20.658
360.93	20.651
361.29	19.562
361.66	21.238
362.02	21.288
362.38	22.163
362.74	20.515
363.10	21.219
363.46	22.535
363.82	22.840
364.18	21.255
364.54	20.588
364.90	21.434
365.26	20.888
365.62	21.679
365.98	21.188
366.35	21.340
366.71	22.616
367.07	22.496
367.43	22.430
367.79	21.201
368.15	21.536
368.51	22.287
368.87	21.895
369.23	21.372
369.59	21.647
369.95	22.361
370.31	21.604
370.67	22.388
371.03	22.778
371.39	20.496
371.75	22.125
372.11	22.254
372.47	22.115
372.83	22.143
373.19	22.111
373.55	22.310
373.91	23.974
374.27	22.750
374.63	23.546
374.99	22.411
375.35	22.563
375.71	23.636
376.07	23.104
376.42	23.061
376.78	23.826
377.14	24.171
377.50	24.170
377.86	23.896
378.22	24.442
378.58	24.551
378.94	23.629
379.30	24.704
379.66	24.389
380.02	24.709
380.38	23.676
380.74	24.955
381.09	25.399
381.45	26.300
381.81	24.861
382.17	25.254
382.53	25.297
382.89	25.926
383.25	25.327
383.61	26.524
383.97	24.698
384.32	25.516
384.68	26.192
385.04	26.164
385.40	26.011
385.76	27.107
386.12	27.038
386.48	26.820
386.83	26.443
387.19	26.557
387.55	27.917
387.91	26.589
388.27	26.679
388.62	28.068
388.98	27.010
389.34	27.670
389.70	28.278
390.06	27.690
390.42	27.461
390.77	27.469
391.13	28.562
391.49	28.784
391.85	28.785
392.20	28.562
392.56	27.781
392.92	28.831
393.28	29.422
393.64	28.348
393.99	29.843
394.35	29.159
394.71	29.885
395.07	28.410
395.42	29.387
395.78	29.772
396.14	29.697
396.50	30.438
396.85	29.878
397.21	29.574
397.57	29.091
397.92	29.958
398.28	30.287
398.64	29.096
399.00	30.079
399.35	30.135
399.71	30.155
400.07	30.895
400.42	30.416
400.78	30.312
401.14	30.672
401.49	31.507
401.85	30.104
402.21	30.301
402.57	30.625
402.92	31.054
403.28	30.576
403.63	30.328
403.99	29.401
404.35	31.293
404.70	30.595
405.06	31.610
405.42	30.951
405.77	30.099
406.13	31.141
406.49	30.255
406.84	31.785
407.20	31.246
407.55	31.423
407.91	31.551
408.27	31.358
408.62	31.815
408.98	31.238
409.34	32.094
409.69	31.072
410.05	31.219
410.40	31.605
410.76	31.544
411.11	32.562
411.47	32.807
411.83	31.387
412.18	31.853
412.54	31.835
412.89	31.096
413.25	32.070
413.60	32.174
413.96	32.515
414.31	32.622
414.67	32.521
415.03	32.690
415.38	31.789
415.74	33.485
416.09	33.312
416.45	32.546
416.80	31.989
417.16	32.873
417.51	33.444
417.87	32.986
418.22	33.420
418.58	32.308
418.93	34.107
419.29	31.562
419.64	33.182
420.00	34.194
420.35	32.478
420.71	33.475
421.06	33.088
421.42	34.075
421.77	33.237
422.12	33.541
422.48	33.027
422.83	33.295
423.19	33.465
423.54	33.686
423.90	33.274
424.25	33.927
424.61	33.905
424.96	33.566
425.31	35.182
425.67	35.153
426.02	35.100
426.38	34.440
426.73	34.867
427.09	35.063
427.44	35.412
427.79	34.944
428.15	35.437
428.50	35.736
428.85	35.135
429.21	35.031
429.56	36.334
429.92	35.234
430.27	35.840
430.62	34.605
430.98	35.563
431.33	36.225
431.68	35.531
432.04	35.495
432.39	34.512
432.74	36.320
433.10	36.092
433.45	37.216
433.80	36.158
434.16	36.842
434.51	36.398
434.86	35.889
435.22	36.455
435.57	37.617
435.92	35.210
436.28	35.838
436.63	35.596
436.98	36.153
437.34	36.721
437.69	37.269
438.04	37.379
438.39	35.980
438.75	37.158
439.10	37.521
439.45	37.858
439.81	37.554
440.16	37.530
440.51	37.433
440.86	39.215
441.22	37.500
441.57	38.245
441.92	38.615
442.27	38.248
442.63	38.437
442.98	37.679
443.33	37.284
443.68	37.772
444.03	38.450
444.39	38.121
444.74	38.517
445.09	37.973
445.44	39.259
445.79	38.422
446.15	38.051
446.50	38.658
446.85	39.532
447.20	38.113
447.55	39.509
447.91	38.748
448.26	39.215
448.61	39.551
448.96	39.071
449.31	39.769
449.66	38.966
450.02	38.391
450.37	38.708
450.72	38.717
451.07	39.241
451.42	38.452
451.77	39.120
452.12	38.876
452.47	38.699
452.83	39.046
453.18	39.342
453.53	41.214
453.88	39.041
454.23	39.951
454.58	40.302
454.93	40.013
455.28	38.349
455.63	39.430
455.98	39.747
456.34	39.144
456.69	39.835
457.04	40.706
457.39	40.158
457.74	39.601
458.09	39.317
458.44	40.082
458.79	38.655
459.14	39.531
459.49	39.403
459.84	40.496
460.19	39.260
460.54	40.831
460.89	40.455
461.24	39.627
461.59	40.855
461.94	39.119
462.29	40.470
462.64	40.199
462.99	39.404
463.34	39.638
463.69	40.026
464.04	39.891
464.39	39.842
464.74	40.613
465.09	40.112
465.44	39.700
465.79	39.626
466.14	40.080
466.49	40.426
466.84	39.738
467.19	40.050
467.54	40.996
467.89	39.987
468.24	39.234
468.59	40.190
468.94	40.381
469.29	41.639
469.64	40.875
469.99	41.345
470.34	39.181
470.68	40.119
471.03	39.774
471.38	40.585
471.73	41.457
472.08	39.145
472.43	40.000
472.78	40.027
473.13	41.361
473.48	39.805
473.83	40.162
474.17	41.256
474.52	41.289
474.87	41.212
475.22	41.184
475.57	41.389
475.92	40.592
476.27	41.211
476.61	40.972
476.96	39.598
477.31	41.103
477.66	39.157
478.01	41.606
478.36	40.850
478.70	41.490
479.05	41.044
479.40	40.064
479.75	38.790
480.10	40.246
480.45	40.700
480.79	41.591
481.14	41.957
481.49	39.113
481.84	40.878
482.19	40.225
482.53	41.247
482.88	40.716
483.23	40.307
483.58	40.472
483.92	40.900
484.27	40.839
484.62	40.161
484.97	40.672
485.31	39.198
485.66	38.071
486.01	38.873
486.36	39.142
486.70	39.550
487.05	40.183
487.40	39.814
487.75	40.056
488.09	40.915
488.44	40.646
488.79	41.502
489.13	41.466
489.48	41.342
489.83	40.404
490.17	40.584
490.52	41.478
490.87	40.907
491.22	41.643
491.56	42.078
491.91	39.914
492.26	40.933
492.60	41.171
492.95	42.548
493.30	41.475
493.64	41.847
493.99	41.546
494.34	41.505
494.68	40.429
495.03	40.292
495.37	40.873
495.72	41.090
496.07	41.902
496.41	41.368
496.76	41.778
497.11	41.127
497.45	41.862
497.80	41.978
498.14	40.189
498.49	41.798
498.84	41.417
499.18	41.867
499.53	41.518
499.87	41.829
500.22	42.038
500.56	42.259
500.91	41.767
501.26	41.226
501.60	40.630
501.95	41.242
502.29	41.501
502.64	41.506
502.98	42.181
503.33	40.874
503.67	42.072
504.02	42.620
504.36	41.811
504.71	42.020
505.06	41.419
505.40	41.523
505.75	41.753
506.09	40.902
506.44	42.248
506.78	42.092
507.13	41.003
507.47	40.627
507.82	41.293
508.16	41.733
508.51	41.396
508.85	43.380
509.19	42.257
509.54	41.930
509.88	41.100
510.23	42.388
510.57	42.384
510.92	41.258
511.26	42.062
511.61	42.959
511.95	43.068
512.30	42.350
512.64	42.738
512.98	42.785
513.33	42.417
513.67	42.695
514.02	44.680
514.36	43.200
514.70	43.881
515.05	44.007
515.39	43.211
515.74	45.569
516.08	43.515
516.42	43.286
516.77	43.417
517.11	43.086
517.46	43.806
517.80	43.445
518.14	43.601
518.49	42.849
518.83	44.107
519.17	43.663
519.52	43.162
519.86	43.878
520.20	44.289
520.55	44.153
520.89	44.291
521.23	44.079
521.58	43.091
521.92	43.718
522.26	43.656
522.61	44.351
522.95	44.702
523.29	43.393
523.64	45.616
523.98	45.107
524.32	43.879
524.66	45.070
525.01	45.649
525.35	44.070
525.69	43.367
526.04	44.577
526.38	46.044
526.72	44.147
527.06	43.580
527.41	45.580
527.75	44.236
528.09	44.053
528.43	45.780
528.78	45.083
529.12	45.742
529.46	44.964
529.80	43.382
530.15	45.479
530.49	44.848
530.83	44.733
531.17	43.385
531.51	45.486
531.86	44.392
532.20	44.885
532.54	45.745
532.88	45.311
533.22	44.556
533.57	44.758
533.91	44.778
534.25	44.792
534.59	44.644
534.93	43.172
535.27	44.670
535.62	44.394
535.96	44.814
536.30	44.063
536.64	45.830
536.98	45.784
537.32	46.230
537.66	45.722
538.01	44.476
538.35	45.007
538.69	44.607
539.03	43.814
539.37	43.943
539.71	44.922
540.05	44.603
540.39	44.875
540.73	44.282
541.07	45.994
541.42	43.683
541.76	44.253
542.10	44.804
542.44	44.892
542.78	43.014
543.12	45.192
543.46	46.245
543.80	45.246
544.14	43.525
544.48	44.037
544.82	45.660
545.16	44.740
545.50	43.525
545.84	45.113
546.18	44.965
546.52	45.350
546.86	43.925
547.20	45.422
547.54	44.452
547.88	45.448
548.22	43.918
548.56	45.251
548.90	45.350
549.24	43.457
549.58	44.711
549.92	45.533
550.26	44.762
550.60	46.543
550.94	45.034
551.28	45.518
551.62	46.538
551.96	44.211
552.30	45.468
552.64	44.570
552.98	46.343
553.32	43.866
553.66	43.396
554.00	45.547
554.34	45.716
554.68	44.617
555.02	45.759
555.36	46.223
555.69	44.176
556.03	43.326
556.37	44.342
556.71	46.137
557.05	45.787
557.39	43.048
557.73	45.127
558.07	46.983
558.41	45.712
558.75	45.830
559.08	45.863
559.42	45.635
559.76	45.076
560.10	45.795
560.44	45.644
560.78	45.664
561.12	44.358
561.45	45.959
561.79	45.448
562.13	46.274
562.47	45.899
562.81	44.597
563.15	44.993
563.48	44.837
563.82	45.779
564.16	45.056
564.50	44.662
564.84	44.980
565.17	44.802
565.51	46.243
565.85	45.679
566.19	43.435
566.52	45.107
566.86	45.566
567.20	44.645
567.54	43.735
567.88	45.577
568.21	44.683
568.55	44.130
568.89	44.405
569.23	44.054
569.56	43.695
569.90	43.078
570.24	41.943
570.57	41.745
570.91	42.698
571.25	42.289
571.59	41.669
571.92	40.800
572.26	41.153
572.60	41.209
572.93	41.795
573.27	41.442
573.61	41.140
573.95	41.480
574.28	41.552
574.62	40.122
574.96	40.489
575.29	40.939
575.63	39.881
575.97	41.041
576.30	41.664
576.64	40.212
576.98	40.824
577.31	41.312
577.65	41.422
577.98	41.019
578.32	40.459
578.66	40.447
578.99	40.477
579.33	40.495
579.67	40.096
580.00	41.291
580.34	41.269
580.67	40.727
581.01	40.274
581.35	40.676
581.68	40.563
582.02	40.062
582.35	40.669
582.69	40.982
583.02	40.889
583.36	41.117
583.70	41.952
584.03	42.285
584.37	42.547
584.70	41.154
585.04	40.933
585.37	40.885
585.71	41.076
586.04	40.998
586.38	41.718
586.72	41.320
587.05	41.912
587.39	41.907
587.72	42.537
588.06	42.070
588.39	42.011
588.73	41.270
589.06	43.249
589.40	42.378
589.73	43.045
590.07	42.749
590.40	43.111
590.73	43.122
591.07	42.536
591.40	42.609
591.74	43.032
592.07	43.275
592.41	43.772
592.74	42.374
593.08	41.181
593.41	41.944
593.75	42.231
594.08	41.435
594.41	42.213
594.75	42.252
595.08	42.263
595.42	42.437
595.75	43.072
596.09	42.924
596.42	43.530
596.75	44.183
597.09	43.736
597.42	43.586
597.75	44.434
598.09	41.919
598.42	42.329
598.76	42.471
599.09	41.627
599.42	41.872
599.76	42.363
600.09	42.459
600.42	41.698
600.76	42.088
601.09	41.870
601.42	41.050
601.76	42.040
602.09	42.409
602.42	42.839
602.76	43.294
603.09	42.816
603.42	43.395
603.76	42.419
604.09	42.932
604.42	42.343
604.76	43.080
605.09	42.870
605.42	42.302
605.75	42.075
606.09	42.760
606.42	42.410
606.75	41.905
607.09	42.154
607.42	42.091
607.75	41.918
608.08	41.914
608.42	41.891
608.75	43.807
609.08	43.149
609.41	43.452
609.75	42.944
610.08	44.134
610.41	41.932
610.74	42.223
611.07	42.584
611.41	42.138
611.74	43.763
612.07	42.238
612.40	42.232
612.73	44.124
613.07	42.351
613.40	43.162
613.73	42.977
614.06	44.240
614.39	43.880
614.72	43.137
615.06	42.793
615.39	42.959
615.72	41.981
616.05	43.799
616.38	42.051
616.71	42.446
617.05	44.287
617.38	44.249
617.71	43.459
618.04	44.381
618.37	44.767
618.70	44.488
619.03	44.861
619.36	42.692
619.69	45.565
620.03	43.974
620.36	44.707
620.69	43.612
621.02	44.037
621.35	45.560
621.68	45.833
622.01	46.250
622.34	43.496
622.67	44.479
623.00	43.798
623.33	44.360
623.66	44.054
623.99	43.419
624.32	42.966
624.65	44.060
624.99	43.868
625.32	42.684
625.65	44.305
625.98	45.044
626.31	43.558
626.64	45.321
626.97	45.550
627.30	45.884
627.63	44.887
627.96	45.193
628.29	46.346
628.62	47.001
628.95	46.894
629.28	46.976
629.61	45.763
629.94	46.432
630.26	44.565
630.59	48.283
630.92	46.154
631.25	44.718
631.58	45.705
631.91	45.943
632.24	47.936
632.57	47.045
632.90	47.331
633.23	45.647
633.56	47.355
633.89	47.102
634.22	48.148
634.55	44.600
634.88	47.382
635.20	46.923
635.53	48.800
635.86	47.594
636.19	49.418
636.52	47.449
636.85	47.767
637.18	46.541
637.51	46.038
637.83	46.649
638.16	50.614
638.49	45.368
638.82	47.500
639.15	45.862
639.48	48.556
639.81	47.420
640.13	49.928
640.46	49.563
640.79	46.539
641.12	44.609
641.45	47.147
641.77	46.815
642.10	49.289
642.43	48.232
642.76	47.855
643.09	49.435
643.41	47.411
643.74	48.105
644.07	50.575
644.40	49.324
644.73	49.912
645.05	47.819
645.38	48.854
645.71	48.227
646.04	51.167
646.36	49.823
646.69	50.360
647.02	49.905
647.35	49.813
647.67	48.446
648.00	52.425
648.33	46.416
648.66	48.644
648.98	46.399
649.31	45.950
649.64	46.154
649.96	47.650
650.29	49.404
650.62	49.744
650.94	46.481
651.27	48.790
651.60	51.892
651.92	48.077
652.25	45.471
652.58	48.333
652.90	47.684
653.23	48.739
653.56	45.178
653.88	47.079
654.21	45.009
654.54	47.368
654.86	46.520
655.19	45.029
655.52	44.118
655.84	37.552
656.17	41.318
656.49	55.866
656.82	58.688
657.15	45.591
657.47	34.358
657.80	25.886
658.13	25.317
658.45	40.163
658.78	40.060
659.10	40.769
659.43	40.759
659.75	42.723
660.08	44.345
660.41	44.025
660.73	43.923
661.06	48.007
661.38	48.924
661.71	42.094
662.03	48.498
662.36	46.813
662.68	46.681
663.01	51.965
663.33	47.564
663.66	51.860
663.98	49.070
664.31	47.974
664.63	48.618
664.96	43.478
665.28	45.475
665.61	47.186
665.93	49.565
666.26	47.505
666.58	45.414
666.91	48.706
667.23	51.179
667.56	49.526
667.88	51.799
668.21	49.165
668.53	46.099
668.86	52.123
669.18	50.943
669.50	48.184
669.83	47.907
670.15	47.086
670.48	48.325
670.80	47.696
671.13	47.204
671.45	44.749
671.77	48.927
672.10	47.525
672.42	44.569
672.75	48.313
673.07	43.828
673.39	47.156
673.72	44.181
674.04	48.750
674.37	45.975
674.69	47.323
675.01	46.889
675.34	49.550
675.66	45.833
675.98	46.563
676.31	46.789
676.63	50.356
676.95	44.545
677.28	48.706
677.60	46.506
677.92	45.413
678.25	44.420
678.57	49.134
678.89	46.429
679.22	47.204
679.54	46.185
679.86	41.750
680.18	45.243
680.51	44.129
680.83	45.129
681.15	46.200
681.48	48.156
681.80	45.661
682.12	46.573
682.44	43.305
682.77	45.033
683.09	46.224
683.41	43.409
683.73	46.544
684.06	47.124
684.38	43.226
684.70	49.237
685.02	42.946
685.34	45.850
685.67	43.340
685.99	42.495
686.31	43.363
686.63	42.486
686.96	40.684
687.28	43.434
687.60	41.065
687.92	47.879
688.24	43.347
688.56	44.323
688.89	44.643
689.21	45.556
689.53	44.780
689.85	43.256
690.17	46.875
690.49	45.863
690.82	45.874
691.14	41.667
691.46	45.561
691.78	46.396
692.10	45.376
692.42	43.723
692.74	42.308
693.06	42.793
693.39	43.439
693.71	40.498
694.03	41.109
694.35	45.093
694.67	48.232
694.99	42.298
695.31	46.475
695.63	44.500
695.95	44.949
696.27	43.523
696.59	46.389
696.91	41.457
697.23	42.931
697.56	45.792
697.88	42.796
698.20	42.825
698.52	43.529
698.84	41.388
699.16	40.250
699.48	42.857
699.80	41.439
700.12	45.283
700.44	45.938
700.76	45.640
701.08	45.455
701.40	44.880
701.72	45.988
702.04	47.195
702.36	49.164
702.68	45.946
703.00	45.152
703.32	41.642
703.64	42.090
703.96	40.580
704.28	43.865
704.60	44.444
704.91	40.379
705.23	47.176
705.55	46.643
705.87	49.097
706.19	47.037
706.51	41.237
706.83	48.875
707.15	42.679
707.47	42.297
707.79	40.625
708.11	42.250
708.43	41.500
708.74	39.793
709.06	47.042
709.38	44.648
709.70	42.604
710.02	45.223
710.34	44.272
710.66	40.385
710.98	42.715
711.29	41.311
711.61	44.407
711.93	42.671
712.25	47.766
712.57	46.154
712.89	39.179
713.20	43.253
713.52	43.902
713.84	42.662
714.16	42.612
714.48	37.419
714.80	45.833
715.11	41.337
715.43	42.633
715.75	43.000
716.07	37.542
716.39	40.604
716.70	40.221
717.02	45.802
717.34	45.344
717.66	46.018
717.97	44.348
718.29	43.933
718.61	41.732
718.93	37.597
719.24	46.008
719.56	45.783
719.88	39.519
720.20	45.455
720.51	40.996
720.83	44.788
721.15	44.118
721.46	41.532
721.78	41.897
722.10	40.149
722.42	44.813
722.73	39.184
723.05	42.449
723.37	44.068
723.68	49.099
724.00	47.009
724.32	42.222
724.63	44.091
724.95	43.668
725.27	41.475
725.58	41.525
725.90	38.095
726.22	38.996
726.53	42.034
726.85	39.326
727.16	44.151
727.48	36.842
727.80	42.915
728.11	40.678
728.43	38.039
728.74	37.097
729.06	38.000
729.38	42.857
729.69	41.036
730.01	38.462
730.32	42.164
730.64	40.636
730.96	40.755
731.27	39.667
731.59	41.356
731.90	43.631
732.22	42.587
732.53	41.196
732.85	43.972
733.16	40.404
733.48	36.691
733.80	38.043
734.11	38.644
734.43	40.206
734.74	40.000
735.06	37.134
735.37	41.088
735.69	42.424
736.00	35.889
736.32	36.242
736.63	44.718
736.95	35.836
737.26	37.367
737.58	41.946
737.89	41.026
738.21	37.970
738.52	44.856
738.83	38.428
739.15	42.358
739.46	41.339
739.78	41.026
740.09	37.908
740.41	41.304
740.72	41.732
741.04	44.534
741.35	37.872
741.66	44.076
741.98	45.918
742.29	37.129
742.61	43.979
742.92	37.441
743.23	35.185
743.55	34.842
743.86	36.364
744.18	45.455
744.49	39.894
744.80	40.761
745.12	54.545
745.43	39.024
745.74	38.542
746.06	41.951
746.37	39.267
746.68	34.597
747.00	42.021
747.31	46.269
747.62	40.777
747.94	40.670
748.25	39.109
748.56	44.262
748.88	44.503
749.19	42.553
749.50	45.320
749.82	39.623
750.13	38.991
750.44	39.474
750.75	43.284
751.07	41.606
751.38	37.165
751.69	41.176
752.01	41.085
752.32	36.255
752.63	39.921
752.94	36.207
753.26	46.862
753.57	38.462
753.88	39.381
754.19	36.250
754.51	39.669
754.82	38.057
755.13	42.917
755.44	41.129
755.75	39.062
756.07	39.689
756.38	36.981
756.69	33.333
757.00	39.333
757.31	35.294
757.63	37.805
757.94	38.056
758.25	32.329
758.56	36.968
758.87	36.261
759.18	37.383
759.50	38.182
759.81	37.793
760.12	36.452
760.43	35.455
760.74	33.951
761.05	40.000
761.36	38.352
761.67	40.303
761.99	39.456
762.30	34.545
762.61	38.735
762.92	38.009
763.23	37.838
763.54	37.383
763.85	41.102
764.16	35.685
764.47	35.081
764.78	32.967
765.10	35.690
765.41	36.909
765.72	33.016
766.03	31.203
766.34	36.131
766.65	37.052
766.96	39.899
767.27	43.085
767.58	37.356
767.89	39.007
768.20	32.955
768.51	36.264
768.82	34.483
769.13	35.023
769.44	39.056
769.75	35.160
770.06	31.466
770.37	33.654
770.68	34.010
770.99	37.104
771.30	44.608
771.61	35.747
771.92	38.793
772.23	36.453
772.54	39.785
772.85	38.889
773.16	41.573
773.47	37.255
773.78	43.137
774.09	38.922
774.39	42.000
774.70	35.669
775.01	43.448
775.32	35.000
775.63	31.405
775.94	35.115
776.25	38.583
776.56	32.500
776.87	37.500
777.18	44.444
777.48	32.759
777.79	37.391
778.10	22.857
778.41	42.342
778.72	40.476
779.03	36.842
779.34	34.752
779.65	41.781
779.95	31.507
780.26	37.931
780.57	29.268
780.88	39.370
781.19	35.345
781.50	43.411
781.80	37.278
782.11	38.994
782.42	33.846
782.73	37.410
783.04	39.259
783.34	37.500
783.65	38.462
783.96	33.607
784.27	43.448
784.57	38.211
784.88	47.656
785.19	38.000
785.50	43.000
785.81	40.517
786.11	38.793
786.42	44.660
786.73	41.818
787.04	32.653
787.34	33.929
787.65	30.476
787.96	35.398
788.26	44.545
788.57	45.299
788.88	38.281
789.19	31.746
789.49	40.000
789.80	29.592
790.11	34.343
790.41	37.273
790.72	44.565
791.03	28.409
791.33	48.750
791.64	43.750
791.95	39.535
792.25	35.106
792.56	35.955
792.87	31.507
793.17	36.232
793.48	16.000
793.79	35.000
794.09	32.500
794.40	25.472
794.70	28.155
795.01	22.764
795.32	29.915
795.62	32.381
795.93	31.373
796.23	33.019
796.54	42.708
796.85	52.941
797.15	33.803
797.46	44.444
797.76	46.970
798.07	25.581
798.37	30.263
798.68	33.333
798.99	40.741
799.29	30.000
799.60	21.739
799.90	30.667
800.21	39.344
800.51	33.846
800.82	28.814
801.12	30.435
801.43	18.033
801.73	53.968
802.04	60.000
802.34	28.358
802.65	46.154
802.95	26.786
803.26	13.462
803.56	31.373
803.87	28.261
804.17	45.333
804.48	26.984
804.78	44.444
805.09	52.174
805.39	37.778
805.70	42.593
806.00	24.561
806.30	38.028
806.61	31.429
806.91	20.833
807.22	46.053
807.52	36.000
807.83	16.364
808.13	34.722
808.43	23.529
808.74	26.866
809.04	28.814
809.35	42.308
809.65	37.500
809.95	16.216
810.26	36.364
810.56	28.767
810.86	19.048
811.17	26.000
811.47	51.020
811.77	5.263
812.08	18.182
812.38	35.849
812.69	30.000
812.99	24.242
813.29	26.316
813.59	17.143
813.90	36.364
814.20	23.077
814.50	36.538
814.81	50.943
815.11	27.660
815.41	47.458
815.72	16.667
816.02	35.294
816.32	41.667
816.62	39.024
816.93	40.541
817.23	34.286
817.53	37.500
817.84	23.913
818.14	30.769
818.44	5.263
818.74	21.739
819.04	2.500
819.35	45.946
819.65	41.176
819.95	13.889
820.25	35.714
820.56	22.500
820.86	-13.793
821.16	47.500
821.46	42.553
821.76	30.000
822.07	30.233
822.37	-13.514
822.67	9.375
822.97	35.714
823.27	-10.714
823.57	28.000
823.88	-3.704
824.18	53.571
824.48	20.588
824.78	22.581
825.08	26.087
825.38	33.333
825.69	-8.333
825.99	5.263
826.29	-11.111
826.59	60.000
826.89	-23.810
827.19	28.261
827.49	42.500
827.79	17.143
828.09	57.143
828.39	18.182
828.70	48.649
829.00	17.857
829.30	9.524
829.60	40.000
829.90	37.500
830.20	18.421
830.50	25.926
830.80	43.478
831.10	4.545
831.40	60.606
831.70	54.839
832.00	52.381
832.30	-28.571
832.60	-66.667
832.90	34.483
833.20	15.000
833.50	42.424
833.80	25.926
834.10	3.846
834.40	40.625
834.70	33.333
835.00	-5.263
835.30	30.769
835.60	86.667
835.90	32.258
836.20	18.182
836.50	57.143
836.80	15.385
837.10	21.429
837.40	-133.333
837.70	4.545
838.00	-27.273
838.30	26.087
838.60	7.692
838.90	40.909
839.19	25.000
839.49	-6.667
839.79	-30.769
840.09	-16.667
840.39	17.857
840.69	32.143
840.99	3.846
841.29	-36.842
841.59	-60.000
841.88	36.364
842.18	-10.000
842.48	75.000
842.78	6.667
843.08	25.926
843.38	-100.000
843.68	43.478
843.97	6.667
844.27	0.000
844.57	0.000
844.87	22.222
845.17	0.000
845.47	20.000
845.76	-28.571
846.06	76.471
846.36	-40.000
846.66	-28.571
846.96	6.667
847.25	-62.500
847.55	57.143
847.85	50.000
848.15	18.182
848.44	-400.000
848.74	25.000
849.04	55.556
849.34	-100.000
849.63	-183.333
849.93	-180.000
850.23	-5.556
850.53	120.000
850.82	-23.077
851.12	0.000
851.42	73.333
851.71	-11.538
852.01	-21.429
852.31	-25.000
852.61	-9.091
852.90	15.000
853.20	63.158
853.50	0.000
853.79	26.087
854.09	25.000
854.39	10.526
854.68	8.333
854.98	32.258
855.28	42.308
855.57	10.000
855.87	61.111
856.17	25.926
856.46	28.571
856.76	60.000
857.05	100.000
857.35	24.000
857.65	-22.222
857.94	7.692
858.24	51.724
858.53	11.111
858.83	51.852
859.13	68.182
859.42	4.348
859.72	100.000
860.01	-200.000
860.31	40.000
860.60	47.619
860.90	-333.333
861.20	-46.667
861.49	-300.000
861.79	-73.333
862.08	50.000
862.38	113.333
862.67	60.000
862.97	50.000
863.26	16.667
863.56	16.667
863.85	-266.667
864.15	22.222
864.44	-100.000
864.74	0.000
865.03	75.000
865.33	-220.000
865.62	-116.667
865.92	-75.000
866.21	-83.333
866.51	-6.250
866.80	0.000
867.10	-150.000
867.39	66.667
867.69	0.000
867.98	7.692
868.27	-166.667
868.57	6.667
868.86	11.111
869.16	38.462
869.45	6.667
869.75	-1000.000
870.04	0.000
870.33	-171.429
870.63	28.571
870.92	100.000
871.22	-260.000
871.51	-400.000
871.80	77.778
872.10	266.667
>>>>>End Processed Spectral Data<<<<<
