SpectraSuite Data File
++++++++++++++++++++++++++++++++++++
Date: Fri May 15 17:05:54 PDT 2015
User: schluterlab
Dark Spectrum Present: Yes
Reference Spectrum Present: Yes
Number of Sampled Component Spectra: 1
Spectrometers: USB2E3373
Integration Time (usec): 3000 (USB2E3373)
Spectra Averaged: 3 (USB2E3373)
Boxcar Smoothing: 0 (USB2E3373)
Correct for Electrical Dark: No (USB2E3373)
Strobe/Lamp Enabled: No (USB2E3373)
Correct for Detector Non-linearity: No (USB2E3373)
Correct for Stray Light: No (USB2E3373)
Number of Pixels in Processed Spectrum: 2048
>>>>>Begin Processed Spectral Data<<<<<
178.53	0.000
178.91	0.000
179.29	175.000
179.67	-50.000
180.04	57.143
180.42	275.000
180.80	-700.000
181.18	-300.000
181.56	300.000
181.94	400.000
182.31	-700.000
182.69	60.000
183.07	166.667
183.45	0.000
183.83	-0.000
184.20	154.545
184.58	55.556
184.96	-125.000
185.34	-0.000
185.72	-50.000
186.09	38.462
186.47	800.000
186.85	100.000
187.23	-0.000
187.61	-400.000
187.98	166.667
188.36	11.111
188.74	-266.667
189.12	64.706
189.49	61.111
189.87	0.000
190.25	35.714
190.63	650.000
191.00	100.000
191.38	47.368
191.76	750.000
192.14	-200.000
192.51	550.000
192.89	33.333
193.27	85.714
193.65	100.000
194.02	45.455
194.40	-10.000
194.78	12.500
195.15	41.667
195.53	-50.000
195.91	250.000
196.29	150.000
196.66	92.308
197.04	14.286
197.42	66.667
197.79	-233.333
198.17	46.154
198.55	1200.000
198.92	233.333
199.30	600.000
199.68	160.000
200.05	0.000
200.43	0.000
200.81	366.667
201.18	266.667
201.56	-700.000
201.94	250.000
202.31	-66.667
202.69	60.000
203.07	50.000
203.44	1100.000
203.82	0.000
204.19	107.143
204.57	-300.000
204.95	-100.000
205.32	100.000
205.70	42.857
206.08	300.000
206.45	288.889
206.83	142.857
207.20	-57.143
207.58	-800.000
207.96	-33.333
208.33	40.000
208.71	50.000
209.08	66.667
209.46	-200.000
209.84	0.000
210.21	200.000
210.59	314.286
210.96	-50.000
211.34	0.000
211.71	60.000
212.09	-42.857
212.46	-1200.000
212.84	0.000
213.22	90.000
213.59	250.000
213.97	84.615
214.34	145.455
214.72	233.333
215.09	200.000
215.47	123.077
215.84	90.909
216.22	66.667
216.59	162.500
216.97	250.000
217.34	200.000
217.72	-60.000
218.09	125.000
218.47	25.000
218.84	700.000
219.22	44.444
219.59	40.000
219.97	233.333
220.34	-0.000
220.72	128.571
221.09	-25.000
221.47	100.000
221.84	-350.000
222.22	-500.000
222.59	36.364
222.97	133.333
223.34	133.333
223.72	50.000
224.09	52.381
224.46	57.143
224.84	133.333
225.21	40.000
225.59	80.000
225.96	800.000
226.34	-75.000
226.71	100.000
227.08	100.000
227.46	50.000
227.83	250.000
228.21	166.667
228.58	90.909
228.95	25.000
229.33	-40.000
229.70	0.000
230.08	-62.500
230.45	-42.857
230.82	228.571
231.20	46.667
231.57	121.429
231.95	14.286
232.32	10.000
232.69	85.714
233.07	566.667
233.44	-40.000
233.81	60.000
234.19	133.333
234.56	88.235
234.93	350.000
235.31	250.000
235.68	-100.000
236.05	100.000
236.43	25.000
236.80	23.529
237.17	9.375
237.55	55.000
237.92	40.741
238.29	13.889
238.67	36.667
239.04	17.647
239.41	-9.756
239.79	30.000
240.16	39.024
240.53	5.263
240.91	32.609
241.28	19.048
241.65	25.000
242.02	26.027
242.40	36.667
242.77	28.814
243.14	12.121
243.51	21.250
243.89	39.080
244.26	11.494
244.63	11.905
245.00	25.773
245.38	19.588
245.75	5.618
246.12	12.069
246.49	25.620
246.87	20.192
247.24	13.445
247.61	22.807
247.98	17.073
248.36	23.125
248.73	17.763
249.10	12.987
249.47	17.089
249.84	20.261
250.22	18.235
250.59	16.340
250.96	21.596
251.33	10.465
251.70	18.235
252.08	17.766
252.45	15.842
252.82	15.578
253.19	21.198
253.56	9.346
253.94	18.018
254.31	16.522
254.68	18.421
255.05	18.898
255.42	14.847
255.79	20.849
256.16	17.899
256.54	18.657
256.91	18.631
257.28	20.074
257.65	17.978
258.02	16.312
258.39	18.519
258.76	19.780
259.14	19.601
259.51	19.741
259.88	16.151
260.25	16.013
260.62	18.750
260.99	14.237
261.36	15.068
261.73	14.557
262.10	18.237
262.47	15.031
262.85	15.674
263.22	16.000
263.59	16.199
263.96	18.944
264.33	20.303
264.70	16.071
265.07	18.452
265.44	17.564
265.81	18.079
266.18	15.847
266.55	17.481
266.92	16.062
267.29	16.188
267.66	15.601
268.03	18.848
268.40	14.099
268.77	16.043
269.14	17.506
269.51	17.481
269.88	15.711
270.25	14.796
270.62	14.878
270.99	16.113
271.36	13.203
271.73	18.310
272.10	16.545
272.47	16.785
272.84	12.871
273.21	16.473
273.58	14.940
273.95	16.705
274.32	15.473
274.69	14.253
275.06	16.071
275.43	14.966
275.80	15.011
276.17	14.483
276.54	16.916
276.91	18.202
277.28	12.445
277.65	15.909
278.02	18.085
278.39	14.004
278.76	17.191
279.13	10.996
279.50	14.496
279.87	14.255
280.23	13.118
280.60	17.154
280.97	14.949
281.34	14.808
281.71	18.891
282.08	12.065
282.45	13.894
282.82	13.514
283.19	15.280
283.56	14.644
283.92	13.283
284.29	13.077
284.66	12.791
285.03	15.324
285.40	12.476
285.77	13.181
286.14	13.357
286.51	16.790
286.87	12.797
287.24	15.101
287.61	13.933
287.98	15.088
288.35	12.825
288.72	16.462
289.08	12.674
289.45	14.938
289.82	13.986
290.19	12.457
290.56	14.580
290.93	12.795
291.29	12.173
291.66	13.386
292.03	12.121
292.40	12.742
292.77	11.643
293.13	10.390
293.50	9.105
293.87	15.573
294.24	11.747
294.60	12.370
294.97	11.905
295.34	11.810
295.71	12.817
296.08	11.211
296.44	10.953
296.81	12.222
297.18	12.174
297.55	12.873
297.91	11.918
298.28	13.193
298.65	11.398
299.02	12.803
299.38	8.755
299.75	9.931
300.12	10.602
300.48	10.408
300.85	10.773
301.22	11.039
301.59	9.605
301.95	9.620
302.32	12.840
302.69	11.070
303.05	8.663
303.42	11.333
303.79	11.449
304.15	10.872
304.52	8.799
304.89	8.889
305.25	9.564
305.62	10.035
305.99	8.889
306.35	10.058
306.72	9.111
307.09	9.692
307.45	9.874
307.82	12.500
308.19	9.988
308.55	9.051
308.92	11.656
309.29	8.603
309.65	9.580
310.02	10.561
310.38	10.538
310.75	10.601
311.12	10.011
311.48	10.923
311.85	10.262
312.22	9.810
312.58	10.297
312.95	9.072
313.31	9.213
313.68	10.052
314.05	10.204
314.41	11.134
314.78	11.134
315.14	11.305
315.51	10.766
315.87	11.270
316.24	12.032
316.61	12.500
316.97	12.202
317.34	12.402
317.70	13.098
318.07	12.308
318.43	12.745
318.80	13.826
319.16	13.574
319.53	13.580
319.89	14.567
320.26	15.081
320.62	15.547
320.99	15.240
321.35	15.519
321.72	17.861
322.08	16.113
322.45	17.157
322.81	17.682
323.18	17.959
323.54	17.568
323.91	18.111
324.27	17.969
324.64	20.412
325.00	20.438
325.37	21.947
325.73	20.399
326.10	22.525
326.46	23.139
326.83	23.097
327.19	22.493
327.56	24.153
327.92	25.264
328.29	24.911
328.65	25.943
329.01	25.735
329.38	28.111
329.74	26.723
330.11	28.360
330.47	28.108
330.84	28.846
331.20	30.323
331.56	28.241
331.93	30.320
332.29	30.156
332.66	30.317
333.02	30.112
333.38	30.889
333.75	30.678
334.11	31.782
334.48	32.276
334.84	33.242
335.20	32.205
335.57	32.004
335.93	32.430
336.29	32.965
336.66	32.698
337.02	32.993
337.38	32.130
337.75	33.545
338.11	33.904
338.47	33.759
338.84	34.750
339.20	33.090
339.56	34.954
339.93	34.736
340.29	35.505
340.65	34.857
341.02	33.865
341.38	33.540
341.74	33.657
342.11	33.276
342.47	35.587
342.83	35.035
343.20	33.711
343.56	33.652
343.92	34.012
344.28	35.098
344.65	34.888
345.01	34.572
345.37	33.642
345.73	35.146
346.10	36.497
346.46	34.399
346.82	35.025
347.19	33.500
347.55	33.751
347.91	35.275
348.27	34.519
348.63	33.220
349.00	33.962
349.36	35.328
349.72	35.821
350.08	35.410
350.45	35.435
350.81	33.555
351.17	34.202
351.53	34.694
351.89	34.104
352.26	34.800
352.62	34.355
352.98	35.261
353.34	34.300
353.70	37.055
354.07	34.435
354.43	35.148
354.79	35.673
355.15	35.397
355.51	36.234
355.87	35.275
356.24	33.197
356.60	34.196
356.96	36.429
357.32	35.064
357.68	35.496
358.04	36.026
358.40	34.646
358.77	35.247
359.13	35.548
359.49	35.439
359.85	35.803
360.21	36.683
360.57	34.353
360.93	36.157
361.29	35.196
361.66	35.423
362.02	36.212
362.38	36.558
362.74	35.958
363.10	37.397
363.46	36.842
363.82	36.514
364.18	34.982
364.54	35.147
364.90	36.559
365.26	36.026
365.62	36.934
365.98	36.877
366.35	37.800
366.71	37.842
367.07	36.792
367.43	36.520
367.79	36.749
368.15	36.181
368.51	37.509
368.87	37.401
369.23	35.523
369.59	36.953
369.95	37.170
370.31	37.211
370.67	37.164
371.03	36.072
371.39	37.710
371.75	36.630
372.11	37.589
372.47	36.908
372.83	36.977
373.19	36.733
373.55	36.462
373.91	36.645
374.27	37.279
374.63	38.335
374.99	37.163
375.35	38.579
375.71	38.392
376.07	37.711
376.42	37.823
376.78	37.315
377.14	37.779
377.50	36.919
377.86	37.483
378.22	38.162
378.58	38.077
378.94	37.744
379.30	37.742
379.66	38.433
380.02	37.891
380.38	38.344
380.74	37.642
381.09	38.037
381.45	38.287
381.81	37.816
382.17	37.690
382.53	38.289
382.89	39.485
383.25	38.643
383.61	38.293
383.97	37.841
384.32	38.149
384.68	38.328
385.04	36.949
385.40	37.834
385.76	38.868
386.12	38.551
386.48	38.123
386.83	38.301
387.19	38.950
387.55	38.708
387.91	37.897
388.27	38.400
388.62	38.641
388.98	38.367
389.34	38.538
389.70	36.731
390.06	37.823
390.42	37.630
390.77	38.653
391.13	37.264
391.49	37.710
391.85	38.532
392.20	37.916
392.56	38.398
392.92	37.522
393.28	37.618
393.64	37.237
393.99	38.056
394.35	37.002
394.71	39.017
395.07	36.204
395.42	36.551
395.78	37.068
396.14	37.011
396.50	37.286
396.85	37.283
397.21	36.905
397.57	36.113
397.92	35.830
398.28	36.897
398.64	36.024
399.00	35.779
399.35	36.343
399.71	36.129
400.07	36.336
400.42	35.496
400.78	36.191
401.14	35.451
401.49	36.212
401.85	35.405
402.21	34.639
402.57	34.688
402.92	34.818
403.28	35.714
403.63	35.750
403.99	33.546
404.35	35.790
404.70	33.155
405.06	34.195
405.42	34.742
405.77	33.759
406.13	33.586
406.49	33.393
406.84	34.046
407.20	34.377
407.55	33.612
407.91	33.289
408.27	33.397
408.62	34.585
408.98	33.210
409.34	33.643
409.69	32.687
410.05	33.498
410.40	33.086
410.76	34.077
411.11	33.437
411.47	32.939
411.83	32.454
412.18	33.462
412.54	32.584
412.89	32.943
413.25	33.694
413.60	33.292
413.96	33.129
414.31	34.207
414.67	33.611
415.03	33.422
415.38	33.225
415.74	34.397
416.09	33.769
416.45	33.626
416.80	33.642
417.16	34.669
417.51	34.710
417.87	32.855
418.22	34.003
418.58	33.779
418.93	34.545
419.29	33.995
419.64	34.802
420.00	35.453
420.35	33.970
420.71	34.751
421.06	34.929
421.42	35.697
421.77	35.318
422.12	34.847
422.48	35.463
422.83	35.093
423.19	35.835
423.54	35.097
423.90	35.925
424.25	37.026
424.61	36.230
424.96	36.005
425.31	37.897
425.67	37.089
426.02	38.634
426.38	38.823
426.73	38.075
427.09	39.367
427.44	39.059
427.79	38.892
428.15	39.442
428.50	38.704
428.85	38.391
429.21	39.162
429.56	40.108
429.92	40.010
430.27	38.797
430.62	39.467
430.98	40.180
431.33	39.800
431.68	39.351
432.04	40.190
432.39	40.046
432.74	39.808
433.10	41.782
433.45	40.920
433.80	42.542
434.16	41.773
434.51	42.527
434.86	42.044
435.22	43.522
435.57	43.918
435.92	42.994
436.28	43.172
436.63	43.183
436.98	43.337
437.34	43.255
437.69	44.246
438.04	43.761
438.39	42.700
438.75	45.719
439.10	44.822
439.45	44.857
439.81	44.709
440.16	46.437
440.51	46.866
440.86	48.580
441.22	45.645
441.57	46.358
441.92	46.800
442.27	48.725
442.63	48.126
442.98	47.387
443.33	46.689
443.68	46.737
444.03	47.690
444.39	47.664
444.74	48.495
445.09	48.218
445.44	49.516
445.79	50.181
446.15	48.403
446.50	47.920
446.85	48.831
447.20	49.062
447.55	49.777
447.91	49.069
448.26	49.858
448.61	49.741
448.96	50.545
449.31	50.347
449.66	51.278
450.02	50.827
450.37	50.148
450.72	49.943
451.07	50.443
451.42	51.186
451.77	51.417
452.12	51.136
452.47	51.513
452.83	52.473
453.18	50.221
453.53	51.960
453.88	52.641
454.23	51.014
454.58	52.519
454.93	51.933
455.28	50.159
455.63	51.891
455.98	52.676
456.34	52.235
456.69	51.779
457.04	52.993
457.39	53.949
457.74	53.023
458.09	52.148
458.44	52.428
458.79	51.933
459.14	52.689
459.49	54.448
459.84	52.623
460.19	53.580
460.54	53.301
460.89	52.273
461.24	53.292
461.59	54.097
461.94	51.887
462.29	53.920
462.64	54.817
462.99	54.096
463.34	54.868
463.69	52.510
464.04	54.964
464.39	53.366
464.74	53.313
465.09	54.585
465.44	54.876
465.79	52.834
466.14	54.732
466.49	53.422
466.84	54.372
467.19	54.255
467.54	54.917
467.89	55.654
468.24	55.170
468.59	55.365
468.94	54.095
469.29	56.262
469.64	55.161
469.99	57.533
470.34	55.290
470.68	57.718
471.03	56.546
471.38	56.491
471.73	56.443
472.08	56.852
472.43	56.913
472.78	55.997
473.13	56.122
473.48	56.026
473.83	55.666
474.17	57.383
474.52	56.605
474.87	56.788
475.22	57.047
475.57	56.126
475.92	57.323
476.27	56.810
476.61	58.218
476.96	54.490
477.31	55.706
477.66	56.236
478.01	57.608
478.36	57.081
478.70	57.586
479.05	57.088
479.40	56.492
479.75	54.901
480.10	56.426
480.45	56.900
480.79	57.956
481.14	57.838
481.49	56.256
481.84	56.950
482.19	55.800
482.53	57.026
482.88	58.186
483.23	57.726
483.58	55.802
483.92	57.744
484.27	56.335
484.62	55.894
484.97	56.219
485.31	56.358
485.66	55.320
486.01	55.137
486.36	54.615
486.70	53.640
487.05	55.260
487.40	55.352
487.75	54.761
488.09	55.315
488.44	55.227
488.79	56.929
489.13	57.692
489.48	57.204
489.83	56.816
490.17	57.213
490.52	57.921
490.87	56.502
491.22	58.883
491.56	57.448
491.91	56.549
492.26	58.824
492.60	58.205
492.95	57.846
493.30	57.645
493.64	59.037
493.99	58.309
494.34	57.864
494.68	58.857
495.03	58.540
495.37	59.519
495.72	58.960
496.07	59.220
496.41	58.962
496.76	58.452
497.11	58.640
497.45	58.234
497.80	59.990
498.14	58.271
498.49	59.370
498.84	59.032
499.18	59.086
499.53	59.673
499.87	58.755
500.22	59.792
500.56	60.666
500.91	58.936
501.26	58.329
501.60	60.157
501.95	58.612
502.29	59.806
502.64	59.556
502.98	60.286
503.33	59.270
503.67	59.422
504.02	60.753
504.36	61.059
504.71	60.000
505.06	59.436
505.40	60.406
505.75	61.340
506.09	59.554
506.44	60.678
506.78	60.969
507.13	60.703
507.47	59.582
507.82	60.150
508.16	59.958
508.51	60.283
508.85	61.015
509.19	60.245
509.54	60.804
509.88	60.841
510.23	60.893
510.57	60.983
510.92	59.435
511.26	61.047
511.61	60.726
511.95	60.822
512.30	60.920
512.64	61.102
512.98	61.988
513.33	61.724
513.67	61.512
514.02	62.529
514.36	61.600
514.70	62.471
515.05	62.808
515.39	61.275
515.74	63.114
516.08	62.821
516.42	62.132
516.77	61.615
517.11	63.858
517.46	62.657
517.80	61.800
518.14	62.462
518.49	62.560
518.83	62.029
519.17	61.795
519.52	62.049
519.86	62.065
520.20	63.305
520.55	61.789
520.89	62.610
521.23	61.685
521.58	63.596
521.92	63.333
522.26	62.850
522.61	63.247
522.95	63.444
523.29	62.516
523.64	62.008
523.98	62.994
524.32	63.660
524.66	63.764
525.01	64.156
525.35	63.642
525.69	63.434
526.04	63.360
526.38	62.905
526.72	62.394
527.06	62.062
527.41	63.720
527.75	61.863
528.09	62.458
528.43	63.336
528.78	62.838
529.12	63.677
529.46	62.573
529.80	61.305
530.15	63.960
530.49	62.424
530.83	63.611
531.17	61.249
531.51	62.517
531.86	61.115
532.20	61.795
532.54	62.491
532.88	62.902
533.22	63.710
533.57	60.878
533.91	61.554
534.25	62.240
534.59	62.219
534.93	60.982
535.27	60.596
535.62	61.050
535.96	62.688
536.30	61.873
536.64	63.405
536.98	60.836
537.32	63.158
537.66	63.114
538.01	63.357
538.35	61.720
538.69	61.052
539.03	60.971
539.37	61.709
539.71	61.213
540.05	62.186
540.39	62.327
540.73	61.855
541.07	61.257
541.42	61.223
541.76	62.560
542.10	61.666
542.44	63.238
542.78	62.010
543.12	61.882
543.46	61.057
543.80	62.526
544.14	60.748
544.48	61.759
544.82	61.722
545.16	62.295
545.50	61.549
545.84	63.102
546.18	63.121
546.52	62.004
546.86	61.898
547.20	63.233
547.54	61.979
547.88	62.228
548.22	60.552
548.56	60.620
548.90	62.399
549.24	61.639
549.58	62.906
549.92	59.328
550.26	63.516
550.60	63.346
550.94	64.078
551.28	64.451
551.62	64.615
551.96	65.038
552.30	64.547
552.64	61.566
552.98	61.955
553.32	62.268
553.66	64.369
554.00	65.328
554.34	65.140
554.68	62.316
555.02	65.699
555.36	64.099
555.69	63.443
556.03	62.884
556.37	63.203
556.71	64.404
557.05	63.833
557.39	62.602
557.73	63.343
558.07	64.253
558.41	63.936
558.75	64.692
559.08	63.515
559.42	66.508
559.76	66.133
560.10	64.908
560.44	63.142
560.78	64.126
561.12	64.245
561.45	63.668
561.79	64.636
562.13	63.378
562.47	64.964
562.81	63.256
563.15	63.470
563.48	63.083
563.82	63.555
564.16	63.370
564.50	63.514
564.84	62.985
565.17	64.655
565.51	65.369
565.85	62.689
566.19	63.926
566.52	64.611
566.86	61.697
567.20	62.516
567.54	63.321
567.88	62.683
568.21	62.557
568.55	61.902
568.89	62.115
569.23	61.098
569.56	60.639
569.90	61.104
570.24	58.429
570.57	59.418
570.91	59.428
571.25	57.876
571.59	58.580
571.92	56.830
572.26	57.458
572.60	57.333
572.93	56.825
573.27	57.147
573.61	57.876
573.95	56.772
574.28	56.594
574.62	56.013
574.96	55.697
575.29	55.755
575.63	54.962
575.97	56.465
576.30	56.480
576.64	55.709
576.98	56.654
577.31	56.353
577.65	56.720
577.98	55.875
578.32	55.537
578.66	55.040
578.99	55.171
579.33	55.433
579.67	55.741
580.00	57.241
580.34	56.517
580.67	55.737
581.01	56.340
581.35	56.008
581.68	55.599
582.02	55.955
582.35	55.246
582.69	55.980
583.02	56.911
583.36	56.660
583.70	56.802
584.03	58.604
584.37	59.006
584.70	57.005
585.04	56.762
585.37	57.371
585.71	57.665
586.04	57.388
586.38	56.682
586.72	58.651
587.05	59.099
587.39	59.100
587.72	59.677
588.06	58.373
588.39	58.274
588.73	59.554
589.06	59.752
589.40	59.108
589.73	61.081
590.07	61.556
590.40	61.378
590.73	62.026
591.07	61.450
591.40	61.977
591.74	61.719
592.07	61.920
592.41	63.163
592.74	61.649
593.08	59.204
593.41	59.341
593.75	59.208
594.08	60.041
594.41	60.262
594.75	60.649
595.08	60.991
595.42	60.839
595.75	61.510
596.09	61.063
596.42	60.852
596.75	61.901
597.09	61.503
597.42	61.834
597.75	64.224
598.09	61.159
598.42	61.417
598.76	61.133
599.09	61.298
599.42	60.212
599.76	60.798
600.09	59.992
600.42	60.045
600.76	60.996
601.09	60.191
601.42	60.870
601.76	61.612
602.09	62.252
602.42	62.131
602.76	62.649
603.09	61.794
603.42	63.294
603.76	61.774
604.09	61.685
604.42	62.733
604.76	63.596
605.09	62.614
605.42	62.664
605.75	62.697
606.09	62.123
606.42	61.676
606.75	62.078
607.09	62.242
607.42	62.295
607.75	61.590
608.08	61.231
608.42	61.855
608.75	63.277
609.08	63.129
609.41	63.299
609.75	63.710
610.08	63.804
610.41	62.560
610.74	62.750
611.07	63.101
611.41	64.816
611.74	64.392
612.07	63.704
612.40	63.950
612.73	65.367
613.07	65.298
613.40	64.606
613.73	64.857
614.06	63.606
614.39	64.072
614.72	63.417
615.06	64.246
615.39	63.319
615.72	63.294
616.05	64.413
616.38	63.305
616.71	64.281
617.05	65.102
617.38	64.488
617.71	64.906
618.04	65.270
618.37	66.330
618.70	66.865
619.03	68.194
619.36	66.498
619.69	68.309
620.03	67.714
620.36	67.096
620.69	66.809
621.02	66.896
621.35	70.373
621.68	70.068
622.01	69.333
622.34	69.593
622.67	67.192
623.00	68.147
623.33	66.768
623.66	66.193
623.99	66.793
624.32	68.821
624.65	65.714
624.99	69.676
625.32	67.627
625.65	68.107
625.98	67.687
626.31	68.080
626.64	70.191
626.97	71.117
627.30	69.264
627.63	68.804
627.96	71.878
628.29	69.843
628.62	72.763
628.95	71.844
629.28	73.992
629.61	71.186
629.94	72.239
630.26	70.652
630.59	72.737
630.92	73.026
631.25	69.846
631.58	73.458
631.91	73.026
632.24	74.312
632.57	75.909
632.90	74.377
633.23	72.824
633.56	74.433
633.89	75.092
634.22	76.173
634.55	75.731
634.88	74.202
635.20	74.103
635.53	75.867
635.86	75.423
636.19	75.291
636.52	73.980
636.85	73.945
637.18	74.591
637.51	75.346
637.83	75.558
638.16	78.308
638.49	75.613
638.82	76.447
639.15	77.205
639.48	77.442
639.81	75.174
640.13	76.479
640.46	75.364
640.79	78.056
641.12	76.071
641.45	77.628
641.77	79.111
642.10	82.780
642.43	78.135
642.76	79.868
643.09	79.968
643.41	78.155
643.74	77.100
644.07	80.460
644.40	80.574
644.73	84.588
645.05	78.020
645.38	80.423
645.71	78.014
646.04	80.072
646.36	80.142
646.69	82.734
647.02	83.554
647.35	82.649
647.67	79.342
648.00	82.463
648.33	79.181
648.66	78.136
648.98	77.722
649.31	77.521
649.64	77.394
649.96	74.716
650.29	80.239
650.62	77.436
650.94	79.074
651.27	80.074
651.60	79.640
651.92	78.671
652.25	75.488
652.58	76.333
652.90	80.617
653.23	75.966
653.56	77.157
653.88	74.570
654.21	75.657
654.54	75.382
654.86	75.552
655.19	72.953
655.52	65.325
655.84	56.674
656.17	62.480
656.49	84.524
656.82	87.394
657.15	66.883
657.47	50.268
657.80	37.892
658.13	37.537
658.45	58.544
658.78	58.360
659.10	58.081
659.43	60.796
659.75	62.259
660.08	64.414
660.41	70.072
660.73	69.890
661.06	76.950
661.38	78.865
661.71	77.207
662.03	81.330
662.36	83.736
662.68	78.761
663.01	82.314
663.33	80.510
663.66	81.163
663.98	83.488
664.31	79.318
664.63	78.802
664.96	80.217
665.28	75.938
665.61	81.169
665.93	81.304
666.26	79.826
666.58	76.286
666.91	81.882
667.23	81.132
667.56	82.701
667.88	85.132
668.21	82.578
668.53	83.924
668.86	81.368
669.18	80.896
669.50	81.840
669.83	83.953
670.15	82.517
670.48	80.861
670.80	79.493
671.13	77.852
671.45	78.539
671.77	82.403
672.10	77.624
672.42	74.532
672.75	76.377
673.07	76.208
673.39	78.532
673.72	75.740
674.04	77.083
674.37	76.483
674.69	79.657
675.01	80.667
675.34	80.405
675.66	81.019
675.98	80.488
676.31	80.734
676.63	80.760
676.95	78.864
677.28	80.706
677.60	80.723
677.92	79.128
678.25	76.805
678.57	78.139
678.89	75.420
679.22	78.523
679.54	75.703
679.86	73.161
680.18	73.981
680.51	72.917
680.83	75.149
681.15	76.800
681.48	79.098
681.80	75.413
682.12	73.589
682.44	75.314
682.77	81.236
683.09	76.201
683.41	77.727
683.73	77.419
684.06	76.327
684.38	75.269
684.70	78.867
685.02	73.237
685.34	72.925
685.67	73.171
685.99	72.875
686.31	71.150
686.63	70.686
686.96	70.152
687.28	73.131
687.60	72.433
687.92	74.141
688.24	72.177
688.56	75.328
688.89	76.116
689.21	75.111
689.53	77.726
689.85	71.395
690.17	77.232
690.49	76.596
690.82	76.456
691.14	75.952
691.46	73.832
691.78	73.423
692.10	73.118
692.42	74.242
692.74	72.009
693.06	77.703
693.39	70.814
693.71	72.624
694.03	76.674
694.35	75.701
694.67	77.778
694.99	74.935
695.31	75.979
695.63	73.000
695.95	73.232
696.27	74.352
696.59	75.000
696.91	77.591
697.23	70.437
697.56	77.475
697.88	72.473
698.20	72.210
698.52	70.118
698.84	73.206
699.16	73.500
699.48	77.193
699.80	71.464
700.12	77.898
700.44	78.992
700.76	78.488
701.08	78.788
701.40	78.916
701.72	81.790
702.04	81.848
702.36	81.271
702.68	75.375
703.00	77.273
703.32	76.246
703.64	73.729
703.96	75.072
704.28	76.380
704.60	81.905
704.91	76.656
705.23	75.415
705.55	83.392
705.87	83.394
706.19	78.519
706.51	74.914
706.83	76.206
707.15	73.520
707.47	77.031
707.79	71.875
708.11	71.500
708.43	70.000
708.74	69.509
709.06	73.521
709.38	76.147
709.70	76.036
710.02	72.611
710.34	76.780
710.66	69.872
710.98	73.510
711.29	75.738
711.61	77.966
711.93	78.502
712.25	80.756
712.57	76.557
712.89	76.119
713.20	73.356
713.52	81.533
713.84	71.672
714.16	76.976
714.48	76.774
714.80	74.038
715.11	74.772
715.43	66.771
715.75	72.000
716.07	73.090
716.39	75.168
716.70	77.860
717.02	79.008
717.34	77.328
717.66	78.761
717.97	79.130
718.29	79.916
718.61	78.740
718.93	79.457
719.24	75.665
719.56	78.715
719.88	70.790
720.20	71.970
720.51	72.797
720.83	77.992
721.15	79.412
721.46	76.613
721.78	73.913
722.10	70.260
722.42	73.029
722.73	74.694
723.05	76.735
723.37	80.085
723.68	81.982
724.00	75.214
724.32	79.111
724.63	76.818
724.95	79.913
725.27	78.802
725.58	71.610
725.90	68.254
726.22	75.290
726.53	70.169
726.85	71.161
727.16	74.340
727.48	68.421
727.80	72.874
728.11	78.390
728.43	68.235
728.74	72.177
729.06	74.400
729.38	72.556
729.69	73.307
730.01	72.308
730.32	74.627
730.64	63.604
730.96	71.698
731.27	65.667
731.59	66.102
731.90	66.561
732.22	66.246
732.53	67.110
732.85	70.922
733.16	72.054
733.48	67.986
733.80	65.580
734.11	67.458
734.43	68.041
734.74	66.061
735.06	65.472
735.37	65.861
735.69	65.657
736.00	66.551
736.32	66.779
736.63	69.366
736.95	64.846
737.26	68.327
737.58	64.765
737.89	69.963
738.21	65.789
738.52	66.255
738.83	71.616
739.15	75.983
739.46	68.898
739.78	67.766
740.09	63.072
740.41	65.580
740.72	70.079
741.04	67.206
741.35	64.681
741.66	73.934
741.98	73.980
742.29	73.267
742.61	74.346
742.92	69.194
743.23	65.278
743.55	74.208
743.86	77.512
744.18	67.943
744.49	69.149
744.80	75.543
745.12	75.401
745.43	72.683
745.74	76.562
746.06	67.805
746.37	76.440
746.68	72.512
747.00	77.660
747.31	70.647
747.62	71.359
747.94	73.206
748.25	66.337
748.56	77.596
748.88	71.728
749.19	78.723
749.50	72.906
749.82	65.566
750.13	70.183
750.44	63.534
750.75	70.896
751.07	67.153
751.38	64.751
751.69	66.275
752.01	69.380
752.32	65.737
752.63	68.775
752.94	66.379
753.26	69.874
753.57	65.158
753.88	65.929
754.19	63.750
754.51	64.463
754.82	65.182
755.13	71.667
755.44	66.935
755.75	69.531
756.07	68.872
756.38	64.528
756.69	62.069
757.00	63.333
757.31	61.111
757.63	59.451
757.94	58.056
758.25	56.986
758.56	57.979
758.87	56.657
759.18	55.452
759.50	63.273
759.81	61.873
760.12	57.742
760.43	60.303
760.74	59.877
761.05	58.154
761.36	54.545
761.67	63.333
761.99	64.626
762.30	60.364
762.61	63.636
762.92	65.158
763.23	61.261
763.54	70.093
763.85	65.678
764.16	58.506
764.47	59.677
764.78	59.341
765.10	59.596
765.41	57.729
765.72	57.778
766.03	55.263
766.34	59.489
766.65	66.135
766.96	69.192
767.27	66.489
767.58	63.793
767.89	68.794
768.20	63.636
768.51	69.231
768.82	65.517
769.13	59.447
769.44	64.378
769.75	59.361
770.06	58.621
770.37	63.942
770.68	60.406
770.99	58.824
771.30	71.078
771.61	61.086
771.92	62.931
772.23	61.084
772.54	56.989
772.85	67.284
773.16	64.607
773.47	77.124
773.78	66.667
774.09	58.683
774.39	60.667
774.70	64.331
775.01	67.586
775.32	70.714
775.63	66.942
775.94	73.282
776.25	70.079
776.56	60.000
776.87	77.885
777.18	63.248
777.48	70.690
777.79	62.609
778.10	47.619
778.41	70.270
778.72	68.254
779.03	61.654
779.34	60.993
779.65	65.068
779.95	55.479
780.26	61.379
780.57	63.415
780.88	62.992
781.19	61.207
781.50	64.341
781.80	56.805
782.11	57.862
782.42	68.462
782.73	58.273
783.04	65.185
783.34	54.861
783.65	53.846
783.96	68.033
784.27	65.517
784.57	65.041
784.88	51.562
785.19	71.000
785.50	77.000
785.81	60.345
786.11	72.414
786.42	66.990
786.73	60.000
787.04	59.184
787.34	57.143
787.65	67.619
787.96	55.752
788.26	68.182
788.57	65.812
788.88	73.438
789.19	46.825
789.49	65.217
789.80	59.184
790.11	58.586
790.41	58.182
790.72	64.130
791.03	62.500
791.33	76.250
791.64	82.500
791.95	62.791
792.25	70.213
792.56	76.404
792.87	65.753
793.17	73.913
793.48	45.333
793.79	63.750
794.09	60.000
794.40	62.264
794.70	67.961
795.01	62.602
795.32	52.991
795.62	52.381
795.93	56.863
796.23	58.491
796.54	66.667
796.85	88.235
797.15	61.972
797.46	76.389
797.76	80.303
798.07	56.977
798.37	52.632
798.68	65.152
798.99	53.086
799.29	71.429
799.60	63.768
799.90	66.667
800.21	67.213
800.51	60.000
800.82	69.492
801.12	63.768
801.43	83.607
801.73	61.905
802.04	74.000
802.34	53.731
802.65	96.154
802.95	53.571
803.26	59.615
803.56	74.510
803.87	56.522
804.17	57.333
804.48	79.365
804.78	62.963
805.09	69.565
805.39	57.778
805.70	66.667
806.00	43.860
806.30	63.380
806.61	74.286
806.91	55.556
807.22	77.632
807.52	61.333
807.83	74.545
808.13	58.333
808.43	61.765
808.74	56.716
809.04	42.373
809.35	59.615
809.65	78.125
809.95	62.162
810.26	52.273
810.56	46.575
810.86	80.952
811.17	72.000
811.47	67.347
811.77	78.947
812.08	77.273
812.38	52.830
812.69	70.000
812.99	63.636
813.29	81.579
813.59	62.857
813.90	50.000
814.20	58.974
814.50	55.769
814.81	58.491
815.11	65.957
815.41	59.322
815.72	69.048
816.02	68.627
816.32	52.083
816.62	34.146
816.93	59.459
817.23	37.143
817.53	72.917
817.84	47.826
818.14	57.692
818.44	73.684
818.74	100.000
819.04	17.500
819.35	62.162
819.65	82.353
819.95	80.556
820.25	42.857
820.56	85.000
820.86	41.379
821.16	97.500
821.46	48.936
821.76	80.000
822.07	55.814
822.37	45.946
822.67	75.000
822.97	80.952
823.27	67.857
823.57	48.000
823.88	74.074
824.18	82.143
824.48	52.941
824.78	80.645
825.08	104.348
825.38	78.788
825.69	91.667
825.99	60.526
826.29	77.778
826.59	140.000
826.89	47.619
827.19	60.870
827.49	47.500
827.79	85.714
828.09	100.000
828.39	45.455
828.70	83.784
829.00	60.714
829.30	47.619
829.60	96.667
829.90	84.375
830.20	63.158
830.50	48.148
830.80	91.304
831.10	86.364
831.40	66.667
831.70	64.516
832.00	109.524
832.30	28.571
832.60	83.333
832.90	58.621
833.20	35.000
833.50	33.333
833.80	88.889
834.10	69.231
834.40	90.625
834.70	77.778
835.00	126.316
835.30	100.000
835.60	80.000
835.90	83.871
836.20	95.455
836.50	71.429
836.80	23.077
837.10	71.429
837.40	733.333
837.70	104.545
838.00	136.364
838.30	73.913
838.60	100.000
838.90	54.545
839.19	50.000
839.49	43.333
839.79	100.000
840.09	66.667
840.39	117.857
840.69	28.571
840.99	53.846
841.29	15.789
841.59	140.000
841.88	63.636
842.18	110.000
842.48	31.250
842.78	66.667
843.08	37.037
843.38	130.000
843.68	52.174
843.97	53.333
844.27	13.333
844.57	35.000
844.87	83.333
845.17	47.619
845.47	80.000
845.76	61.905
846.06	94.118
846.36	50.000
846.66	57.143
846.96	73.333
847.25	-50.000
847.55	142.857
847.85	37.500
848.15	45.455
848.44	-233.333
848.74	35.000
849.04	66.667
849.34	100.000
849.63	16.667
849.93	60.000
850.23	100.000
850.53	120.000
850.82	69.231
851.12	33.333
851.42	60.000
851.71	61.538
852.01	114.286
852.31	100.000
852.61	36.364
852.90	40.000
853.20	84.211
853.50	41.667
853.79	69.565
854.09	100.000
854.39	42.105
854.68	25.000
854.98	64.516
855.28	38.462
855.57	50.000
855.87	111.111
856.17	92.593
856.46	78.571
856.76	6.667
857.05	122.222
857.35	60.000
857.65	100.000
857.94	30.769
858.24	62.069
858.53	138.889
858.83	40.741
859.13	13.636
859.42	30.435
859.72	325.000
860.01	100.000
860.31	76.000
860.60	85.714
860.90	-266.667
861.20	13.333
861.49	-50.000
861.79	66.667
862.08	25.000
862.38	180.000
862.67	180.000
862.97	33.333
863.26	83.333
863.56	100.000
863.85	166.667
864.15	88.889
864.44	110.000
864.74	135.714
865.03	-100.000
865.33	-20.000
865.62	216.667
865.92	66.667
866.21	150.000
866.51	68.750
866.80	-18.182
867.10	300.000
867.39	141.667
867.69	0.000
867.98	92.308
868.27	300.000
868.57	-20.000
868.86	94.444
869.16	23.077
869.45	73.333
869.75	600.000
870.04	0.000
870.33	142.857
870.63	71.429
870.92	-33.333
871.22	-60.000
871.51	300.000
871.80	188.889
872.10	-266.667
>>>>>End Processed Spectral Data<<<<<
