SpectraSuite Data File
++++++++++++++++++++++++++++++++++++
Date: Fri May 15 17:26:38 PDT 2015
User: schluterlab
Dark Spectrum Present: Yes
Reference Spectrum Present: Yes
Number of Sampled Component Spectra: 1
Spectrometers: USB2E3373
Integration Time (usec): 3000 (USB2E3373)
Spectra Averaged: 3 (USB2E3373)
Boxcar Smoothing: 0 (USB2E3373)
Correct for Electrical Dark: No (USB2E3373)
Strobe/Lamp Enabled: No (USB2E3373)
Correct for Detector Non-linearity: No (USB2E3373)
Correct for Stray Light: No (USB2E3373)
Number of Pixels in Processed Spectrum: 2048
>>>>>Begin Processed Spectral Data<<<<<
178.53	0.000
178.91	0.000
179.29	187.500
179.67	-550.000
180.04	28.571
180.42	100.000
180.80	400.000
181.18	-100.000
181.56	250.000
181.94	300.000
182.31	-200.000
182.69	0.000
183.07	-500.000
183.45	0.000
183.83	50.000
184.20	72.727
184.58	22.222
184.96	-75.000
185.34	-200.000
185.72	0.000
186.09	69.231
186.47	-200.000
186.85	150.000
187.23	-11.111
187.61	-1300.000
187.98	-200.000
188.36	66.667
188.74	-100.000
189.12	52.941
189.49	27.778
189.87	0.000
190.25	-21.429
190.63	350.000
191.00	100.000
191.38	15.789
191.76	350.000
192.14	200.000
192.51	100.000
192.89	-33.333
193.27	-42.857
193.65	150.000
194.02	27.273
194.40	30.000
194.78	-162.500
195.15	8.333
195.53	-112.500
195.91	250.000
196.29	-25.000
196.66	46.154
197.04	-14.286
197.42	-66.667
197.79	-300.000
198.17	-23.077
198.55	1400.000
198.92	-300.000
199.30	-400.000
199.68	-20.000
200.05	-300.000
200.43	0.000
200.81	200.000
201.18	-133.333
201.56	300.000
201.94	150.000
202.31	-433.333
202.69	-100.000
203.07	-75.000
203.44	400.000
203.82	0.000
204.19	50.000
204.57	-100.000
204.95	75.000
205.32	10.000
205.70	-28.571
206.08	-25.000
206.45	277.778
206.83	100.000
207.20	-114.286
207.58	100.000
207.96	-566.667
208.33	-20.000
208.71	-150.000
209.08	-133.333
209.46	-800.000
209.84	-120.000
210.21	1000.000
210.59	100.000
210.96	-150.000
211.34	-50.000
211.71	0.000
212.09	-28.571
212.46	-1700.000
212.84	0.000
213.22	110.000
213.59	200.000
213.97	-15.385
214.34	36.364
214.72	166.667
215.09	300.000
215.47	15.385
215.84	27.273
216.22	-100.000
216.59	-50.000
216.97	450.000
217.34	-150.000
217.72	-140.000
218.09	100.000
218.47	137.500
218.84	-300.000
219.22	-44.444
219.59	60.000
219.97	333.333
220.34	275.000
220.72	100.000
221.09	-75.000
221.47	150.000
221.84	0.000
222.22	-250.000
222.59	81.818
222.97	58.333
223.34	-133.333
223.72	-35.714
224.09	4.762
224.46	42.857
224.84	333.333
225.21	-60.000
225.59	6.667
225.96	350.000
226.34	175.000
226.71	-85.714
227.08	-66.667
227.46	50.000
227.83	-300.000
228.21	-11.111
228.58	100.000
228.95	87.500
229.33	110.000
229.70	37.500
230.08	-25.000
230.45	-85.714
230.82	142.857
231.20	-13.333
231.57	64.286
231.95	-85.714
232.32	-90.000
232.69	71.429
233.07	200.000
233.44	-120.000
233.81	-30.000
234.19	133.333
234.56	52.941
234.93	-150.000
235.31	275.000
235.68	-40.000
236.05	7.692
236.43	15.000
236.80	-5.882
237.17	71.875
237.55	5.000
237.92	44.444
238.29	27.778
238.67	36.667
239.04	29.412
239.41	24.390
239.79	30.000
240.16	63.415
240.53	55.263
240.91	30.435
241.28	42.857
241.65	37.500
242.02	50.685
242.40	61.667
242.77	40.678
243.14	48.485
243.51	45.000
243.89	54.023
244.26	42.529
244.63	48.810
245.00	54.639
245.38	64.948
245.75	35.955
246.12	47.414
246.49	45.455
246.87	55.769
247.24	44.538
247.61	35.088
247.98	47.967
248.36	49.375
248.73	51.974
249.10	47.403
249.47	48.101
249.84	48.366
250.22	49.412
250.59	54.248
250.96	52.582
251.33	45.930
251.70	58.235
252.08	45.178
252.45	46.535
252.82	58.794
253.19	48.387
253.56	48.131
253.94	52.703
254.31	54.783
254.68	52.193
255.05	46.850
255.42	53.712
255.79	48.649
256.16	57.198
256.54	51.866
256.91	53.612
257.28	48.327
257.65	49.813
258.02	52.128
258.39	47.475
258.76	52.381
259.14	55.814
259.51	49.838
259.88	48.797
260.25	49.020
260.62	53.125
260.99	52.881
261.36	47.945
261.73	49.367
262.10	50.456
262.47	50.613
262.85	51.724
263.22	49.231
263.59	54.829
263.96	50.621
264.33	53.939
264.70	50.893
265.07	50.298
265.44	52.125
265.81	48.588
266.18	53.552
266.55	51.928
266.92	51.295
267.29	50.653
267.66	50.384
268.03	52.094
268.40	50.392
268.77	50.802
269.14	49.880
269.51	51.157
269.88	48.878
270.25	48.980
270.62	49.024
270.99	50.895
271.36	47.922
271.73	48.592
272.10	50.122
272.47	54.610
272.84	49.257
273.21	50.812
273.58	50.843
273.95	50.343
274.32	49.885
274.69	46.606
275.06	50.000
275.43	50.567
275.80	51.656
276.17	50.805
276.54	47.752
276.91	49.561
277.28	47.162
277.65	48.347
278.02	48.085
278.39	47.921
278.76	48.637
279.13	46.680
279.50	48.950
279.87	46.868
280.23	47.312
280.60	46.589
280.97	45.657
281.34	47.308
281.71	49.487
282.08	48.671
282.45	47.945
282.82	46.525
283.19	48.162
283.56	47.206
283.92	47.249
284.29	48.654
284.66	43.411
285.03	46.365
285.40	46.503
285.77	42.882
286.14	46.390
286.51	48.155
286.87	44.059
287.24	46.225
287.61	45.503
287.98	44.211
288.35	43.674
288.72	42.732
289.08	45.660
289.45	45.694
289.82	44.930
290.19	41.638
290.56	44.082
290.93	41.751
291.29	41.448
291.66	41.732
292.03	42.265
292.40	41.774
292.77	41.148
293.13	38.636
293.50	37.785
293.87	40.000
294.24	40.185
294.60	38.599
294.97	38.988
295.34	38.650
295.71	38.450
296.08	37.369
296.44	36.273
296.81	36.250
297.18	38.551
297.55	39.431
297.91	35.616
298.28	35.752
298.65	35.278
299.02	35.714
299.38	33.926
299.75	35.724
300.12	35.733
300.48	36.232
300.85	34.981
301.22	35.974
301.59	32.632
301.95	34.177
302.32	34.501
302.69	33.458
303.05	33.416
303.42	34.247
303.79	33.762
304.15	34.648
304.52	32.818
304.89	33.333
305.25	33.051
305.62	31.155
305.99	32.398
306.35	32.486
306.72	32.171
307.09	31.129
307.45	33.180
307.82	31.713
308.19	33.566
308.55	30.752
308.92	31.590
309.29	31.620
309.65	30.248
310.02	30.913
310.38	33.041
310.75	32.568
311.12	30.678
311.48	31.813
311.85	28.796
312.22	29.536
312.58	31.210
312.95	29.989
313.31	32.091
313.68	30.471
314.05	31.735
314.41	31.134
314.78	30.928
315.14	30.730
315.51	31.470
315.87	30.738
316.24	32.255
316.61	30.217
316.97	30.754
317.34	30.371
317.70	31.358
318.07	29.712
318.43	30.294
318.80	29.545
319.16	31.250
319.53	31.909
319.89	30.217
320.26	29.656
320.62	31.294
320.99	27.662
321.35	29.085
321.72	29.907
322.08	31.017
322.45	30.660
322.81	29.470
323.18	29.931
323.54	28.378
323.91	29.990
324.27	30.469
324.64	29.963
325.00	30.292
325.37	30.303
325.73	28.558
326.10	30.518
326.46	29.596
326.83	29.484
327.19	29.032
327.56	29.018
327.92	30.370
328.29	28.214
328.65	29.906
329.01	28.676
329.38	29.124
329.74	28.801
330.11	28.916
330.47	29.128
330.84	29.038
331.20	30.798
331.56	28.241
331.93	28.493
332.29	28.781
332.66	28.869
333.02	27.881
333.38	27.864
333.75	29.853
334.11	27.305
334.48	28.286
334.84	29.029
335.20	28.637
335.57	27.833
335.93	27.823
336.29	27.901
336.66	27.793
337.02	27.416
337.38	27.222
337.75	27.182
338.11	28.945
338.47	28.741
338.84	27.449
339.20	28.245
339.56	27.706
339.93	27.574
340.29	29.450
340.65	28.495
341.02	27.216
341.38	27.345
341.74	28.269
342.11	26.863
342.47	28.559
342.83	27.422
343.20	27.265
343.56	28.261
343.92	28.432
344.28	27.754
344.65	27.029
345.01	27.053
345.37	27.839
345.73	26.946
346.10	28.473
346.46	27.082
346.82	27.250
347.19	26.850
347.55	27.736
347.91	27.346
348.27	26.839
348.63	26.576
349.00	26.825
349.36	26.517
349.72	27.363
350.08	27.049
350.45	27.773
350.81	26.246
351.17	25.651
351.53	27.673
351.89	27.085
352.26	26.320
352.62	26.371
352.98	26.345
353.34	27.053
353.70	26.537
354.07	26.290
354.43	25.941
354.79	25.846
355.15	27.143
355.51	26.028
355.87	26.780
356.24	25.693
356.60	25.707
356.96	26.111
357.32	26.198
357.68	25.410
358.04	26.575
358.40	25.241
358.77	25.678
359.13	25.701
359.49	25.347
359.85	24.727
360.21	25.997
360.57	25.631
360.93	24.811
361.29	24.698
361.66	25.784
362.02	26.364
362.38	25.743
362.74	25.662
363.10	26.260
363.46	26.093
363.82	26.747
364.18	25.240
364.54	25.368
364.90	25.090
365.26	25.473
365.62	26.058
365.98	25.953
366.35	27.385
366.71	25.573
367.07	26.270
367.43	25.953
367.79	25.159
368.15	25.054
368.51	25.346
368.87	24.838
369.23	24.549
369.59	25.364
369.95	26.320
370.31	25.578
370.67	25.597
371.03	23.824
371.39	25.091
371.75	24.835
372.11	24.893
372.47	24.926
372.83	24.556
373.19	24.608
373.55	24.404
373.91	24.982
374.27	26.223
374.63	25.197
374.99	24.965
375.35	25.627
375.71	25.455
376.07	25.702
376.42	25.306
376.78	25.034
377.14	24.441
377.50	24.502
377.86	25.100
378.22	25.271
378.58	24.744
378.94	24.701
379.30	24.891
379.66	25.956
380.02	23.850
380.38	24.224
380.74	24.536
381.09	25.644
381.45	25.260
381.81	24.676
382.17	24.175
382.53	24.485
382.89	24.294
383.25	25.451
383.61	24.878
383.97	23.746
384.32	24.765
384.68	24.768
385.04	23.713
385.40	24.144
385.76	24.906
386.12	25.162
386.48	24.649
386.83	24.413
387.19	24.908
387.55	25.345
387.91	23.961
388.27	24.298
388.62	24.984
388.98	25.414
389.34	24.610
389.70	24.736
390.06	24.166
390.42	24.352
390.77	24.787
391.13	24.086
391.49	24.191
391.85	25.211
392.20	24.608
392.56	24.158
392.92	25.015
393.28	24.882
393.64	24.024
393.99	25.016
394.35	24.478
394.71	25.096
395.07	24.513
395.42	24.226
395.78	25.212
396.14	24.464
396.50	25.428
396.85	25.499
397.21	23.622
397.57	24.702
397.92	24.865
398.28	25.057
398.64	24.458
399.00	24.831
399.35	23.363
399.71	24.067
400.07	24.849
400.42	24.480
400.78	24.434
401.14	24.017
401.49	24.181
401.85	24.314
402.21	24.337
402.57	24.625
402.92	23.526
403.28	24.875
403.63	24.779
403.99	24.554
404.35	25.422
404.70	25.179
405.06	24.971
405.42	24.425
405.77	23.823
406.13	24.622
406.49	24.097
406.84	25.306
407.20	24.985
407.55	24.276
407.91	25.334
408.27	23.518
408.62	24.062
408.98	24.399
409.34	24.659
409.69	24.548
410.05	23.707
410.40	24.630
410.76	24.005
411.11	24.500
411.47	24.984
411.83	23.415
412.18	25.097
412.54	24.532
412.89	23.461
413.25	24.428
413.60	24.286
413.96	25.153
414.31	24.390
414.67	23.926
415.03	22.437
415.38	24.021
415.74	24.821
416.09	25.278
416.45	24.578
416.80	25.446
417.16	23.550
417.51	24.783
417.87	25.489
418.22	25.065
418.58	24.950
418.93	24.514
419.29	22.919
419.64	24.627
420.00	26.071
420.35	24.358
420.71	24.727
421.06	24.494
421.42	25.120
421.77	25.029
422.12	23.893
422.48	24.418
422.83	24.478
423.19	24.718
423.54	23.986
423.90	24.558
424.25	24.110
424.61	24.725
424.96	24.332
425.31	25.708
425.67	24.413
426.02	24.676
426.38	24.233
426.73	24.879
427.09	25.759
427.44	25.529
427.79	24.750
428.15	25.182
428.50	24.652
428.85	23.280
429.21	24.788
429.56	24.259
429.92	24.705
430.27	24.912
430.62	24.726
430.98	23.832
431.33	24.763
431.68	24.490
432.04	25.042
432.39	24.643
432.74	25.496
433.10	25.920
433.45	25.209
433.80	24.086
434.16	23.934
434.51	24.785
434.86	24.332
435.22	24.509
435.57	25.390
435.92	24.850
436.28	24.210
436.63	24.586
436.98	24.160
437.34	24.682
437.69	25.343
438.04	24.046
438.39	23.580
438.75	24.954
439.10	23.939
439.45	24.893
439.81	24.832
440.16	24.881
440.51	24.955
440.86	25.619
441.22	23.360
441.57	24.393
441.92	24.502
442.27	24.612
442.63	24.786
442.98	24.641
443.33	23.873
443.68	24.615
444.03	25.484
444.39	24.693
444.74	25.251
445.09	25.000
445.44	24.615
445.79	25.374
446.15	24.394
446.50	24.847
446.85	24.867
447.20	24.505
447.55	25.335
447.91	24.253
448.26	24.986
448.61	24.986
448.96	24.727
449.31	24.451
449.66	25.203
450.02	25.157
450.37	24.659
450.72	24.628
451.07	24.810
451.42	24.906
451.77	24.533
452.12	24.222
452.47	24.469
452.83	24.853
453.18	24.984
453.53	24.463
453.88	24.408
454.23	24.770
454.58	25.504
454.93	25.129
455.28	24.381
455.63	24.551
455.98	25.015
456.34	24.457
456.69	25.159
457.04	25.268
457.39	24.727
457.74	23.881
458.09	23.955
458.44	24.517
458.79	23.810
459.14	25.400
459.49	25.015
459.84	25.212
460.19	24.393
460.54	24.267
460.89	25.739
461.24	25.093
461.59	25.534
461.94	24.654
462.29	26.176
462.64	25.515
462.99	25.051
463.34	24.965
463.69	24.196
464.04	25.303
464.39	24.985
464.74	24.233
465.09	25.203
465.44	25.274
465.79	24.036
466.14	24.914
466.49	24.267
466.84	24.688
467.19	24.406
467.54	24.202
467.89	24.953
468.24	24.818
468.59	25.587
468.94	25.016
469.29	25.049
469.64	25.564
469.99	24.737
470.34	24.846
470.68	25.130
471.03	24.416
471.38	24.964
471.73	25.000
472.08	25.305
472.43	25.235
472.78	23.989
473.13	24.694
473.48	25.472
473.83	23.910
474.17	25.712
474.52	25.335
474.87	24.788
475.22	24.649
475.57	24.958
475.92	25.507
476.27	25.728
476.61	25.752
476.96	24.651
477.31	25.149
477.66	25.000
478.01	25.098
478.36	24.020
478.70	24.579
479.05	25.714
479.40	25.649
479.75	24.557
480.10	23.810
480.45	25.250
480.79	24.924
481.14	25.154
481.49	25.025
481.84	24.083
482.19	24.088
482.53	25.420
482.88	25.155
483.23	24.376
483.58	24.623
483.92	24.056
484.27	23.200
484.62	24.204
484.97	24.295
485.31	24.097
485.66	23.885
486.01	24.219
486.36	23.869
486.70	24.396
487.05	24.235
487.40	24.845
487.75	24.732
488.09	24.258
488.44	24.175
488.79	24.580
489.13	25.080
489.48	24.583
489.83	24.753
490.17	25.124
490.52	24.942
490.87	24.988
491.22	25.263
491.56	24.526
491.91	24.187
492.26	23.918
492.60	24.184
492.95	25.381
493.30	23.644
493.64	25.000
493.99	25.217
494.34	24.854
494.68	25.048
495.03	24.526
495.37	24.681
495.72	25.290
496.07	25.073
496.41	24.528
496.76	24.735
497.11	24.639
497.45	25.107
497.80	24.975
498.14	24.391
498.49	24.937
498.84	24.351
499.18	25.100
499.53	24.504
499.87	24.416
500.22	24.481
500.56	25.214
500.91	24.749
501.26	24.815
501.60	24.348
501.95	25.133
502.29	25.085
502.64	25.097
502.98	25.062
503.33	24.207
503.67	24.337
504.02	25.806
504.36	25.037
504.71	25.000
505.06	24.107
505.40	24.061
505.75	25.464
506.09	24.835
506.44	25.103
506.78	25.051
507.13	24.819
507.47	24.700
507.82	24.412
508.16	24.511
508.51	24.711
508.85	25.222
509.19	24.481
509.54	25.147
509.88	24.703
510.23	24.744
510.57	25.227
510.92	23.614
511.26	24.932
511.61	24.477
511.95	25.151
512.30	24.557
512.64	25.264
512.98	24.537
513.33	25.630
513.67	24.901
514.02	25.572
514.36	25.486
514.70	25.408
515.05	24.031
515.39	24.852
515.74	25.449
516.08	26.240
516.42	26.266
516.77	26.273
517.11	24.510
517.46	25.434
517.80	24.911
518.14	24.923
518.49	25.661
518.83	26.185
519.17	25.409
519.52	24.571
519.86	24.790
520.20	24.666
520.55	24.891
520.89	25.784
521.23	24.256
521.58	25.489
521.92	25.641
522.26	25.439
522.61	25.714
522.95	26.225
523.29	25.413
523.64	25.667
523.98	26.118
524.32	25.129
524.66	25.608
525.01	26.039
525.35	25.275
525.69	25.185
526.04	25.066
526.38	26.005
526.72	24.199
527.06	24.903
527.41	25.396
527.75	24.799
528.09	24.385
528.43	25.793
528.78	25.017
529.12	25.290
529.46	25.926
529.80	24.953
530.15	25.611
530.49	25.791
530.83	25.581
531.17	25.722
531.51	26.539
531.86	25.153
532.20	25.957
532.54	25.255
532.88	25.873
533.22	25.874
533.57	24.967
533.91	25.131
534.25	26.367
534.59	25.144
534.93	25.110
535.27	24.365
535.62	25.146
535.96	25.440
536.30	25.594
536.64	25.706
536.98	24.669
537.32	26.387
537.66	25.105
538.01	26.084
538.35	25.104
538.69	25.300
539.03	24.744
539.37	25.370
539.71	25.153
540.05	25.730
540.39	25.139
540.73	24.686
541.07	25.691
541.42	25.000
541.76	25.740
542.10	24.570
542.44	25.226
542.78	24.226
543.12	24.657
543.46	25.591
543.80	25.399
544.14	24.299
544.48	25.316
544.82	25.154
545.16	24.727
545.50	25.033
545.84	26.629
546.18	26.028
546.52	25.090
546.86	24.587
547.20	24.678
547.54	24.382
547.88	25.068
548.22	24.260
548.56	24.142
548.90	25.539
549.24	25.000
549.58	25.882
549.92	24.089
550.26	24.835
550.60	25.502
550.94	26.064
551.28	24.343
551.62	27.462
551.96	25.113
552.30	24.854
552.64	24.824
552.98	25.387
553.32	25.392
553.66	24.673
554.00	24.234
554.34	26.219
554.68	25.737
555.02	25.893
555.36	25.056
555.69	25.055
556.03	22.769
556.37	24.342
556.71	25.054
557.05	24.758
557.39	25.651
557.73	25.562
558.07	25.264
558.41	24.196
558.75	25.955
559.08	24.586
559.42	24.365
559.76	25.380
560.10	25.076
560.44	24.348
560.78	24.825
561.12	24.683
561.45	26.072
561.79	25.210
562.13	25.195
562.47	23.957
562.81	25.360
563.15	25.529
563.48	25.177
563.82	24.846
564.16	25.209
564.50	24.189
564.84	24.565
565.17	24.614
565.51	25.205
565.85	26.132
566.19	25.000
566.52	25.201
566.86	25.707
567.20	24.533
567.54	24.939
567.88	25.542
568.21	25.226
568.55	24.946
568.89	24.230
569.23	24.892
569.56	24.212
569.90	24.848
570.24	24.302
570.57	24.691
570.91	25.026
571.25	24.071
571.59	24.696
571.92	23.763
572.26	24.004
572.60	23.690
572.93	24.223
573.27	23.511
573.61	24.284
573.95	24.031
574.28	24.153
574.62	23.519
574.96	24.233
575.29	23.498
575.63	23.503
575.97	23.990
576.30	23.419
576.64	23.232
576.98	24.402
577.31	24.158
577.65	23.968
577.98	24.134
578.32	23.983
578.66	23.727
578.99	23.631
579.33	23.657
579.67	23.467
580.00	23.924
580.34	24.154
580.67	22.948
581.01	23.679
581.35	23.730
581.68	23.991
582.02	23.564
582.35	24.048
582.69	23.958
583.02	23.756
583.36	23.515
583.70	24.455
584.03	24.409
584.37	24.562
584.70	23.901
585.04	23.497
585.37	23.563
585.71	23.328
586.04	23.777
586.38	23.553
586.72	23.472
587.05	24.581
587.39	24.574
587.72	24.248
588.06	23.748
588.39	23.811
588.73	24.542
589.06	24.299
589.40	23.954
589.73	24.279
590.07	24.698
590.40	24.303
590.73	24.382
591.07	23.707
591.40	24.310
591.74	24.118
592.07	24.490
592.41	24.735
592.74	24.014
593.08	23.507
593.41	23.657
593.75	23.847
594.08	23.721
594.41	23.981
594.75	23.855
595.08	24.215
595.42	24.328
595.75	24.071
596.09	24.316
596.42	23.811
596.75	24.423
597.09	24.282
597.42	24.661
597.75	24.279
598.09	23.812
598.42	23.240
598.76	23.895
599.09	24.319
599.42	23.797
599.76	23.740
600.09	24.133
600.42	23.806
600.76	23.440
601.09	23.206
601.42	23.541
601.76	23.581
602.09	23.515
602.42	24.263
602.76	23.981
603.09	24.585
603.42	24.498
603.76	24.395
604.09	23.694
604.42	24.196
604.76	24.433
605.09	24.132
605.42	24.605
605.75	24.343
606.09	24.246
606.42	23.603
606.75	24.069
607.09	23.692
607.42	23.881
607.75	24.201
608.08	23.944
608.42	23.298
608.75	24.530
609.08	24.464
609.41	23.959
609.75	24.446
610.08	23.265
610.41	23.961
610.74	24.525
611.07	24.083
611.41	24.338
611.74	25.320
612.07	23.769
612.40	24.672
612.73	23.390
613.07	24.184
613.40	24.562
613.73	23.671
614.06	24.652
614.39	23.914
614.72	24.202
615.06	24.693
615.39	23.745
615.72	23.305
616.05	24.134
616.38	23.248
616.71	24.404
617.05	23.904
617.38	24.513
617.71	23.774
618.04	25.206
618.37	25.914
618.70	24.488
619.03	24.167
619.36	23.806
619.69	25.095
620.03	25.712
620.36	25.107
620.69	24.625
621.02	25.076
621.35	25.477
621.68	24.575
622.01	24.833
622.34	24.980
622.67	25.079
623.00	24.196
623.33	25.305
623.66	23.934
623.99	24.735
624.32	25.399
624.65	23.910
624.99	25.357
625.32	24.109
625.65	26.002
625.98	25.302
626.31	24.522
626.64	25.217
626.97	25.393
627.30	25.657
627.63	23.397
627.96	26.235
628.29	23.867
628.62	25.172
628.95	24.649
629.28	26.310
629.61	24.227
629.94	26.588
630.26	24.802
630.59	25.911
630.92	26.256
631.25	24.308
631.58	24.780
631.91	25.219
632.24	26.261
632.57	25.682
632.90	25.504
633.23	26.824
633.56	24.811
633.89	24.168
634.22	24.691
634.55	24.905
634.88	24.521
635.20	22.949
635.53	25.333
635.86	22.887
636.19	27.296
636.52	25.128
636.85	24.938
637.18	23.270
637.51	26.792
637.83	24.573
638.16	26.603
638.49	23.297
638.82	26.974
639.15	25.102
639.48	23.659
639.81	26.081
640.13	25.108
640.46	25.510
640.79	24.595
641.12	25.406
641.45	24.174
641.77	26.519
642.10	27.172
642.43	23.955
642.76	27.723
643.09	26.817
643.41	25.566
643.74	26.524
644.07	26.437
644.40	27.872
644.73	27.846
645.05	25.839
645.38	26.984
645.71	24.823
646.04	25.494
646.36	25.177
646.69	26.619
647.02	25.142
647.35	25.373
647.67	27.057
648.00	26.866
648.33	27.474
648.66	26.610
648.98	24.288
649.31	25.620
649.64	25.903
649.96	24.311
650.29	25.554
650.62	26.154
650.94	24.815
651.27	24.022
651.60	26.126
651.92	27.797
652.25	24.867
652.58	24.500
652.90	26.758
653.23	25.378
653.56	25.042
653.88	24.742
654.21	24.343
654.54	24.958
654.86	23.939
655.19	25.292
655.52	24.613
655.84	22.848
656.17	26.305
656.49	35.573
656.82	37.394
657.15	27.988
657.47	20.484
657.80	15.346
658.13	15.051
658.45	22.837
658.78	22.991
659.10	22.980
659.43	22.712
659.75	23.582
660.08	22.828
660.41	23.698
660.73	25.414
661.06	26.516
661.38	25.049
661.71	25.051
662.03	27.468
662.36	25.495
662.68	25.221
663.01	29.039
663.33	22.970
663.66	24.884
663.98	25.814
664.31	26.226
664.63	24.424
664.96	24.783
665.28	24.724
665.61	26.190
665.93	25.217
666.26	25.597
666.58	25.503
666.91	23.529
667.23	28.538
667.56	27.014
667.88	24.460
668.21	24.821
668.53	26.478
668.86	24.292
669.18	23.349
669.50	25.424
669.83	25.116
670.15	26.573
670.48	27.273
670.80	27.650
671.13	24.832
671.45	21.918
671.77	27.468
672.10	23.168
672.42	26.030
672.75	25.933
673.07	29.696
673.39	24.954
673.72	23.866
674.04	24.792
674.37	23.941
674.69	27.195
675.01	24.667
675.34	25.901
675.66	25.926
675.98	26.386
676.31	26.606
676.63	25.891
676.95	24.545
677.28	26.118
677.60	28.193
677.92	22.248
678.25	25.821
678.57	26.623
678.89	25.630
679.22	24.832
679.54	26.506
679.86	20.477
680.18	25.437
680.51	26.515
680.83	22.664
681.15	24.600
681.48	26.844
681.80	25.620
682.12	24.798
682.44	23.431
682.77	26.269
683.09	22.426
683.41	21.136
683.73	23.502
684.06	23.230
684.38	23.441
684.70	27.887
685.02	27.386
685.34	24.506
685.67	24.578
685.99	24.774
686.31	24.071
686.63	25.603
686.96	23.004
687.28	21.414
687.60	22.243
687.92	26.061
688.24	25.000
688.56	25.109
688.89	26.562
689.21	24.889
689.53	25.290
689.85	23.488
690.17	26.563
690.49	24.586
690.82	24.029
691.14	23.810
691.46	21.495
691.78	26.351
692.10	25.806
692.42	24.892
692.74	22.650
693.06	26.126
693.39	24.434
693.71	24.661
694.03	21.940
694.35	26.636
694.67	23.232
694.99	24.543
695.31	27.154
695.63	26.000
695.95	23.990
696.27	23.316
696.59	23.611
696.91	24.650
697.23	24.936
697.56	26.485
697.88	24.301
698.20	25.057
698.52	25.412
698.84	20.335
699.16	24.500
699.48	24.812
699.80	23.077
700.12	24.259
700.44	23.249
700.76	23.256
701.08	22.727
701.40	25.904
701.72	28.704
702.04	25.743
702.36	22.408
702.68	22.222
703.00	22.727
703.32	22.581
703.64	23.446
703.96	22.609
704.28	23.620
704.60	26.349
704.91	22.713
705.23	22.591
705.55	27.208
705.87	25.271
706.19	27.778
706.51	25.773
706.83	21.222
707.15	22.118
707.47	22.409
707.79	20.052
708.11	27.250
708.43	23.000
708.74	27.132
709.06	26.479
709.38	25.688
709.70	24.260
710.02	29.299
710.34	26.316
710.66	20.833
710.98	24.503
711.29	23.934
711.61	25.085
711.93	27.362
712.25	26.117
712.57	22.344
712.89	25.000
713.20	26.644
713.52	23.693
713.84	24.573
714.16	20.275
714.48	22.581
714.80	25.962
715.11	23.404
715.43	24.138
715.75	23.667
716.07	21.927
716.39	22.819
716.70	19.188
717.02	25.954
717.34	26.721
717.66	22.124
717.97	26.087
718.29	20.921
718.61	22.835
718.93	18.992
719.24	27.376
719.56	24.498
719.88	25.086
720.20	28.409
720.51	22.222
720.83	24.710
721.15	25.630
721.46	23.387
721.78	24.111
722.10	24.164
722.42	19.917
722.73	27.347
723.05	30.204
723.37	29.661
723.68	27.027
724.00	23.504
724.32	20.889
724.63	27.273
724.95	27.511
725.27	23.502
725.58	23.729
725.90	25.000
726.22	22.394
726.53	26.102
726.85	24.719
727.16	28.302
727.48	23.482
727.80	27.126
728.11	22.881
728.43	24.706
728.74	20.161
729.06	24.000
729.38	27.820
729.69	20.717
730.01	19.615
730.32	27.612
730.64	21.201
730.96	23.774
731.27	21.667
731.59	26.441
731.90	21.019
732.22	27.760
732.53	25.581
732.85	24.113
733.16	26.936
733.48	23.381
733.80	23.551
734.11	23.729
734.43	25.086
734.74	23.030
735.06	22.150
735.37	25.378
735.69	22.896
736.00	19.512
736.32	21.812
736.63	26.056
736.95	22.867
737.26	22.420
737.58	25.168
737.89	24.176
738.21	24.436
738.52	23.868
738.83	24.017
739.15	18.341
739.46	27.165
739.78	19.780
740.09	22.222
740.41	21.377
740.72	18.898
741.04	23.077
741.35	23.404
741.66	18.009
741.98	24.490
742.29	22.277
742.61	20.942
742.92	17.062
743.23	23.148
743.55	25.792
743.86	24.880
744.18	22.967
744.49	22.340
744.80	22.283
745.12	25.668
745.43	20.488
745.74	26.562
746.06	23.902
746.37	28.272
746.68	19.431
747.00	18.085
747.31	27.861
747.62	22.330
747.94	24.880
748.25	21.287
748.56	24.590
748.88	22.513
749.19	29.787
749.50	21.182
749.82	14.623
750.13	19.725
750.44	25.188
750.75	24.627
751.07	30.292
751.38	22.605
751.69	22.745
752.01	26.744
752.32	24.701
752.63	19.763
752.94	19.397
753.26	30.544
753.57	24.887
753.88	19.912
754.19	23.333
754.51	17.355
754.82	28.745
755.13	27.083
755.44	24.194
755.75	26.953
756.07	22.957
756.38	19.245
756.69	23.372
757.00	23.333
757.31	25.490
757.63	17.988
757.94	25.278
758.25	21.096
758.56	22.872
758.87	22.096
759.18	22.430
759.50	21.091
759.81	25.753
760.12	23.871
760.43	23.636
760.74	23.457
761.05	26.462
761.36	21.591
761.67	24.545
761.99	24.490
762.30	20.364
762.61	21.344
762.92	22.624
763.23	22.072
763.54	20.561
763.85	23.729
764.16	28.631
764.47	21.371
764.78	19.780
765.10	24.916
765.41	20.820
765.72	25.079
766.03	17.293
766.34	20.438
766.65	25.100
766.96	22.222
767.27	23.936
767.58	17.816
767.89	12.766
768.20	25.000
768.51	25.824
768.82	24.631
769.13	23.502
769.44	20.601
769.75	19.178
770.06	25.000
770.37	19.231
770.68	21.827
770.99	19.457
771.30	27.451
771.61	25.339
771.92	25.000
772.23	28.079
772.54	29.032
772.85	27.160
773.16	23.034
773.47	33.987
773.78	26.797
774.09	20.359
774.39	26.000
774.70	21.656
775.01	29.655
775.32	22.143
775.63	22.314
775.94	18.321
776.25	20.472
776.56	17.500
776.87	18.269
777.18	16.239
777.48	24.138
777.79	17.391
778.10	15.238
778.41	18.919
778.72	26.984
779.03	21.805
779.34	24.113
779.65	21.918
779.95	23.973
780.26	26.897
780.57	17.886
780.88	25.197
781.19	24.138
781.50	26.357
781.80	20.118
782.11	15.723
782.42	24.615
782.73	25.180
783.04	12.593
783.34	22.917
783.65	10.256
783.96	32.787
784.27	27.586
784.57	30.081
784.88	23.437
785.19	30.000
785.50	33.000
785.81	25.000
786.11	17.241
786.42	20.388
786.73	37.273
787.04	25.510
787.34	16.964
787.65	20.952
787.96	23.009
788.26	21.818
788.57	18.803
788.88	27.344
789.19	18.254
789.49	24.348
789.80	13.265
790.11	20.202
790.41	19.091
790.72	20.652
791.03	23.864
791.33	26.250
791.64	31.250
791.95	18.605
792.25	21.277
792.56	22.472
792.87	27.397
793.17	26.087
793.48	6.667
793.79	22.500
794.09	31.250
794.40	23.585
794.70	25.243
795.01	14.634
795.32	25.641
795.62	22.857
795.93	24.510
796.23	21.698
796.54	22.917
796.85	16.176
797.15	9.859
797.46	27.778
797.76	31.818
798.07	18.605
798.37	18.421
798.68	21.212
798.99	28.395
799.29	27.143
799.60	8.696
799.90	14.667
800.21	31.148
800.51	21.538
800.82	16.949
801.12	11.594
801.43	18.033
801.73	25.397
802.04	20.000
802.34	13.433
802.65	5.769
802.95	7.143
803.26	-1.923
803.56	19.608
803.87	19.565
804.17	14.667
804.48	22.222
804.78	14.815
805.09	26.087
805.39	-4.444
805.70	38.889
806.00	15.789
806.30	12.676
806.61	22.857
806.91	15.278
807.22	43.421
807.52	30.667
807.83	5.455
808.13	8.333
808.43	27.941
808.74	23.881
809.04	16.949
809.35	5.769
809.65	35.938
809.95	5.405
810.26	36.364
810.56	17.808
810.86	26.190
811.17	28.000
811.47	12.245
811.77	13.158
812.08	20.455
812.38	26.415
812.69	15.000
812.99	3.030
813.29	13.158
813.59	-5.714
813.90	27.273
814.20	7.692
814.50	13.462
814.81	30.189
815.11	14.894
815.41	42.373
815.72	4.762
816.02	15.686
816.32	20.833
816.62	19.512
816.93	10.811
817.23	11.429
817.53	27.083
817.84	6.522
818.14	19.231
818.44	13.158
818.74	47.826
819.04	-2.500
819.35	18.919
819.65	29.412
819.95	22.222
820.25	-4.762
820.56	35.000
820.86	-51.724
821.16	40.000
821.46	34.043
821.76	22.500
822.07	34.884
822.37	-8.108
822.67	6.250
822.97	35.714
823.27	-21.429
823.57	16.000
823.88	-55.556
824.18	35.714
824.48	-2.941
824.78	19.355
825.08	17.391
825.38	45.455
825.69	-8.333
825.99	7.895
826.29	25.000
826.59	66.667
826.89	-38.095
827.19	13.043
827.49	20.000
827.79	14.286
828.09	25.000
828.39	36.364
828.70	56.757
829.00	-10.714
829.30	-33.333
829.60	6.667
829.90	3.125
830.20	2.632
830.50	29.630
830.80	21.739
831.10	-13.636
831.40	63.636
831.70	38.710
832.00	33.333
832.30	-52.381
832.60	-25.000
832.90	41.379
833.20	40.000
833.50	12.121
833.80	37.037
834.10	-3.846
834.40	18.750
834.70	-22.222
835.00	10.526
835.30	57.692
835.60	13.333
835.90	9.677
836.20	13.636
836.50	35.714
836.80	-7.692
837.10	25.000
837.40	-200.000
837.70	59.091
838.00	63.636
838.30	47.826
838.60	-23.077
838.90	50.000
839.19	32.143
839.49	36.667
839.79	69.231
840.09	-25.000
840.39	17.857
840.69	25.000
840.99	11.538
841.29	-31.579
841.59	-120.000
841.88	18.182
842.18	-20.000
842.48	25.000
842.78	-6.667
843.08	11.111
843.38	-110.000
843.68	26.087
843.97	73.333
844.27	-6.667
844.57	10.000
844.87	66.667
845.17	42.857
845.47	73.333
845.76	-19.048
846.06	100.000
846.36	50.000
846.66	42.857
846.96	0.000
847.25	-87.500
847.55	-28.571
847.85	-12.500
848.15	-22.727
848.44	-333.333
848.74	80.000
849.04	70.370
849.34	18.182
849.63	-183.333
849.93	-240.000
850.23	-11.111
850.53	40.000
850.82	-23.077
851.12	-11.111
851.42	20.000
851.71	53.846
852.01	28.571
852.31	-50.000
852.61	0.000
852.90	-60.000
853.20	63.158
853.50	33.333
853.79	52.174
854.09	50.000
854.39	0.000
854.68	45.833
854.98	51.613
855.28	34.615
855.57	5.000
855.87	22.222
856.17	40.741
856.46	14.286
856.76	0.000
857.05	77.778
857.35	16.000
857.65	11.111
857.94	0.000
858.24	31.034
858.53	44.444
858.83	33.333
859.13	22.727
859.42	26.087
859.72	50.000
860.01	466.667
860.31	56.000
860.60	52.381
860.90	66.667
861.20	-13.333
861.49	-450.000
861.79	-26.667
862.08	10.000
862.38	86.667
862.67	-20.000
862.97	66.667
863.26	-8.333
863.56	66.667
863.85	-433.333
864.15	44.444
864.44	0.000
864.74	85.714
865.03	125.000
865.33	-200.000
865.62	183.333
865.92	66.667
866.21	-250.000
866.51	50.000
866.80	18.182
867.10	200.000
867.39	66.667
867.69	0.000
867.98	138.462
868.27	-100.000
868.57	-53.333
868.86	50.000
869.16	7.692
869.45	60.000
869.75	-100.000
870.04	0.000
870.33	85.714
870.63	71.429
870.92	266.667
871.22	-140.000
871.51	200.000
871.80	155.556
872.10	433.333
>>>>>End Processed Spectral Data<<<<<
