SpectraSuite Data File
++++++++++++++++++++++++++++++++++++
Date: Fri May 15 20:11:50 PDT 2015
User: schluterlab
Dark Spectrum Present: Yes
Reference Spectrum Present: Yes
Number of Sampled Component Spectra: 1
Spectrometers: USB2E3373
Integration Time (usec): 3000 (USB2E3373)
Spectra Averaged: 3 (USB2E3373)
Boxcar Smoothing: 0 (USB2E3373)
Correct for Electrical Dark: No (USB2E3373)
Strobe/Lamp Enabled: No (USB2E3373)
Correct for Detector Non-linearity: No (USB2E3373)
Correct for Stray Light: No (USB2E3373)
Number of Pixels in Processed Spectrum: 2048
>>>>>Begin Processed Spectral Data<<<<<
178.53	0.000
178.91	0.000
179.29	150.000
179.67	-100.000
180.04	-14.286
180.42	75.000
180.80	200.000
181.18	100.000
181.56	250.000
181.94	200.000
182.31	900.000
182.69	100.000
183.07	-100.000
183.45	-120.000
183.83	-16.667
184.20	136.364
184.58	77.778
184.96	-250.000
185.34	-233.333
185.72	-150.000
186.09	69.231
186.47	0.000
186.85	66.667
187.23	77.778
187.61	-600.000
187.98	-100.000
188.36	22.222
188.74	-200.000
189.12	23.529
189.49	55.556
189.87	0.000
190.25	42.857
190.63	250.000
191.00	-66.667
191.38	63.158
191.76	250.000
192.14	75.000
192.51	500.000
192.89	22.222
193.27	-14.286
193.65	216.667
194.02	127.273
194.40	30.000
194.78	50.000
195.15	16.667
195.53	-175.000
195.91	125.000
196.29	0.000
196.66	38.462
197.04	85.714
197.42	0.000
197.79	-366.667
198.17	-76.923
198.55	300.000
198.92	-200.000
199.30	900.000
199.68	-60.000
200.05	-100.000
200.43	0.000
200.81	-566.667
201.18	-200.000
201.56	1000.000
201.94	-100.000
202.31	-0.000
202.69	-20.000
203.07	175.000
203.44	700.000
203.82	0.000
204.19	64.286
204.57	-633.333
204.95	87.500
205.32	70.000
205.70	0.000
206.08	-100.000
206.45	88.889
206.83	92.857
207.20	-57.143
207.58	1200.000
207.96	-166.667
208.33	-90.000
208.71	-75.000
209.08	-100.000
209.46	-100.000
209.84	-280.000
210.21	-300.000
210.59	85.714
210.96	-150.000
211.34	-25.000
211.71	33.333
212.09	-14.286
212.46	-1300.000
212.84	0.000
213.22	30.000
213.59	600.000
213.97	46.154
214.34	0.000
214.72	-116.667
215.09	500.000
215.47	-69.231
215.84	-18.182
216.22	-233.333
216.59	-12.500
216.97	400.000
217.34	25.000
217.72	-120.000
218.09	87.500
218.47	87.500
218.84	-1800.000
219.22	22.222
219.59	-20.000
219.97	600.000
220.34	100.000
220.72	100.000
221.09	-25.000
221.47	200.000
221.84	-500.000
222.22	-750.000
222.59	-9.091
222.97	41.667
223.34	-366.667
223.72	64.286
224.09	9.524
224.46	10.714
224.84	200.000
225.21	90.000
225.59	60.000
225.96	-150.000
226.34	400.000
226.71	-42.857
227.08	50.000
227.46	0.000
227.83	-150.000
228.21	0.000
228.58	-18.182
228.95	-25.000
229.33	100.000
229.70	18.750
230.08	-137.500
230.45	-71.429
230.82	57.143
231.20	-13.333
231.57	42.857
231.95	-42.857
232.32	-110.000
232.69	50.000
233.07	-100.000
233.44	-120.000
233.81	-70.000
234.19	-11.111
234.56	-5.882
234.93	150.000
235.31	-50.000
235.68	-160.000
236.05	-61.538
236.43	15.000
236.80	17.647
237.17	3.125
237.55	-75.000
237.92	-3.704
238.29	-2.778
238.67	36.667
239.04	14.706
239.41	-12.195
239.79	0.000
240.16	4.878
240.53	-5.263
240.91	-15.217
241.28	23.810
241.65	23.214
242.02	19.178
242.40	11.667
242.77	5.085
243.14	7.576
243.51	13.750
243.89	20.690
244.26	-1.149
244.63	5.952
245.00	0.000
245.38	9.278
245.75	-13.483
246.12	-1.724
246.49	9.091
246.87	-9.615
247.24	1.681
247.61	-4.386
247.98	-3.252
248.36	-1.875
248.73	9.211
249.10	7.792
249.47	1.899
249.84	-0.654
250.22	1.176
250.59	7.190
250.96	5.164
251.33	-1.163
251.70	0.000
252.08	-1.523
252.45	4.455
252.82	0.503
253.19	3.226
253.56	0.467
253.94	1.802
254.31	7.391
254.68	6.579
255.05	8.268
255.42	6.114
255.79	5.792
256.16	3.502
256.54	5.224
256.91	0.000
257.28	5.576
257.65	1.873
258.02	3.191
258.39	6.061
258.76	7.326
259.14	5.980
259.51	4.531
259.88	0.687
260.25	4.902
260.62	4.514
260.99	0.339
261.36	3.767
261.73	3.481
262.10	2.736
262.47	1.534
262.85	-0.627
263.22	2.462
263.59	2.181
263.96	6.522
264.33	6.667
264.70	0.595
265.07	4.167
265.44	8.499
265.81	5.932
266.18	5.738
266.55	7.455
266.92	6.736
267.29	7.833
267.66	5.627
268.03	4.712
268.40	4.178
268.77	6.150
269.14	2.638
269.51	6.684
269.88	2.993
270.25	1.531
270.62	2.439
270.99	3.069
271.36	2.689
271.73	5.634
272.10	4.380
272.47	5.910
272.84	3.713
273.21	6.497
273.58	4.819
273.95	5.034
274.32	5.312
274.69	2.715
275.06	4.911
275.43	3.628
275.80	1.325
276.17	2.299
276.54	4.069
276.91	5.921
277.28	2.838
277.65	5.165
278.02	2.766
278.39	4.376
278.76	2.935
279.13	1.452
279.50	4.622
279.87	5.400
280.23	3.871
280.60	6.238
280.97	5.051
281.34	3.846
281.71	4.928
282.08	4.499
282.45	4.305
282.82	5.019
283.19	3.868
283.56	5.395
283.92	3.795
284.29	4.231
284.66	5.233
285.03	5.501
285.40	5.104
285.77	2.812
286.14	2.708
286.51	8.856
286.87	2.011
287.24	4.420
287.61	4.056
287.98	4.561
288.35	2.946
288.72	4.203
289.08	4.167
289.45	4.394
289.82	5.245
290.19	4.437
290.56	2.573
290.93	3.872
291.29	3.544
291.66	3.622
292.03	2.711
292.40	5.000
292.77	4.306
293.13	0.487
293.50	3.794
293.87	5.649
294.24	3.091
294.60	4.173
294.97	5.060
295.34	3.374
295.71	3.577
296.08	2.840
296.44	0.853
296.81	4.028
297.18	2.609
297.55	5.014
297.91	4.521
298.28	6.201
298.65	3.392
299.02	3.100
299.38	2.326
299.75	1.931
300.12	4.058
300.48	1.976
300.85	3.422
301.22	4.156
301.59	1.974
301.95	2.532
302.32	4.021
302.69	3.483
303.05	2.847
303.42	3.113
303.79	3.505
304.15	4.301
304.52	2.378
304.89	3.158
305.25	3.511
305.62	1.984
305.99	2.222
306.35	2.659
306.72	2.137
307.09	3.763
307.45	3.444
307.82	2.315
308.19	1.858
308.55	2.072
308.92	4.248
309.29	2.905
309.65	1.722
310.02	3.410
310.38	2.744
310.75	3.497
311.12	1.722
311.48	1.697
311.85	3.037
312.22	3.165
312.58	2.972
312.95	3.095
313.31	1.035
313.68	1.885
314.05	1.837
314.41	3.814
314.78	2.577
315.14	2.672
315.51	3.830
315.87	1.844
316.24	3.033
316.61	2.756
316.97	4.167
317.34	3.516
317.70	3.155
318.07	2.788
318.43	4.510
318.80	3.125
319.16	3.906
319.53	4.084
319.89	3.248
320.26	4.150
320.62	4.413
320.99	2.296
321.35	3.905
321.72	4.881
322.08	4.129
322.45	4.873
322.81	3.143
323.18	4.122
323.54	4.247
323.91	4.382
324.27	4.980
324.64	5.150
325.00	5.383
325.37	6.336
325.73	4.170
326.10	4.814
326.46	6.368
326.83	5.512
327.19	6.626
327.56	6.690
327.92	6.690
328.29	6.339
328.65	6.792
329.01	6.710
329.38	6.912
329.74	6.516
330.11	8.156
330.47	7.978
330.84	6.827
331.20	9.221
331.56	6.481
331.93	8.311
332.29	8.249
332.66	8.145
333.02	8.178
333.38	8.066
333.75	8.883
334.11	8.505
334.48	9.701
334.84	8.700
335.20	8.875
335.57	8.250
335.93	9.033
336.29	10.037
336.66	8.265
337.02	10.223
337.38	7.963
337.75	8.545
338.11	9.378
338.47	9.763
338.84	9.519
339.20	8.775
339.56	8.991
339.93	10.027
340.29	9.725
340.65	9.498
341.02	9.309
341.38	8.142
341.74	8.304
342.11	8.146
342.47	8.897
342.83	10.727
343.20	9.495
343.56	9.217
343.92	10.009
344.28	10.333
344.65	9.413
345.01	8.557
345.37	9.840
345.73	10.126
346.10	9.664
346.46	11.270
346.82	9.247
347.19	8.562
347.55	10.276
347.91	10.113
348.27	8.973
348.63	10.647
349.00	10.172
349.36	9.061
349.72	10.282
350.08	9.344
350.45	10.215
350.81	8.887
351.17	10.749
351.53	9.796
351.89	9.001
352.26	9.280
352.62	10.806
352.98	10.361
353.34	10.145
353.70	9.951
354.07	9.677
354.43	10.088
354.79	9.992
355.15	12.063
355.51	9.889
355.87	8.981
356.24	9.299
356.60	10.428
356.96	10.317
357.32	9.904
357.68	8.757
358.04	9.935
358.40	10.450
358.77	9.809
359.13	9.608
359.49	9.322
359.85	10.764
360.21	8.772
360.57	10.559
360.93	9.607
361.29	9.592
361.66	9.483
362.02	10.152
362.38	10.358
362.74	9.008
363.10	9.932
363.46	10.156
363.82	11.119
364.18	10.849
364.54	9.559
364.90	9.964
365.26	10.480
365.62	11.606
365.98	10.850
366.35	11.945
366.71	10.865
367.07	10.522
367.43	10.208
367.79	10.389
368.15	10.983
368.51	11.143
368.87	9.907
369.23	10.686
369.59	10.496
369.95	11.364
370.31	11.272
370.67	10.970
371.03	10.530
371.39	10.357
371.75	10.623
372.11	10.913
372.47	11.612
372.83	11.072
373.19	11.484
373.55	11.625
373.91	11.735
374.27	11.977
374.63	12.347
374.99	11.135
375.35	11.908
375.71	12.587
376.07	11.868
376.42	10.612
376.78	12.416
377.14	11.984
377.50	11.620
377.86	12.249
378.22	11.678
378.58	12.372
378.94	11.846
379.30	13.038
379.66	12.978
380.02	12.324
380.38	12.112
380.74	12.029
381.09	12.883
381.45	11.804
381.81	12.770
382.17	12.437
382.53	13.679
382.89	13.057
383.25	13.317
383.61	13.841
383.97	13.397
384.32	12.821
384.68	13.065
385.04	12.194
385.40	13.255
385.76	14.843
386.12	14.295
386.48	13.921
386.83	12.746
387.19	14.469
387.55	14.492
387.91	13.875
388.27	13.858
388.62	15.041
388.98	13.874
389.34	14.179
389.70	14.978
390.06	13.845
390.42	13.795
390.77	13.800
391.13	14.376
391.49	14.554
391.85	14.880
392.20	14.313
392.56	14.558
392.92	14.915
393.28	14.741
393.64	14.955
393.99	15.611
394.35	14.611
394.71	15.709
395.07	15.273
395.42	14.876
395.78	15.049
396.14	15.132
396.50	15.092
396.85	15.518
397.21	15.727
397.57	14.671
397.92	15.279
398.28	15.575
398.64	14.819
399.00	15.011
399.35	15.181
399.71	15.796
400.07	16.143
400.42	15.422
400.78	16.105
401.14	15.668
401.49	16.141
401.85	15.722
402.21	15.241
402.57	15.625
402.92	15.558
403.28	16.165
403.63	15.385
403.99	16.454
404.35	15.553
404.70	15.238
405.06	16.334
405.42	15.600
405.77	14.759
406.13	15.600
406.49	15.275
406.84	15.709
407.20	16.857
407.55	15.776
407.91	15.174
408.27	15.806
408.62	16.738
408.98	15.712
409.34	16.543
409.69	15.568
410.05	15.148
410.40	15.247
410.76	16.345
411.11	15.688
411.47	15.911
411.83	15.694
412.18	15.380
412.54	16.729
412.89	15.333
413.25	16.306
413.60	16.584
413.96	16.196
414.31	16.341
414.67	15.715
415.03	16.045
415.38	16.253
415.74	16.352
416.09	17.048
416.45	16.880
416.80	16.854
417.16	17.472
417.51	17.055
417.87	17.080
418.22	16.516
418.58	16.254
418.93	16.301
419.29	16.069
419.64	16.850
420.00	17.128
420.35	15.881
420.71	16.768
421.06	16.083
421.42	16.466
421.77	16.879
422.12	16.572
422.48	15.918
422.83	16.589
423.19	16.874
423.54	16.049
423.90	16.019
424.25	16.705
424.61	16.769
424.96	17.189
425.31	16.927
425.67	17.254
426.02	17.609
426.38	17.282
426.73	17.676
427.09	17.848
427.44	18.000
427.79	17.384
428.15	17.476
428.50	16.717
428.85	16.708
429.21	18.506
429.56	17.844
429.92	17.463
430.27	17.343
430.62	17.198
430.98	17.410
431.33	17.403
431.68	17.216
432.04	17.608
432.39	17.342
432.74	17.799
433.10	18.218
433.45	17.085
433.80	17.411
434.16	16.953
434.51	17.581
434.86	17.422
435.22	17.443
435.57	17.904
435.92	17.904
436.28	17.531
436.63	18.083
436.98	17.381
437.34	16.757
437.69	18.008
438.04	17.094
438.39	17.410
438.75	18.215
439.10	18.166
439.45	18.320
439.81	17.492
440.16	18.824
440.51	18.388
440.86	19.154
441.22	17.421
441.57	18.212
441.92	18.468
442.27	18.514
442.63	18.844
442.98	18.438
443.33	17.641
443.68	18.355
444.03	18.579
444.39	18.593
444.74	19.287
445.09	19.042
445.44	18.348
445.79	19.082
446.15	18.172
446.50	18.636
446.85	19.022
447.20	18.665
447.55	19.587
447.91	18.669
448.26	18.725
448.61	19.747
448.96	18.761
449.31	19.017
449.66	18.177
450.02	18.768
450.37	19.087
450.72	18.499
451.07	18.924
451.42	19.164
451.77	18.385
452.12	17.823
452.47	18.802
452.83	18.787
453.18	19.165
453.53	19.532
453.88	18.276
454.23	18.808
454.58	19.332
454.93	20.683
455.28	18.540
455.63	19.343
455.98	19.483
456.34	19.093
456.69	18.806
457.04	19.471
457.39	19.684
457.74	19.952
458.09	18.246
458.44	19.075
458.79	18.319
459.14	20.538
459.49	19.343
459.84	19.402
460.19	18.993
460.54	19.988
460.89	18.295
461.24	18.944
461.59	19.181
461.94	18.931
462.29	20.205
462.64	18.671
462.99	19.025
463.34	18.915
463.69	18.919
464.04	19.673
464.39	19.648
464.74	19.264
465.09	19.900
465.44	19.331
465.79	18.821
466.14	19.498
466.49	18.919
466.84	18.263
467.19	19.587
467.54	19.349
467.89	19.899
468.24	19.404
468.59	19.238
468.94	19.175
469.29	20.000
469.64	19.481
469.99	20.533
470.34	19.454
470.68	19.612
471.03	19.745
471.38	19.686
471.73	19.328
472.08	18.996
472.43	19.530
472.78	18.917
473.13	20.544
473.48	20.261
473.83	19.489
474.17	19.365
474.52	20.102
474.87	20.061
475.22	19.646
475.57	19.593
475.92	20.132
476.27	20.314
476.61	20.023
476.96	19.632
477.31	20.065
477.66	19.438
478.01	19.764
478.36	19.553
478.70	20.120
479.05	20.055
479.40	20.350
479.75	19.708
480.10	19.611
480.45	20.000
480.79	20.645
481.14	19.826
481.49	19.803
481.84	19.788
482.19	19.878
482.53	19.712
482.88	20.048
483.23	19.194
483.58	20.377
483.92	19.506
484.27	19.644
484.62	20.036
484.97	19.942
485.31	19.400
485.66	18.968
486.01	19.034
486.36	19.646
486.70	19.243
487.05	19.678
487.40	19.364
487.75	19.831
488.09	19.592
488.44	19.670
488.79	19.985
489.13	19.752
489.48	19.709
489.83	19.596
490.17	19.236
490.52	19.353
490.87	19.759
491.22	20.392
491.56	20.209
491.91	20.220
492.26	20.126
492.60	20.585
492.95	20.315
493.30	19.883
493.64	20.825
493.99	20.918
494.34	20.243
494.68	19.905
495.03	20.535
495.37	20.608
495.72	20.899
496.07	20.585
496.41	20.283
496.76	20.590
497.11	20.214
497.45	20.286
497.80	20.030
498.14	19.225
498.49	20.772
498.84	20.359
499.18	21.084
499.53	20.288
499.87	20.282
500.22	20.425
500.56	20.877
500.91	20.884
501.26	20.069
501.60	20.561
501.95	21.300
502.29	20.533
502.64	20.512
502.98	20.622
503.33	20.893
503.67	20.530
504.02	21.408
504.36	21.524
504.71	20.404
505.06	20.986
505.40	20.812
505.75	22.010
506.09	20.781
506.44	22.228
506.78	21.531
507.13	21.044
507.47	20.366
507.82	20.726
508.16	20.866
508.51	20.934
508.85	21.141
509.19	20.969
509.54	21.019
509.88	21.143
510.23	21.302
510.57	21.058
510.92	20.096
511.26	20.731
511.61	21.892
511.95	20.329
512.30	21.452
512.64	22.315
512.98	20.943
513.33	21.209
513.67	21.092
514.02	23.627
514.36	20.800
514.70	22.203
515.05	21.974
515.39	22.314
515.74	22.874
516.08	22.355
516.42	22.320
516.77	22.820
517.11	22.552
517.46	22.741
517.80	22.646
518.14	22.290
518.49	21.935
518.83	21.264
519.17	21.225
519.52	21.551
519.86	21.909
520.20	21.628
520.55	22.389
520.89	23.212
521.23	22.926
521.58	23.028
521.92	22.885
522.26	22.186
522.61	22.597
522.95	24.371
523.29	23.380
523.64	22.935
523.98	23.137
524.32	21.392
524.66	22.663
525.01	23.117
525.35	23.072
525.69	23.367
526.04	22.553
526.38	23.606
526.72	22.433
527.06	22.892
527.41	23.153
527.75	22.386
528.09	23.522
528.43	23.768
528.78	22.706
529.12	22.903
529.46	23.262
529.80	22.989
530.15	25.149
530.49	22.559
530.83	23.803
531.17	22.565
531.51	24.213
531.86	22.502
532.20	23.034
532.54	22.668
532.88	23.751
533.22	23.051
533.57	23.788
533.91	22.585
534.25	23.763
534.59	22.707
534.93	22.530
535.27	22.779
535.62	22.942
535.96	23.353
536.30	22.625
536.64	22.812
536.98	22.300
537.32	23.613
537.66	23.843
538.01	23.916
538.35	23.370
538.69	23.302
539.03	23.240
539.37	23.149
539.71	23.313
540.05	24.168
540.39	24.169
540.73	23.291
541.07	23.273
541.42	24.059
541.76	24.570
542.10	23.813
542.44	24.739
542.78	22.299
543.12	22.665
543.46	23.435
543.80	23.040
544.14	21.829
544.48	23.318
544.82	23.240
545.16	24.863
545.50	24.766
545.84	23.159
546.18	24.043
546.52	24.297
546.86	23.508
547.20	24.392
547.54	22.686
547.88	23.709
548.22	22.814
548.56	23.153
548.90	24.730
549.24	23.140
549.58	23.272
549.92	23.016
550.26	23.516
550.60	23.717
550.94	23.898
551.28	23.648
551.62	24.769
551.96	23.985
552.30	24.050
552.64	22.779
552.98	23.558
553.32	23.680
553.66	23.004
554.00	23.358
554.34	24.668
554.68	24.189
555.02	24.554
555.36	23.336
555.69	23.077
556.03	23.126
556.37	23.416
556.71	23.755
557.05	23.639
557.39	23.420
557.73	24.363
558.07	24.510
558.41	24.502
558.75	23.694
559.08	23.404
559.42	24.127
559.76	24.019
560.10	23.624
560.44	23.753
560.78	24.056
561.12	23.413
561.45	24.034
561.79	23.669
562.13	24.131
562.47	23.381
562.81	23.847
563.15	24.048
563.48	23.550
563.82	24.640
564.16	24.095
564.50	23.919
564.84	23.159
565.17	23.407
565.51	24.385
565.85	24.074
566.19	23.674
566.52	23.794
566.86	25.000
567.20	22.790
567.54	23.601
567.88	24.487
568.21	23.020
568.55	23.043
568.89	23.614
569.23	23.303
569.56	22.986
569.90	23.346
570.24	22.293
570.57	22.473
570.91	23.109
571.25	22.460
571.59	21.738
571.92	22.104
572.26	22.192
572.60	22.450
572.93	22.278
573.27	22.226
573.61	22.226
573.95	22.201
574.28	21.637
574.62	21.459
574.96	21.566
575.29	21.757
575.63	21.042
575.97	21.984
576.30	22.013
576.64	21.642
576.98	22.291
577.31	21.897
577.65	21.743
577.98	21.893
578.32	21.960
578.66	21.341
578.99	21.783
579.33	21.584
579.67	22.054
580.00	22.278
580.34	22.438
580.67	21.316
581.01	22.118
581.35	21.964
581.68	21.728
582.02	21.912
582.35	21.801
582.69	22.283
583.02	22.153
583.36	22.096
583.70	21.989
584.03	22.213
584.37	22.840
584.70	22.582
585.04	22.228
585.37	22.285
585.71	22.414
586.04	21.962
586.38	22.273
586.72	22.382
587.05	22.588
587.39	22.561
587.72	22.717
588.06	22.198
588.39	22.643
588.73	23.016
589.06	22.994
589.40	22.468
589.73	23.914
590.07	23.150
590.40	22.794
590.73	23.517
591.07	23.537
591.40	23.197
591.74	23.891
592.07	23.609
592.41	23.057
592.74	22.820
593.08	22.459
593.41	22.801
593.75	22.866
594.08	22.176
594.41	22.707
594.75	22.481
595.08	23.193
595.42	22.819
595.75	23.094
596.09	22.400
596.42	23.481
596.75	23.890
597.09	22.779
597.42	22.719
597.75	23.179
598.09	23.042
598.42	23.195
598.76	22.523
599.09	23.518
599.42	22.509
599.76	22.950
600.09	23.303
600.42	23.541
600.76	22.585
601.09	22.176
601.42	22.562
601.76	23.501
602.09	23.309
602.42	23.968
602.76	22.750
603.09	23.214
603.42	23.579
603.76	22.863
604.09	22.600
604.42	22.970
604.76	23.988
605.09	22.943
605.42	23.431
605.75	22.723
606.09	22.760
606.42	23.061
606.75	23.723
607.09	23.385
607.42	22.951
607.75	22.824
608.08	22.013
608.42	22.841
608.75	23.614
609.08	24.664
609.41	23.452
609.75	23.085
610.08	23.565
610.41	22.754
610.74	23.013
611.07	23.359
611.41	23.716
611.74	23.934
612.07	23.126
612.40	23.632
612.73	23.898
613.07	23.285
613.40	23.687
613.73	23.447
614.06	23.817
614.39	23.914
614.72	23.697
615.06	24.078
615.39	23.199
615.72	23.466
616.05	24.358
616.38	23.362
616.71	24.220
617.05	23.533
617.38	23.947
617.71	23.459
618.04	24.889
618.37	25.032
618.70	24.752
619.03	25.278
619.36	25.109
619.69	25.322
620.03	25.347
620.36	24.464
620.69	24.126
621.02	24.312
621.35	25.394
621.68	25.170
622.01	24.167
622.34	25.140
622.67	24.921
623.00	25.268
623.33	25.381
623.66	24.533
623.99	24.433
624.32	25.171
624.65	22.932
624.99	25.132
625.32	24.488
625.65	24.980
625.98	25.222
626.31	24.106
626.64	25.737
626.97	26.091
627.30	25.919
627.63	24.350
627.96	25.786
628.29	25.439
628.62	25.565
628.95	25.050
629.28	26.109
629.61	25.224
629.94	25.904
630.26	24.802
630.59	27.055
630.92	25.538
631.25	24.718
631.58	25.330
631.91	27.303
632.24	25.229
632.57	26.932
632.90	27.402
633.23	28.000
633.56	26.071
633.89	27.374
634.22	28.148
634.55	26.557
634.88	25.798
635.20	25.000
635.53	27.467
635.86	26.788
636.19	27.943
636.52	26.913
636.85	27.543
637.18	27.044
637.51	26.164
637.83	26.544
638.16	28.649
638.49	25.341
638.82	28.553
639.15	27.001
639.48	27.923
639.81	27.894
640.13	26.984
640.46	29.883
640.79	25.920
641.12	27.326
641.45	28.078
641.77	29.481
642.10	27.962
642.43	28.457
642.76	29.868
643.09	28.918
643.41	30.097
643.74	26.689
644.07	27.586
644.40	28.885
644.73	29.422
645.05	27.852
645.38	27.337
645.71	26.950
646.04	28.007
646.36	28.014
646.69	28.417
647.02	29.679
647.35	25.933
647.67	29.982
648.00	28.731
648.33	26.962
648.66	27.119
648.98	26.968
649.31	25.950
649.64	27.002
649.96	24.635
650.29	28.961
650.62	28.034
650.94	28.148
651.27	27.188
651.60	30.090
651.92	28.147
652.25	26.998
652.58	28.167
652.90	27.959
653.23	27.899
653.56	25.888
653.88	25.601
654.21	26.095
654.54	27.165
654.86	26.825
655.19	26.316
655.52	24.690
655.84	21.586
656.17	23.461
656.49	31.847
656.82	33.731
657.15	25.918
657.47	19.317
657.80	14.392
658.13	14.185
658.45	21.723
658.78	22.155
659.10	22.587
659.43	22.242
659.75	23.039
660.08	24.690
660.41	26.558
660.73	24.862
661.06	28.596
661.38	27.006
661.71	24.641
662.03	30.043
662.36	26.593
662.68	27.434
663.01	31.004
663.33	26.682
663.66	30.233
663.98	29.767
664.31	31.130
664.63	26.037
664.96	27.826
665.28	25.607
665.61	27.706
665.93	28.913
666.26	29.501
666.58	23.937
666.91	25.882
667.23	29.009
667.56	28.673
667.88	29.496
668.21	26.969
668.53	30.496
668.86	28.774
669.18	26.887
669.50	29.298
669.83	29.302
670.15	27.273
670.48	29.665
670.80	27.419
671.13	24.609
671.45	24.429
671.77	27.468
672.10	28.119
672.42	26.217
672.75	26.998
673.07	30.411
673.39	26.422
673.72	25.641
674.04	23.333
674.37	27.542
674.69	24.197
675.01	28.000
675.34	27.703
675.66	28.472
675.98	29.490
676.31	26.376
676.63	28.741
676.95	26.364
677.28	30.824
677.60	30.602
677.92	25.459
678.25	29.103
678.57	23.593
678.89	25.000
679.22	26.174
679.54	26.506
679.86	24.254
680.18	26.408
680.51	29.356
680.83	23.857
681.15	28.200
681.48	26.434
681.80	29.132
682.12	27.621
682.44	24.895
682.77	26.932
683.09	26.087
683.41	24.545
683.73	26.037
684.06	28.982
684.38	25.806
684.70	26.797
685.02	25.726
685.34	25.692
685.67	25.891
685.99	25.497
686.31	25.487
686.63	25.232
686.96	25.285
687.28	21.616
687.60	24.525
687.92	26.061
688.24	26.613
688.56	27.511
688.89	25.670
689.21	27.778
689.53	26.682
689.85	26.512
690.17	27.232
690.49	27.660
690.82	24.029
691.14	23.333
691.46	26.168
691.78	26.577
692.10	24.946
692.42	24.242
692.74	25.641
693.06	27.027
693.39	25.339
693.71	22.851
694.03	24.480
694.35	28.738
694.67	29.040
694.99	25.587
695.31	29.243
695.63	29.750
695.95	23.485
696.27	23.834
696.59	29.167
696.91	25.490
697.23	23.907
697.56	25.495
697.88	28.387
698.20	23.918
698.52	23.529
698.84	22.967
699.16	26.500
699.48	27.569
699.80	25.558
700.12	25.876
700.44	26.331
700.76	23.837
701.08	24.848
701.40	26.205
701.72	27.160
702.04	29.043
702.36	27.425
702.68	27.928
703.00	25.455
703.32	24.927
703.64	24.859
703.96	24.928
704.28	26.994
704.60	28.254
704.91	27.760
705.23	24.917
705.55	28.622
705.87	30.325
706.19	30.370
706.51	28.179
706.83	27.010
707.15	23.364
707.47	24.650
707.79	24.219
708.11	24.000
708.43	25.500
708.74	28.682
709.06	31.549
709.38	22.324
709.70	25.148
710.02	28.662
710.34	29.721
710.66	21.154
710.98	24.172
711.29	29.180
711.61	25.424
711.93	27.362
712.25	29.553
712.57	30.037
712.89	28.358
713.20	27.682
713.52	25.436
713.84	26.280
714.16	28.522
714.48	25.161
714.80	29.487
715.11	21.884
715.43	24.451
715.75	24.333
716.07	24.585
716.39	27.517
716.70	26.568
717.02	24.809
717.34	33.198
717.66	23.451
717.97	26.087
718.29	25.941
718.61	31.496
718.93	23.256
719.24	26.236
719.56	28.514
719.88	25.773
720.20	24.621
720.51	24.904
720.83	23.938
721.15	27.731
721.46	26.613
721.78	27.668
722.10	21.933
722.42	24.481
722.73	27.347
723.05	29.796
723.37	29.237
723.68	27.477
724.00	26.496
724.32	28.444
724.63	28.636
724.95	26.638
725.27	25.346
725.58	23.729
725.90	25.397
726.22	27.413
726.53	28.475
726.85	29.588
727.16	31.698
727.48	19.838
727.80	23.482
728.11	25.000
728.43	23.922
728.74	23.387
729.06	26.000
729.38	24.812
729.69	22.709
730.01	22.692
730.32	28.358
730.64	27.208
730.96	26.792
731.27	24.667
731.59	22.034
731.90	21.338
732.22	28.076
732.53	25.249
732.85	24.468
733.16	31.987
733.48	24.101
733.80	27.174
734.11	21.356
734.43	24.055
734.74	22.121
735.06	22.801
735.37	26.586
735.69	25.926
736.00	23.345
736.32	28.859
736.63	22.887
736.95	27.304
737.26	26.335
737.58	21.477
737.89	24.908
738.21	22.932
738.52	25.514
738.83	25.764
739.15	23.144
739.46	26.772
739.78	25.275
740.09	26.144
740.41	27.536
740.72	22.835
741.04	29.960
741.35	25.106
741.66	22.275
741.98	25.510
742.29	19.307
742.61	21.990
742.92	22.749
743.23	21.296
743.55	24.434
743.86	27.751
744.18	26.794
744.49	25.000
744.80	24.457
745.12	26.203
745.43	23.902
745.74	29.688
746.06	27.317
746.37	25.654
746.68	28.910
747.00	23.936
747.31	33.333
747.62	27.184
747.94	20.574
748.25	27.228
748.56	30.055
748.88	21.990
749.19	30.319
749.50	26.601
749.82	19.340
750.13	23.853
750.44	26.692
750.75	24.254
751.07	26.642
751.38	27.969
751.69	23.137
752.01	24.419
752.32	26.693
752.63	23.320
752.94	24.569
753.26	32.636
753.57	26.244
753.88	28.319
754.19	21.250
754.51	25.207
754.82	23.887
755.13	27.500
755.44	29.032
755.75	23.828
756.07	25.292
756.38	25.283
756.69	21.839
757.00	25.000
757.31	25.817
757.63	22.256
757.94	21.389
758.25	21.370
758.56	19.681
758.87	23.513
759.18	19.003
759.50	21.818
759.81	25.084
760.12	23.226
760.43	21.818
760.74	25.000
761.05	20.923
761.36	21.307
761.67	26.667
761.99	26.190
762.30	21.455
762.61	23.320
762.92	21.267
763.23	28.378
763.54	21.963
763.85	22.034
764.16	27.386
764.47	21.774
764.78	22.711
765.10	24.579
765.41	24.606
765.72	20.635
766.03	17.669
766.34	21.533
766.65	29.084
766.96	19.697
767.27	25.532
767.58	12.069
767.89	14.894
768.20	26.136
768.51	24.176
768.82	23.645
769.13	20.737
769.44	21.888
769.75	20.091
770.06	20.690
770.37	26.923
770.68	27.919
770.99	22.172
771.30	22.549
771.61	27.602
771.92	23.707
772.23	30.049
772.54	25.806
772.85	19.136
773.16	24.157
773.47	32.680
773.78	26.144
774.09	26.946
774.39	30.000
774.70	24.841
775.01	31.034
775.32	27.143
775.63	23.140
775.94	18.321
776.25	31.496
776.56	24.167
776.87	23.077
777.18	23.932
777.48	18.966
777.79	21.739
778.10	23.810
778.41	16.216
778.72	24.603
779.03	27.820
779.34	30.496
779.65	30.822
779.95	20.548
780.26	20.690
780.57	14.634
780.88	26.772
781.19	30.172
781.50	27.907
781.80	18.935
782.11	22.642
782.42	26.923
782.73	25.899
783.04	17.778
783.34	21.528
783.65	8.547
783.96	21.311
784.27	29.655
784.57	18.699
784.88	21.875
785.19	18.000
785.50	38.000
785.81	26.724
786.11	22.414
786.42	15.534
786.73	21.818
787.04	18.367
787.34	30.357
787.65	17.143
787.96	16.814
788.26	30.000
788.57	16.239
788.88	35.938
789.19	22.222
789.49	23.478
789.80	17.347
790.11	18.182
790.41	20.000
790.72	22.826
791.03	28.409
791.33	38.750
791.64	15.000
791.95	13.953
792.25	28.723
792.56	28.090
792.87	20.548
793.17	14.493
793.48	13.333
793.79	31.250
794.09	31.250
794.40	14.151
794.70	15.534
795.01	18.699
795.32	14.530
795.62	19.048
795.93	29.412
796.23	31.132
796.54	26.042
796.85	17.647
797.15	21.127
797.46	30.556
797.76	28.788
798.07	26.744
798.37	6.579
798.68	18.182
798.99	19.753
799.29	27.143
799.60	21.739
799.90	37.333
800.21	31.148
800.51	26.154
800.82	11.864
801.12	30.435
801.43	21.311
801.73	23.810
802.04	16.000
802.34	17.910
802.65	44.231
802.95	14.286
803.26	17.308
803.56	37.255
803.87	8.696
804.17	17.333
804.48	39.683
804.78	25.926
805.09	15.217
805.39	-2.222
805.70	7.407
806.00	-3.509
806.30	29.577
806.61	35.714
806.91	8.333
807.22	31.579
807.52	30.667
807.83	16.364
808.13	23.611
808.43	32.353
808.74	20.896
809.04	11.864
809.35	5.769
809.65	35.938
809.95	-27.027
810.26	2.273
810.56	19.178
810.86	26.190
811.17	44.000
811.47	18.367
811.77	-10.526
812.08	13.636
812.38	18.868
812.69	22.500
812.99	6.061
813.29	7.895
813.59	11.429
813.90	18.182
814.20	-23.077
814.50	19.231
814.81	33.962
815.11	-6.383
815.41	35.593
815.72	26.190
816.02	21.569
816.32	18.750
816.62	24.390
816.93	16.216
817.23	34.286
817.53	20.833
817.84	6.522
818.14	26.923
818.44	0.000
818.74	23.913
819.04	5.000
819.35	-8.108
819.65	8.824
819.95	5.556
820.25	28.571
820.56	72.500
820.86	6.897
821.16	47.500
821.46	25.532
821.76	35.000
822.07	20.930
822.37	2.703
822.67	-25.000
822.97	30.952
823.27	17.857
823.57	-12.000
823.88	7.407
824.18	21.429
824.48	20.588
824.78	29.032
825.08	39.130
825.38	18.182
825.69	-50.000
825.99	21.053
826.29	11.111
826.59	6.667
826.89	-42.857
827.19	19.565
827.49	20.000
827.79	17.143
828.09	32.143
828.39	30.303
828.70	40.541
829.00	32.143
829.30	-28.571
829.60	13.333
829.90	12.500
830.20	23.684
830.50	-22.222
830.80	21.739
831.10	31.818
831.40	21.212
831.70	41.935
832.00	4.762
832.30	-23.810
832.60	-75.000
832.90	24.138
833.20	-5.000
833.50	39.394
833.80	7.407
834.10	30.769
834.40	25.000
834.70	-44.444
835.00	15.789
835.30	46.154
835.60	53.333
835.90	29.032
836.20	68.182
836.50	46.429
836.80	-34.615
837.10	17.857
837.40	-66.667
837.70	50.000
838.00	-18.182
838.30	13.043
838.60	-7.692
838.90	36.364
839.19	-28.571
839.49	56.667
839.79	69.231
840.09	-83.333
840.39	42.857
840.69	39.286
840.99	19.231
841.29	10.526
841.59	-130.000
841.88	63.636
842.18	60.000
842.48	0.000
842.78	13.333
843.08	40.741
843.38	-50.000
843.68	30.435
843.97	53.333
844.27	-6.667
844.57	0.000
844.87	22.222
845.17	38.095
845.47	33.333
845.76	9.524
846.06	35.294
846.36	-10.000
846.66	-85.714
846.96	66.667
847.25	-62.500
847.55	7.143
847.85	12.500
848.15	31.818
848.44	-100.000
848.74	-10.000
849.04	14.815
849.34	-27.273
849.63	-150.000
849.93	-140.000
850.23	-5.556
850.53	90.000
850.82	-76.923
851.12	22.222
851.42	-33.333
851.71	23.077
852.01	-50.000
852.31	-175.000
852.61	-63.636
852.90	0.000
853.20	68.421
853.50	-50.000
853.79	43.478
854.09	54.167
854.39	31.579
854.68	20.833
854.98	25.806
855.28	19.231
855.57	5.000
855.87	66.667
856.17	77.778
856.46	28.571
856.76	-13.333
857.05	11.111
857.35	8.000
857.65	11.111
857.94	38.462
858.24	31.034
858.53	33.333
858.83	48.148
859.13	31.818
859.42	13.043
859.72	100.000
860.01	-400.000
860.31	40.000
860.60	33.333
860.90	-66.667
861.20	-73.333
861.49	-450.000
861.79	-20.000
862.08	10.000
862.38	73.333
862.67	160.000
862.97	-183.333
863.26	41.667
863.56	-16.667
863.85	-300.000
864.15	27.778
864.44	50.000
864.74	64.286
865.03	25.000
865.33	-160.000
865.62	133.333
865.92	8.333
866.21	-83.333
866.51	93.750
866.80	-9.091
867.10	-450.000
867.39	83.333
867.69	0.000
867.98	-15.385
868.27	-133.333
868.57	40.000
868.86	88.889
869.16	-30.769
869.45	86.667
869.75	-200.000
870.04	0.000
870.33	-71.429
870.63	42.857
870.92	466.667
871.22	-20.000
871.51	-300.000
871.80	155.556
872.10	200.000
>>>>>End Processed Spectral Data<<<<<
