SpectraSuite Data File
++++++++++++++++++++++++++++++++++++
Date: Fri May 15 17:19:00 PDT 2015
User: schluterlab
Dark Spectrum Present: Yes
Reference Spectrum Present: Yes
Number of Sampled Component Spectra: 1
Spectrometers: USB2E3373
Integration Time (usec): 3000 (USB2E3373)
Spectra Averaged: 3 (USB2E3373)
Boxcar Smoothing: 0 (USB2E3373)
Correct for Electrical Dark: No (USB2E3373)
Strobe/Lamp Enabled: No (USB2E3373)
Correct for Detector Non-linearity: No (USB2E3373)
Correct for Stray Light: No (USB2E3373)
Number of Pixels in Processed Spectrum: 2048
>>>>>Begin Processed Spectral Data<<<<<
178.53	0.000
178.91	0.000
179.29	212.500
179.67	-250.000
180.04	-157.143
180.42	50.000
180.80	300.000
181.18	-133.333
181.56	-450.000
181.94	-150.000
182.31	-500.000
182.69	140.000
183.07	66.667
183.45	120.000
183.83	133.333
184.20	54.545
184.58	-66.667
184.96	-300.000
185.34	-333.333
185.72	0.000
186.09	-7.692
186.47	0.000
186.85	-50.000
187.23	-11.111
187.61	-600.000
187.98	166.667
188.36	88.889
188.74	-33.333
189.12	70.588
189.49	77.778
189.87	0.000
190.25	71.429
190.63	150.000
191.00	-66.667
191.38	63.158
191.76	550.000
192.14	-275.000
192.51	350.000
192.89	-11.111
193.27	57.143
193.65	-166.667
194.02	63.636
194.40	50.000
194.78	12.500
195.15	58.333
195.53	12.500
195.91	75.000
196.29	150.000
196.66	30.769
197.04	71.429
197.42	77.778
197.79	-33.333
198.17	-100.000
198.55	-1100.000
198.92	0.000
199.30	700.000
199.68	0.000
200.05	-200.000
200.43	0.000
200.81	266.667
201.18	166.667
201.56	100.000
201.94	50.000
202.31	-100.000
202.69	-140.000
203.07	-150.000
203.44	1300.000
203.82	0.000
204.19	135.714
204.57	-200.000
204.95	-37.500
205.32	90.000
205.70	71.429
206.08	175.000
206.45	266.667
206.83	71.429
207.20	142.857
207.58	-200.000
207.96	-66.667
208.33	60.000
208.71	275.000
209.08	33.333
209.46	-600.000
209.84	140.000
210.21	100.000
210.59	100.000
210.96	116.667
211.34	375.000
211.71	106.667
212.09	42.857
212.46	-1000.000
212.84	0.000
213.22	110.000
213.59	50.000
213.97	176.923
214.34	227.273
214.72	100.000
215.09	-25.000
215.47	15.385
215.84	-18.182
216.22	133.333
216.59	-25.000
216.97	100.000
217.34	100.000
217.72	40.000
218.09	187.500
218.47	-12.500
218.84	-200.000
219.22	77.778
219.59	-40.000
219.97	33.333
220.34	-75.000
220.72	57.143
221.09	175.000
221.47	850.000
221.84	-250.000
222.22	-100.000
222.59	127.273
222.97	141.667
223.34	166.667
223.72	35.714
224.09	28.571
224.46	60.714
224.84	-100.000
225.21	10.000
225.59	80.000
225.96	400.000
226.34	-25.000
226.71	28.571
227.08	50.000
227.46	-12.500
227.83	150.000
228.21	77.778
228.58	163.636
228.95	162.500
229.33	-60.000
229.70	93.750
230.08	87.500
230.45	28.571
230.82	128.571
231.20	46.667
231.57	64.286
231.95	157.143
232.32	90.000
232.69	71.429
233.07	433.333
233.44	-60.000
233.81	20.000
234.19	66.667
234.56	52.941
234.93	-50.000
235.31	125.000
235.68	20.000
236.05	-7.692
236.43	40.000
236.80	64.706
237.17	50.000
237.55	75.000
237.92	55.556
238.29	36.111
238.67	70.000
239.04	23.529
239.41	19.512
239.79	13.333
240.16	46.341
240.53	10.526
240.91	32.609
241.28	22.222
241.65	30.357
242.02	21.918
242.40	25.000
242.77	22.034
243.14	12.121
243.51	28.750
243.89	34.483
244.26	18.391
244.63	21.429
245.00	15.464
245.38	35.052
245.75	0.000
246.12	14.655
246.49	21.488
246.87	26.923
247.24	14.286
247.61	10.526
247.98	22.764
248.36	18.750
248.73	23.684
249.10	14.935
249.47	23.418
249.84	24.837
250.22	17.647
250.59	19.608
250.96	26.291
251.33	19.186
251.70	18.824
252.08	20.812
252.45	19.307
252.82	17.588
253.19	19.355
253.56	15.421
253.94	22.072
254.31	17.391
254.68	24.561
255.05	18.898
255.42	17.467
255.79	18.919
256.16	20.233
256.54	18.284
256.91	21.673
257.28	17.472
257.65	17.603
258.02	18.440
258.39	22.559
258.76	19.048
259.14	18.272
259.51	23.301
259.88	19.244
260.25	18.627
260.62	19.444
260.99	16.610
261.36	15.753
261.73	15.506
262.10	20.061
262.47	17.178
262.85	17.241
263.22	15.385
263.59	18.692
263.96	20.497
264.33	23.333
264.70	15.774
265.07	21.131
265.44	20.397
265.81	21.469
266.18	19.672
266.55	20.051
266.92	21.244
267.29	20.104
267.66	20.205
268.03	17.539
268.40	18.538
268.77	19.519
269.14	17.506
269.51	18.509
269.88	19.202
270.25	20.153
270.62	16.098
270.99	17.647
271.36	18.582
271.73	20.188
272.10	19.221
272.47	18.913
272.84	17.574
273.21	20.186
273.58	18.795
273.95	17.620
274.32	16.397
274.69	17.647
275.06	17.411
275.43	17.007
275.80	18.102
276.17	18.391
276.54	18.630
276.91	17.105
277.28	17.031
277.65	16.322
278.02	18.298
278.39	19.475
278.76	18.029
279.13	13.693
279.50	15.336
279.87	18.790
280.23	15.914
280.60	18.129
280.97	18.384
281.34	15.577
281.71	17.454
282.08	16.360
282.45	14.873
282.82	14.479
283.19	16.441
283.56	16.570
283.92	15.750
284.29	15.000
284.66	17.248
285.03	15.717
285.40	17.958
285.77	16.520
286.14	15.162
286.51	18.635
286.87	15.356
287.24	15.654
287.61	16.578
287.98	15.614
288.35	15.945
288.72	17.163
289.08	15.625
289.45	17.575
289.82	15.909
290.19	16.041
290.56	13.894
290.93	14.478
291.29	16.641
291.66	14.803
292.03	13.876
292.40	16.290
292.77	13.557
293.13	13.149
293.50	13.354
293.87	14.809
294.24	14.529
294.60	14.903
294.97	13.690
295.34	13.497
295.71	13.264
296.08	11.958
296.44	12.091
296.81	12.083
297.18	13.913
297.55	14.499
297.91	13.425
298.28	14.248
298.65	11.669
299.02	12.668
299.38	10.534
299.75	14.483
300.12	11.780
300.48	11.067
300.85	12.421
301.22	12.857
301.59	11.711
301.95	13.291
302.32	14.527
302.69	11.940
303.05	10.891
303.42	12.453
303.79	13.551
304.15	12.664
304.52	11.296
304.89	11.111
305.25	11.743
305.62	10.852
305.99	11.228
306.35	12.370
306.72	11.361
307.09	10.832
307.45	11.481
307.82	12.037
308.19	12.311
308.55	12.214
308.92	13.290
309.29	11.844
309.65	11.948
310.02	12.431
310.38	13.172
310.75	13.115
311.12	12.379
311.48	13.043
311.85	12.461
312.22	10.865
312.58	12.633
312.95	12.166
313.31	13.043
313.68	11.518
314.05	13.367
314.41	14.433
314.78	13.608
315.14	14.286
315.51	15.217
315.87	15.266
316.24	16.582
316.61	16.043
316.97	16.071
317.34	16.504
317.70	16.348
318.07	17.019
318.43	16.863
318.80	17.140
319.16	19.434
319.53	17.949
319.89	18.406
320.26	18.927
320.62	20.863
320.99	20.146
321.35	20.555
321.72	21.495
322.08	22.860
322.45	23.350
322.81	22.790
323.18	23.062
323.54	24.228
323.91	24.635
324.27	27.148
324.64	27.247
325.00	26.734
325.37	30.028
325.73	29.556
326.10	29.973
326.46	31.659
326.83	32.721
327.19	33.653
327.56	35.100
327.92	36.884
328.29	36.250
328.65	38.302
329.01	39.430
329.38	39.447
329.74	40.132
330.11	41.149
330.47	42.208
330.84	43.365
331.20	45.342
331.56	43.333
331.93	46.393
332.29	47.113
332.66	47.149
333.02	47.584
333.38	46.196
333.75	49.817
334.11	48.433
334.48	49.320
334.84	51.190
335.20	51.144
335.57	51.677
335.93	50.678
336.29	53.315
336.66	51.499
337.02	52.509
337.38	52.593
337.75	52.455
338.11	55.546
338.47	54.562
338.84	54.159
339.20	55.667
339.56	55.963
339.93	55.685
340.29	56.972
340.65	56.720
341.02	56.649
341.38	57.434
341.74	57.862
342.11	54.679
342.47	55.516
342.83	55.882
343.20	56.446
343.56	56.522
343.92	58.016
344.28	57.387
344.65	56.045
345.01	56.785
345.37	55.677
345.73	57.741
346.10	58.412
346.46	56.939
346.82	56.056
347.19	55.777
347.55	58.062
347.91	57.929
348.27	57.235
348.63	58.859
349.00	57.014
349.36	59.435
349.72	58.955
350.08	58.934
350.45	58.101
350.81	58.887
351.17	57.329
351.53	58.939
351.89	57.969
352.26	58.400
352.62	60.081
352.98	57.108
353.34	57.488
353.70	58.900
354.07	58.306
354.43	59.167
354.79	59.538
355.15	60.476
355.51	59.098
355.87	60.032
356.24	58.646
356.60	60.226
356.96	60.079
357.32	58.866
357.68	58.796
358.04	60.582
358.40	60.370
358.77	61.164
359.13	60.689
359.49	59.399
359.85	61.310
360.21	60.606
360.57	60.597
360.93	61.120
361.29	58.837
361.66	61.520
362.02	62.348
362.38	62.452
362.74	63.058
363.10	62.227
363.46	62.639
363.82	62.660
364.18	62.214
364.54	62.353
364.90	62.867
365.26	62.664
365.62	63.869
365.98	63.196
366.35	64.166
366.71	63.267
367.07	64.369
367.43	63.048
367.79	63.534
368.15	63.891
368.51	64.385
368.87	63.173
369.23	62.527
369.59	65.233
369.95	64.150
370.31	63.150
370.67	64.328
371.03	63.779
371.39	64.260
371.75	64.835
372.11	64.194
372.47	67.456
372.83	66.004
373.19	63.909
373.55	65.343
373.91	65.659
374.27	66.265
374.63	65.757
374.99	66.596
375.35	66.365
375.71	68.182
376.07	67.205
376.42	66.871
376.78	66.577
377.14	66.486
377.50	66.999
377.86	65.997
378.22	67.071
378.58	66.603
378.94	67.234
379.30	67.311
379.66	68.527
380.02	67.198
380.38	68.168
380.74	66.966
381.09	67.546
381.45	68.012
381.81	67.181
382.17	68.655
382.53	67.520
382.89	68.801
383.25	69.073
383.61	68.171
383.97	69.460
384.32	67.980
384.68	69.040
385.04	68.934
385.40	69.508
385.76	69.686
386.12	70.116
386.48	70.179
386.83	69.245
387.19	71.184
387.55	71.895
387.91	69.438
388.27	69.231
388.62	70.799
388.98	68.263
389.34	68.957
389.70	70.479
390.06	69.792
390.42	69.754
390.77	70.438
391.13	70.429
391.49	70.440
391.85	70.695
392.20	68.989
392.56	69.485
392.92	70.699
393.28	70.696
393.64	69.429
393.99	71.034
394.35	70.715
394.71	69.668
395.07	70.396
395.42	68.852
395.78	69.902
396.14	70.618
396.50	70.006
396.85	69.350
397.21	69.612
397.57	70.408
397.92	69.383
398.28	70.057
398.64	67.530
399.00	71.445
399.35	69.582
399.71	67.949
400.07	69.770
400.42	68.911
400.78	70.729
401.14	68.542
401.49	68.791
401.85	68.373
402.21	68.554
402.57	68.938
402.92	68.130
403.28	68.860
403.63	69.357
403.99	68.750
404.35	68.832
404.70	66.607
405.06	68.331
405.42	68.179
405.77	67.751
406.13	68.102
406.49	68.206
406.84	69.438
407.20	68.934
407.55	68.126
407.91	67.914
408.27	69.025
408.62	67.385
408.98	67.221
409.34	66.914
409.69	67.313
410.05	65.825
410.40	68.704
410.76	67.672
411.11	67.938
411.47	68.376
411.83	67.859
412.18	68.855
412.54	67.041
412.89	65.517
413.25	68.953
413.60	66.087
413.96	65.644
414.31	66.890
414.67	66.325
415.03	67.377
415.38	65.862
415.74	67.687
416.09	67.407
416.45	67.725
416.80	65.962
417.16	69.682
417.51	67.155
417.87	66.362
418.22	68.718
418.58	67.625
418.93	66.520
419.29	65.237
419.64	67.466
420.00	68.325
420.35	67.284
420.71	67.132
421.06	66.851
421.42	67.308
421.77	67.919
422.12	66.459
422.48	67.190
422.83	67.923
423.19	68.115
423.54	66.608
423.90	67.609
424.25	68.025
424.61	67.931
424.96	68.235
425.31	69.440
425.67	69.073
426.02	69.788
426.38	68.817
426.73	69.431
427.09	70.316
427.44	70.529
427.79	70.831
428.15	68.689
428.50	70.624
428.85	69.349
429.21	70.968
429.56	70.512
429.92	70.416
430.27	69.023
430.62	68.688
430.98	70.594
431.33	69.821
431.68	69.335
432.04	70.878
432.39	69.823
432.74	69.092
433.10	70.862
433.45	70.191
433.80	73.535
434.16	71.413
434.51	70.806
434.86	71.487
435.22	72.462
435.57	72.489
435.92	71.557
436.28	71.795
436.63	71.535
436.98	72.132
437.34	71.869
437.69	73.107
438.04	71.396
438.39	70.495
438.75	73.588
439.10	72.213
439.45	72.976
439.81	72.661
440.16	74.762
440.51	72.955
440.86	75.589
441.22	72.851
441.57	74.779
441.92	74.134
442.27	75.554
442.63	74.036
442.98	74.612
443.33	72.621
443.68	72.732
444.03	74.317
444.39	74.225
444.74	75.418
445.09	75.056
445.44	75.100
445.79	75.864
446.15	73.073
446.50	73.821
446.85	74.389
447.20	75.182
447.55	74.275
447.91	76.086
448.26	75.583
448.61	74.554
448.96	76.535
449.31	75.549
449.66	74.042
450.02	76.155
450.37	76.526
450.72	75.830
451.07	75.759
451.42	75.843
451.77	76.130
452.12	74.342
452.47	75.660
452.83	75.265
453.18	75.775
453.53	75.790
453.88	76.321
454.23	76.337
454.58	77.456
454.93	75.580
455.28	73.841
455.63	76.131
455.98	76.188
456.34	75.351
456.69	76.557
457.04	76.560
457.39	75.213
457.74	76.481
458.09	74.691
458.44	76.536
458.79	76.078
459.14	76.087
459.49	76.358
459.84	76.481
460.19	77.488
460.54	75.795
460.89	77.045
461.24	76.522
461.59	77.375
461.94	75.094
462.29	76.417
462.64	76.877
462.99	76.506
463.34	77.399
463.69	75.547
464.04	78.148
464.39	77.320
464.74	77.178
465.09	76.606
465.44	76.457
465.79	76.020
466.14	77.423
466.49	76.136
466.84	77.454
467.19	75.657
467.54	76.309
467.89	75.869
468.24	75.791
468.59	77.778
468.94	76.508
469.29	76.262
469.64	76.008
469.99	78.486
470.34	75.973
470.68	79.791
471.03	77.919
471.38	77.960
471.73	77.801
472.08	77.748
472.43	78.523
472.78	75.805
473.13	78.095
473.48	77.068
473.83	75.841
474.17	78.756
474.52	76.835
474.87	77.030
475.22	77.730
475.57	77.640
475.92	78.497
476.27	77.590
476.61	78.125
476.96	76.631
477.31	78.799
477.66	77.472
478.01	78.776
478.36	76.198
478.70	79.010
479.05	77.857
479.40	78.643
479.75	77.581
480.10	77.368
480.45	77.900
480.79	79.003
481.14	79.303
481.49	77.931
481.84	78.909
482.19	77.643
482.53	78.321
482.88	77.804
483.23	76.919
483.58	77.500
483.92	76.573
484.27	76.664
484.62	78.037
484.97	77.114
485.31	77.348
485.66	77.458
486.01	77.961
486.36	77.166
486.70	76.414
487.05	76.636
487.40	77.146
487.75	76.761
488.09	76.329
488.44	76.169
488.79	76.279
489.13	78.205
489.48	78.324
489.83	77.848
490.17	77.169
490.52	78.938
490.87	77.001
491.22	78.988
491.56	78.226
491.91	76.769
492.26	77.978
492.60	77.015
492.95	78.455
493.30	76.844
493.64	78.389
493.99	78.599
494.34	78.835
494.68	78.952
495.03	76.788
495.37	79.195
495.72	77.436
496.07	79.512
496.41	78.066
496.76	78.259
497.11	77.736
497.45	78.234
497.80	79.415
498.14	77.496
498.49	78.009
498.84	78.393
499.18	78.966
499.53	79.365
499.87	77.286
500.22	79.278
500.56	79.022
500.91	79.317
501.26	78.151
501.60	78.160
501.95	79.185
502.29	79.564
502.64	79.151
502.98	78.589
503.33	78.963
503.67	78.313
504.02	79.961
504.36	79.416
504.71	79.040
505.06	79.467
505.40	78.223
505.75	79.278
506.09	79.625
506.44	79.979
506.78	79.898
507.13	78.594
507.47	78.590
507.82	79.915
508.16	80.190
508.51	79.591
508.85	79.853
509.19	80.043
509.54	79.410
509.88	78.479
510.23	79.613
510.57	80.652
510.92	78.518
511.26	81.015
511.61	80.968
511.95	80.110
512.30	80.987
512.64	80.746
512.98	80.853
513.33	81.030
513.67	81.410
514.02	81.693
514.36	81.771
514.70	82.284
515.05	82.902
515.39	81.759
515.74	83.174
516.08	81.530
516.42	81.095
516.77	82.680
517.11	83.383
517.46	84.022
517.80	81.406
518.14	82.854
518.49	83.774
518.83	82.503
519.17	81.686
519.52	80.935
519.86	82.113
520.20	82.382
520.55	82.802
520.89	82.811
521.23	83.217
521.58	83.470
521.92	83.333
522.26	83.735
522.61	83.701
522.95	85.497
523.29	83.164
523.64	82.783
523.98	83.927
524.32	83.570
524.66	84.187
525.01	84.351
525.35	83.992
525.69	84.444
526.04	83.730
526.38	83.982
526.72	81.818
527.06	83.917
527.41	82.388
527.75	83.579
528.09	83.522
528.43	86.631
528.78	85.215
529.12	84.000
529.46	83.496
529.80	82.014
530.15	85.479
530.49	85.320
530.83	84.815
531.17	82.874
531.51	84.815
531.86	84.432
532.20	83.368
532.54	84.275
532.88	85.421
533.22	84.341
533.57	83.486
533.91	85.313
534.25	85.612
534.59	84.349
534.93	82.756
535.27	85.406
535.62	84.640
535.96	84.671
536.30	84.697
536.64	85.941
536.98	83.624
537.32	85.989
537.66	84.783
538.01	85.035
538.35	85.576
538.69	84.288
539.03	84.005
539.37	84.118
539.71	84.185
540.05	85.472
540.39	83.934
540.73	84.937
541.07	85.221
541.42	83.804
541.76	86.304
542.10	84.584
542.44	84.642
542.78	85.134
543.12	85.027
543.46	85.953
543.80	86.190
544.14	82.977
544.48	84.011
544.82	86.124
545.16	86.817
545.50	83.578
545.84	86.190
546.18	85.319
546.52	85.004
546.86	84.184
547.20	85.408
547.54	84.876
547.88	86.549
548.22	83.761
548.56	83.179
548.90	85.243
549.24	85.399
549.58	85.402
549.92	82.988
550.26	84.835
550.60	86.543
550.94	86.408
551.28	85.549
551.62	86.846
551.96	86.541
552.30	87.792
552.64	86.248
552.98	84.459
553.32	85.378
553.66	85.776
554.00	87.007
554.34	86.632
554.68	83.702
555.02	86.533
555.36	87.958
555.69	87.473
556.03	84.797
556.37	85.196
556.71	86.065
557.05	86.130
557.39	85.353
557.73	87.706
558.07	87.179
558.41	84.763
558.75	86.204
559.08	85.579
559.42	87.619
559.76	86.950
560.10	85.627
560.44	87.863
560.78	86.853
561.12	85.896
561.45	87.070
561.79	86.905
562.13	86.870
562.47	86.475
562.81	85.663
563.15	86.389
563.48	85.502
563.82	85.999
564.16	86.490
564.50	86.216
564.84	85.944
565.17	85.915
565.51	88.456
565.85	88.477
566.19	86.538
566.52	87.936
566.86	87.853
567.20	86.800
567.54	86.679
567.88	88.869
568.21	87.839
568.55	86.413
568.89	87.885
569.23	87.675
569.56	86.690
569.90	87.617
570.24	85.262
570.57	86.945
570.91	86.581
571.25	84.676
571.59	83.993
571.92	82.904
572.26	83.454
572.60	84.651
572.93	82.993
573.27	83.417
573.61	83.831
573.95	83.779
574.28	83.872
574.62	83.270
574.96	82.573
575.29	82.458
575.63	81.394
575.97	83.600
576.30	83.582
576.64	82.490
576.98	84.479
577.31	83.313
577.65	83.968
577.98	83.791
578.32	82.774
578.66	81.754
578.99	82.592
579.33	82.888
579.67	82.513
580.00	83.747
580.34	83.458
580.67	82.542
581.01	83.598
581.35	83.312
581.68	83.980
582.02	83.465
582.35	83.380
582.69	83.794
583.02	83.358
583.36	83.322
583.70	84.709
584.03	84.292
584.37	85.940
584.70	84.258
585.04	82.150
585.37	83.219
585.71	84.473
586.04	83.863
586.38	83.436
586.72	84.763
587.05	85.471
587.39	85.155
587.72	85.703
588.06	85.192
588.39	85.132
588.73	85.653
589.06	85.780
589.40	84.998
589.73	85.615
590.07	86.782
590.40	85.642
590.73	87.068
591.07	85.835
591.40	85.708
591.74	87.014
592.07	85.668
592.41	87.412
592.74	86.380
593.08	83.619
593.41	85.799
593.75	84.331
594.08	84.930
594.41	84.825
594.75	85.611
595.08	86.076
595.42	86.161
595.75	85.993
596.09	86.083
596.42	85.407
596.75	86.501
597.09	85.239
597.42	86.269
597.75	86.532
598.09	84.382
598.42	85.695
598.76	85.199
599.09	84.936
599.42	84.653
599.76	84.650
600.09	84.276
600.42	84.268
600.76	84.361
601.09	85.496
601.42	84.371
601.76	85.193
602.09	84.736
602.42	87.110
602.76	86.333
603.09	86.711
603.42	88.587
603.76	85.968
604.09	86.513
604.42	86.844
604.76	87.628
605.09	85.878
605.42	86.005
605.75	86.033
606.09	86.794
606.42	85.488
606.75	85.411
607.09	85.407
607.42	85.246
607.75	85.391
608.08	83.783
608.42	85.199
608.75	87.373
609.08	87.394
609.41	86.091
609.75	85.534
610.08	86.321
610.41	84.831
610.74	85.666
611.07	86.925
611.41	87.753
611.74	87.313
612.07	85.760
612.40	87.418
612.73	88.192
613.07	87.064
613.40	85.613
613.73	86.849
614.06	87.479
614.39	86.182
614.72	86.667
615.06	86.145
615.39	85.044
615.72	84.553
616.05	86.480
616.38	84.729
616.71	86.667
617.05	86.535
617.38	87.932
617.71	87.170
618.04	88.444
618.37	89.660
618.70	88.977
619.03	89.514
619.36	87.337
619.69	89.538
620.03	89.774
620.36	88.412
620.69	85.296
621.02	87.156
621.35	90.373
621.68	90.051
622.01	89.250
622.34	86.113
622.67	88.565
623.00	88.055
623.33	87.729
623.66	88.033
623.99	87.065
624.32	87.300
624.65	88.722
624.99	88.262
625.32	87.339
625.65	89.631
625.98	89.605
626.31	88.778
626.64	88.995
626.97	88.307
627.30	88.529
627.63	88.475
627.96	90.476
628.29	88.992
628.62	90.167
628.95	89.279
629.28	91.633
629.61	89.033
629.94	88.563
630.26	88.834
630.59	92.924
630.92	92.205
631.25	87.590
631.58	90.749
631.91	88.048
632.24	92.087
632.57	90.341
632.90	91.222
633.23	89.294
633.56	90.932
633.89	91.985
634.22	90.000
634.55	93.647
634.88	92.209
635.20	91.026
635.53	92.133
635.86	88.947
636.19	90.686
636.52	91.582
636.85	90.943
637.18	91.824
637.51	90.063
637.83	89.882
638.16	92.087
638.49	89.782
638.82	90.263
639.15	94.301
639.48	90.646
639.81	92.050
640.13	92.641
640.46	94.023
640.79	92.342
641.12	89.956
641.45	91.742
641.77	89.037
642.10	93.681
642.43	90.836
642.76	92.574
643.09	92.730
643.41	88.835
643.74	92.422
644.07	92.118
644.40	92.061
644.73	94.396
645.05	89.597
645.38	93.298
645.71	94.326
646.04	93.178
646.36	92.376
646.69	92.086
647.02	95.841
647.35	93.470
647.67	91.590
648.00	97.575
648.33	88.737
648.66	91.525
648.98	93.635
649.31	95.041
649.64	90.895
649.96	88.655
650.29	94.037
650.62	89.402
650.94	94.259
651.27	92.924
651.60	91.351
651.92	90.909
652.25	92.540
652.58	88.500
652.90	91.938
653.23	91.765
653.56	92.555
653.88	90.893
654.21	90.718
654.54	87.436
654.86	91.341
655.19	87.865
655.52	88.622
655.84	85.497
656.17	94.218
656.49	100.000
656.82	100.000
657.15	100.000
657.47	100.000
657.80	77.556
658.13	54.267
658.45	85.041
658.78	83.326
659.10	82.716
659.43	83.183
659.75	85.693
660.08	85.586
660.41	88.764
660.73	88.122
661.06	91.854
661.38	88.650
661.71	88.090
662.03	94.635
662.36	93.187
662.68	91.593
663.01	92.795
663.33	89.791
663.66	90.233
663.98	91.395
664.31	87.633
664.63	97.005
664.96	87.826
665.28	89.845
665.61	91.342
665.93	94.348
666.26	93.492
666.58	91.499
666.91	92.000
667.23	93.396
667.56	93.128
667.88	92.566
668.21	92.601
668.53	93.617
668.86	95.519
669.18	89.858
669.50	93.947
669.83	89.767
670.15	87.413
670.48	90.191
670.80	87.788
671.13	84.116
671.45	92.009
671.77	90.987
672.10	86.733
672.42	90.637
672.75	87.567
673.07	87.657
673.39	89.541
673.72	88.955
674.04	92.708
674.37	91.737
674.69	87.580
675.01	93.333
675.34	91.667
675.66	92.361
675.98	87.805
676.31	91.055
676.63	94.062
676.95	87.500
677.28	93.176
677.60	95.904
677.92	92.202
678.25	88.621
678.57	88.961
678.89	88.866
679.22	93.736
679.54	85.743
679.86	90.258
680.18	89.903
680.51	89.205
680.83	88.270
681.15	88.200
681.48	91.393
681.80	91.529
682.12	87.702
682.44	88.703
682.77	91.611
683.09	90.618
683.41	87.727
683.73	87.097
684.06	89.823
684.38	87.957
684.70	97.386
685.02	91.701
685.34	88.142
685.67	88.368
685.99	89.331
686.31	89.735
686.63	88.126
686.96	85.741
687.28	85.455
687.60	86.502
687.92	92.929
688.24	88.306
688.56	92.140
688.89	88.393
689.21	87.556
689.53	88.631
689.85	87.209
690.17	89.955
690.49	92.199
690.82	88.835
691.14	87.381
691.46	90.888
691.78	88.514
692.10	90.753
692.42	86.364
692.74	85.684
693.06	87.838
693.39	87.557
693.71	86.878
694.03	87.529
694.35	86.916
694.67	90.404
694.99	93.473
695.31	91.384
695.63	89.500
695.95	86.869
696.27	87.824
696.59	95.000
696.91	88.235
697.23	87.661
697.56	89.109
697.88	88.172
698.20	88.155
698.52	90.118
698.84	88.517
699.16	90.000
699.48	87.218
699.80	88.586
700.12	86.792
700.44	89.916
700.76	89.244
701.08	90.909
701.40	88.855
701.72	91.358
702.04	89.769
702.36	95.987
702.68	89.189
703.00	94.848
703.32	91.202
703.64	85.593
703.96	85.797
704.28	90.184
704.60	92.698
704.91	93.691
705.23	88.372
705.55	92.933
705.87	98.917
706.19	92.593
706.51	90.378
706.83	88.746
707.15	90.031
707.47	87.955
707.79	86.198
708.11	88.250
708.43	86.500
708.74	85.013
709.06	90.423
709.38	91.131
709.70	90.828
710.02	91.720
710.34	88.854
710.66	84.936
710.98	91.060
711.29	93.443
711.61	93.220
711.93	89.251
712.25	93.471
712.57	97.070
712.89	91.045
713.20	86.159
713.52	88.502
713.84	89.420
714.16	87.629
714.48	90.323
714.80	91.987
715.11	88.450
715.43	85.266
715.75	89.000
716.07	87.708
716.39	88.255
716.70	88.561
717.02	85.878
717.34	90.283
717.66	96.460
717.97	90.870
718.29	94.561
718.61	88.189
718.93	88.760
719.24	90.494
719.56	90.361
719.88	83.162
720.20	84.091
720.51	88.123
720.83	90.734
721.15	88.655
721.46	89.113
721.78	82.213
722.10	83.643
722.42	92.116
722.73	90.204
723.05	91.429
723.37	90.254
723.68	96.847
724.00	91.026
724.32	90.667
724.63	93.182
724.95	89.956
725.27	96.313
725.58	88.983
725.90	84.524
726.22	90.734
726.53	77.627
726.85	85.393
727.16	88.679
727.48	89.069
727.80	85.830
728.11	82.627
728.43	85.882
728.74	81.855
729.06	87.200
729.38	87.970
729.69	90.837
730.01	87.308
730.32	91.418
730.64	84.099
730.96	90.943
731.27	83.333
731.59	86.102
731.90	86.306
732.22	88.013
732.53	89.037
732.85	89.007
733.16	87.879
733.48	84.532
733.80	86.232
734.11	84.746
734.43	91.409
734.74	86.667
735.06	85.668
735.37	87.009
735.69	85.522
736.00	83.972
736.32	81.208
736.63	89.789
736.95	87.372
737.26	83.986
737.58	82.215
737.89	87.179
738.21	87.970
738.52	97.942
738.83	89.083
739.15	86.900
739.46	82.677
739.78	86.813
740.09	85.621
740.41	90.217
740.72	88.189
741.04	91.498
741.35	87.660
741.66	84.834
741.98	87.245
742.29	92.079
742.61	86.387
742.92	89.100
743.23	84.259
743.55	84.163
743.86	88.038
744.18	83.732
744.49	93.085
744.80	85.870
745.12	91.444
745.43	82.927
745.74	103.646
746.06	84.390
746.37	87.958
746.68	85.782
747.00	89.894
747.31	92.537
747.62	87.379
747.94	86.603
748.25	90.099
748.56	98.907
748.88	87.435
749.19	89.362
749.50	86.700
749.82	83.962
750.13	88.073
750.44	89.098
750.75	91.791
751.07	86.131
751.38	81.609
751.69	82.353
752.01	82.946
752.32	85.259
752.63	89.328
752.94	86.207
753.26	88.285
753.57	86.878
753.88	87.168
754.19	88.333
754.51	88.843
754.82	86.640
755.13	89.583
755.44	85.887
755.75	87.891
756.07	85.603
756.38	86.792
756.69	83.908
757.00	85.333
757.31	83.333
757.63	82.012
757.94	81.667
758.25	76.986
758.56	80.319
758.87	81.303
759.18	77.259
759.50	83.273
759.81	88.294
760.12	81.613
760.43	83.939
760.74	91.975
761.05	85.538
761.36	78.977
761.67	85.758
761.99	85.374
762.30	86.182
762.61	79.447
762.92	85.520
763.23	81.081
763.54	83.178
763.85	88.559
764.16	86.307
764.47	78.226
764.78	84.615
765.10	84.848
765.41	78.549
765.72	79.683
766.03	82.707
766.34	79.562
766.65	81.275
766.96	94.444
767.27	81.383
767.58	91.954
767.89	94.326
768.20	80.114
768.51	84.066
768.82	81.281
769.13	78.341
769.44	73.820
769.75	88.584
770.06	83.621
770.37	79.808
770.68	82.741
770.99	81.448
771.30	91.667
771.61	83.258
771.92	79.310
772.23	90.148
772.54	82.796
772.85	93.210
773.16	83.708
773.47	103.268
773.78	92.157
774.09	85.030
774.39	92.000
774.70	80.255
775.01	96.552
775.32	85.000
775.63	95.041
775.94	86.260
776.25	84.252
776.56	88.333
776.87	91.346
777.18	81.197
777.48	90.517
777.79	86.957
778.10	84.762
778.41	90.991
778.72	79.365
779.03	89.474
779.34	76.596
779.65	91.096
779.95	73.973
780.26	80.690
780.57	85.366
780.88	89.764
781.19	88.793
781.50	85.271
781.80	80.473
782.11	76.730
782.42	103.077
782.73	94.245
783.04	85.926
783.34	74.306
783.65	76.068
783.96	86.885
784.27	91.034
784.57	91.870
784.88	78.125
785.19	93.000
785.50	104.000
785.81	88.793
786.11	81.897
786.42	82.524
786.73	83.636
787.04	85.714
787.34	72.321
787.65	90.476
787.96	77.876
788.26	89.091
788.57	79.487
788.88	81.250
789.19	77.778
789.49	81.739
789.80	98.980
790.11	68.687
790.41	71.818
790.72	89.130
791.03	81.818
791.33	95.000
791.64	92.500
791.95	74.419
792.25	67.021
792.56	79.775
792.87	93.151
793.17	91.304
793.48	76.000
793.79	70.000
794.09	98.750
794.40	73.585
794.70	86.408
795.01	68.293
795.32	80.342
795.62	79.048
795.93	86.275
796.23	75.472
796.54	68.750
796.85	107.353
797.15	71.831
797.46	86.111
797.76	104.545
798.07	65.116
798.37	78.947
798.68	96.970
798.99	60.494
799.29	94.286
799.60	88.406
799.90	92.000
800.21	80.328
800.51	92.308
800.82	115.254
801.12	79.710
801.43	91.803
801.73	90.476
802.04	86.000
802.34	70.149
802.65	101.923
802.95	64.286
803.26	92.308
803.56	100.000
803.87	71.739
804.17	66.667
804.48	98.413
804.78	62.963
805.09	102.174
805.39	93.333
805.70	85.185
806.00	77.193
806.30	84.507
806.61	98.571
806.91	59.722
807.22	71.053
807.52	80.000
807.83	78.182
808.13	94.444
808.43	95.588
808.74	70.149
809.04	77.966
809.35	103.846
809.65	107.812
809.95	97.297
810.26	100.000
810.56	64.384
810.86	121.429
811.17	70.000
811.47	93.878
811.77	105.263
812.08	104.545
812.38	75.472
812.69	92.500
812.99	93.939
813.29	47.368
813.59	77.143
813.90	97.727
814.20	76.923
814.50	86.538
814.81	92.453
815.11	59.574
815.41	79.661
815.72	73.810
816.02	72.549
816.32	83.333
816.62	75.610
816.93	81.081
817.23	94.286
817.53	79.167
817.84	71.739
818.14	73.077
818.44	63.158
818.74	80.435
819.04	55.000
819.35	72.973
819.65	102.941
819.95	80.556
820.25	54.762
820.56	75.000
820.86	65.517
821.16	102.500
821.46	106.383
821.76	100.000
822.07	90.698
822.37	67.568
822.67	62.500
822.97	83.333
823.27	103.571
823.57	104.000
823.88	77.778
824.18	96.429
824.48	70.588
824.78	74.194
825.08	73.913
825.38	75.758
825.69	66.667
825.99	55.263
826.29	63.889
826.59	160.000
826.89	76.190
827.19	69.565
827.49	75.000
827.79	102.857
828.09	114.286
828.39	87.879
828.70	81.081
829.00	67.857
829.30	85.714
829.60	86.667
829.90	90.625
830.20	76.316
830.50	70.370
830.80	73.913
831.10	109.091
831.40	106.061
831.70	70.968
832.00	109.524
832.30	52.381
832.60	141.667
832.90	41.379
833.20	75.000
833.50	81.818
833.80	62.963
834.10	73.077
834.40	31.250
834.70	233.333
835.00	100.000
835.30	119.231
835.60	173.333
835.90	80.645
836.20	127.273
836.50	82.143
836.80	65.385
837.10	28.571
837.40	466.667
837.70	72.727
838.00	90.909
838.30	52.174
838.60	161.538
838.90	95.455
839.19	50.000
839.49	73.333
839.79	138.462
840.09	50.000
840.39	96.429
840.69	85.714
840.99	53.846
841.29	52.632
841.59	80.000
841.88	109.091
842.18	160.000
842.48	87.500
842.78	46.667
843.08	88.889
843.38	130.000
843.68	78.261
843.97	120.000
844.27	26.667
844.57	25.000
844.87	105.556
845.17	95.238
845.47	86.667
845.76	57.143
846.06	88.235
846.36	60.000
846.66	78.571
846.96	126.667
847.25	37.500
847.55	64.286
847.85	162.500
848.15	54.545
848.44	-200.000
848.74	90.000
849.04	77.778
849.34	145.455
849.63	50.000
849.93	-80.000
850.23	111.111
850.53	80.000
850.82	107.692
851.12	55.556
851.42	93.333
851.71	46.154
852.01	50.000
852.31	-25.000
852.61	63.636
852.90	50.000
853.20	68.421
853.50	16.667
853.79	39.130
854.09	108.333
854.39	100.000
854.68	66.667
854.98	116.129
855.28	123.077
855.57	60.000
855.87	133.333
856.17	74.074
856.46	135.714
856.76	93.333
857.05	111.111
857.35	76.000
857.65	122.222
857.94	53.846
858.24	103.448
858.53	155.556
858.83	81.481
859.13	86.364
859.42	30.435
859.72	275.000
860.01	200.000
860.31	28.000
860.60	85.714
860.90	333.333
861.20	73.333
861.49	550.000
861.79	26.667
862.08	35.000
862.38	146.667
862.67	220.000
862.97	116.667
863.26	33.333
863.56	127.778
863.85	-100.000
864.15	22.222
864.44	80.000
864.74	157.143
865.03	25.000
865.33	80.000
865.62	316.667
865.92	75.000
866.21	116.667
866.51	56.250
866.80	72.727
867.10	300.000
867.39	141.667
867.69	0.000
867.98	53.846
868.27	266.667
868.57	86.667
868.86	61.111
869.16	123.077
869.45	140.000
869.75	300.000
870.04	0.000
870.33	228.571
870.63	66.667
870.92	100.000
871.22	-100.000
871.51	600.000
871.80	133.333
872.10	-33.333
>>>>>End Processed Spectral Data<<<<<
