SpectraSuite Data File
++++++++++++++++++++++++++++++++++++
Date: Fri May 15 17:29:23 PDT 2015
User: schluterlab
Dark Spectrum Present: Yes
Reference Spectrum Present: Yes
Number of Sampled Component Spectra: 1
Spectrometers: USB2E3373
Integration Time (usec): 3000 (USB2E3373)
Spectra Averaged: 3 (USB2E3373)
Boxcar Smoothing: 0 (USB2E3373)
Correct for Electrical Dark: No (USB2E3373)
Strobe/Lamp Enabled: No (USB2E3373)
Correct for Detector Non-linearity: No (USB2E3373)
Correct for Stray Light: No (USB2E3373)
Number of Pixels in Processed Spectrum: 2048
>>>>>Begin Processed Spectral Data<<<<<
178.53	0.000
178.91	0.000
179.29	87.500
179.67	-150.000
180.04	-85.714
180.42	75.000
180.80	100.000
181.18	-100.000
181.56	50.000
181.94	200.000
182.31	-100.000
182.69	-100.000
183.07	-33.333
183.45	-60.000
183.83	166.667
184.20	-90.909
184.58	166.667
184.96	-75.000
185.34	-100.000
185.72	-200.000
186.09	107.692
186.47	0.000
186.85	166.667
187.23	66.667
187.61	-1000.000
187.98	66.667
188.36	-33.333
188.74	-166.667
189.12	129.412
189.49	77.778
189.87	0.000
190.25	85.714
190.63	250.000
191.00	-366.667
191.38	10.526
191.76	400.000
192.14	125.000
192.51	250.000
192.89	-11.111
193.27	-71.429
193.65	100.000
194.02	100.000
194.40	30.000
194.78	-37.500
195.15	-66.667
195.53	-12.500
195.91	200.000
196.29	-150.000
196.66	92.308
197.04	100.000
197.42	0.000
197.79	-266.667
198.17	-23.077
198.55	1000.000
198.92	0.000
199.30	300.000
199.68	-40.000
200.05	-366.667
200.43	0.000
200.81	66.667
201.18	-166.667
201.56	1200.000
201.94	-350.000
202.31	-66.667
202.69	-300.000
203.07	125.000
203.44	-600.000
203.82	0.000
204.19	128.571
204.57	-333.333
204.95	50.000
205.32	50.000
205.70	-71.429
206.08	-200.000
206.45	133.333
206.83	100.000
207.20	0.000
207.58	400.000
207.96	-100.000
208.33	-80.000
208.71	100.000
209.08	-50.000
209.46	-500.000
209.84	-160.000
210.21	-900.000
210.59	85.714
210.96	66.667
211.34	-100.000
211.71	133.333
212.09	-57.143
212.46	-1300.000
212.84	0.000
213.22	110.000
213.59	550.000
213.97	76.923
214.34	90.909
214.72	-50.000
215.09	475.000
215.47	38.462
215.84	-27.273
216.22	-266.667
216.59	-125.000
216.97	300.000
217.34	150.000
217.72	-20.000
218.09	62.500
218.47	150.000
218.84	-300.000
219.22	-44.444
219.59	80.000
219.97	200.000
220.34	150.000
220.72	-28.571
221.09	-200.000
221.47	-500.000
221.84	-250.000
222.22	-400.000
222.59	63.636
222.97	66.667
223.34	-300.000
223.72	21.429
224.09	42.857
224.46	25.000
224.84	200.000
225.21	-90.000
225.59	66.667
225.96	-300.000
226.34	275.000
226.71	-57.143
227.08	-33.333
227.46	-12.500
227.83	-650.000
228.21	11.111
228.58	18.182
228.95	12.500
229.33	110.000
229.70	37.500
230.08	-175.000
230.45	-114.286
230.82	-14.286
231.20	60.000
231.57	42.857
231.95	28.571
232.32	-160.000
232.69	0.000
233.07	100.000
233.44	80.000
233.81	30.000
234.19	-22.222
234.56	23.529
234.93	400.000
235.31	75.000
235.68	-160.000
236.05	46.154
236.43	60.000
236.80	52.941
237.17	59.375
237.55	0.000
237.92	11.111
238.29	47.222
238.67	46.667
239.04	17.647
239.41	26.829
239.79	40.000
240.16	51.220
240.53	52.632
240.91	21.739
241.28	34.921
241.65	48.214
242.02	47.945
242.40	35.000
242.77	38.983
243.14	39.394
243.51	41.250
243.89	48.276
244.26	34.483
244.63	36.905
245.00	38.144
245.38	46.392
245.75	39.326
246.12	31.897
246.49	44.628
246.87	44.231
247.24	41.176
247.61	43.860
247.98	38.211
248.36	41.250
248.73	38.816
249.10	36.364
249.47	39.873
249.84	44.444
250.22	45.294
250.59	44.444
250.96	42.254
251.33	38.372
251.70	38.824
252.08	43.655
252.45	40.099
252.82	43.719
253.19	37.327
253.56	43.458
253.94	37.838
254.31	41.304
254.68	46.053
255.05	44.882
255.42	41.921
255.79	40.541
256.16	36.187
256.54	39.552
256.91	40.304
257.28	36.059
257.65	42.322
258.02	35.816
258.39	40.404
258.76	44.322
259.14	43.522
259.51	41.100
259.88	39.519
260.25	41.830
260.62	43.056
260.99	38.983
261.36	36.986
261.73	40.823
262.10	44.073
262.47	37.423
262.85	35.423
263.22	40.615
263.59	42.679
263.96	47.516
264.33	42.424
264.70	36.905
265.07	37.202
265.44	43.059
265.81	39.831
266.18	40.710
266.55	41.388
266.92	42.228
267.29	36.815
267.66	40.153
268.03	40.314
268.40	37.076
268.77	41.979
269.14	36.451
269.51	40.360
269.88	38.155
270.25	37.755
270.62	41.220
270.99	36.573
271.36	36.186
271.73	37.793
272.10	38.200
272.47	38.061
272.84	37.871
273.21	40.835
273.58	40.000
273.95	39.130
274.32	39.492
274.69	35.294
275.06	38.839
275.43	39.002
275.80	37.748
276.17	37.471
276.54	34.904
276.91	37.939
277.28	33.624
277.65	36.777
278.02	37.234
278.39	35.667
278.76	40.042
279.13	35.892
279.50	35.294
279.87	36.069
280.23	32.473
280.60	37.817
280.97	35.354
281.34	35.385
281.71	36.756
282.08	37.014
282.45	33.659
282.82	34.556
283.19	32.495
283.56	33.911
283.92	34.915
284.29	32.308
284.66	32.752
285.03	35.167
285.40	32.514
285.77	33.040
286.14	33.755
286.51	36.347
286.87	32.358
287.24	34.807
287.61	33.862
287.98	34.912
288.35	32.236
288.72	34.151
289.08	31.424
289.45	33.392
289.82	32.517
290.19	30.717
290.56	30.875
290.93	31.481
291.29	26.656
291.66	30.394
292.03	27.911
292.40	28.387
292.77	27.751
293.13	27.597
293.50	27.011
293.87	27.939
294.24	27.821
294.60	25.931
294.97	26.488
295.34	28.067
295.71	27.571
296.08	25.710
296.44	24.467
296.81	26.111
297.18	25.797
297.55	26.694
297.91	25.753
298.28	24.142
298.65	25.645
299.02	26.280
299.38	24.350
299.75	24.276
300.12	24.084
300.48	24.374
300.85	24.208
301.22	24.545
301.59	24.211
301.95	22.658
302.32	25.292
302.69	23.632
303.05	23.020
303.42	24.533
303.79	24.065
304.15	24.014
304.52	23.900
304.89	21.053
305.25	21.671
305.62	21.237
305.99	20.936
306.35	20.231
306.72	22.610
307.09	21.893
307.45	21.470
307.82	22.338
308.19	23.345
308.55	21.701
308.92	22.767
309.29	21.564
309.65	20.452
310.02	21.562
310.38	22.832
310.75	20.874
311.12	22.067
311.48	21.103
311.85	21.361
312.22	20.570
312.58	19.427
312.95	19.210
313.31	20.186
313.68	20.524
314.05	19.286
314.41	20.309
314.78	20.206
315.14	21.994
315.51	20.807
315.87	21.107
316.24	21.739
316.61	20.768
316.97	21.032
317.34	19.434
317.70	19.312
318.07	19.808
318.43	20.098
318.80	19.508
319.16	20.117
319.53	20.323
319.89	19.685
320.26	19.433
320.62	21.665
320.99	20.251
321.35	19.527
321.72	19.834
322.08	20.645
322.45	19.695
322.81	19.745
323.18	18.155
323.54	18.243
323.91	18.890
324.27	18.848
324.64	20.131
325.00	19.982
325.37	20.202
325.73	20.036
326.10	19.891
326.46	19.910
326.83	20.822
327.19	18.396
327.56	19.722
327.92	19.630
328.29	19.286
328.65	18.679
329.01	18.199
329.38	20.553
329.74	19.358
330.11	19.462
330.47	18.275
330.84	20.192
331.20	19.487
331.56	18.426
331.93	19.178
332.29	20.165
332.66	18.462
333.02	18.587
333.38	17.690
333.75	19.597
334.11	17.995
334.48	19.039
334.84	18.132
335.20	19.579
335.57	18.223
335.93	18.880
336.29	18.600
336.66	18.074
337.02	19.052
337.38	17.870
337.75	17.727
338.11	17.403
338.47	17.792
338.84	17.930
339.20	18.099
339.56	18.807
339.93	19.606
340.29	20.459
340.65	18.817
341.02	17.199
341.38	18.230
341.74	17.668
342.11	16.984
342.47	17.438
342.83	18.166
343.20	17.770
343.56	17.391
343.92	17.449
344.28	18.787
344.65	17.530
345.01	16.940
345.37	17.157
345.73	16.569
346.10	18.809
346.46	17.914
346.82	16.776
347.19	16.043
347.55	18.045
347.91	18.689
348.27	17.462
348.63	17.206
349.00	17.884
349.36	17.124
349.72	17.247
350.08	17.377
350.45	18.117
350.81	15.781
351.17	16.205
351.53	18.204
351.89	16.928
352.26	16.480
352.62	16.855
352.98	17.269
353.34	16.747
353.70	17.557
354.07	16.613
354.43	17.054
354.79	16.433
355.15	17.143
355.51	16.693
355.87	17.233
356.24	16.395
356.60	16.411
356.96	17.778
357.32	16.773
357.68	15.715
358.04	17.124
358.40	15.916
358.77	16.906
359.13	17.134
359.49	16.487
359.85	17.239
360.21	15.630
360.57	15.302
360.93	16.944
361.29	14.804
361.66	16.693
362.02	16.515
362.38	16.070
362.74	16.276
363.10	16.328
363.46	16.901
363.82	16.529
364.18	16.458
364.54	16.691
364.90	15.341
365.26	16.303
365.62	16.423
365.98	17.009
366.35	16.023
366.71	15.595
367.07	16.401
367.43	15.672
367.79	16.890
368.15	16.511
368.51	15.149
368.87	14.860
369.23	15.812
369.59	15.816
369.95	15.469
370.31	16.546
370.67	15.896
371.03	15.161
371.39	15.317
371.75	15.311
372.11	15.335
372.47	15.533
372.83	16.537
373.19	14.337
373.55	15.379
373.91	15.695
374.27	15.308
374.63	15.650
374.99	16.241
375.35	14.972
375.71	16.573
376.07	15.590
376.42	15.170
376.78	15.503
377.14	15.843
377.50	15.471
377.86	15.596
378.22	15.124
378.58	15.385
378.94	15.879
379.30	15.346
379.66	16.489
380.02	14.408
380.38	15.460
380.74	15.500
381.09	15.644
381.45	14.740
381.81	15.423
382.17	15.736
382.53	14.928
382.89	15.191
383.25	16.117
383.61	16.220
383.97	15.429
384.32	14.384
384.68	15.851
385.04	14.522
385.40	15.308
385.76	16.352
386.12	15.912
386.48	15.453
386.83	14.965
387.19	15.934
387.55	15.182
387.91	15.220
388.27	15.324
388.62	14.600
388.98	14.672
389.34	15.928
389.70	15.351
390.06	14.726
390.42	14.443
390.77	15.173
391.13	14.502
391.49	15.589
391.85	14.945
392.20	14.438
392.56	15.257
392.92	14.856
393.28	14.976
393.64	14.535
393.99	16.677
394.35	14.611
394.71	15.198
395.07	16.153
395.42	14.086
395.78	15.440
396.14	15.385
396.50	14.902
396.85	14.617
397.21	15.226
397.57	14.922
397.92	15.099
398.28	15.517
398.64	14.759
399.00	16.253
399.35	13.995
399.71	15.393
400.07	15.115
400.42	14.382
400.78	14.697
401.14	15.608
401.49	15.307
401.85	14.260
402.21	15.663
402.57	15.563
402.92	14.806
403.28	15.163
403.63	15.132
403.99	14.541
404.35	14.803
404.70	15.179
405.06	14.689
405.42	14.605
405.77	15.282
406.13	15.308
406.49	13.973
406.84	15.037
407.20	15.172
407.55	13.844
407.91	14.572
408.27	15.169
408.62	14.585
408.98	14.849
409.34	14.746
409.69	15.052
410.05	14.717
410.40	14.321
410.76	15.078
411.11	14.500
411.47	15.713
411.83	14.250
412.18	14.157
412.54	15.605
412.89	14.594
413.25	15.584
413.60	14.845
413.96	14.785
414.31	15.488
414.67	14.047
415.03	14.048
415.38	15.274
415.74	15.179
416.09	14.827
416.45	15.733
416.80	14.937
417.16	15.539
417.51	15.057
417.87	14.276
418.22	15.026
418.58	15.117
418.93	14.420
419.29	13.636
419.64	14.193
420.00	15.932
420.35	14.866
420.71	15.431
421.06	15.408
421.42	15.685
421.77	15.434
422.12	15.096
422.48	15.051
422.83	14.791
423.19	14.278
423.54	14.109
423.90	14.429
424.25	14.122
424.61	15.422
424.96	14.983
425.31	15.829
425.67	14.847
426.02	15.077
426.38	14.715
426.73	14.952
427.09	15.127
427.44	15.294
427.79	15.262
428.15	14.806
428.50	14.416
428.85	14.803
429.21	15.167
429.56	14.987
429.92	15.306
430.27	15.940
430.62	14.689
430.98	15.127
431.33	15.037
431.68	14.390
432.04	14.980
432.39	15.003
432.74	14.131
433.10	15.805
433.45	14.516
433.80	16.193
434.16	14.404
434.51	14.946
434.86	14.750
435.22	14.807
435.57	14.972
435.92	14.910
436.28	14.848
436.63	14.718
436.98	15.064
437.34	14.701
437.69	15.564
438.04	14.644
438.39	14.478
438.75	14.754
439.10	15.167
439.45	15.764
439.81	14.557
440.16	14.905
440.51	15.403
440.86	16.495
441.22	14.819
441.57	14.845
441.92	15.163
442.27	14.634
442.63	16.542
442.98	15.451
443.33	15.248
443.68	15.066
444.03	15.599
444.39	15.052
444.74	15.440
445.09	15.145
445.44	15.157
445.79	15.781
446.15	15.033
446.50	14.864
446.85	14.665
447.20	15.328
447.55	15.737
447.91	15.285
448.26	15.367
448.61	15.256
448.96	15.204
449.31	15.029
449.66	15.273
450.02	14.318
450.37	15.412
450.72	15.178
451.07	15.316
451.42	15.106
451.77	15.612
452.12	15.371
452.47	14.552
452.83	15.901
453.18	15.244
453.53	15.487
453.88	14.693
454.23	15.181
454.58	15.302
454.93	15.722
455.28	14.603
455.63	15.065
455.98	15.334
456.34	14.368
456.69	15.184
457.04	15.186
457.39	14.763
457.74	14.752
458.09	15.068
458.44	15.506
458.79	15.182
459.14	15.446
459.49	15.582
459.84	16.300
460.19	14.563
460.54	14.425
460.89	14.716
461.24	15.963
461.59	15.618
461.94	14.591
462.29	15.561
462.64	14.884
462.99	14.895
463.34	14.465
463.69	14.994
464.04	14.831
464.39	14.130
464.74	15.215
465.09	15.284
465.44	15.522
465.79	15.476
466.14	15.450
466.49	14.721
466.84	15.051
467.19	14.831
467.54	14.879
467.89	14.466
468.24	14.538
468.59	14.857
468.94	14.159
469.29	14.820
469.64	16.336
469.99	15.767
470.34	13.447
470.68	16.182
471.03	15.145
471.38	14.194
471.73	14.146
472.08	14.993
472.43	13.893
472.78	13.297
473.13	14.898
473.48	13.941
473.83	14.321
474.17	14.249
474.52	14.550
474.87	14.303
475.22	14.216
475.57	14.625
475.92	15.030
476.27	15.076
476.61	14.468
476.96	14.389
477.31	14.873
477.66	14.607
478.01	13.925
478.36	14.107
478.70	14.519
479.05	14.231
479.40	14.361
479.75	14.703
480.10	15.566
480.45	14.900
480.79	15.861
481.14	15.164
481.49	13.892
481.84	14.720
482.19	15.108
482.53	14.868
482.88	14.177
483.23	14.539
483.58	14.481
483.92	14.376
484.27	14.403
484.62	13.940
484.97	13.930
485.31	14.993
485.66	15.932
486.01	17.010
486.36	16.308
486.70	15.928
487.05	15.568
487.40	15.408
487.75	15.070
488.09	14.431
488.44	14.271
488.79	14.681
489.13	14.143
489.48	14.408
489.83	13.453
490.17	13.843
490.52	13.764
490.87	13.882
491.22	14.470
491.56	13.662
491.91	13.862
492.26	13.563
492.60	14.155
492.95	14.412
493.30	13.923
493.64	13.703
493.99	14.010
494.34	13.301
494.68	13.667
495.03	13.674
495.37	14.181
495.72	13.377
496.07	14.098
496.41	13.538
496.76	14.141
497.11	13.787
497.45	14.272
497.80	13.724
498.14	13.562
498.49	13.560
498.84	13.523
499.18	13.705
499.53	13.244
499.87	13.084
500.22	12.760
500.56	13.666
500.91	13.203
501.26	13.544
501.60	13.674
501.95	13.440
502.29	13.220
502.64	14.189
502.98	13.320
503.33	13.641
503.67	14.120
504.02	14.418
504.36	14.349
504.71	12.980
505.06	13.639
505.40	12.944
505.75	13.093
506.09	13.381
506.44	13.758
506.78	13.622
507.13	13.082
507.47	12.272
507.82	12.019
508.16	12.995
508.51	13.274
508.85	13.553
509.19	13.145
509.54	13.780
509.88	13.107
510.23	13.609
510.57	13.201
510.92	12.953
511.26	12.657
511.61	13.861
511.95	12.603
512.30	13.304
512.64	13.244
512.98	12.690
513.33	13.766
513.67	12.507
514.02	13.616
514.36	13.029
514.70	13.228
515.05	13.161
515.39	12.397
515.74	13.593
516.08	13.030
516.42	12.956
516.77	13.049
517.11	12.226
517.46	12.029
517.80	12.694
518.14	12.737
518.49	12.500
518.83	12.211
519.17	12.310
519.52	12.493
519.86	12.725
520.20	12.272
520.55	11.632
520.89	12.296
521.23	12.096
521.58	13.312
521.92	13.013
522.26	11.516
522.61	12.208
522.95	12.185
523.29	11.944
523.64	12.961
523.98	13.091
524.32	11.405
524.66	12.484
525.01	12.792
525.35	12.897
525.69	11.246
526.04	12.302
526.38	13.489
526.72	11.511
527.06	11.673
527.41	12.797
527.75	11.461
528.09	11.827
528.43	13.167
528.78	12.079
529.12	12.452
529.46	12.541
529.80	13.236
530.15	13.069
530.49	11.852
530.83	11.833
531.17	12.559
531.51	12.449
531.86	11.353
532.20	11.900
532.54	12.321
532.88	12.594
533.22	12.702
533.57	13.499
533.91	12.402
534.25	13.216
534.59	12.187
534.93	12.398
535.27	12.183
535.62	12.767
535.96	12.394
536.30	13.391
536.64	12.888
536.98	11.638
537.32	12.660
537.66	12.763
538.01	13.566
538.35	12.968
538.69	12.583
539.03	12.372
539.37	12.113
539.71	12.270
540.05	12.356
540.39	12.812
540.73	12.134
541.07	13.191
541.42	13.172
541.76	12.526
542.10	12.801
542.44	12.648
542.78	11.906
543.12	11.951
543.46	12.587
543.80	12.561
544.14	12.083
544.48	12.991
544.82	12.372
545.16	13.456
545.50	13.084
545.84	12.252
546.18	13.262
546.52	12.473
546.86	12.150
547.20	11.660
547.54	12.226
547.88	12.228
548.22	12.295
548.56	12.731
548.90	13.410
549.24	12.328
549.58	12.482
549.92	13.152
550.26	12.674
550.60	12.342
550.94	11.875
551.28	11.747
551.62	11.692
551.96	12.707
552.30	13.012
552.64	12.059
552.98	12.799
553.32	12.696
553.66	12.264
554.00	12.482
554.34	13.072
554.68	13.053
555.02	12.723
555.36	12.191
555.69	12.674
556.03	12.206
556.37	12.384
556.71	12.491
557.05	11.708
557.39	12.342
557.73	12.444
558.07	12.821
558.41	12.711
558.75	12.315
559.08	11.190
559.42	11.349
559.76	12.330
560.10	11.621
560.44	12.286
560.78	12.517
561.12	13.188
561.45	12.930
561.79	13.025
562.13	12.775
562.47	12.518
562.81	11.671
563.15	13.258
563.48	13.225
563.82	13.109
564.16	13.231
564.50	12.568
564.84	13.521
565.17	12.877
565.51	12.363
565.85	12.963
566.19	12.931
566.52	13.472
566.86	13.175
567.20	12.329
567.54	13.808
567.88	13.240
568.21	13.914
568.55	13.587
568.89	14.066
569.23	13.529
569.56	14.623
569.90	14.698
570.24	15.184
570.57	14.836
570.91	15.162
571.25	15.225
571.59	14.544
571.92	15.200
572.26	14.885
572.60	15.039
572.93	15.281
573.27	15.016
573.61	15.125
573.95	15.483
574.28	15.122
574.62	15.205
574.96	15.532
575.29	14.967
575.63	15.108
575.97	14.801
576.30	14.760
576.64	15.046
576.98	15.393
577.31	15.360
577.65	15.757
577.98	15.807
578.32	15.787
578.66	15.409
578.99	15.419
579.33	15.039
579.67	14.913
580.00	15.241
580.34	15.025
580.67	14.837
581.01	15.130
581.35	15.482
581.68	15.725
582.02	16.003
582.35	15.822
582.69	15.777
583.02	15.467
583.36	15.590
583.70	15.576
584.03	15.096
584.37	15.274
584.70	15.412
585.04	14.637
585.37	15.725
585.71	15.330
586.04	15.658
586.38	14.724
586.72	15.696
587.05	15.280
587.39	16.215
587.72	15.774
588.06	15.500
588.39	15.152
588.73	15.446
589.06	15.395
589.40	15.382
589.73	15.553
590.07	15.181
590.40	14.745
590.73	15.445
591.07	14.546
591.40	14.381
591.74	14.615
592.07	14.935
592.41	15.062
592.74	15.253
593.08	15.962
593.41	15.651
593.75	15.342
594.08	15.242
594.41	15.247
594.75	15.038
595.08	15.096
595.42	15.495
595.75	15.509
596.09	14.894
596.42	15.130
596.75	14.654
597.09	15.034
597.42	15.041
597.75	15.117
598.09	14.667
598.42	14.440
598.76	14.586
599.09	15.304
599.42	14.778
599.76	15.087
600.09	15.460
600.42	15.504
600.76	14.859
601.09	14.809
601.42	15.159
601.76	15.165
602.09	14.686
602.42	15.038
602.76	14.813
603.09	14.909
603.42	15.426
603.76	14.758
604.09	14.945
604.42	15.736
604.76	14.998
605.09	14.899
605.42	14.989
605.75	14.842
606.09	15.329
606.42	15.596
606.75	15.022
607.09	14.374
607.42	15.020
607.75	15.142
608.08	14.241
608.42	14.573
608.75	14.843
609.08	14.599
609.41	14.112
609.75	14.667
610.08	14.878
610.41	14.010
610.74	14.334
611.07	14.884
611.41	14.842
611.74	15.778
612.07	13.972
612.40	14.606
612.73	14.124
613.07	14.004
613.40	14.716
613.73	14.102
614.06	14.858
614.39	14.834
614.72	14.006
615.06	14.804
615.39	14.247
615.72	14.209
616.05	14.693
616.38	14.017
616.71	14.190
617.05	14.577
617.38	14.456
617.71	14.465
618.04	14.794
618.37	14.817
618.70	14.323
619.03	14.792
619.36	14.255
619.69	13.419
620.03	14.244
620.36	14.235
620.69	14.490
621.02	11.927
621.35	13.942
621.68	13.520
622.01	13.417
622.34	14.206
622.67	14.038
623.00	14.319
623.33	14.024
623.66	12.565
623.99	14.070
624.32	13.308
624.65	13.985
624.99	13.995
625.32	12.737
625.65	14.218
625.98	14.263
626.31	12.884
626.64	13.345
626.97	13.438
627.30	12.872
627.63	13.951
627.96	13.028
628.29	12.211
628.62	11.799
628.95	12.926
629.28	11.996
629.61	12.164
629.94	13.685
630.26	12.549
630.59	13.319
630.92	12.718
631.25	12.410
631.58	12.775
631.91	11.404
632.24	11.583
632.57	12.273
632.90	9.846
633.23	11.647
633.56	10.957
633.89	10.727
634.22	13.210
634.55	10.546
634.88	10.856
635.20	11.154
635.53	11.333
635.86	11.053
636.19	13.325
636.52	10.587
636.85	11.166
637.18	11.321
637.51	12.075
637.83	11.038
638.16	12.551
638.49	9.673
638.82	12.763
639.15	11.398
639.48	11.417
639.81	11.994
640.13	11.688
640.46	11.516
640.79	10.604
641.12	10.487
641.45	10.961
641.77	12.296
642.10	12.796
642.43	9.968
642.76	10.396
643.09	11.470
643.41	10.032
643.74	9.226
644.07	11.494
644.40	11.824
644.73	8.581
645.05	10.235
645.38	10.406
645.71	9.929
646.04	11.670
646.36	11.348
646.69	12.410
647.02	10.586
647.35	11.194
647.67	10.238
648.00	11.567
648.33	13.823
648.66	11.864
648.98	10.888
649.31	9.256
649.64	10.989
649.96	11.345
650.29	11.755
650.62	12.137
650.94	9.815
651.27	9.311
651.60	10.450
651.92	12.413
652.25	10.480
652.58	12.833
652.90	13.379
653.23	9.076
653.56	10.660
653.88	10.825
654.21	9.982
654.54	12.224
654.86	11.545
655.19	10.234
655.52	16.331
655.84	17.968
656.17	20.719
656.49	27.780
656.82	28.220
657.15	20.755
657.47	14.709
657.80	10.429
658.13	10.108
658.45	14.541
658.78	14.050
659.10	13.328
659.43	12.911
659.75	12.432
660.08	12.483
660.41	12.666
660.73	11.188
661.06	11.785
661.38	10.372
661.71	6.982
662.03	10.086
662.36	11.209
662.68	8.850
663.01	12.445
663.33	7.657
663.66	8.372
663.98	6.047
664.31	10.874
664.63	7.143
664.96	6.522
665.28	9.934
665.61	10.606
665.93	13.043
666.26	9.978
666.58	8.054
666.91	10.353
667.23	12.028
667.56	9.242
667.88	10.072
668.21	10.501
668.53	13.475
668.86	10.377
669.18	9.670
669.50	10.169
669.83	6.977
670.15	10.023
670.48	13.158
670.80	12.903
671.13	10.962
671.45	8.676
671.77	12.017
672.10	11.683
672.42	10.487
672.75	12.789
673.07	13.596
673.39	11.927
673.72	8.087
674.04	9.792
674.37	10.593
674.69	11.563
675.01	10.444
675.34	9.234
675.66	12.037
675.98	12.860
676.31	12.156
676.63	10.214
676.95	10.000
677.28	10.118
677.60	12.048
677.92	9.862
678.25	10.284
678.57	12.554
678.89	9.454
679.22	8.725
679.54	9.438
679.86	11.332
680.18	11.845
680.51	12.689
680.83	9.742
681.15	11.400
681.48	13.525
681.80	13.223
682.12	13.508
682.44	10.251
682.77	11.921
683.09	10.297
683.41	9.318
683.73	11.982
684.06	10.619
684.38	8.387
684.70	12.418
685.02	10.166
685.34	11.462
685.67	11.257
685.99	13.020
686.31	13.628
686.63	11.503
686.96	11.787
687.28	9.697
687.60	12.167
687.92	13.333
688.24	11.089
688.56	8.297
688.89	10.491
689.21	11.333
689.53	12.529
689.85	12.093
690.17	12.723
690.49	10.165
690.82	8.252
691.14	11.667
691.46	11.449
691.78	12.162
692.10	11.828
692.42	13.853
692.74	13.675
693.06	10.135
693.39	9.276
693.71	11.765
694.03	10.624
694.35	10.514
694.67	13.384
694.99	7.833
695.31	12.794
695.63	11.000
695.95	10.101
696.27	9.845
696.59	10.833
696.91	9.804
697.23	9.769
697.56	11.634
697.88	13.548
698.20	13.667
698.52	12.000
698.84	9.809
699.16	10.250
699.48	13.283
699.80	12.407
700.12	8.895
700.44	10.084
700.76	9.884
701.08	8.788
701.40	10.542
701.72	16.049
702.04	9.901
702.36	12.709
702.68	11.111
703.00	9.697
703.32	9.091
703.64	5.085
703.96	13.043
704.28	7.055
704.60	11.429
704.91	7.256
705.23	9.302
705.55	12.367
705.87	9.747
706.19	12.593
706.51	8.935
706.83	13.826
707.15	8.411
707.47	13.165
707.79	10.938
708.11	14.250
708.43	14.250
708.74	11.886
709.06	14.930
709.38	11.621
709.70	13.905
710.02	8.599
710.34	13.003
710.66	10.897
710.98	8.278
711.29	9.180
711.61	8.814
711.93	11.726
712.25	16.838
712.57	12.088
712.89	9.328
713.20	12.111
713.52	11.150
713.84	9.215
714.16	9.966
714.48	10.645
714.80	11.538
715.11	13.374
715.43	10.031
715.75	7.000
716.07	11.628
716.39	11.074
716.70	11.070
717.02	7.634
717.34	13.360
717.66	10.177
717.97	11.304
718.29	8.368
718.61	9.843
718.93	11.628
719.24	12.928
719.56	11.647
719.88	13.058
720.20	12.121
720.51	11.877
720.83	13.900
721.15	10.084
721.46	12.500
721.78	9.881
722.10	10.037
722.42	4.149
722.73	10.204
723.05	11.837
723.37	14.407
723.68	12.162
724.00	14.530
724.32	13.778
724.63	7.727
724.95	9.607
725.27	10.138
725.58	6.780
725.90	9.127
726.22	7.722
726.53	11.525
726.85	13.858
727.16	13.585
727.48	12.146
727.80	13.360
728.11	10.169
728.43	11.765
728.74	6.452
729.06	12.800
729.38	18.797
729.69	12.749
730.01	9.231
730.32	10.075
730.64	16.961
730.96	14.717
731.27	15.333
731.59	13.220
731.90	12.102
732.22	14.196
732.53	12.957
732.85	10.284
733.16	16.162
733.48	10.432
733.80	12.681
734.11	8.814
734.43	14.777
734.74	13.333
735.06	11.401
735.37	13.293
735.69	13.468
736.00	11.847
736.32	13.087
736.63	13.380
736.95	13.993
737.26	12.456
737.58	13.087
737.89	12.088
738.21	13.534
738.52	12.757
738.83	8.297
739.15	11.790
739.46	16.535
739.78	14.652
740.09	13.072
740.41	13.406
740.72	7.874
741.04	14.980
741.35	11.915
741.66	10.427
741.98	10.204
742.29	8.911
742.61	14.136
742.92	2.370
743.23	8.333
743.55	14.480
743.86	12.440
744.18	9.569
744.49	8.511
744.80	10.326
745.12	13.904
745.43	6.829
745.74	6.250
746.06	8.293
746.37	17.801
746.68	9.005
747.00	11.170
747.31	12.935
747.62	9.709
747.94	11.005
748.25	11.881
748.56	18.579
748.88	10.471
749.19	12.766
749.50	14.778
749.82	5.660
750.13	11.009
750.44	16.165
750.75	16.045
751.07	17.153
751.38	15.709
751.69	10.980
752.01	12.403
752.32	13.546
752.63	16.206
752.94	10.345
753.26	17.573
753.57	9.955
753.88	14.159
754.19	9.583
754.51	6.612
754.82	7.287
755.13	14.167
755.44	10.887
755.75	17.578
756.07	12.451
756.38	10.566
756.69	11.494
757.00	10.000
757.31	15.686
757.63	9.146
757.94	13.611
758.25	14.247
758.56	13.830
758.87	11.331
759.18	12.773
759.50	9.455
759.81	15.385
760.12	16.452
760.43	14.545
760.74	13.580
761.05	11.385
761.36	17.045
761.67	16.667
761.99	12.245
762.30	10.545
762.61	9.881
762.92	12.217
763.23	13.514
763.54	7.944
763.85	11.441
764.16	12.033
764.47	17.742
764.78	15.751
765.10	17.508
765.41	13.565
765.72	12.381
766.03	7.519
766.34	14.599
766.65	16.335
766.96	13.131
767.27	11.702
767.58	12.644
767.89	1.418
768.20	8.523
768.51	13.187
768.82	12.808
769.13	9.677
769.44	16.738
769.75	11.872
770.06	13.362
770.37	12.019
770.68	11.675
770.99	13.122
771.30	18.627
771.61	10.860
771.92	15.086
772.23	14.778
772.54	13.441
772.85	12.963
773.16	12.921
773.47	20.915
773.78	13.072
774.09	13.174
774.39	7.333
774.70	11.465
775.01	19.310
775.32	2.143
775.63	3.306
775.94	8.397
776.25	9.449
776.56	13.333
776.87	5.769
777.18	17.949
777.48	21.552
777.79	-1.739
778.10	4.762
778.41	0.901
778.72	10.317
779.03	26.316
779.34	13.475
779.65	19.178
779.95	17.808
780.26	13.103
780.57	0.000
780.88	9.449
781.19	9.483
781.50	17.829
781.80	10.059
782.11	18.239
782.42	13.846
782.73	7.914
783.04	16.296
783.34	9.028
783.65	8.547
783.96	13.934
784.27	15.862
784.57	4.878
784.88	16.406
785.19	10.000
785.50	22.000
785.81	15.517
786.11	14.655
786.42	7.767
786.73	21.818
787.04	8.163
787.34	5.357
787.65	9.524
787.96	7.080
788.26	8.182
788.57	15.385
788.88	8.594
789.19	8.730
789.49	8.696
789.80	2.041
790.11	9.091
790.41	10.000
790.72	18.478
791.03	15.909
791.33	15.000
791.64	2.500
791.95	8.140
792.25	8.511
792.56	19.101
792.87	16.438
793.17	5.797
793.48	17.333
793.79	3.750
794.09	21.250
794.40	12.264
794.70	5.825
795.01	7.317
795.32	11.966
795.62	19.048
795.93	13.725
796.23	12.264
796.54	17.708
796.85	1.471
797.15	21.127
797.46	22.222
797.76	9.091
798.07	5.814
798.37	-1.316
798.68	0.000
798.99	13.580
799.29	14.286
799.60	13.043
799.90	10.667
800.21	24.590
800.51	6.154
800.82	15.254
801.12	10.145
801.43	13.115
801.73	15.873
802.04	-4.000
802.34	10.448
802.65	7.692
802.95	-3.571
803.26	9.615
803.56	11.765
803.87	-13.043
804.17	17.333
804.48	38.095
804.78	3.704
805.09	2.174
805.39	4.444
805.70	11.111
806.00	7.018
806.30	2.817
806.61	11.429
806.91	-4.167
807.22	19.737
807.52	12.000
807.83	-7.273
808.13	20.833
808.43	11.765
808.74	1.493
809.04	8.475
809.35	-19.231
809.65	14.062
809.95	-24.324
810.26	-13.636
810.56	9.589
810.86	14.286
811.17	2.000
811.47	28.571
811.77	13.158
812.08	11.364
812.38	0.000
812.69	22.500
812.99	-9.091
813.29	0.000
813.59	-5.714
813.90	9.091
814.20	-2.564
814.50	1.923
814.81	1.887
815.11	-6.383
815.41	25.424
815.72	26.190
816.02	23.529
816.32	12.500
816.62	0.000
816.93	16.216
817.23	-2.857
817.53	16.667
817.84	6.522
818.14	21.154
818.44	2.632
818.74	17.391
819.04	-10.000
819.35	13.514
819.65	-11.765
819.95	13.889
820.25	16.667
820.56	25.000
820.86	-24.138
821.16	42.500
821.46	34.043
821.76	22.500
822.07	13.953
822.37	-8.108
822.67	-3.125
822.97	26.190
823.27	0.000
823.57	-8.000
823.88	-29.630
824.18	-3.571
824.48	-14.706
824.78	38.710
825.08	39.130
825.38	0.000
825.69	-20.833
825.99	13.158
826.29	5.556
826.59	-6.667
826.89	-71.429
827.19	32.609
827.49	5.000
827.79	-2.857
828.09	10.714
828.39	30.303
828.70	40.541
829.00	0.000
829.30	0.000
829.60	3.333
829.90	21.875
830.20	-7.895
830.50	-14.815
830.80	-17.391
831.10	-18.182
831.40	42.424
831.70	0.000
832.00	0.000
832.30	-19.048
832.60	-25.000
832.90	20.690
833.20	-60.000
833.50	-15.152
833.80	40.741
834.10	46.154
834.40	15.625
834.70	11.111
835.00	-31.579
835.30	26.923
835.60	80.000
835.90	-3.226
836.20	-22.727
836.50	14.286
836.80	-23.077
837.10	7.143
837.40	-266.667
837.70	50.000
838.00	-9.091
838.30	4.348
838.60	-38.462
838.90	36.364
839.19	17.857
839.49	10.000
839.79	23.077
840.09	-75.000
840.39	60.714
840.69	3.571
840.99	-19.231
841.29	-36.842
841.59	-110.000
841.88	72.727
842.18	-50.000
842.48	25.000
842.78	-66.667
843.08	-3.704
843.38	-80.000
843.68	13.043
843.97	46.667
844.27	20.000
844.57	-10.000
844.87	16.667
845.17	-14.286
845.47	13.333
845.76	-23.810
846.06	82.353
846.36	80.000
846.66	14.286
846.96	33.333
847.25	-212.500
847.55	21.429
847.85	-37.500
848.15	27.273
848.44	-566.667
848.74	20.000
849.04	40.741
849.34	45.455
849.63	-200.000
849.93	-240.000
850.23	16.667
850.53	20.000
850.82	-69.231
851.12	-200.000
851.42	26.667
851.71	-38.462
852.01	0.000
852.31	-50.000
852.61	45.455
852.90	-10.000
853.20	5.263
853.50	-66.667
853.79	-17.391
854.09	54.167
854.39	-26.316
854.68	-29.167
854.98	9.677
855.28	42.308
855.57	0.000
855.87	38.889
856.17	18.519
856.46	28.571
856.76	-6.667
857.05	-33.333
857.35	20.000
857.65	5.556
857.94	-23.077
858.24	37.931
858.53	27.778
858.83	55.556
859.13	31.818
859.42	-13.043
859.72	100.000
860.01	-633.333
860.31	48.000
860.60	-14.286
860.90	-500.000
861.20	-53.333
861.49	-500.000
861.79	26.667
862.08	15.000
862.38	66.667
862.67	-300.000
862.97	-50.000
863.26	50.000
863.56	33.333
863.85	-366.667
864.15	0.000
864.44	-90.000
864.74	64.286
865.03	-100.000
865.33	-40.000
865.62	-83.333
865.92	-25.000
866.21	-33.333
866.51	56.250
866.80	-54.545
867.10	-400.000
867.39	75.000
867.69	0.000
867.98	15.385
868.27	-66.667
868.57	26.667
868.86	38.889
869.16	7.692
869.45	80.000
869.75	-1100.000
870.04	0.000
870.33	-128.571
870.63	80.952
870.92	66.667
871.22	-160.000
871.51	-500.000
871.80	44.444
872.10	166.667
>>>>>End Processed Spectral Data<<<<<
