SpectraSuite Data File
++++++++++++++++++++++++++++++++++++
Date: Fri May 15 17:17:38 PDT 2015
User: schluterlab
Dark Spectrum Present: Yes
Reference Spectrum Present: Yes
Number of Sampled Component Spectra: 1
Spectrometers: USB2E3373
Integration Time (usec): 3000 (USB2E3373)
Spectra Averaged: 3 (USB2E3373)
Boxcar Smoothing: 0 (USB2E3373)
Correct for Electrical Dark: No (USB2E3373)
Strobe/Lamp Enabled: No (USB2E3373)
Correct for Detector Non-linearity: No (USB2E3373)
Correct for Stray Light: No (USB2E3373)
Number of Pixels in Processed Spectrum: 2048
>>>>>Begin Processed Spectral Data<<<<<
178.53	0.000
178.91	0.000
179.29	200.000
179.67	-500.000
180.04	-128.571
180.42	0.000
180.80	0.000
181.18	-0.000
181.56	-200.000
181.94	250.000
182.31	100.000
182.69	40.000
183.07	-66.667
183.45	220.000
183.83	33.333
184.20	27.273
184.58	55.556
184.96	-225.000
185.34	-266.667
185.72	350.000
186.09	7.692
186.47	800.000
186.85	50.000
187.23	100.000
187.61	-800.000
187.98	100.000
188.36	0.000
188.74	-133.333
189.12	82.353
189.49	77.778
189.87	0.000
190.25	85.714
190.63	450.000
191.00	33.333
191.38	42.105
191.76	600.000
192.14	-75.000
192.51	150.000
192.89	77.778
193.27	-14.286
193.65	183.333
194.02	127.273
194.40	90.000
194.78	-25.000
195.15	25.000
195.53	62.500
195.91	75.000
196.29	50.000
196.66	38.462
197.04	-28.571
197.42	44.444
197.79	100.000
198.17	7.692
198.55	800.000
198.92	-433.333
199.30	800.000
199.68	-40.000
200.05	-66.667
200.43	0.000
200.81	300.000
201.18	100.000
201.56	400.000
201.94	350.000
202.31	-233.333
202.69	0.000
203.07	-275.000
203.44	1000.000
203.82	0.000
204.19	92.857
204.57	-133.333
204.95	62.500
205.32	110.000
205.70	114.286
206.08	100.000
206.45	144.444
206.83	121.429
207.20	-42.857
207.58	-100.000
207.96	66.667
208.33	-90.000
208.71	-25.000
209.08	-50.000
209.46	500.000
209.84	80.000
210.21	200.000
210.59	114.286
210.96	83.333
211.34	-100.000
211.71	53.333
212.09	14.286
212.46	-1500.000
212.84	0.000
213.22	90.000
213.59	-100.000
213.97	107.692
214.34	-27.273
214.72	133.333
215.09	175.000
215.47	0.000
215.84	109.091
216.22	166.667
216.59	162.500
216.97	450.000
217.34	-25.000
217.72	40.000
218.09	87.500
218.47	175.000
218.84	0.000
219.22	-11.111
219.59	120.000
219.97	200.000
220.34	-0.000
220.72	14.286
221.09	125.000
221.47	550.000
221.84	-250.000
222.22	-650.000
222.59	36.364
222.97	133.333
223.34	400.000
223.72	21.429
224.09	0.000
224.46	14.286
224.84	-33.333
225.21	50.000
225.59	100.000
225.96	200.000
226.34	-100.000
226.71	171.429
227.08	116.667
227.46	100.000
227.83	-100.000
228.21	-77.778
228.58	81.818
228.95	100.000
229.33	40.000
229.70	50.000
230.08	87.500
230.45	-142.857
230.82	100.000
231.20	53.333
231.57	92.857
231.95	-28.571
232.32	40.000
232.69	85.714
233.07	233.333
233.44	100.000
233.81	-90.000
234.19	133.333
234.56	23.529
234.93	200.000
235.31	250.000
235.68	-180.000
236.05	-7.692
236.43	-10.000
236.80	23.529
237.17	37.500
237.55	50.000
237.92	3.704
238.29	25.000
238.67	50.000
239.04	52.941
239.41	-12.195
239.79	-33.333
240.16	4.878
240.53	5.263
240.91	4.348
241.28	7.937
241.65	14.286
242.02	13.699
242.40	-3.333
242.77	13.559
243.14	3.030
243.51	8.750
243.89	19.540
244.26	8.046
244.63	19.048
245.00	12.371
245.38	7.216
245.75	-8.989
246.12	10.345
246.49	5.785
246.87	15.385
247.24	0.840
247.61	0.877
247.98	3.252
248.36	4.375
248.73	9.868
249.10	2.597
249.47	8.228
249.84	5.229
250.22	-1.176
250.59	9.150
250.96	14.085
251.33	0.581
251.70	7.059
252.08	7.107
252.45	5.941
252.82	5.528
253.19	6.452
253.56	1.402
253.94	7.658
254.31	10.000
254.68	8.333
255.05	6.693
255.42	9.607
255.79	7.722
256.16	6.226
256.54	7.463
256.91	3.802
257.28	5.948
257.65	3.745
258.02	1.418
258.39	7.071
258.76	6.593
259.14	7.309
259.51	4.854
259.88	3.093
260.25	4.902
260.62	3.472
260.99	2.034
261.36	1.370
261.73	5.696
262.10	4.255
262.47	3.681
262.85	2.194
263.22	3.692
263.59	3.427
263.96	9.006
264.33	5.152
264.70	3.869
265.07	3.274
265.44	5.949
265.81	6.497
266.18	4.918
266.55	5.141
266.92	3.368
267.29	7.050
267.66	5.882
268.03	4.450
268.40	4.178
268.77	6.150
269.14	7.674
269.51	6.941
269.88	3.242
270.25	2.296
270.62	3.659
270.99	4.092
271.36	4.156
271.73	5.634
272.10	4.866
272.47	4.728
272.84	3.713
273.21	7.657
273.58	5.542
273.95	6.865
274.32	3.695
274.69	2.036
275.06	6.027
275.43	2.948
275.80	5.519
276.17	2.069
276.54	5.567
276.91	5.921
277.28	3.493
277.65	4.132
278.02	7.021
278.39	1.532
278.76	5.241
279.13	2.490
279.50	4.832
279.87	5.832
280.23	2.796
280.60	4.873
280.97	5.051
281.34	2.500
281.71	5.955
282.08	0.409
282.45	4.892
282.82	4.440
283.19	2.708
283.56	3.661
283.92	3.416
284.29	2.885
284.66	4.264
285.03	3.340
285.40	4.348
285.77	2.812
286.14	4.513
286.51	5.166
286.87	2.559
287.24	3.683
287.61	2.998
287.98	5.439
288.35	2.600
288.72	4.553
289.08	3.993
289.45	5.448
289.82	5.594
290.19	2.901
290.56	3.602
290.93	3.535
291.29	2.928
291.66	2.205
292.03	5.263
292.40	2.258
292.77	4.306
293.13	0.649
293.50	3.187
293.87	5.344
294.24	5.255
294.60	3.577
294.97	5.208
295.34	3.528
295.71	2.981
296.08	2.840
296.44	2.418
296.81	4.028
297.18	2.899
297.55	6.233
297.91	3.836
298.28	4.485
298.65	3.528
299.02	4.043
299.38	1.642
299.75	2.483
300.12	3.796
300.48	1.845
300.85	4.816
301.22	4.545
301.59	2.368
301.95	4.304
302.32	3.761
302.69	3.980
303.05	3.094
303.42	3.362
303.79	3.972
304.15	3.584
304.52	0.832
304.89	2.339
305.25	3.027
305.62	2.100
305.99	3.041
306.35	2.775
306.72	2.137
307.09	3.079
307.45	3.559
307.82	2.083
308.19	4.181
308.55	3.708
308.92	3.595
309.29	1.229
309.65	1.938
310.02	3.410
310.38	2.964
310.75	3.060
311.12	3.875
311.48	3.075
311.85	2.723
312.22	3.270
312.58	2.866
312.95	2.775
313.31	2.899
313.68	1.675
314.05	3.265
314.41	2.680
314.78	4.536
315.14	4.317
315.51	4.141
315.87	3.689
316.24	4.348
316.61	4.528
316.97	4.762
317.34	4.590
317.70	4.589
318.07	4.615
318.43	5.588
318.80	5.019
319.16	5.078
319.53	6.648
319.89	5.906
320.26	6.680
320.62	8.024
320.99	6.472
321.35	7.194
321.72	9.138
322.08	9.265
322.45	9.848
322.81	10.413
323.18	10.304
323.54	10.714
323.91	11.685
324.27	13.477
324.64	13.951
325.00	16.880
325.37	18.733
325.73	16.863
326.10	20.254
326.46	20.628
326.83	21.872
327.19	23.191
327.56	25.022
327.92	26.144
328.29	26.875
328.65	29.057
329.01	28.585
329.38	31.797
329.74	30.406
330.11	34.106
330.47	32.375
330.84	34.231
331.20	38.688
331.56	36.111
331.93	38.904
332.29	39.322
332.66	38.733
333.02	40.149
333.38	41.247
333.75	42.949
334.11	40.376
334.48	45.150
334.84	43.773
335.20	46.203
335.57	43.699
335.93	44.444
336.29	46.501
336.66	45.777
337.02	46.468
337.38	46.019
337.75	46.909
338.11	46.438
338.47	49.088
338.84	48.614
339.20	49.269
339.56	47.890
339.93	47.717
340.29	49.358
340.65	50.538
341.02	48.582
341.38	48.319
341.74	48.410
342.11	49.653
342.47	50.534
342.83	50.519
343.20	50.087
343.56	51.478
343.92	50.487
344.28	51.153
344.65	50.086
345.01	52.290
345.37	49.033
345.73	50.377
346.10	51.510
346.46	52.313
346.82	51.882
347.19	49.626
347.55	52.464
347.91	51.699
348.27	51.576
348.63	51.789
349.00	49.877
349.36	52.785
349.72	52.985
350.08	52.131
350.45	52.115
350.81	52.575
351.17	51.303
351.53	53.143
351.89	52.023
352.26	53.040
352.62	52.661
352.98	50.843
353.34	52.254
353.70	52.508
354.07	51.371
354.43	52.122
354.79	53.179
355.15	53.571
355.51	53.323
355.87	53.398
356.24	53.507
356.60	54.810
356.96	55.079
357.32	54.393
357.68	53.948
358.04	54.120
358.40	54.180
358.77	54.785
359.13	53.563
359.49	54.083
359.85	55.148
360.21	54.785
360.57	53.558
360.93	54.841
361.29	53.776
361.66	56.034
362.02	54.242
362.38	56.283
362.74	56.397
363.10	55.756
363.46	55.745
363.82	54.921
364.18	55.424
364.54	56.544
364.90	56.416
365.26	56.259
365.62	57.007
365.98	56.452
366.35	57.101
366.71	57.280
367.07	56.604
367.43	56.794
367.79	55.830
368.15	58.220
368.51	58.339
368.87	57.143
369.23	56.318
369.59	59.694
369.95	59.384
370.31	58.598
370.67	57.761
371.03	58.402
371.39	59.154
371.75	59.927
372.11	57.275
372.47	59.320
372.83	59.688
373.19	58.987
373.55	58.700
373.91	59.539
374.27	61.162
374.63	61.019
374.99	59.220
375.35	60.446
375.71	62.308
376.07	61.587
376.42	61.973
376.78	60.805
377.14	60.799
377.50	63.147
377.86	62.718
378.22	60.179
378.58	62.756
378.94	61.626
379.30	62.445
379.66	63.009
380.02	62.784
380.38	62.629
380.74	63.136
381.09	64.356
381.45	62.875
381.81	63.664
382.17	63.071
382.53	64.959
382.89	66.353
383.25	65.713
383.61	65.000
383.97	65.524
384.32	64.103
384.68	65.635
385.04	64.461
385.40	64.966
385.76	66.981
386.12	67.400
386.48	66.220
386.83	66.075
387.19	65.324
387.55	66.625
387.91	65.159
388.27	66.728
388.62	66.960
388.98	65.316
389.34	66.209
389.70	65.382
390.06	64.254
390.42	65.868
390.77	65.402
391.13	66.393
391.49	66.688
391.85	68.096
392.20	65.223
392.56	68.214
392.92	66.588
393.28	67.099
393.64	66.486
393.99	68.150
394.35	66.856
394.71	66.092
395.07	66.122
395.42	65.574
395.78	67.752
396.14	66.267
396.50	67.153
396.85	68.319
397.21	65.727
397.57	67.022
397.92	66.087
398.28	67.816
398.64	66.084
399.00	68.679
399.35	66.084
399.71	65.882
400.07	67.896
400.42	65.239
400.78	68.524
401.14	66.243
401.49	67.064
401.85	67.093
402.21	66.566
402.57	67.813
402.92	64.241
403.28	67.043
403.63	66.520
403.99	65.689
404.35	66.708
404.70	63.810
405.06	65.629
405.42	65.009
405.77	65.485
406.13	65.658
406.49	64.180
406.84	65.037
407.20	64.901
407.55	64.778
407.91	66.043
408.27	65.137
408.62	64.123
408.98	64.079
409.34	64.622
409.69	64.276
410.05	63.670
410.40	64.568
410.76	65.018
411.11	65.938
411.47	64.563
411.83	63.214
412.18	66.409
412.54	64.482
412.89	63.300
413.25	64.501
413.60	63.665
413.96	63.620
414.31	63.963
414.67	64.015
415.03	64.248
415.38	64.426
415.74	64.821
416.09	65.513
416.45	63.673
416.80	63.781
417.16	66.644
417.51	65.223
417.87	63.950
418.22	64.832
418.58	65.819
418.93	66.332
419.29	64.149
419.64	65.846
420.00	66.499
420.35	63.881
420.71	66.707
421.06	65.255
421.42	66.166
421.77	66.879
422.12	66.061
422.48	66.378
422.83	67.575
423.19	66.084
423.54	66.843
423.90	66.726
424.25	67.049
424.61	67.748
424.96	67.073
425.31	68.226
425.67	68.369
426.02	68.198
426.38	68.065
426.73	69.431
427.09	68.924
427.44	67.882
427.79	68.827
428.15	68.204
428.50	69.110
428.85	67.445
429.21	69.553
429.56	71.105
429.92	69.029
430.27	68.872
430.62	69.577
430.98	69.798
431.33	69.190
431.68	68.603
432.04	69.871
432.39	68.853
432.74	67.589
433.10	69.770
433.45	70.072
433.80	70.459
434.16	71.579
434.51	70.968
434.86	71.080
435.22	71.957
435.57	71.616
435.92	72.275
436.28	70.066
436.63	70.622
436.98	71.205
437.34	70.538
437.69	72.212
438.04	70.997
438.39	71.106
438.75	72.556
439.10	71.986
439.45	73.463
439.81	71.070
440.16	72.625
440.51	72.299
440.86	72.749
441.22	72.229
441.57	73.344
441.92	74.029
442.27	74.279
442.63	74.036
442.98	73.176
443.33	71.397
443.68	72.573
444.03	72.976
444.39	72.996
444.74	74.415
445.09	74.165
445.44	74.131
445.79	75.297
446.15	73.568
446.50	72.823
446.85	73.698
447.20	73.670
447.55	72.879
447.91	72.814
448.26	73.648
448.61	72.021
448.96	74.584
449.31	74.335
449.66	74.100
450.02	73.303
450.37	75.104
450.72	73.253
451.07	74.051
451.42	72.222
451.77	72.092
452.12	71.711
452.47	72.376
452.83	74.441
453.18	73.561
453.53	74.905
453.88	73.953
454.23	73.141
454.58	74.874
454.93	74.356
455.28	73.460
455.63	73.838
455.98	73.903
456.34	74.010
456.69	73.761
457.04	74.039
457.39	75.091
457.74	73.881
458.09	73.102
458.44	74.137
458.79	74.118
459.14	73.913
459.49	74.328
459.84	74.281
460.19	73.665
460.54	73.533
460.89	73.977
461.24	74.658
461.59	74.525
461.94	71.698
462.29	73.884
462.64	74.950
462.99	73.257
463.34	72.601
463.69	72.329
464.04	74.153
464.39	73.257
464.74	73.926
465.09	73.862
465.44	73.630
465.79	72.676
466.14	73.090
466.49	73.260
466.84	73.171
467.19	72.340
467.54	72.095
467.89	73.468
468.24	71.229
468.59	72.444
468.94	72.254
469.29	73.770
469.64	73.069
469.99	74.702
470.34	73.174
470.68	73.154
471.03	73.107
471.38	73.894
471.73	72.759
472.08	72.727
472.43	73.960
472.78	72.927
473.13	72.721
473.48	71.987
473.83	71.295
474.17	73.187
474.52	73.197
474.87	73.152
475.22	73.826
475.57	73.631
475.92	74.383
476.27	73.865
476.61	74.537
476.96	70.664
477.31	72.363
477.66	70.899
478.01	73.273
478.36	72.440
478.70	74.769
479.05	73.187
479.40	74.192
479.75	71.950
480.10	73.169
480.45	72.750
480.79	73.212
481.14	73.463
481.49	71.478
481.84	72.587
482.19	72.077
482.53	73.189
482.88	72.124
483.23	72.265
483.58	72.217
483.92	72.604
484.27	71.650
484.62	72.120
484.97	72.181
485.31	72.471
485.66	73.052
486.01	72.834
486.36	72.943
486.70	70.937
487.05	71.476
487.40	71.820
487.75	71.887
488.09	70.426
488.44	70.186
488.79	70.303
489.13	72.516
489.48	71.911
489.83	71.390
490.17	71.730
490.52	71.501
490.87	70.939
491.22	71.968
491.56	71.632
491.91	70.650
492.26	72.241
492.60	71.209
492.95	72.602
493.30	71.470
493.64	72.446
493.99	72.754
494.34	71.650
494.68	71.952
495.03	71.387
495.37	71.050
495.72	72.034
496.07	73.707
496.41	71.462
496.76	72.317
497.11	70.610
497.45	70.692
497.80	73.512
498.14	70.939
498.49	71.915
498.84	70.858
499.18	71.436
499.53	71.081
499.87	72.374
500.22	70.129
500.56	70.903
500.91	70.833
501.26	70.242
501.60	71.913
501.95	71.761
502.29	71.138
502.64	72.828
502.98	72.077
503.33	71.806
503.67	70.410
504.02	71.114
504.36	71.598
504.71	70.556
505.06	71.263
505.40	70.254
505.75	71.701
506.09	70.857
506.44	72.639
506.78	71.480
507.13	71.251
507.47	69.295
507.82	71.421
508.16	70.998
508.51	70.881
508.85	72.318
509.19	71.048
509.54	71.957
509.88	71.305
510.23	72.243
510.57	71.138
510.92	70.149
511.26	71.249
511.61	72.882
511.95	71.123
512.30	70.344
512.64	70.006
512.98	71.589
513.33	71.572
513.67	71.575
514.02	71.682
514.36	71.600
514.70	72.145
515.05	71.328
515.39	71.724
515.74	72.575
516.08	71.668
516.42	71.555
516.77	71.094
517.11	72.166
517.46	71.634
517.80	71.931
518.14	70.912
518.49	70.433
518.83	71.810
519.17	70.467
519.52	71.285
519.86	71.068
520.20	72.053
520.55	71.357
520.89	71.769
521.23	70.361
521.58	71.483
521.92	72.436
522.26	70.202
522.61	71.429
522.95	72.715
523.29	70.330
523.64	70.076
523.98	72.845
524.32	71.456
524.66	72.855
525.01	71.039
525.35	70.966
525.69	72.525
526.04	70.833
526.38	73.411
526.72	68.345
527.06	70.298
527.41	70.646
527.75	70.710
528.09	70.764
528.43	70.831
528.78	70.891
529.12	70.194
529.46	71.735
529.80	70.298
530.15	73.201
530.49	71.313
530.83	70.451
531.17	68.771
531.51	71.272
531.86	69.341
532.20	70.842
532.54	69.299
532.88	70.294
533.22	69.960
533.57	69.856
533.91	71.214
534.25	72.852
534.59	70.815
534.93	69.604
535.27	69.987
535.62	71.095
535.96	69.667
536.30	68.997
536.64	71.468
536.98	70.174
537.32	71.266
537.66	71.178
538.01	71.818
538.35	70.388
538.69	70.573
539.03	69.310
539.37	70.727
539.71	71.029
540.05	69.450
540.39	69.114
540.73	70.084
541.07	70.235
541.42	70.027
541.76	70.750
542.10	70.475
542.44	72.481
542.78	68.135
543.12	69.918
543.46	71.419
543.80	71.062
544.14	68.358
544.48	69.087
544.82	72.317
545.16	70.970
545.50	70.761
545.84	70.255
546.18	71.418
546.52	70.440
546.86	70.165
547.20	70.100
547.54	70.035
547.88	71.332
548.22	69.428
548.56	70.185
548.90	68.868
549.24	68.939
549.58	69.111
549.92	69.693
550.26	69.744
550.60	70.335
550.94	71.695
551.28	70.170
551.62	72.308
551.96	71.203
552.30	69.298
552.64	69.817
552.98	69.972
553.32	70.399
553.66	71.263
554.00	70.438
554.34	71.566
554.68	69.617
555.02	70.089
555.36	71.429
555.69	70.183
556.03	69.879
556.37	69.964
556.71	70.903
557.05	71.961
557.39	68.773
557.73	72.039
558.07	69.910
558.41	71.363
558.75	71.005
559.08	70.922
559.42	70.794
559.76	71.817
560.10	69.725
560.44	71.035
560.78	69.720
561.12	71.086
561.45	71.398
561.79	70.378
562.13	71.043
562.47	70.288
562.81	71.470
563.15	70.592
563.48	70.792
563.82	71.997
564.16	71.031
564.50	70.338
564.84	70.348
565.17	69.752
565.51	71.926
565.85	73.457
566.19	70.822
566.52	71.783
566.86	69.023
567.20	71.731
567.54	72.567
567.88	71.705
568.21	72.624
568.55	71.848
568.89	70.893
569.23	70.871
569.56	70.534
569.90	71.904
570.24	68.255
570.57	71.018
570.91	70.617
571.25	71.062
571.59	69.698
571.92	68.533
572.26	69.233
572.60	69.395
572.93	68.654
573.27	68.934
573.61	68.735
573.95	69.252
574.28	68.909
574.62	68.294
574.96	67.689
575.29	68.021
575.63	66.105
575.97	67.254
576.30	69.272
576.64	67.656
576.98	69.781
577.31	69.599
577.65	68.670
577.98	69.083
578.32	68.008
578.66	67.655
578.99	67.618
579.33	67.649
579.67	66.692
580.00	67.797
580.34	68.085
580.67	67.705
581.01	69.236
581.35	68.885
581.68	68.746
582.02	68.233
582.35	68.969
582.69	68.153
583.02	67.806
583.36	68.630
583.70	69.678
584.03	69.224
584.37	69.452
584.70	69.643
585.04	67.720
585.37	68.182
585.71	69.316
586.04	67.801
586.38	68.418
586.72	68.608
587.05	70.277
587.39	69.891
587.72	70.558
588.06	68.835
588.39	69.069
588.73	69.963
589.06	70.385
589.40	69.443
589.73	68.821
590.07	69.411
590.40	70.201
590.73	71.376
591.07	69.466
591.40	69.635
591.74	70.452
592.07	71.243
592.41	69.832
592.74	70.729
593.08	69.717
593.41	69.786
593.75	70.003
594.08	68.932
594.41	69.687
594.75	69.618
595.08	70.526
595.42	70.004
595.75	70.822
596.09	69.625
596.42	69.574
596.75	69.671
597.09	70.797
597.42	69.919
597.75	70.728
598.09	68.764
598.42	69.088
598.76	69.670
599.09	69.631
599.42	68.283
599.76	69.977
600.09	69.268
600.42	68.878
600.76	68.611
601.09	68.588
601.42	69.134
601.76	69.472
602.09	69.802
602.42	70.767
602.76	69.949
603.09	70.598
603.42	71.196
603.76	69.153
604.09	70.109
604.42	70.474
604.76	70.227
605.09	70.567
605.42	69.481
605.75	70.096
606.09	69.809
606.42	69.308
606.75	69.351
607.09	69.275
607.42	69.428
607.75	69.183
608.08	68.014
608.42	68.205
608.75	70.554
609.08	71.101
609.41	70.102
609.75	69.758
610.08	71.043
610.41	70.242
610.74	68.601
611.07	71.111
611.41	71.303
611.74	70.629
612.07	69.647
612.40	72.101
612.73	72.147
613.07	70.866
613.40	71.827
613.73	71.125
614.06	70.785
614.39	70.502
614.72	70.028
615.06	71.229
615.39	68.668
615.72	69.860
616.05	69.609
616.38	69.744
616.71	71.988
617.05	71.402
617.38	71.150
617.71	71.258
618.04	71.619
618.37	72.762
618.70	71.287
619.03	72.917
619.36	71.418
619.69	72.934
620.03	73.776
620.36	71.531
620.69	70.735
621.02	71.254
621.35	73.444
621.68	73.299
622.01	71.583
622.34	73.424
622.67	72.082
623.00	71.975
623.33	72.256
623.66	71.279
623.99	70.424
624.32	73.004
624.65	71.955
624.99	71.708
625.32	71.873
625.65	73.998
625.98	73.811
626.31	72.402
626.64	72.184
626.97	73.386
627.30	72.680
627.63	72.877
627.96	73.226
628.29	74.098
628.62	73.451
628.95	73.447
629.28	76.008
629.61	72.881
629.94	74.291
630.26	70.949
630.59	75.234
630.92	75.795
631.25	70.974
631.58	75.000
631.91	73.684
632.24	75.344
632.57	75.227
632.90	74.140
633.23	72.353
633.56	76.952
633.89	74.723
634.22	75.556
634.55	73.571
634.88	74.457
635.20	73.590
635.53	79.467
635.86	76.203
636.19	77.232
636.52	76.403
636.85	72.953
637.18	74.843
637.51	72.327
637.83	73.062
638.16	78.581
638.49	74.659
638.82	75.658
639.15	76.526
639.48	73.865
639.81	74.895
640.13	77.056
640.46	77.405
640.79	77.320
641.12	76.366
641.45	76.426
641.77	74.222
642.10	80.569
642.43	77.492
642.76	74.752
643.09	75.767
643.41	75.405
643.74	79.242
644.07	77.833
644.40	76.858
644.73	79.335
645.05	73.826
645.38	78.483
645.71	75.355
646.04	80.251
646.36	75.887
646.69	76.619
647.02	78.828
647.35	78.545
647.67	79.342
648.00	78.731
648.33	74.915
648.66	77.119
648.98	77.052
649.31	78.017
649.64	73.783
649.96	75.041
650.29	78.705
650.62	77.436
650.94	79.630
651.27	79.702
651.60	74.955
651.92	74.825
652.25	73.890
652.58	74.667
652.90	80.103
653.23	75.630
653.56	73.604
653.88	76.117
654.21	78.284
654.54	75.722
654.86	76.570
655.19	75.000
655.52	74.690
655.84	72.117
656.17	80.320
656.49	100.000
656.82	100.000
657.15	96.174
657.47	62.201
657.80	46.259
658.13	45.532
658.45	69.664
658.78	69.322
659.10	68.490
659.43	68.608
659.75	71.288
660.08	71.931
660.41	73.851
660.73	72.376
661.06	76.256
661.38	76.125
661.71	73.306
662.03	78.970
662.36	77.802
662.68	79.425
663.01	79.039
663.33	77.726
663.66	82.791
663.98	78.605
664.31	76.759
664.63	78.802
664.96	73.913
665.28	78.146
665.61	77.922
665.93	77.826
666.26	77.874
666.58	79.642
666.91	79.765
667.23	78.538
667.56	79.147
667.88	78.657
668.21	82.339
668.53	81.087
668.86	79.245
669.18	80.425
669.50	78.208
669.83	76.977
670.15	78.788
670.48	80.861
670.80	79.263
671.13	76.063
671.45	78.539
671.77	80.687
672.10	75.842
672.42	77.528
672.75	77.620
673.07	75.671
673.39	74.679
673.72	70.611
674.04	77.292
674.37	79.025
674.69	78.373
675.01	77.333
675.34	79.730
675.66	79.861
675.98	79.823
676.31	77.752
676.63	78.385
676.95	76.591
677.28	78.118
677.60	77.831
677.92	80.275
678.25	78.775
678.57	77.922
678.89	77.101
679.22	82.103
679.54	74.900
679.86	74.553
680.18	76.699
680.51	78.030
680.83	80.318
681.15	76.800
681.48	77.869
681.80	79.339
682.12	76.411
682.44	78.661
682.77	80.353
683.09	76.201
683.41	74.773
683.73	79.032
684.06	77.212
684.38	75.484
684.70	79.739
685.02	78.008
685.34	74.506
685.67	75.797
685.99	76.492
686.31	75.752
686.63	76.252
686.96	76.236
687.28	75.354
687.60	75.285
687.92	81.010
688.24	76.815
688.56	79.694
688.89	77.902
689.21	76.222
689.53	78.190
689.85	77.674
690.17	78.125
690.49	80.142
690.82	77.670
691.14	75.000
691.46	77.570
691.78	79.054
692.10	79.570
692.42	74.675
692.74	75.855
693.06	77.027
693.39	75.113
693.71	75.566
694.03	78.291
694.35	80.374
694.67	79.040
694.99	77.546
695.31	79.634
695.63	77.250
695.95	77.020
696.27	78.238
696.59	81.389
696.91	75.910
697.23	75.835
697.56	81.188
697.88	75.054
698.20	75.626
698.52	78.824
698.84	73.684
699.16	74.750
699.48	78.195
699.80	74.442
700.12	80.593
700.44	79.552
700.76	77.326
701.08	76.970
701.40	79.217
701.72	79.630
702.04	82.508
702.36	83.612
702.68	76.276
703.00	82.121
703.32	75.953
703.64	75.141
703.96	78.261
704.28	78.834
704.60	80.635
704.91	73.817
705.23	80.731
705.55	84.452
705.87	85.921
706.19	85.185
706.51	76.289
706.83	82.315
707.15	80.685
707.47	81.513
707.79	76.562
708.11	78.500
708.43	74.750
708.74	75.194
709.06	82.817
709.38	78.593
709.70	76.627
710.02	83.439
710.34	74.303
710.66	71.474
710.98	75.828
711.29	83.607
711.61	84.407
711.93	78.176
712.25	82.818
712.57	81.319
712.89	80.224
713.20	78.547
713.52	75.610
713.84	80.205
714.16	81.443
714.48	80.323
714.80	85.577
715.11	78.723
715.43	74.608
715.75	82.000
716.07	78.738
716.39	78.523
716.70	74.539
717.02	77.099
717.34	83.401
717.66	84.513
717.97	78.261
718.29	82.845
718.61	82.283
718.93	80.620
719.24	82.890
719.56	82.329
719.88	76.289
720.20	80.682
720.51	74.330
720.83	78.378
721.15	81.513
721.46	80.645
721.78	79.447
722.10	70.260
722.42	82.573
722.73	80.408
723.05	84.082
723.37	88.983
723.68	86.036
724.00	80.342
724.32	80.444
724.63	76.364
724.95	79.476
725.27	86.175
725.58	81.356
725.90	78.968
726.22	79.151
726.53	77.966
726.85	82.397
727.16	79.245
727.48	78.138
727.80	81.781
728.11	79.237
728.43	74.510
728.74	75.806
729.06	78.800
729.38	80.827
729.69	81.275
730.01	77.308
730.32	79.851
730.64	78.445
730.96	82.264
731.27	78.000
731.59	79.661
731.90	76.752
732.22	75.394
732.53	83.389
732.85	81.560
733.16	78.788
733.48	77.338
733.80	78.986
734.11	74.237
734.43	79.038
734.74	81.212
735.06	78.502
735.37	79.456
735.69	80.135
736.00	75.958
736.32	76.510
736.63	77.817
736.95	75.427
737.26	75.801
737.58	76.846
737.89	78.388
738.21	77.068
738.52	80.247
738.83	76.856
739.15	81.223
739.46	77.559
739.78	78.388
740.09	73.203
740.41	78.623
740.72	75.197
741.04	80.567
741.35	74.894
741.66	86.730
741.98	78.571
742.29	75.248
742.61	80.105
742.92	79.147
743.23	79.167
743.55	77.828
743.86	82.297
744.18	75.598
744.49	80.319
744.80	86.413
745.12	93.583
745.43	74.634
745.74	84.896
746.06	77.073
746.37	79.058
746.68	79.621
747.00	82.447
747.31	88.060
747.62	83.981
747.94	86.603
748.25	78.713
748.56	77.596
748.88	83.770
749.19	86.702
749.50	80.296
749.82	80.660
750.13	79.817
750.44	81.203
750.75	81.716
751.07	79.927
751.38	76.245
751.69	75.686
752.01	77.519
752.32	80.876
752.63	74.704
752.94	79.310
753.26	78.243
753.57	67.873
753.88	76.549
754.19	79.167
754.51	82.231
754.82	78.543
755.13	79.583
755.44	81.855
755.75	77.734
756.07	75.097
756.38	79.245
756.69	78.161
757.00	79.333
757.31	77.124
757.63	71.037
757.94	72.778
758.25	73.151
758.56	75.000
758.87	69.405
759.18	67.601
759.50	77.818
759.81	75.251
760.12	74.516
760.43	70.606
760.74	70.679
761.05	78.154
761.36	74.716
761.67	80.909
761.99	78.912
762.30	69.818
762.61	69.565
762.92	76.923
763.23	74.775
763.54	75.234
763.85	76.271
764.16	75.104
764.47	74.597
764.78	70.330
765.10	75.758
765.41	76.025
765.72	73.651
766.03	77.068
766.34	77.737
766.65	77.689
766.96	77.778
767.27	79.787
767.58	69.540
767.89	76.596
768.20	72.727
768.51	80.769
768.82	72.414
769.13	77.880
769.44	75.107
769.75	74.886
770.06	69.397
770.37	75.481
770.68	75.635
770.99	68.326
771.30	77.941
771.61	80.995
771.92	76.724
772.23	81.281
772.54	77.419
772.85	79.630
773.16	83.146
773.47	92.810
773.78	91.503
774.09	73.054
774.39	76.000
774.70	76.433
775.01	80.000
775.32	73.571
775.63	83.471
775.94	77.863
776.25	72.441
776.56	75.833
776.87	77.885
777.18	80.342
777.48	74.138
777.79	76.522
778.10	77.143
778.41	73.874
778.72	74.603
779.03	81.955
779.34	74.468
779.65	82.192
779.95	76.712
780.26	71.034
780.57	75.610
780.88	70.079
781.19	64.655
781.50	80.620
781.80	72.781
782.11	74.214
782.42	90.000
782.73	75.540
783.04	75.556
783.34	64.583
783.65	76.068
783.96	85.246
784.27	84.138
784.57	83.740
784.88	75.781
785.19	91.000
785.50	90.000
785.81	76.724
786.11	79.310
786.42	83.495
786.73	88.182
787.04	81.633
787.34	65.179
787.65	75.238
787.96	74.336
788.26	85.455
788.57	74.359
788.88	75.000
789.19	73.016
789.49	69.565
789.80	78.571
790.11	70.707
790.41	61.818
790.72	69.565
791.03	75.000
791.33	88.750
791.64	68.750
791.95	74.419
792.25	72.340
792.56	70.787
792.87	83.562
793.17	66.667
793.48	73.333
793.79	85.000
794.09	75.000
794.40	73.585
794.70	80.583
795.01	73.171
795.32	69.231
795.62	79.048
795.93	79.412
796.23	69.811
796.54	78.125
796.85	76.471
797.15	71.831
797.46	79.167
797.76	95.455
798.07	61.628
798.37	82.895
798.68	72.727
798.99	71.605
799.29	77.143
799.60	82.609
799.90	77.333
800.21	73.770
800.51	75.385
800.82	101.695
801.12	65.217
801.43	80.328
801.73	79.365
802.04	66.000
802.34	71.642
802.65	86.538
802.95	60.714
803.26	65.385
803.56	82.353
803.87	80.435
804.17	62.667
804.48	84.127
804.78	75.926
805.09	67.391
805.39	84.444
805.70	70.370
806.00	50.877
806.30	57.746
806.61	81.429
806.91	65.278
807.22	86.842
807.52	70.667
807.83	67.273
808.13	70.833
808.43	85.294
808.74	77.612
809.04	81.356
809.35	94.231
809.65	79.687
809.95	75.676
810.26	65.909
810.56	53.425
810.86	73.810
811.17	62.000
811.47	91.837
811.77	68.421
812.08	93.182
812.38	79.245
812.69	95.000
812.99	90.909
813.29	71.053
813.59	77.143
813.90	79.545
814.20	79.487
814.50	76.923
814.81	88.679
815.11	78.723
815.41	66.102
815.72	64.286
816.02	78.431
816.32	75.000
816.62	68.293
816.93	89.189
817.23	51.429
817.53	72.917
817.84	63.043
818.14	61.538
818.44	78.947
818.74	67.391
819.04	22.500
819.35	89.189
819.65	85.294
819.95	80.556
820.25	61.905
820.56	90.000
820.86	65.517
821.16	67.500
821.46	76.596
821.76	65.000
822.07	67.442
822.37	70.270
822.67	75.000
822.97	73.810
823.27	75.000
823.57	92.000
823.88	70.370
824.18	114.286
824.48	73.529
824.78	58.065
825.08	73.913
825.38	66.667
825.69	75.000
825.99	63.158
826.29	63.889
826.59	153.333
826.89	128.571
827.19	65.217
827.49	75.000
827.79	105.714
828.09	96.429
828.39	87.879
828.70	108.108
829.00	53.571
829.30	85.714
829.60	86.667
829.90	93.750
830.20	65.789
830.50	85.185
830.80	95.652
831.10	9.091
831.40	96.970
831.70	90.323
832.00	133.333
832.30	61.905
832.60	141.667
832.90	55.172
833.20	80.000
833.50	90.909
833.80	48.148
834.10	73.077
834.40	40.625
834.70	88.889
835.00	57.895
835.30	134.615
835.60	140.000
835.90	74.194
836.20	90.909
836.50	64.286
836.80	42.308
837.10	82.143
837.40	433.333
837.70	63.636
838.00	109.091
838.30	104.348
838.60	61.538
838.90	90.909
839.19	64.286
839.49	100.000
839.79	69.231
840.09	83.333
840.39	85.714
840.69	53.571
840.99	19.231
841.29	47.368
841.59	110.000
841.88	100.000
842.18	160.000
842.48	75.000
842.78	73.333
843.08	85.185
843.38	40.000
843.68	65.217
843.97	106.667
844.27	46.667
844.57	110.000
844.87	105.556
845.17	47.619
845.47	120.000
845.76	52.381
846.06	94.118
846.36	90.000
846.66	57.143
846.96	86.667
847.25	87.500
847.55	114.286
847.85	-25.000
848.15	31.818
848.44	-100.000
848.74	115.000
849.04	85.185
849.34	109.091
849.63	66.667
849.93	60.000
850.23	77.778
850.53	120.000
850.82	-30.769
851.12	88.889
851.42	66.667
851.71	26.923
852.01	107.143
852.31	-100.000
852.61	63.636
852.90	45.000
853.20	42.105
853.50	133.333
853.79	34.783
854.09	66.667
854.39	47.368
854.68	100.000
854.98	67.742
855.28	107.692
855.57	40.000
855.87	100.000
856.17	77.778
856.46	50.000
856.76	93.333
857.05	244.444
857.35	88.000
857.65	72.222
857.94	76.923
858.24	82.759
858.53	44.444
858.83	85.185
859.13	81.818
859.42	60.870
859.72	225.000
860.01	0.000
860.31	76.000
860.60	57.143
860.90	166.667
861.20	33.333
861.49	450.000
861.79	80.000
862.08	75.000
862.38	113.333
862.67	100.000
862.97	66.667
863.26	41.667
863.56	100.000
863.85	-66.667
864.15	66.667
864.44	80.000
864.74	92.857
865.03	-75.000
865.33	140.000
865.62	200.000
865.92	108.333
866.21	166.667
866.51	87.500
866.80	54.545
867.10	650.000
867.39	166.667
867.69	0.000
867.98	92.308
868.27	-33.333
868.57	86.667
868.86	83.333
869.16	15.385
869.45	100.000
869.75	-700.000
870.04	0.000
870.33	-28.571
870.63	95.238
870.92	-233.333
871.22	60.000
871.51	600.000
871.80	44.444
872.10	66.667
>>>>>End Processed Spectral Data<<<<<
