SpectraSuite Data File
++++++++++++++++++++++++++++++++++++
Date: Fri May 15 17:17:35 PDT 2015
User: schluterlab
Dark Spectrum Present: Yes
Reference Spectrum Present: Yes
Number of Sampled Component Spectra: 1
Spectrometers: USB2E3373
Integration Time (usec): 3000 (USB2E3373)
Spectra Averaged: 3 (USB2E3373)
Boxcar Smoothing: 0 (USB2E3373)
Correct for Electrical Dark: No (USB2E3373)
Strobe/Lamp Enabled: No (USB2E3373)
Correct for Detector Non-linearity: No (USB2E3373)
Correct for Stray Light: No (USB2E3373)
Number of Pixels in Processed Spectrum: 2048
>>>>>Begin Processed Spectral Data<<<<<
178.53	0.000
178.91	0.000
179.29	112.500
179.67	350.000
180.04	-200.000
180.42	375.000
180.80	500.000
181.18	-400.000
181.56	250.000
181.94	450.000
182.31	400.000
182.69	260.000
183.07	-166.667
183.45	140.000
183.83	66.667
184.20	136.364
184.58	33.333
184.96	-125.000
185.34	-100.000
185.72	200.000
186.09	30.769
186.47	300.000
186.85	-116.667
187.23	-55.556
187.61	-800.000
187.98	66.667
188.36	133.333
188.74	-66.667
189.12	76.471
189.49	94.444
189.87	0.000
190.25	107.143
190.63	50.000
191.00	-233.333
191.38	10.526
191.76	750.000
192.14	-200.000
192.51	200.000
192.89	111.111
193.27	28.571
193.65	116.667
194.02	100.000
194.40	50.000
194.78	-112.500
195.15	0.000
195.53	37.500
195.91	325.000
196.29	25.000
196.66	30.769
197.04	-0.000
197.42	-33.333
197.79	-233.333
198.17	0.000
198.55	800.000
198.92	33.333
199.30	1300.000
199.68	-160.000
200.05	66.667
200.43	0.000
200.81	233.333
201.18	400.000
201.56	-700.000
201.94	50.000
202.31	-233.333
202.69	-100.000
203.07	-50.000
203.44	1300.000
203.82	0.000
204.19	142.857
204.57	-166.667
204.95	-100.000
205.32	110.000
205.70	157.143
206.08	100.000
206.45	222.222
206.83	121.429
207.20	0.000
207.58	700.000
207.96	-266.667
208.33	-40.000
208.71	75.000
209.08	-133.333
209.46	-200.000
209.84	100.000
210.21	-200.000
210.59	100.000
210.96	100.000
211.34	0.000
211.71	66.667
212.09	14.286
212.46	-1100.000
212.84	0.000
213.22	110.000
213.59	-50.000
213.97	84.615
214.34	136.364
214.72	116.667
215.09	125.000
215.47	-15.385
215.84	45.455
216.22	66.667
216.59	75.000
216.97	50.000
217.34	100.000
217.72	-60.000
218.09	137.500
218.47	50.000
218.84	100.000
219.22	22.222
219.59	40.000
219.97	166.667
220.34	-75.000
220.72	85.714
221.09	75.000
221.47	250.000
221.84	-150.000
222.22	-100.000
222.59	27.273
222.97	100.000
223.34	0.000
223.72	35.714
224.09	9.524
224.46	39.286
224.84	66.667
225.21	80.000
225.59	60.000
225.96	-200.000
226.34	450.000
226.71	57.143
227.08	83.333
227.46	112.500
227.83	50.000
228.21	-22.222
228.58	18.182
228.95	-25.000
229.33	-10.000
229.70	56.250
230.08	0.000
230.45	-42.857
230.82	242.857
231.20	40.000
231.57	100.000
231.95	128.571
232.32	70.000
232.69	7.143
233.07	366.667
233.44	-20.000
233.81	-10.000
234.19	-22.222
234.56	35.294
234.93	-200.000
235.31	200.000
235.68	-180.000
236.05	-15.385
236.43	-40.000
236.80	17.647
237.17	34.375
237.55	10.000
237.92	11.111
238.29	33.333
238.67	16.667
239.04	11.765
239.41	-7.317
239.79	3.333
240.16	29.268
240.53	18.421
240.91	6.522
241.28	25.397
241.65	30.357
242.02	17.808
242.40	1.667
242.77	6.780
243.14	-7.576
243.51	6.250
243.89	13.793
244.26	4.598
244.63	14.286
245.00	8.247
245.38	19.588
245.75	-15.730
246.12	3.448
246.49	9.917
246.87	5.769
247.24	1.681
247.61	1.754
247.98	-0.813
248.36	6.250
248.73	1.974
249.10	-1.299
249.47	6.329
249.84	-4.575
250.22	0.588
250.59	0.000
250.96	6.103
251.33	-1.163
251.70	1.765
252.08	-0.508
252.45	6.931
252.82	4.523
253.19	2.304
253.56	-4.673
253.94	4.054
254.31	6.522
254.68	3.947
255.05	-2.756
255.42	-0.873
255.79	2.703
256.16	0.389
256.54	3.358
256.91	1.141
257.28	1.115
257.65	-1.124
258.02	0.355
258.39	5.387
258.76	2.930
259.14	3.987
259.51	4.531
259.88	-0.687
260.25	0.980
260.62	3.472
260.99	0.000
261.36	-1.712
261.73	-2.215
262.10	4.863
262.47	2.147
262.85	1.254
263.22	-0.615
263.59	3.738
263.96	4.658
264.33	0.909
264.70	1.190
265.07	-0.595
265.44	4.249
265.81	0.847
266.18	0.546
266.55	3.856
266.92	1.036
267.29	2.611
267.66	2.302
268.03	-0.262
268.40	-2.089
268.77	3.209
269.14	2.158
269.51	2.828
269.88	1.496
270.25	2.041
270.62	-0.244
270.99	-0.767
271.36	0.244
271.73	3.286
272.10	-0.243
272.47	1.418
272.84	1.238
273.21	3.248
273.58	2.169
273.95	2.288
274.32	1.155
274.69	0.000
275.06	0.223
275.43	0.454
275.80	2.208
276.17	-0.230
276.54	2.570
276.91	-0.439
277.28	-0.437
277.65	2.273
278.02	1.277
278.39	0.438
278.76	1.468
279.13	-0.207
279.50	2.101
279.87	3.024
280.23	0.860
280.60	2.924
280.97	1.010
281.34	-0.962
281.71	1.643
282.08	0.613
282.45	-0.196
282.82	1.158
283.19	0.387
283.56	1.541
283.92	-1.518
284.29	-0.577
284.66	1.163
285.03	-0.196
285.40	0.378
285.77	-0.176
286.14	1.625
286.51	2.952
286.87	2.194
287.24	-0.184
287.61	-0.705
287.98	1.228
288.35	0.520
288.72	0.175
289.08	1.562
289.45	1.406
289.82	1.573
290.19	0.171
290.56	0.515
290.93	1.010
291.29	1.695
291.66	3.150
292.03	0.159
292.40	0.645
292.77	1.754
293.13	-0.812
293.50	0.607
293.87	1.527
294.24	1.236
294.60	0.298
294.97	1.935
295.34	-0.613
295.71	1.043
296.08	1.644
296.44	0.569
296.81	2.083
297.18	0.435
297.55	1.626
297.91	1.370
298.28	1.187
298.65	2.849
299.02	-0.135
299.38	-1.368
299.75	0.138
300.12	-0.131
300.48	0.132
300.85	0.507
301.22	-0.909
301.59	-2.237
301.95	0.886
302.32	1.297
302.69	0.995
303.05	0.743
303.42	0.623
303.79	0.701
304.15	1.553
304.52	0.832
304.89	0.468
305.25	1.332
305.62	0.117
305.99	0.117
306.35	-0.925
306.72	0.000
307.09	0.570
307.45	0.918
307.82	0.463
308.19	0.348
308.55	0.000
308.92	1.634
309.29	-0.223
309.65	0.753
310.02	1.210
310.38	0.659
310.75	1.749
311.12	-0.431
311.48	0.848
311.85	1.466
312.22	-0.422
312.58	0.849
312.95	0.213
313.31	1.035
313.68	1.047
314.05	0.204
314.41	1.031
314.78	0.103
315.14	0.411
315.51	1.553
315.87	0.000
316.24	1.618
316.61	2.461
316.97	1.687
317.34	1.660
317.70	2.103
318.07	1.346
318.43	1.569
318.80	0.284
319.16	1.465
319.53	1.804
319.89	1.181
320.26	1.518
320.62	2.508
320.99	2.088
321.35	2.569
321.72	3.219
322.08	1.813
322.45	2.437
322.81	3.438
323.18	3.631
323.54	3.764
323.91	3.700
324.27	3.516
324.64	5.056
325.00	6.569
325.37	6.612
325.73	6.074
326.10	6.630
326.46	7.444
326.83	7.962
327.19	7.934
327.56	9.209
327.92	10.299
328.29	10.714
328.65	11.226
329.01	12.224
329.38	12.811
329.74	13.031
330.11	13.438
330.47	15.213
330.84	14.327
331.20	17.776
331.56	15.463
331.93	18.082
332.29	18.515
332.66	18.552
333.02	18.773
333.38	19.065
333.75	21.337
334.11	19.875
334.48	20.762
334.84	21.795
335.20	21.775
335.57	22.484
335.93	22.313
336.29	23.112
336.66	21.526
337.02	22.677
337.38	23.519
337.75	24.636
338.11	23.625
338.47	24.270
338.84	24.214
339.20	24.223
339.56	23.578
339.93	25.873
340.29	25.413
340.65	24.910
341.02	24.734
341.38	25.133
341.74	23.763
342.11	24.263
342.47	24.911
342.83	25.433
343.20	24.042
343.56	25.130
343.92	25.775
344.28	25.192
344.65	24.698
345.01	26.448
345.37	25.568
345.73	26.192
346.10	25.712
346.46	26.241
346.82	25.041
347.19	24.938
347.55	25.815
347.91	25.809
348.27	24.656
348.63	25.639
349.00	25.595
349.36	26.600
349.72	27.197
350.08	25.574
350.45	26.097
350.81	25.166
351.17	24.349
351.53	26.531
351.89	25.268
352.26	25.680
352.62	25.968
352.98	26.747
353.34	24.718
353.70	25.890
354.07	25.484
354.43	26.181
354.79	25.434
355.15	26.984
355.51	26.187
355.87	25.405
356.24	25.449
356.60	25.627
356.96	26.190
357.32	25.479
357.68	25.801
358.04	26.171
358.40	25.080
358.77	27.193
359.13	27.062
359.49	26.502
359.85	25.585
360.21	26.954
360.57	25.555
360.93	26.475
361.29	25.453
361.66	27.038
362.02	27.273
362.38	26.961
362.74	26.722
363.10	27.991
363.46	25.723
363.82	28.249
364.18	26.716
364.54	27.059
364.90	26.738
365.26	26.565
365.62	27.737
365.98	27.273
366.35	28.114
366.71	26.903
367.07	28.157
367.43	27.103
367.79	27.774
368.15	26.849
368.51	27.895
368.87	27.710
369.23	27.942
369.59	28.134
369.95	28.666
370.31	28.685
370.67	28.209
371.03	27.035
371.39	27.571
371.75	28.425
372.11	28.245
372.47	29.068
372.83	28.389
373.19	29.030
373.55	28.375
373.91	29.374
374.27	29.128
374.63	29.576
374.99	27.730
375.35	29.318
375.71	30.140
376.07	29.213
376.42	29.524
376.78	29.732
377.14	28.978
377.50	29.482
377.86	29.987
378.22	30.121
378.58	29.872
378.94	30.687
379.30	29.944
379.66	31.223
380.02	29.001
380.38	29.154
380.74	29.563
381.09	30.859
381.45	30.581
381.81	31.092
382.17	30.838
382.53	30.418
382.89	30.822
383.25	31.425
383.61	31.707
383.97	31.365
384.32	31.707
384.68	30.774
385.04	31.863
385.40	31.238
385.76	32.704
386.12	32.471
386.48	32.695
386.83	32.403
387.19	32.234
387.55	31.995
387.91	32.885
388.27	32.845
388.62	32.536
388.98	31.553
389.34	32.355
389.70	33.561
390.06	31.970
390.42	32.448
390.77	32.897
391.13	31.526
391.49	32.665
391.85	32.619
392.20	31.576
392.56	32.422
392.92	33.001
393.28	32.665
393.64	32.913
393.99	33.103
394.35	32.385
394.71	33.142
395.07	32.055
395.42	32.301
395.78	33.029
396.14	33.480
396.50	34.242
396.85	33.162
397.21	34.085
397.57	33.229
397.92	32.774
398.28	33.966
398.64	31.928
399.00	33.973
399.35	31.941
399.71	31.821
400.07	32.104
400.42	32.313
400.78	32.578
401.14	32.486
401.49	32.758
401.85	31.749
402.21	32.349
402.57	32.688
402.92	32.434
403.28	31.579
403.63	31.778
403.99	32.207
404.35	33.292
404.70	31.726
405.06	31.022
405.42	32.256
405.77	30.796
406.13	31.257
406.49	32.031
406.84	32.457
407.20	32.450
407.55	31.487
407.91	31.684
408.27	31.485
408.62	32.246
408.98	31.793
409.34	32.094
409.69	31.331
410.05	31.650
410.40	31.235
410.76	31.665
411.11	31.063
411.47	30.966
411.83	31.952
412.18	32.239
412.54	30.899
412.89	31.219
413.25	32.070
413.60	31.491
413.96	30.798
414.31	31.037
414.67	31.302
415.03	31.691
415.38	31.593
415.74	31.336
416.09	32.724
416.45	32.478
416.80	31.659
417.16	32.113
417.51	32.045
417.87	31.030
418.22	31.865
418.58	31.438
418.93	32.790
419.29	30.730
419.64	32.145
420.00	32.053
420.35	30.925
420.71	33.050
421.06	31.860
421.42	32.993
421.77	31.676
422.12	32.009
422.48	32.106
422.83	32.309
423.19	32.167
423.54	32.275
423.90	32.097
424.25	32.032
424.61	33.721
424.96	32.346
425.31	33.044
425.67	32.864
426.02	33.628
426.38	34.502
426.73	33.959
427.09	35.063
427.44	33.529
427.79	33.707
428.15	33.617
428.50	34.101
428.85	33.477
429.21	33.786
429.56	35.040
429.92	34.617
430.27	33.835
430.62	33.612
430.98	33.493
431.33	34.227
431.68	33.909
432.04	34.489
432.39	34.227
432.74	33.854
433.10	35.000
433.45	34.229
433.80	35.055
434.16	34.737
434.51	34.409
434.86	33.624
435.22	35.614
435.57	33.936
435.92	34.311
436.28	34.884
436.63	35.482
436.98	33.778
437.34	34.906
437.69	35.182
438.04	34.587
438.39	34.453
438.75	36.066
439.10	35.654
439.45	35.301
439.81	36.208
440.16	35.392
440.51	35.522
440.86	37.039
441.22	36.369
441.57	36.258
441.92	36.726
442.27	36.142
442.63	37.634
442.98	35.841
443.33	36.060
443.68	35.544
444.03	36.910
444.39	37.236
444.74	37.458
445.09	36.247
445.44	37.094
445.79	36.823
446.15	37.280
446.50	36.439
446.85	36.823
447.20	36.496
447.55	37.667
447.91	36.548
448.26	35.913
448.61	36.730
448.96	37.177
449.31	36.705
449.66	37.340
450.02	36.281
450.37	37.641
450.72	37.056
451.07	37.278
451.42	36.330
451.77	37.131
452.12	36.483
452.47	35.544
452.83	37.102
453.18	37.255
453.53	36.410
453.88	37.219
454.23	37.615
454.58	37.720
454.93	37.436
455.28	36.698
455.63	37.384
455.98	38.184
456.34	37.420
456.69	36.849
457.04	37.681
457.39	36.938
457.74	37.485
458.09	36.198
458.44	36.688
458.79	37.647
459.14	37.815
459.49	37.851
459.84	37.281
460.19	38.107
460.54	38.264
460.89	37.273
461.24	38.261
461.59	37.886
461.94	36.604
462.29	38.118
462.64	37.342
462.99	37.982
463.34	36.996
463.69	37.066
464.04	36.743
464.39	37.720
464.74	36.503
465.09	37.867
465.44	37.565
465.79	35.941
466.14	38.027
466.49	36.343
466.84	37.002
467.19	37.046
467.54	37.101
467.89	37.271
468.24	37.530
468.59	37.778
468.94	36.317
469.29	38.623
469.64	37.526
469.99	37.141
470.34	36.109
470.68	36.689
471.03	37.650
471.38	37.375
471.73	36.695
472.08	37.178
472.43	37.718
472.78	36.806
473.13	38.435
473.48	37.590
473.83	36.675
474.17	37.176
474.52	36.631
474.87	38.545
475.22	37.096
475.57	36.985
475.92	37.521
476.27	37.776
476.61	37.211
476.96	36.029
477.31	37.966
477.66	37.921
478.01	37.282
478.36	37.255
478.70	37.847
479.05	37.418
479.40	37.626
479.75	36.392
480.10	36.969
480.45	37.100
480.79	38.570
481.14	37.346
481.49	36.207
481.84	37.355
482.19	37.371
482.53	37.026
482.88	37.136
483.23	36.948
483.58	37.783
483.92	36.447
484.27	36.281
484.62	36.710
484.97	36.484
485.31	36.669
485.66	37.238
486.01	37.615
486.36	36.722
486.70	36.252
487.05	36.431
487.40	36.117
487.75	35.887
488.09	35.136
488.44	35.970
488.79	35.936
489.13	36.619
489.48	36.469
489.83	36.592
490.17	35.551
490.52	36.305
490.87	35.909
491.22	36.963
491.56	36.243
491.91	35.899
492.26	37.093
492.60	37.140
492.95	36.744
493.30	36.883
493.64	36.493
493.99	37.150
494.34	35.825
494.68	36.524
495.03	35.231
495.37	36.506
495.72	37.304
496.07	37.463
496.41	36.651
496.76	36.205
497.11	35.678
497.45	36.420
497.80	38.396
498.14	36.513
498.49	36.160
498.84	35.579
499.18	37.651
499.53	36.409
499.87	35.846
500.22	34.965
500.56	36.006
500.91	35.191
501.26	36.777
501.60	36.940
501.95	36.390
502.29	35.400
502.64	36.390
502.98	36.458
503.33	35.687
503.67	36.096
504.02	36.217
504.36	36.813
504.71	35.505
505.06	35.481
505.40	35.838
505.75	36.031
506.09	35.631
506.44	36.704
506.78	36.173
507.13	36.298
507.47	35.405
507.82	35.684
508.16	36.609
508.51	35.729
508.85	35.950
509.19	35.391
509.54	35.764
509.88	36.516
510.23	35.234
510.57	35.703
510.92	34.328
511.26	36.225
511.61	36.139
511.95	35.781
512.30	35.865
512.64	36.171
512.98	36.272
513.33	35.534
513.67	35.418
514.02	37.243
514.36	36.286
514.70	37.063
515.05	37.544
515.39	35.065
515.74	37.006
516.08	37.298
516.42	36.690
516.77	36.747
517.11	35.549
517.46	35.248
517.80	35.638
518.14	35.456
518.49	35.517
518.83	35.541
519.17	34.991
519.52	36.057
519.86	35.234
520.20	34.690
520.55	36.398
520.89	35.947
521.23	37.049
521.58	35.521
521.92	36.218
522.26	37.085
522.61	35.714
522.95	35.563
523.29	35.642
523.64	35.324
523.98	36.034
524.32	35.825
524.66	36.364
525.01	35.974
525.35	36.099
525.69	35.219
526.04	34.458
526.38	35.992
526.72	34.598
527.06	35.149
527.41	36.609
527.75	35.523
528.09	34.551
528.43	36.394
528.78	35.380
529.12	35.097
529.46	35.413
529.80	35.149
530.15	36.700
530.49	34.613
530.83	36.252
531.17	35.460
531.51	35.021
531.86	34.738
532.20	34.308
532.54	34.990
532.88	35.318
533.22	35.148
533.57	34.862
533.91	34.399
534.25	34.896
534.59	34.573
534.93	34.298
535.27	35.025
535.62	34.089
535.96	34.703
536.30	35.752
536.64	36.802
536.98	35.749
537.32	36.131
537.66	36.255
538.01	35.105
538.35	36.546
538.69	35.486
539.03	35.680
539.37	35.330
539.71	35.106
540.05	34.759
540.39	34.695
540.73	35.565
541.07	34.876
541.42	35.282
541.76	35.306
542.10	35.444
542.44	35.789
542.78	34.136
543.12	34.547
543.46	35.327
543.80	35.739
544.14	33.445
544.48	34.177
544.82	35.065
545.16	35.656
545.50	34.646
545.84	34.773
546.18	35.603
546.52	34.751
546.86	34.508
547.20	35.265
547.54	34.064
547.88	34.307
548.22	33.859
548.56	34.433
548.90	34.097
549.24	33.402
549.58	34.838
549.92	33.667
550.26	34.652
550.60	35.316
550.94	34.727
551.28	35.471
551.62	35.462
551.96	35.865
552.30	34.576
552.64	34.203
552.98	34.318
553.32	33.809
553.66	34.253
554.00	35.255
554.34	33.826
554.68	33.702
555.02	35.193
555.36	34.106
555.69	33.333
556.03	35.118
556.37	34.021
556.71	34.729
557.05	34.899
557.39	34.647
557.73	34.183
558.07	33.560
558.41	35.375
558.75	34.606
559.08	34.279
559.42	35.397
559.76	34.508
560.10	34.557
560.44	34.698
560.78	34.336
561.12	34.697
561.45	35.488
561.79	34.384
562.13	34.989
562.47	34.676
562.81	34.510
563.15	34.485
563.48	34.158
563.82	34.798
564.16	34.401
564.50	34.257
564.84	34.873
565.17	34.004
565.51	35.861
565.85	33.813
566.19	33.820
566.52	34.853
566.86	35.154
567.20	34.807
567.54	33.637
567.88	34.739
568.21	35.011
568.55	35.163
568.89	34.600
569.23	34.280
569.56	34.632
569.90	34.633
570.24	33.383
570.57	34.436
570.91	34.054
571.25	33.542
571.59	33.136
571.92	33.333
572.26	32.911
572.60	32.806
572.93	33.354
573.27	32.853
573.61	33.532
573.95	33.834
574.28	33.157
574.62	32.749
574.96	32.934
575.29	32.332
575.63	32.055
575.97	32.638
576.30	32.893
576.64	32.954
576.98	33.436
577.31	33.276
577.65	33.670
577.98	33.474
578.32	32.680
578.66	32.581
578.99	32.148
579.33	32.725
579.67	31.996
580.00	32.557
580.34	33.234
580.67	32.789
581.01	32.685
581.35	32.924
581.68	32.887
582.02	33.107
582.35	32.201
582.69	33.268
583.02	32.472
583.36	32.576
583.70	33.437
584.03	32.944
584.37	33.682
584.70	33.104
585.04	32.668
585.37	32.875
585.71	33.128
586.04	32.829
586.38	32.862
586.72	33.286
587.05	33.160
587.39	33.100
587.72	33.953
588.06	33.241
588.39	33.068
588.73	32.814
589.06	33.725
589.40	33.045
589.73	34.100
590.07	33.912
590.40	33.785
590.73	34.185
591.07	33.673
591.40	34.105
591.74	34.570
592.07	35.019
592.41	33.922
592.74	33.572
593.08	32.728
593.41	33.048
593.75	33.039
594.08	33.299
594.41	33.079
594.75	33.321
595.08	33.787
595.42	32.720
595.75	33.534
596.09	33.346
596.42	33.196
596.75	34.192
597.09	34.123
597.42	33.740
597.75	34.219
598.09	34.178
598.42	32.717
598.76	33.162
599.09	33.213
599.42	32.588
599.76	33.220
600.09	33.786
600.42	33.207
600.76	33.098
601.09	32.939
601.42	33.412
601.76	33.029
602.09	32.756
602.42	33.656
602.76	33.701
603.09	33.887
603.42	33.946
603.76	32.460
604.09	32.847
604.42	33.587
604.76	33.333
605.09	32.952
605.42	33.093
605.75	33.056
606.09	32.611
606.42	32.902
606.75	33.203
607.09	33.626
607.42	32.875
607.75	33.526
608.08	32.435
608.42	32.618
608.75	33.542
609.08	33.582
609.41	33.503
609.75	33.669
610.08	34.299
610.41	33.188
610.74	33.301
611.07	33.695
611.41	34.146
611.74	33.955
612.07	33.994
612.40	34.409
612.73	34.576
613.07	33.858
613.40	34.136
613.73	32.513
614.06	33.890
614.39	33.897
614.72	34.006
615.06	32.961
615.39	33.952
615.72	33.638
616.05	33.464
616.38	31.909
616.71	34.373
617.05	33.539
617.38	34.255
617.71	34.969
618.04	35.683
618.37	34.174
618.70	33.861
619.03	34.722
619.36	34.009
619.69	34.875
620.03	35.427
620.36	33.619
620.69	35.046
621.02	33.945
621.35	34.191
621.68	35.714
622.01	34.917
622.34	34.796
622.67	35.016
623.00	35.299
623.33	35.213
623.66	33.209
623.99	34.342
624.32	34.829
624.65	33.233
624.99	33.484
625.32	33.889
625.65	35.978
625.98	35.133
626.31	33.998
626.64	35.095
626.97	35.166
627.30	35.114
627.63	35.962
627.96	35.580
628.29	35.430
628.62	34.907
628.95	34.770
629.28	36.190
629.61	34.995
629.94	36.168
630.26	34.783
630.59	35.900
630.92	34.872
631.25	35.590
631.58	34.581
631.91	36.184
632.24	36.583
632.57	35.341
632.90	33.452
633.23	35.765
633.56	35.013
633.89	35.758
634.22	36.667
634.55	35.705
634.88	35.632
635.20	35.513
635.53	35.467
635.86	35.371
636.19	38.292
636.52	36.097
636.85	34.243
637.18	34.591
637.51	34.843
637.83	34.823
638.16	38.608
638.49	34.196
638.82	36.711
639.15	34.871
639.48	34.801
639.81	35.425
640.13	37.085
640.46	36.735
640.79	36.966
641.12	36.632
641.45	35.736
641.77	33.333
642.10	37.915
642.43	38.103
642.76	34.983
643.09	36.026
643.41	33.495
643.74	35.585
644.07	35.961
644.40	38.851
644.73	39.405
645.05	36.242
645.38	36.508
645.71	37.411
646.04	36.266
646.36	34.574
646.69	38.489
647.02	37.429
647.35	37.500
647.67	36.197
648.00	37.873
648.33	36.860
648.66	36.780
648.98	36.348
649.31	35.041
649.64	35.479
649.96	34.684
650.29	35.775
650.62	35.556
650.94	33.333
651.27	35.754
651.60	38.559
651.92	38.462
652.25	35.346
652.58	37.167
652.90	39.794
653.23	35.966
653.56	34.856
653.88	36.254
654.21	33.975
654.54	38.200
654.86	37.012
655.19	36.257
655.52	34.675
655.84	33.179
656.17	37.469
656.49	50.503
656.82	52.402
657.15	39.226
657.47	29.026
657.80	21.481
658.13	21.092
658.45	31.749
658.78	31.328
659.10	31.201
659.43	31.429
659.75	32.363
660.08	33.241
660.41	35.240
660.73	34.392
661.06	36.915
661.38	35.616
661.71	34.702
662.03	37.124
662.36	37.143
662.68	35.841
663.01	37.336
663.33	37.587
663.66	38.837
663.98	37.907
664.31	35.394
664.63	34.101
664.96	34.783
665.28	35.982
665.61	40.693
665.93	38.478
666.26	38.612
666.58	37.136
666.91	40.000
667.23	36.557
667.56	36.730
667.88	36.211
668.21	36.993
668.53	41.371
668.86	38.208
669.18	36.085
669.50	34.383
669.83	35.814
670.15	33.800
670.48	37.081
670.80	34.562
671.13	37.360
671.45	35.388
671.77	36.910
672.10	35.644
672.42	37.266
672.75	37.478
673.07	37.388
673.39	34.128
673.72	34.122
674.04	37.083
674.37	37.288
674.69	36.188
675.01	36.222
675.34	38.063
675.66	37.500
675.98	35.920
676.31	33.945
676.63	38.480
676.95	35.909
677.28	39.529
677.60	39.518
677.92	36.468
678.25	35.449
678.57	36.147
678.89	37.395
679.22	43.177
679.54	35.743
679.86	34.791
680.18	35.922
680.51	34.848
680.83	34.195
681.15	36.400
681.48	39.549
681.80	36.570
682.12	37.903
682.44	33.264
682.77	34.658
683.09	38.215
683.41	35.455
683.73	37.327
684.06	35.619
684.38	35.054
684.70	38.344
685.02	37.967
685.34	37.549
685.67	35.460
685.99	35.624
686.31	37.522
686.63	34.137
686.96	32.510
687.28	32.525
687.60	31.939
687.92	38.182
688.24	36.089
688.56	37.991
688.89	34.375
689.21	37.778
689.53	36.891
689.85	36.047
690.17	36.384
690.49	32.388
690.82	37.136
691.14	34.048
691.46	38.551
691.78	35.586
692.10	35.054
692.42	36.147
692.74	34.829
693.06	34.009
693.39	36.878
693.71	35.294
694.03	36.259
694.35	35.981
694.67	36.364
694.99	35.770
695.31	37.337
695.63	38.750
695.95	36.364
696.27	38.342
696.59	39.167
696.91	33.333
697.23	34.704
697.56	34.901
697.88	35.699
698.20	35.308
698.52	38.824
698.84	36.603
699.16	31.250
699.48	35.338
699.80	35.732
700.12	35.310
700.44	37.535
700.76	35.465
701.08	38.485
701.40	36.446
701.72	41.975
702.04	37.294
702.36	39.799
702.68	38.138
703.00	37.273
703.32	34.311
703.64	33.616
703.96	38.551
704.28	35.276
704.60	38.413
704.91	35.331
705.23	38.870
705.55	40.989
705.87	36.823
706.19	40.370
706.51	36.426
706.83	35.370
707.15	33.333
707.47	36.415
707.79	33.333
708.11	36.000
708.43	34.750
708.74	36.434
709.06	42.817
709.38	39.144
709.70	39.053
710.02	37.580
710.34	40.557
710.66	36.538
710.98	34.768
711.29	39.344
711.61	35.593
711.93	41.042
712.25	42.268
712.57	38.462
712.89	34.701
713.20	34.948
713.52	34.843
713.84	38.567
714.16	37.113
714.48	35.806
714.80	36.859
715.11	33.435
715.43	31.034
715.75	34.000
716.07	32.558
716.39	34.564
716.70	33.948
717.02	34.351
717.34	39.271
717.66	35.841
717.97	35.217
718.29	35.983
718.61	36.220
718.93	35.659
719.24	34.981
719.56	39.357
719.88	34.021
720.20	34.848
720.51	35.632
720.83	37.452
721.15	37.395
721.46	37.903
721.78	32.806
722.10	32.714
722.42	35.685
722.73	35.918
723.05	43.265
723.37	44.068
723.68	42.342
724.00	36.325
724.32	32.000
724.63	38.636
724.95	39.738
725.27	38.710
725.58	36.441
725.90	32.937
726.22	35.135
726.53	34.915
726.85	34.457
727.16	38.491
727.48	31.984
727.80	34.008
728.11	36.864
728.43	36.471
728.74	33.468
729.06	33.600
729.38	36.466
729.69	32.271
730.01	36.538
730.32	35.075
730.64	34.982
730.96	37.736
731.27	32.333
731.59	36.949
731.90	35.032
732.22	34.700
732.53	36.213
732.85	38.652
733.16	39.731
733.48	30.935
733.80	38.406
734.11	33.220
734.43	36.426
734.74	34.242
735.06	35.505
735.37	38.369
735.69	37.037
736.00	32.753
736.32	33.221
736.63	34.507
736.95	37.201
737.26	34.520
737.58	31.879
737.89	36.630
738.21	34.211
738.52	41.152
738.83	34.061
739.15	35.808
739.46	37.008
739.78	36.996
740.09	32.680
740.41	35.507
740.72	32.677
741.04	32.794
741.35	36.596
741.66	35.071
741.98	37.245
742.29	36.634
742.61	35.079
742.92	29.384
743.23	33.333
743.55	34.389
743.86	35.885
744.18	39.713
744.49	31.915
744.80	33.152
745.12	41.711
745.43	38.537
745.74	41.146
746.06	35.610
746.37	32.461
746.68	36.019
747.00	36.170
747.31	36.318
747.62	33.495
747.94	39.713
748.25	32.178
748.56	42.623
748.88	38.743
749.19	41.489
749.50	32.512
749.82	31.132
750.13	33.945
750.44	37.218
750.75	36.940
751.07	39.781
751.38	35.249
751.69	33.333
752.01	35.271
752.32	33.068
752.63	32.411
752.94	31.897
753.26	40.586
753.57	38.462
753.88	32.743
754.19	34.167
754.51	36.777
754.82	34.818
755.13	40.833
755.44	34.677
755.75	37.109
756.07	31.907
756.38	24.906
756.69	33.716
757.00	34.667
757.31	33.987
757.63	32.927
757.94	31.111
758.25	32.329
758.56	30.851
758.87	27.479
759.18	33.645
759.50	30.545
759.81	37.458
760.12	36.129
760.43	31.818
760.74	34.877
761.05	34.462
761.36	34.659
761.67	36.061
761.99	36.054
762.30	32.364
762.61	32.411
762.92	23.529
763.23	30.631
763.54	31.776
763.85	36.441
764.16	34.025
764.47	32.661
764.78	32.234
765.10	34.343
765.41	31.230
765.72	33.016
766.03	27.444
766.34	33.212
766.65	39.841
766.96	32.828
767.27	37.234
767.58	30.460
767.89	28.369
768.20	30.682
768.51	30.769
768.82	33.005
769.13	28.111
769.44	33.047
769.75	32.420
770.06	34.914
770.37	32.692
770.68	32.487
770.99	34.842
771.30	32.353
771.61	33.032
771.92	34.483
772.23	36.453
772.54	40.860
772.85	38.889
773.16	32.584
773.47	39.216
773.78	39.869
774.09	35.329
774.39	31.333
774.70	35.032
775.01	42.759
775.32	32.143
775.63	31.405
775.94	38.931
776.25	38.583
776.56	40.833
776.87	37.500
777.18	31.624
777.48	39.655
777.79	40.870
778.10	22.857
778.41	34.234
778.72	31.746
779.03	36.842
779.34	37.589
779.65	32.877
779.95	28.082
780.26	28.276
780.57	30.081
780.88	31.496
781.19	31.034
781.50	32.558
781.80	32.544
782.11	35.220
782.42	35.385
782.73	34.532
783.04	34.815
783.34	23.611
783.65	28.205
783.96	36.885
784.27	35.172
784.57	33.333
784.88	33.594
785.19	35.000
785.50	36.000
785.81	43.103
786.11	24.138
786.42	33.010
786.73	42.727
787.04	31.633
787.34	26.786
787.65	29.524
787.96	35.398
788.26	38.182
788.57	34.188
788.88	38.281
789.19	32.540
789.49	32.174
789.80	31.633
790.11	28.283
790.41	30.000
790.72	35.870
791.03	31.818
791.33	41.250
791.64	23.750
791.95	33.721
792.25	29.787
792.56	47.191
792.87	23.288
793.17	34.783
793.48	42.667
793.79	40.000
794.09	37.500
794.40	26.415
794.70	25.243
795.01	30.894
795.32	35.897
795.62	34.286
795.93	33.333
796.23	32.075
796.54	44.792
796.85	36.765
797.15	22.535
797.46	48.611
797.76	43.939
798.07	40.698
798.37	36.842
798.68	21.212
798.99	34.568
799.29	31.429
799.60	34.783
799.90	38.667
800.21	42.623
800.51	21.538
800.82	25.424
801.12	33.333
801.43	32.787
801.73	38.095
802.04	28.000
802.34	31.343
802.65	36.538
802.95	30.357
803.26	46.154
803.56	43.137
803.87	32.609
804.17	44.000
804.48	34.921
804.78	25.926
805.09	45.652
805.39	37.778
805.70	33.333
806.00	10.526
806.30	40.845
806.61	41.429
806.91	22.222
807.22	30.263
807.52	30.667
807.83	18.182
808.13	29.167
808.43	30.882
808.74	38.806
809.04	28.814
809.35	23.077
809.65	26.563
809.95	35.135
810.26	9.091
810.56	15.068
810.86	42.857
811.17	36.000
811.47	46.939
811.77	34.211
812.08	50.000
812.38	35.849
812.69	67.500
812.99	21.212
813.29	55.263
813.59	2.857
813.90	45.455
814.20	-5.128
814.50	30.769
814.81	35.849
815.11	29.787
815.41	45.763
815.72	42.857
816.02	37.255
816.32	27.083
816.62	29.268
816.93	10.811
817.23	22.857
817.53	50.000
817.84	8.696
818.14	32.692
818.44	31.579
818.74	45.652
819.04	15.000
819.35	62.162
819.65	20.588
819.95	27.778
820.25	7.143
820.56	60.000
820.86	20.690
821.16	50.000
821.46	44.681
821.76	30.000
822.07	39.535
822.37	16.216
822.67	34.375
822.97	33.333
823.27	7.143
823.57	28.000
823.88	14.815
824.18	39.286
824.48	47.059
824.78	3.226
825.08	26.087
825.38	18.182
825.69	54.167
825.99	60.526
826.29	38.889
826.59	26.667
826.89	4.762
827.19	34.783
827.49	32.500
827.79	54.286
828.09	60.714
828.39	66.667
828.70	70.270
829.00	17.857
829.30	4.762
829.60	46.667
829.90	65.625
830.20	34.211
830.50	33.333
830.80	34.783
831.10	63.636
831.40	72.727
831.70	74.194
832.00	76.190
832.30	14.286
832.60	8.333
832.90	6.897
833.20	15.000
833.50	39.394
833.80	29.630
834.10	61.538
834.40	50.000
834.70	-22.222
835.00	36.842
835.30	103.846
835.60	93.333
835.90	51.613
836.20	63.636
836.50	42.857
836.80	-11.538
837.10	3.571
837.40	-200.000
837.70	18.182
838.00	36.364
838.30	17.391
838.60	130.769
838.90	50.000
839.19	57.143
839.49	50.000
839.79	53.846
840.09	-8.333
840.39	57.143
840.69	7.143
840.99	19.231
841.29	21.053
841.59	-40.000
841.88	-9.091
842.18	80.000
842.48	118.750
842.78	26.667
843.08	7.407
843.38	-10.000
843.68	56.522
843.97	73.333
844.27	-26.667
844.57	20.000
844.87	38.889
845.17	-14.286
845.47	40.000
845.76	14.286
846.06	5.882
846.36	40.000
846.66	0.000
846.96	93.333
847.25	-37.500
847.55	57.143
847.85	-12.500
848.15	13.636
848.44	-66.667
848.74	40.000
849.04	44.444
849.34	-9.091
849.63	-66.667
849.93	60.000
850.23	55.556
850.53	130.000
850.82	61.538
851.12	-22.222
851.42	66.667
851.71	50.000
852.01	57.143
852.31	-50.000
852.61	-45.455
852.90	30.000
853.20	26.316
853.50	-75.000
853.79	78.261
854.09	25.000
854.39	31.579
854.68	41.667
854.98	51.613
855.28	69.231
855.57	50.000
855.87	66.667
856.17	62.963
856.46	50.000
856.76	73.333
857.05	211.111
857.35	64.000
857.65	44.444
857.94	30.769
858.24	51.724
858.53	105.556
858.83	85.185
859.13	68.182
859.42	34.783
859.72	175.000
860.01	200.000
860.31	52.000
860.60	9.524
860.90	0.000
861.20	-13.333
861.49	100.000
861.79	40.000
862.08	75.000
862.38	140.000
862.67	-40.000
862.97	166.667
863.26	133.333
863.56	77.778
863.85	-600.000
864.15	83.333
864.44	20.000
864.74	171.429
865.03	-50.000
865.33	20.000
865.62	66.667
865.92	66.667
866.21	-150.000
866.51	93.750
866.80	9.091
867.10	150.000
867.39	50.000
867.69	0.000
867.98	7.692
868.27	200.000
868.57	0.000
868.86	55.556
869.16	-7.692
869.45	66.667
869.75	-500.000
870.04	0.000
870.33	28.571
870.63	66.667
870.92	400.000
871.22	-100.000
871.51	-100.000
871.80	200.000
872.10	266.667
>>>>>End Processed Spectral Data<<<<<
