SpectraSuite Data File
++++++++++++++++++++++++++++++++++++
Date: Fri May 15 17:03:46 PDT 2015
User: schluterlab
Dark Spectrum Present: Yes
Reference Spectrum Present: Yes
Number of Sampled Component Spectra: 1
Spectrometers: USB2E3373
Integration Time (usec): 3000 (USB2E3373)
Spectra Averaged: 3 (USB2E3373)
Boxcar Smoothing: 0 (USB2E3373)
Correct for Electrical Dark: No (USB2E3373)
Strobe/Lamp Enabled: No (USB2E3373)
Correct for Detector Non-linearity: No (USB2E3373)
Correct for Stray Light: No (USB2E3373)
Number of Pixels in Processed Spectrum: 2048
>>>>>Begin Processed Spectral Data<<<<<
178.53	0.000
178.91	0.000
179.29	162.500
179.67	-250.000
180.04	-171.429
180.42	175.000
180.80	800.000
181.18	-433.333
181.56	-200.000
181.94	400.000
182.31	400.000
182.69	180.000
183.07	-100.000
183.45	180.000
183.83	16.667
184.20	18.182
184.58	-11.111
184.96	-175.000
185.34	-266.667
185.72	-100.000
186.09	-38.462
186.47	-500.000
186.85	-166.667
187.23	77.778
187.61	-1100.000
187.98	66.667
188.36	33.333
188.74	-300.000
189.12	23.529
189.49	83.333
189.87	0.000
190.25	57.143
190.63	400.000
191.00	-233.333
191.38	52.632
191.76	350.000
192.14	-300.000
192.51	450.000
192.89	55.556
193.27	-14.286
193.65	50.000
194.02	72.727
194.40	30.000
194.78	-50.000
195.15	75.000
195.53	112.500
195.91	25.000
196.29	175.000
196.66	23.077
197.04	-14.286
197.42	-33.333
197.79	-233.333
198.17	-30.769
198.55	-200.000
198.92	-33.333
199.30	-700.000
199.68	40.000
200.05	300.000
200.43	0.000
200.81	333.333
201.18	0.000
201.56	300.000
201.94	-350.000
202.31	33.333
202.69	0.000
203.07	-200.000
203.44	100.000
203.82	0.000
204.19	128.571
204.57	-133.333
204.95	75.000
205.32	-10.000
205.70	0.000
206.08	0.000
206.45	222.222
206.83	150.000
207.20	-28.571
207.58	-0.000
207.96	333.333
208.33	80.000
208.71	-175.000
209.08	100.000
209.46	-100.000
209.84	60.000
210.21	600.000
210.59	200.000
210.96	33.333
211.34	-25.000
211.71	33.333
212.09	42.857
212.46	-600.000
212.84	0.000
213.22	180.000
213.59	350.000
213.97	69.231
214.34	172.727
214.72	66.667
215.09	375.000
215.47	-7.692
215.84	-118.182
216.22	-133.333
216.59	-25.000
216.97	250.000
217.34	175.000
217.72	-60.000
218.09	187.500
218.47	137.500
218.84	100.000
219.22	100.000
219.59	20.000
219.97	166.667
220.34	25.000
220.72	100.000
221.09	-75.000
221.47	200.000
221.84	-300.000
222.22	0.000
222.59	127.273
222.97	83.333
223.34	100.000
223.72	-14.286
224.09	14.286
224.46	57.143
224.84	66.667
225.21	30.000
225.59	100.000
225.96	400.000
226.34	50.000
226.71	71.429
227.08	83.333
227.46	150.000
227.83	-550.000
228.21	77.778
228.58	145.455
228.95	87.500
229.33	-0.000
229.70	6.250
230.08	-87.500
230.45	28.571
230.82	157.143
231.20	-86.667
231.57	71.429
231.95	71.429
232.32	-100.000
232.69	57.143
233.07	66.667
233.44	80.000
233.81	50.000
234.19	122.222
234.56	23.529
234.93	-550.000
235.31	175.000
235.68	-200.000
236.05	0.000
236.43	10.000
236.80	64.706
237.17	6.250
237.55	15.000
237.92	-11.111
238.29	2.778
238.67	40.000
239.04	-8.824
239.41	4.878
239.79	3.333
240.16	-4.878
240.53	-13.158
240.91	6.522
241.28	12.698
241.65	3.571
242.02	24.658
242.40	3.333
242.77	-5.085
243.14	6.061
243.51	22.500
243.89	14.943
244.26	18.391
244.63	7.143
245.00	11.340
245.38	19.588
245.75	-1.124
246.12	4.310
246.49	2.479
246.87	16.346
247.24	6.723
247.61	-4.386
247.98	8.943
248.36	3.125
248.73	5.263
249.10	3.247
249.47	13.924
249.84	1.961
250.22	8.235
250.59	7.843
250.96	9.859
251.33	-0.581
251.70	15.294
252.08	5.584
252.45	6.931
252.82	3.518
253.19	9.677
253.56	5.140
253.94	6.757
254.31	5.652
254.68	5.263
255.05	5.906
255.42	6.550
255.79	3.861
256.16	3.113
256.54	8.955
256.91	4.563
257.28	4.833
257.65	2.996
258.02	2.482
258.39	5.387
258.76	5.861
259.14	8.970
259.51	6.149
259.88	2.405
260.25	6.863
260.62	4.167
260.99	3.051
261.36	1.027
261.73	1.582
262.10	4.559
262.47	2.761
262.85	1.254
263.22	4.000
263.59	3.427
263.96	5.280
264.33	3.333
264.70	4.167
265.07	-0.298
265.44	4.533
265.81	5.367
266.18	4.645
266.55	5.398
266.92	6.736
267.29	4.700
267.66	4.859
268.03	3.141
268.40	4.700
268.77	8.021
269.14	4.317
269.51	3.085
269.88	2.494
270.25	1.020
270.62	1.463
270.99	5.627
271.36	2.934
271.73	4.225
272.10	5.109
272.47	4.255
272.84	4.455
273.21	4.640
273.58	3.614
273.95	3.661
274.32	4.619
274.69	2.715
275.06	6.920
275.43	4.762
275.80	3.311
276.17	2.759
276.54	2.998
276.91	5.702
277.28	1.528
277.65	7.025
278.02	3.191
278.39	4.595
278.76	1.258
279.13	1.867
279.50	4.412
279.87	4.752
280.23	4.086
280.60	5.653
280.97	4.242
281.34	4.615
281.71	4.107
282.08	4.294
282.45	2.740
282.82	2.703
283.19	1.741
283.56	3.661
283.92	1.328
284.29	2.308
284.66	5.620
285.03	3.733
285.40	2.836
285.77	2.460
286.14	4.513
286.51	4.428
286.87	3.108
287.24	2.394
287.61	2.469
287.98	3.860
288.35	2.946
288.72	3.853
289.08	3.125
289.45	4.042
289.82	3.497
290.19	3.754
290.56	4.288
290.93	2.694
291.29	2.619
291.66	4.882
292.03	2.871
292.40	4.194
292.77	3.190
293.13	1.136
293.50	0.759
293.87	3.511
294.24	3.864
294.60	2.981
294.97	2.381
295.34	2.301
295.71	3.130
296.08	4.634
296.44	0.427
296.81	2.917
297.18	3.333
297.55	3.117
297.91	1.644
298.28	3.298
298.65	1.764
299.02	1.887
299.38	1.505
299.75	2.759
300.12	2.356
300.48	2.372
300.85	4.563
301.22	3.766
301.59	3.289
301.95	4.177
302.32	3.502
302.69	3.483
303.05	3.342
303.42	1.619
303.79	4.556
304.15	2.987
304.52	1.308
304.89	3.158
305.25	3.027
305.62	2.100
305.99	2.339
306.35	4.162
306.72	2.475
307.09	4.105
307.45	3.674
307.82	2.315
308.19	2.323
308.55	3.599
308.92	3.922
309.29	2.682
309.65	3.229
310.02	4.070
310.38	4.610
310.75	3.060
311.12	3.445
311.48	3.499
311.85	3.665
312.22	3.481
312.58	3.928
312.95	2.561
313.31	3.106
313.68	4.921
314.05	3.571
314.41	5.361
314.78	4.742
315.14	5.653
315.51	5.383
315.87	4.406
316.24	6.471
316.61	5.807
316.97	5.159
317.34	6.055
317.70	5.545
318.07	5.385
318.43	7.059
318.80	6.818
319.16	6.738
319.53	7.502
319.89	5.906
320.26	7.794
320.62	8.826
320.99	6.263
321.35	8.530
321.72	10.177
322.08	8.963
322.45	9.340
322.81	9.234
323.18	8.734
323.54	9.266
323.91	9.348
324.27	10.352
324.64	10.861
325.00	12.135
325.37	12.856
325.73	11.333
326.10	12.262
326.46	14.260
326.83	14.961
327.19	14.298
327.56	14.944
327.92	14.965
328.29	15.536
328.65	16.132
329.01	16.912
329.38	16.682
329.74	16.431
330.11	18.443
330.47	16.698
330.84	17.981
331.20	20.247
331.56	18.333
331.93	20.457
332.29	21.082
332.66	20.724
333.02	21.375
333.38	20.257
333.75	21.978
334.11	20.949
334.48	23.572
334.84	22.894
335.20	22.507
335.57	21.668
335.93	22.493
336.29	24.494
336.66	23.433
337.02	23.792
337.38	21.667
337.75	25.000
338.11	23.986
338.47	24.635
338.84	24.677
339.20	23.400
339.56	23.670
339.93	23.635
340.29	24.679
340.65	25.269
341.02	24.202
341.38	23.097
341.74	23.675
342.11	24.437
342.47	24.466
342.83	24.654
343.20	23.519
343.56	24.000
343.92	24.092
344.28	25.192
344.65	24.093
345.01	24.633
345.37	24.727
345.73	24.017
346.10	24.590
346.46	25.568
346.82	23.404
347.19	22.943
347.55	24.311
347.91	24.110
348.27	24.414
348.63	24.020
349.00	23.708
349.36	23.940
349.72	25.788
350.08	24.180
350.45	24.661
350.81	23.090
351.17	23.453
351.53	24.653
351.89	24.608
352.26	23.280
352.62	25.565
352.98	22.570
353.34	23.188
353.70	25.000
354.07	23.952
354.43	22.898
354.79	24.195
355.15	24.841
355.51	24.130
355.87	23.220
356.24	24.062
356.60	23.929
356.96	24.206
357.32	23.722
357.68	23.690
358.04	23.183
358.40	23.875
358.77	24.880
359.13	24.259
359.49	23.652
359.85	25.117
360.21	23.206
360.57	24.637
360.93	24.584
361.29	23.338
361.66	24.843
362.02	23.485
362.38	24.981
362.74	24.300
363.10	25.508
363.46	24.611
363.82	25.920
364.18	24.354
364.54	23.897
364.90	23.799
365.26	24.236
365.62	27.153
365.98	24.927
366.35	25.492
366.71	24.908
367.07	25.472
367.43	25.234
367.79	24.664
368.15	24.910
368.51	24.690
368.87	25.126
369.23	24.838
369.59	25.437
369.95	25.073
370.31	24.639
370.67	25.672
371.03	24.795
371.39	25.018
371.75	24.835
372.11	25.036
372.47	25.074
372.83	24.911
373.19	25.535
373.55	24.332
373.91	25.054
374.27	25.159
374.63	25.556
374.99	25.532
375.35	25.487
375.71	26.084
376.07	25.211
376.42	26.939
376.78	26.309
377.14	25.796
377.50	26.162
377.86	26.506
378.22	26.292
378.58	25.897
378.94	26.402
379.30	25.951
379.66	27.147
380.02	26.180
380.38	25.989
380.74	26.750
381.09	26.871
381.45	26.911
381.81	27.267
382.17	27.030
382.53	26.733
382.89	27.935
383.25	26.571
383.61	27.866
383.97	25.841
384.32	27.330
384.68	27.307
385.04	27.206
385.40	26.945
385.76	28.616
386.12	28.266
386.48	28.416
386.83	26.950
387.19	27.595
387.55	27.980
387.91	27.812
388.27	27.411
388.62	28.949
388.98	27.440
389.34	28.607
389.70	27.719
390.06	26.746
390.42	28.238
390.77	27.600
391.13	27.427
391.49	27.749
391.85	28.005
392.20	27.119
392.56	27.400
392.92	27.951
393.28	28.066
393.64	27.568
393.99	29.154
394.35	27.261
394.71	28.416
395.07	27.341
395.42	28.112
395.78	28.143
396.14	27.554
396.50	27.774
396.85	28.719
397.21	27.381
397.57	27.649
397.92	27.741
398.28	28.621
398.64	26.265
399.00	28.442
399.35	27.144
399.71	27.513
400.07	27.207
400.42	27.907
400.78	27.863
401.14	28.010
401.49	27.457
401.85	26.874
402.21	27.651
402.57	27.375
402.92	26.851
403.28	27.882
403.63	27.995
403.99	26.467
404.35	28.045
404.70	26.905
405.06	26.557
405.42	26.600
405.77	26.264
406.13	26.019
406.49	27.117
406.84	26.834
407.20	26.671
407.55	26.336
407.91	27.139
408.27	26.131
408.62	27.385
408.98	26.433
409.34	27.014
409.69	25.969
410.05	26.909
410.40	26.481
410.76	26.478
411.11	27.062
411.47	27.350
411.83	25.424
412.18	27.413
412.54	26.592
412.89	26.293
413.25	26.474
413.60	26.770
413.96	26.933
414.31	26.829
414.67	26.684
415.03	27.097
415.38	26.632
415.74	27.557
416.09	26.453
416.45	27.009
416.80	25.843
417.16	28.315
417.51	27.981
417.87	27.445
418.22	26.684
418.58	27.826
418.93	28.025
419.29	26.184
419.64	26.896
420.00	27.708
420.35	27.104
420.71	27.886
421.06	27.440
421.42	27.103
421.77	27.861
422.12	27.128
422.48	27.342
422.83	27.900
423.19	27.765
423.54	27.337
423.90	27.562
424.25	28.243
424.61	28.825
424.96	28.049
425.31	29.925
425.67	27.817
426.02	28.799
426.38	28.929
426.73	28.995
427.09	29.873
427.44	29.941
427.79	28.992
428.15	29.612
428.50	28.346
428.85	28.317
429.21	30.108
429.56	29.218
429.92	29.635
430.27	29.925
430.62	29.378
430.98	29.034
431.33	29.863
431.68	29.304
432.04	29.681
432.39	30.177
432.74	30.607
433.10	30.862
433.45	30.526
433.80	31.109
434.16	29.917
434.51	30.215
434.86	30.372
435.22	30.398
435.57	31.004
435.92	30.898
436.28	30.710
436.63	30.633
436.98	31.576
437.34	31.579
437.69	32.021
438.04	31.225
438.39	31.460
438.75	31.269
439.10	31.749
439.45	32.380
439.81	32.477
440.16	32.482
440.51	32.776
440.86	33.051
441.22	32.466
441.57	33.609
441.92	33.736
442.27	32.816
442.63	33.672
442.98	33.257
443.33	32.332
443.68	33.369
444.03	33.830
444.39	33.202
444.74	33.556
445.09	34.243
445.44	33.903
445.79	34.760
446.15	33.976
446.50	33.555
446.85	34.963
447.20	34.463
447.55	34.431
447.91	34.123
448.26	35.003
448.61	34.197
448.96	35.112
449.31	33.988
449.66	34.262
450.02	34.341
450.37	34.677
450.72	34.250
451.07	34.873
451.42	34.894
451.77	34.418
452.12	34.091
452.47	34.321
452.83	34.688
453.18	35.421
453.53	35.777
453.88	35.580
454.23	35.280
454.58	35.642
454.93	34.794
455.28	35.175
455.63	36.268
455.98	36.681
456.34	35.888
456.69	34.307
457.04	36.736
457.39	35.723
457.74	35.611
458.09	35.079
458.44	35.986
458.79	35.966
459.14	35.526
459.49	36.716
459.84	36.492
460.19	36.347
460.54	36.491
460.89	36.761
461.24	37.578
461.59	36.223
461.94	35.535
462.29	36.912
462.64	37.276
462.99	37.035
463.34	36.092
463.69	36.293
464.04	37.712
464.39	36.931
464.74	37.117
465.09	37.679
465.44	37.161
465.79	36.961
466.14	37.058
466.49	36.400
466.84	37.121
467.19	37.297
467.54	37.229
467.89	37.650
468.24	36.740
468.59	39.111
468.94	37.968
469.29	37.770
469.64	36.910
469.99	39.033
470.34	36.587
470.68	39.150
471.03	37.580
471.38	38.088
471.73	38.235
472.08	37.924
472.43	38.255
472.78	37.286
473.13	38.231
473.48	37.915
473.83	37.422
474.17	37.953
474.52	38.098
474.87	39.152
475.22	38.194
475.57	37.719
475.92	39.386
476.27	38.708
476.61	39.468
476.96	37.033
477.31	38.561
477.66	37.809
478.01	39.191
478.36	38.453
478.70	38.934
479.05	38.571
479.40	39.746
479.75	38.373
480.10	37.993
480.45	38.550
480.79	39.678
481.14	38.832
481.49	38.867
481.84	39.575
482.19	38.026
482.53	38.657
482.88	38.377
483.23	39.731
483.58	39.009
483.92	39.013
484.27	38.195
484.62	38.906
484.97	38.972
485.31	39.379
485.66	38.340
486.01	38.303
486.36	38.358
486.70	38.414
487.05	38.374
487.40	38.392
487.75	38.958
488.09	38.257
488.44	39.065
488.79	39.746
489.13	39.423
489.48	38.050
489.83	39.865
490.17	39.101
490.52	39.908
490.87	38.686
491.22	39.255
491.56	39.658
491.91	39.388
492.26	39.864
492.60	40.019
492.95	40.334
493.30	39.619
493.64	39.489
493.99	40.145
494.34	39.563
494.68	39.619
495.03	39.708
495.37	39.549
495.72	39.677
496.07	40.293
496.41	38.208
496.76	40.212
497.11	39.450
497.45	40.525
497.80	40.918
498.14	39.295
498.49	40.122
498.84	40.020
499.18	39.859
499.53	39.534
499.87	39.640
500.22	40.603
500.56	39.738
500.91	39.809
501.26	38.458
501.60	39.843
501.95	39.689
502.29	40.097
502.64	39.913
502.98	40.750
503.33	40.154
503.67	40.482
504.02	41.105
504.36	40.673
504.71	40.556
505.06	40.815
505.40	40.558
505.75	40.619
506.09	39.736
506.44	41.068
506.78	40.459
507.13	40.848
507.47	40.836
507.82	41.400
508.16	40.993
508.51	40.451
508.85	40.712
509.19	40.926
509.54	41.019
509.88	39.806
510.23	40.613
510.57	40.780
510.92	38.859
511.26	40.480
511.61	41.694
511.95	41.753
512.30	41.574
512.64	40.902
512.98	40.090
513.33	40.795
513.67	41.273
514.02	42.048
514.36	40.971
514.70	41.667
515.05	41.892
515.39	40.732
515.74	41.796
516.08	42.259
516.42	41.814
516.77	42.130
517.11	42.374
517.46	41.712
517.80	41.538
518.14	41.090
518.49	40.264
518.83	40.219
519.17	40.691
519.52	40.379
519.86	40.216
520.20	41.495
520.55	40.963
520.89	42.095
521.23	41.925
521.58	41.703
521.92	41.859
522.26	40.989
522.61	41.623
522.95	40.795
523.29	41.487
523.64	41.931
523.98	41.996
524.32	41.881
524.66	41.869
525.01	42.468
525.35	40.441
525.69	41.818
526.04	41.204
526.38	42.153
526.72	41.400
527.06	40.986
527.41	42.150
527.75	42.091
528.09	41.528
528.43	41.999
528.78	40.924
529.12	41.161
529.46	41.520
529.80	41.482
530.15	41.254
530.49	41.616
530.83	42.544
531.17	40.564
531.51	41.792
531.86	40.993
532.20	40.292
532.54	40.163
532.88	42.505
533.22	40.659
533.57	42.005
533.91	41.123
534.25	41.862
534.59	41.822
534.93	41.787
535.27	40.292
535.62	40.311
535.96	41.357
536.30	41.293
536.64	42.867
536.98	41.185
537.32	41.110
537.66	42.426
538.01	42.517
538.35	42.580
538.69	40.413
539.03	40.328
539.37	41.992
539.71	40.763
540.05	41.208
540.39	41.343
540.73	42.957
541.07	41.989
541.42	41.532
541.76	41.225
542.10	40.812
542.44	40.931
542.78	39.780
543.12	41.896
543.46	42.420
543.80	42.054
544.14	40.254
544.48	41.039
544.82	41.763
545.16	41.598
545.50	41.522
545.84	42.776
546.18	41.631
546.52	40.880
546.86	42.056
547.20	42.418
547.54	41.272
547.88	40.421
548.22	41.223
548.56	40.897
548.90	41.712
549.24	40.978
549.58	40.832
549.92	41.673
550.26	42.418
550.60	41.487
550.94	41.150
551.28	41.808
551.62	41.923
551.96	41.654
552.30	43.056
552.64	41.749
552.98	41.350
553.32	41.369
553.66	41.509
554.00	40.949
554.34	41.950
554.68	40.929
555.02	42.857
555.36	40.987
555.69	41.685
556.03	41.970
556.37	41.851
556.71	41.949
557.05	42.729
557.39	41.413
557.73	42.579
558.07	42.308
558.41	43.185
558.75	42.011
559.08	42.002
559.42	42.937
559.76	42.514
560.10	42.966
560.44	41.921
560.78	41.329
561.12	42.031
561.45	42.516
561.79	42.577
562.13	42.512
562.47	42.302
562.81	41.427
563.15	41.537
563.48	41.867
563.82	41.661
564.16	41.992
564.50	41.892
564.84	40.495
565.17	41.449
565.51	42.964
565.85	41.838
566.19	40.650
566.52	42.560
566.86	41.967
567.20	41.532
567.54	42.214
567.88	42.472
568.21	41.290
568.55	40.870
568.89	42.916
569.23	41.550
569.56	41.068
569.90	41.860
570.24	40.156
570.57	41.273
570.91	40.920
571.25	40.414
571.59	39.894
571.92	40.030
572.26	40.217
572.60	39.783
572.93	40.038
573.27	39.436
573.61	39.737
573.95	40.033
574.28	40.334
574.62	39.563
574.96	39.691
575.29	39.425
575.63	39.103
575.97	39.442
576.30	39.640
576.64	39.179
576.98	40.026
577.31	39.641
577.65	39.817
577.98	39.920
578.32	39.437
578.66	38.749
578.99	39.495
579.33	39.395
579.67	39.036
580.00	39.316
580.34	40.050
580.67	39.070
581.01	39.866
581.35	39.061
581.68	39.658
582.02	39.310
582.35	38.979
582.69	39.443
583.02	39.778
583.36	40.170
583.70	40.914
584.03	40.256
584.37	40.683
584.70	40.522
585.04	40.415
585.37	39.853
585.71	39.719
586.04	39.183
586.38	39.877
586.72	40.488
587.05	41.103
587.39	41.040
587.72	41.361
588.06	40.631
588.39	41.185
588.73	40.690
589.06	40.933
589.40	40.477
589.73	41.000
590.07	41.352
590.40	41.796
590.73	42.092
591.07	42.324
591.40	41.630
591.74	41.855
592.07	42.486
592.41	42.491
592.74	41.736
593.08	40.657
593.41	41.219
593.75	40.628
594.08	40.130
594.41	40.684
594.75	40.496
595.08	41.279
595.42	40.523
595.75	42.095
596.09	41.517
596.42	40.926
596.75	42.007
597.09	41.686
597.42	41.012
597.75	42.144
598.09	41.286
598.42	41.381
598.76	41.613
599.09	41.106
599.42	40.697
599.76	41.084
600.09	40.460
600.42	40.182
600.76	40.082
601.09	40.802
601.42	41.050
601.76	41.088
602.09	41.625
602.42	42.081
602.76	40.874
603.09	42.151
603.42	42.224
603.76	40.565
604.09	40.543
604.42	41.328
604.76	41.300
605.09	41.362
605.42	41.084
605.75	40.806
606.09	41.529
606.42	40.242
606.75	40.736
607.09	40.264
607.42	41.028
607.75	40.897
608.08	40.027
608.42	40.841
608.75	42.313
609.08	42.202
609.41	41.726
609.75	41.230
610.08	42.187
610.41	40.290
610.74	41.784
611.07	42.016
611.41	42.190
611.74	42.164
612.07	40.418
612.40	41.411
612.73	42.203
613.07	40.776
613.40	41.685
613.73	41.466
614.06	40.790
614.39	42.132
614.72	40.392
615.06	40.950
615.39	41.103
615.72	41.335
616.05	41.844
616.38	41.140
616.71	41.896
617.05	41.816
617.38	43.432
617.71	42.075
618.04	42.730
618.37	42.938
618.70	42.706
619.03	43.889
619.36	41.534
619.69	42.532
620.03	42.659
620.36	43.276
620.69	41.399
621.02	42.661
621.35	43.237
621.68	43.367
622.01	42.500
622.34	43.815
622.67	43.927
623.00	41.577
623.33	42.683
623.66	41.960
623.99	42.360
624.32	42.662
624.65	42.857
624.99	41.911
625.32	41.471
625.65	43.126
625.98	42.788
626.31	41.563
626.64	42.808
626.97	43.717
627.30	42.557
627.63	42.288
627.96	45.463
628.29	43.941
628.62	42.773
628.95	43.086
629.28	43.851
629.61	45.364
629.94	43.793
630.26	43.281
630.59	45.994
630.92	42.872
631.25	42.667
631.58	44.493
631.91	42.215
632.24	43.119
632.57	45.000
632.90	44.721
633.23	43.765
633.56	45.214
633.89	42.910
634.22	44.938
634.55	45.235
634.88	44.700
635.20	43.462
635.53	46.933
635.86	44.993
636.19	45.149
636.52	45.026
636.85	43.052
637.18	43.396
637.51	43.019
637.83	44.547
638.16	46.248
638.49	42.916
638.82	44.079
639.15	44.912
639.48	44.704
639.81	44.073
640.13	44.877
640.46	43.878
640.79	43.594
641.12	45.938
641.45	45.646
641.77	45.037
642.10	46.130
642.43	45.177
642.76	45.380
643.09	46.527
643.41	43.366
643.74	43.822
644.07	44.828
644.40	46.622
644.73	46.060
645.05	42.953
645.38	44.974
645.71	46.454
646.04	47.756
646.36	46.277
646.69	49.640
647.02	50.095
647.35	46.642
647.67	44.790
648.00	47.761
648.33	44.539
648.66	44.915
648.98	44.221
649.31	43.802
649.64	42.229
649.96	40.681
650.29	43.782
650.62	44.274
650.94	47.593
651.27	44.507
651.60	45.225
651.92	44.231
652.25	45.826
652.58	44.167
652.90	44.425
653.23	43.697
653.56	42.640
653.88	44.330
654.21	42.557
654.54	41.256
654.86	45.501
655.19	42.836
655.52	40.015
655.84	37.306
656.17	42.008
656.49	56.796
656.82	59.855
657.15	45.957
657.47	34.043
657.80	25.699
658.13	25.253
658.45	39.825
658.78	39.317
659.10	39.366
659.43	40.759
659.75	41.786
660.08	42.207
660.41	46.272
660.73	43.370
661.06	46.620
661.38	40.705
661.71	41.684
662.03	48.712
662.36	44.835
662.68	44.027
663.01	46.725
663.33	43.619
663.66	44.419
663.98	46.512
664.31	43.070
664.63	43.318
664.96	41.087
665.28	40.177
665.61	45.887
665.93	43.043
666.26	45.987
666.58	42.953
666.91	43.765
667.23	46.698
667.56	48.341
667.88	43.885
668.21	45.585
668.53	46.336
668.86	48.349
669.18	46.462
669.50	43.341
669.83	44.651
670.15	38.462
670.48	47.129
670.80	45.161
671.13	44.519
671.45	42.009
671.77	43.562
672.10	44.158
672.42	41.948
672.75	42.629
673.07	43.828
673.39	41.651
673.72	41.815
674.04	41.458
674.37	46.822
674.69	42.827
675.01	47.556
675.34	45.495
675.66	45.833
675.98	41.463
676.31	42.431
676.63	42.755
676.95	45.455
677.28	46.353
677.60	44.096
677.92	43.578
678.25	42.670
678.57	45.455
678.89	38.866
679.22	42.729
679.54	41.566
679.86	39.761
680.18	45.243
680.51	43.561
680.83	41.948
681.15	41.200
681.48	44.057
681.80	42.769
682.12	41.935
682.44	41.004
682.77	47.241
683.09	44.394
683.41	41.136
683.73	40.323
684.06	46.018
684.38	42.796
684.70	42.048
685.02	40.664
685.34	40.711
685.67	39.962
685.99	40.687
686.31	40.885
686.63	40.816
686.96	38.213
687.28	40.808
687.60	38.403
687.92	44.242
688.24	41.331
688.56	41.266
688.89	41.071
689.21	43.111
689.53	41.067
689.85	40.233
690.17	43.304
690.49	42.317
690.82	45.146
691.14	41.429
691.46	43.692
691.78	43.468
692.10	43.011
692.42	39.177
692.74	44.231
693.06	43.468
693.39	39.367
693.71	44.796
694.03	36.952
694.35	41.822
694.67	40.404
694.99	42.037
695.31	40.209
695.63	41.000
695.95	41.162
696.27	42.228
696.59	42.500
696.91	42.297
697.23	41.131
697.56	41.337
697.88	39.355
698.20	43.280
698.52	40.471
698.84	41.388
699.16	38.000
699.48	40.100
699.80	39.454
700.12	40.431
700.44	43.417
700.76	40.698
701.08	43.030
701.40	40.663
701.72	46.605
702.04	40.594
702.36	41.472
702.68	43.844
703.00	39.091
703.32	41.935
703.64	38.983
703.96	43.478
704.28	40.184
704.60	42.540
704.91	39.432
705.23	37.874
705.55	43.110
705.87	42.599
706.19	44.815
706.51	36.426
706.83	44.373
707.15	34.579
707.47	40.336
707.79	37.760
708.11	43.000
708.43	40.750
708.74	42.377
709.06	44.225
709.38	39.450
709.70	42.308
710.02	42.994
710.34	37.771
710.66	35.897
710.98	38.411
711.29	42.951
711.61	40.000
711.93	45.277
712.25	45.017
712.57	45.788
712.89	42.537
713.20	39.446
713.52	38.676
713.84	41.638
714.16	39.175
714.48	42.903
714.80	37.179
715.11	38.906
715.43	36.991
715.75	41.000
716.07	39.867
716.39	35.235
716.70	40.959
717.02	39.313
717.34	38.462
717.66	37.168
717.97	40.000
718.29	44.351
718.61	42.520
718.93	42.636
719.24	40.304
719.56	41.365
719.88	38.488
720.20	39.394
720.51	39.464
720.83	38.996
721.15	40.336
721.46	36.694
721.78	37.549
722.10	37.918
722.42	37.344
722.73	39.592
723.05	41.224
723.37	43.220
723.68	38.739
724.00	43.162
724.32	41.333
724.63	38.636
724.95	40.175
725.27	42.857
725.58	43.644
725.90	36.508
726.22	40.154
726.53	37.966
726.85	41.948
727.16	40.000
727.48	35.628
727.80	40.486
728.11	36.441
728.43	36.471
728.74	31.855
729.06	36.800
729.38	39.098
729.69	36.653
730.01	36.538
730.32	36.194
730.64	41.343
730.96	35.849
731.27	36.333
731.59	38.305
731.90	37.261
732.22	37.539
732.53	38.870
732.85	42.199
733.16	41.751
733.48	33.453
733.80	33.696
734.11	34.237
734.43	37.457
734.74	40.303
735.06	35.831
735.37	38.973
735.69	41.077
736.00	38.676
736.32	35.906
736.63	39.085
736.95	41.638
737.26	35.231
737.58	33.557
737.89	36.264
738.21	36.090
738.52	35.391
738.83	39.738
739.15	39.301
739.46	37.402
739.78	36.996
740.09	34.967
740.41	39.493
740.72	35.433
741.04	37.247
741.35	33.617
741.66	34.123
741.98	40.816
742.29	37.129
742.61	39.791
742.92	32.701
743.23	33.796
743.55	35.294
743.86	39.234
744.18	37.799
744.49	36.702
744.80	38.043
745.12	43.850
745.43	35.122
745.74	41.667
746.06	34.146
746.37	35.602
746.68	37.915
747.00	34.574
747.31	37.313
747.62	37.379
747.94	33.493
748.25	40.594
748.56	42.623
748.88	31.414
749.19	44.681
749.50	39.409
749.82	34.906
750.13	33.945
750.44	33.459
750.75	36.194
751.07	35.766
751.38	37.931
751.69	34.510
752.01	36.822
752.32	34.263
752.63	34.783
752.94	36.207
753.26	42.259
753.57	36.199
753.88	38.938
754.19	31.667
754.51	38.843
754.82	37.247
755.13	38.750
755.44	35.887
755.75	38.672
756.07	33.074
756.38	31.321
756.69	33.716
757.00	31.333
757.31	31.373
757.63	32.927
757.94	31.389
758.25	32.603
758.56	32.979
758.87	29.178
759.18	29.907
759.50	32.364
759.81	33.445
760.12	36.452
760.43	33.030
760.74	36.111
761.05	35.692
761.36	31.818
761.67	35.758
761.99	35.034
762.30	31.636
762.61	33.992
762.92	33.937
763.23	35.586
763.54	33.178
763.85	36.441
764.16	35.270
764.47	34.677
764.78	32.601
765.10	37.037
765.41	33.123
765.72	31.746
766.03	29.323
766.34	33.212
766.65	37.450
766.96	34.343
767.27	33.511
767.58	29.310
767.89	34.043
768.20	26.705
768.51	33.516
768.82	38.916
769.13	27.650
769.44	37.339
769.75	30.594
770.06	30.603
770.37	32.692
770.68	32.487
770.99	32.127
771.30	36.765
771.61	32.579
771.92	35.345
772.23	34.483
772.54	40.323
772.85	36.420
773.16	29.775
773.47	39.869
773.78	35.948
774.09	29.940
774.39	32.667
774.70	36.306
775.01	34.483
775.32	35.714
775.63	31.405
775.94	38.931
776.25	33.071
776.56	35.833
776.87	32.692
777.18	31.624
777.48	34.483
777.79	27.826
778.10	25.714
778.41	29.730
778.72	33.333
779.03	34.586
779.34	41.135
779.65	38.356
779.95	31.507
780.26	35.172
780.57	34.959
780.88	33.071
781.19	31.034
781.50	35.659
781.80	31.361
782.11	25.786
782.42	34.615
782.73	33.094
783.04	36.296
783.34	25.694
783.65	27.350
783.96	36.066
784.27	33.103
784.57	40.650
784.88	25.000
785.19	41.000
785.50	36.000
785.81	35.345
786.11	31.897
786.42	25.243
786.73	40.000
787.04	30.612
787.34	29.464
787.65	33.333
787.96	34.513
788.26	38.182
788.57	35.897
788.88	36.719
789.19	29.365
789.49	23.478
789.80	27.551
790.11	39.394
790.41	23.636
790.72	36.957
791.03	25.000
791.33	32.500
791.64	32.500
791.95	26.744
792.25	37.234
792.56	34.831
792.87	27.397
793.17	44.928
793.48	38.667
793.79	32.500
794.09	40.000
794.40	36.792
794.70	40.777
795.01	30.081
795.32	21.368
795.62	29.524
795.93	25.490
796.23	36.792
796.54	31.250
796.85	44.118
797.15	45.070
797.46	33.333
797.76	42.424
798.07	18.605
798.37	31.579
798.68	19.697
798.99	35.802
799.29	35.714
799.60	37.681
799.90	38.667
800.21	37.705
800.51	38.462
800.82	30.508
801.12	34.783
801.43	40.984
801.73	38.095
802.04	30.000
802.34	32.836
802.65	38.462
802.95	12.500
803.26	28.846
803.56	43.137
803.87	17.391
804.17	32.000
804.48	41.270
804.78	40.741
805.09	34.783
805.39	33.333
805.70	48.148
806.00	15.789
806.30	30.986
806.61	31.429
806.91	20.833
807.22	46.053
807.52	40.000
807.83	9.091
808.13	51.389
808.43	35.294
808.74	31.343
809.04	33.898
809.35	44.231
809.65	34.375
809.95	16.216
810.26	25.000
810.56	26.027
810.86	11.905
811.17	32.000
811.47	42.857
811.77	31.579
812.08	25.000
812.38	30.189
812.69	32.500
812.99	30.303
813.29	18.421
813.59	5.714
813.90	38.636
814.20	30.769
814.50	46.154
814.81	41.509
815.11	14.894
815.41	35.593
815.72	47.619
816.02	52.941
816.32	33.333
816.62	17.073
816.93	13.514
817.23	42.857
817.53	60.417
817.84	23.913
818.14	28.846
818.44	15.789
818.74	54.348
819.04	2.500
819.35	27.027
819.65	11.765
819.95	13.889
820.25	11.905
820.56	40.000
820.86	13.793
821.16	25.000
821.46	55.319
821.76	30.000
822.07	30.233
822.37	27.027
822.67	56.250
822.97	45.238
823.27	32.143
823.57	28.000
823.88	-7.407
824.18	17.857
824.48	26.471
824.78	45.161
825.08	30.435
825.38	6.061
825.69	16.667
825.99	31.579
826.29	50.000
826.59	33.333
826.89	-47.619
827.19	28.261
827.49	30.000
827.79	17.143
828.09	39.286
828.39	27.273
828.70	43.243
829.00	25.000
829.30	19.048
829.60	40.000
829.90	31.250
830.20	23.684
830.50	40.741
830.80	43.478
831.10	22.727
831.40	51.515
831.70	35.484
832.00	9.524
832.30	9.524
832.60	58.333
832.90	10.345
833.20	15.000
833.50	63.636
833.80	55.556
834.10	57.692
834.40	9.375
834.70	55.556
835.00	31.579
835.30	69.231
835.60	46.667
835.90	38.710
836.20	59.091
836.50	25.000
836.80	3.846
837.10	25.000
837.40	300.000
837.70	18.182
838.00	81.818
838.30	0.000
838.60	53.846
838.90	22.727
839.19	39.286
839.49	50.000
839.79	30.769
840.09	-8.333
840.39	117.857
840.69	21.429
840.99	3.846
841.29	5.263
841.59	-40.000
841.88	63.636
842.18	140.000
842.48	31.250
842.78	33.333
843.08	40.741
843.38	-10.000
843.68	26.087
843.97	106.667
844.27	26.667
844.57	0.000
844.87	66.667
845.17	71.429
845.47	0.000
845.76	61.905
846.06	35.294
846.36	70.000
846.66	7.143
846.96	66.667
847.25	-37.500
847.55	85.714
847.85	25.000
848.15	45.455
848.44	-233.333
848.74	65.000
849.04	62.963
849.34	100.000
849.63	-166.667
849.93	-40.000
850.23	-27.778
850.53	130.000
850.82	107.692
851.12	77.778
851.42	40.000
851.71	34.615
852.01	-28.571
852.31	25.000
852.61	54.545
852.90	5.000
853.20	57.895
853.50	75.000
853.79	43.478
854.09	79.167
854.39	-26.316
854.68	25.000
854.98	61.290
855.28	61.538
855.57	60.000
855.87	50.000
856.17	25.926
856.46	57.143
856.76	73.333
857.05	88.889
857.35	36.000
857.65	27.778
857.94	46.154
858.24	82.759
858.53	105.556
858.83	77.778
859.13	36.364
859.42	91.304
859.72	-100.000
860.01	66.667
860.31	40.000
860.60	33.333
860.90	66.667
861.20	13.333
861.49	350.000
861.79	-13.333
862.08	25.000
862.38	113.333
862.67	-80.000
862.97	200.000
863.26	33.333
863.56	61.111
863.85	-500.000
864.15	22.222
864.44	70.000
864.74	150.000
865.03	125.000
865.33	-20.000
865.62	-100.000
865.92	25.000
866.21	16.667
866.51	12.500
866.80	0.000
867.10	-100.000
867.39	16.667
867.69	0.000
867.98	130.769
868.27	-100.000
868.57	33.333
868.86	38.889
869.16	100.000
869.45	26.667
869.75	-700.000
870.04	0.000
870.33	71.429
870.63	33.333
870.92	-0.000
871.22	0.000
871.51	-100.000
871.80	55.556
872.10	133.333
>>>>>End Processed Spectral Data<<<<<
