SpectraSuite Data File
++++++++++++++++++++++++++++++++++++
Date: Fri May 15 17:26:56 PDT 2015
User: schluterlab
Dark Spectrum Present: Yes
Reference Spectrum Present: Yes
Number of Sampled Component Spectra: 1
Spectrometers: USB2E3373
Integration Time (usec): 3000 (USB2E3373)
Spectra Averaged: 3 (USB2E3373)
Boxcar Smoothing: 0 (USB2E3373)
Correct for Electrical Dark: No (USB2E3373)
Strobe/Lamp Enabled: No (USB2E3373)
Correct for Detector Non-linearity: No (USB2E3373)
Correct for Stray Light: No (USB2E3373)
Number of Pixels in Processed Spectrum: 2048
>>>>>Begin Processed Spectral Data<<<<<
178.53	0.000
178.91	0.000
179.29	62.500
179.67	150.000
180.04	-0.000
180.42	-25.000
180.80	-300.000
181.18	-33.333
181.56	350.000
181.94	50.000
182.31	200.000
182.69	40.000
183.07	-133.333
183.45	-180.000
183.83	33.333
184.20	-18.182
184.58	11.111
184.96	-375.000
185.34	100.000
185.72	-100.000
186.09	138.462
186.47	200.000
186.85	100.000
187.23	44.444
187.61	700.000
187.98	0.000
188.36	-11.111
188.74	366.667
189.12	11.765
189.49	66.667
189.87	0.000
190.25	-50.000
190.63	-100.000
191.00	-66.667
191.38	-10.526
191.76	300.000
192.14	-25.000
192.51	350.000
192.89	44.444
193.27	-71.429
193.65	116.667
194.02	72.727
194.40	-20.000
194.78	-125.000
195.15	50.000
195.53	-87.500
195.91	100.000
196.29	-225.000
196.66	115.385
197.04	142.857
197.42	-33.333
197.79	-433.333
198.17	-53.846
198.55	1400.000
198.92	-133.333
199.30	-400.000
199.68	-20.000
200.05	33.333
200.43	0.000
200.81	33.333
201.18	-33.333
201.56	700.000
201.94	50.000
202.31	133.333
202.69	40.000
203.07	25.000
203.44	1000.000
203.82	0.000
204.19	0.000
204.57	-600.000
204.95	-12.500
205.32	-10.000
205.70	71.429
206.08	300.000
206.45	144.444
206.83	28.571
207.20	-85.714
207.58	-500.000
207.96	-33.333
208.33	-110.000
208.71	0.000
209.08	-66.667
209.46	-1200.000
209.84	-40.000
210.21	0.000
210.59	71.429
210.96	150.000
211.34	75.000
211.71	33.333
212.09	-71.429
212.46	-1300.000
212.84	0.000
213.22	0.000
213.59	250.000
213.97	38.462
214.34	0.000
214.72	-66.667
215.09	200.000
215.47	69.231
215.84	-27.273
216.22	66.667
216.59	50.000
216.97	300.000
217.34	-150.000
217.72	-260.000
218.09	50.000
218.47	125.000
218.84	-400.000
219.22	-33.333
219.59	-100.000
219.97	33.333
220.34	350.000
220.72	-128.571
221.09	100.000
221.47	250.000
221.84	-450.000
222.22	-300.000
222.59	72.727
222.97	75.000
223.34	-100.000
223.72	-42.857
224.09	28.571
224.46	57.143
224.84	533.333
225.21	70.000
225.59	26.667
225.96	0.000
226.34	250.000
226.71	114.286
227.08	33.333
227.46	62.500
227.83	-800.000
228.21	-33.333
228.58	-18.182
228.95	-25.000
229.33	100.000
229.70	-6.250
230.08	-12.500
230.45	-42.857
230.82	114.286
231.20	-13.333
231.57	14.286
231.95	42.857
232.32	-60.000
232.69	71.429
233.07	-66.667
233.44	-140.000
233.81	-80.000
234.19	66.667
234.56	-29.412
234.93	400.000
235.31	-50.000
235.68	-260.000
236.05	-100.000
236.43	-30.000
236.80	-5.882
237.17	6.250
237.55	-25.000
237.92	-29.630
238.29	16.667
238.67	20.000
239.04	11.765
239.41	-24.390
239.79	-16.667
240.16	14.634
240.53	-23.684
240.91	8.696
241.28	11.111
241.65	7.143
242.02	9.589
242.40	0.000
242.77	-5.085
243.14	-12.121
243.51	-11.250
243.89	6.897
244.26	0.000
244.63	-7.143
245.00	4.124
245.38	7.216
245.75	-8.989
246.12	0.000
246.49	0.000
246.87	-3.846
247.24	-5.042
247.61	-10.526
247.98	0.813
248.36	-0.625
248.73	0.000
249.10	-5.195
249.47	-4.430
249.84	-1.961
250.22	-0.588
250.59	-3.922
250.96	4.695
251.33	-6.395
251.70	-3.529
252.08	0.000
252.45	-1.485
252.82	0.503
253.19	1.382
253.56	-4.206
253.94	1.802
254.31	-0.435
254.68	1.754
255.05	-0.787
255.42	-1.310
255.79	-3.861
256.16	0.778
256.54	-1.866
256.91	1.141
257.28	0.372
257.65	-1.124
258.02	-4.610
258.39	2.020
258.76	1.099
259.14	1.661
259.51	2.589
259.88	-4.124
260.25	0.980
260.62	0.000
260.99	-3.390
261.36	-0.342
261.73	-1.582
262.10	-0.304
262.47	0.000
262.85	0.627
263.22	-1.538
263.59	-0.623
263.96	-2.795
264.33	1.212
264.70	-3.274
265.07	-4.167
265.44	1.416
265.81	0.565
266.18	1.366
266.55	2.057
266.92	-0.518
267.29	0.522
267.66	-2.046
268.03	0.785
268.40	-1.044
268.77	1.604
269.14	-0.959
269.51	1.285
269.88	2.494
270.25	-1.786
270.62	-3.415
270.99	-0.767
271.36	-1.956
271.73	1.643
272.10	0.243
272.47	1.418
272.84	-2.475
273.21	2.552
273.58	0.723
273.95	1.373
274.32	0.462
274.69	-3.620
275.06	0.670
275.43	0.227
275.80	1.325
276.17	-2.069
276.54	-1.071
276.91	-1.316
277.28	0.437
277.65	-0.207
278.02	0.851
278.39	-4.158
278.76	-0.629
279.13	-3.527
279.50	1.681
279.87	-0.432
280.23	-2.581
280.60	1.170
280.97	2.222
281.34	0.000
281.71	2.053
282.08	-1.840
282.45	-1.566
282.82	1.158
283.19	1.354
283.56	0.771
283.92	-0.759
284.29	-1.538
284.66	-1.550
285.03	-2.358
285.40	-1.512
285.77	-1.054
286.14	-0.722
286.51	0.369
286.87	-1.280
287.24	-1.657
287.61	0.705
287.98	1.404
288.35	-0.173
288.72	0.876
289.08	-0.694
289.45	0.351
289.82	-0.175
290.19	0.171
290.56	-1.544
290.93	-2.357
291.29	1.233
291.66	0.157
292.03	0.000
292.40	-0.645
292.77	-0.638
293.13	-2.435
293.50	-1.517
293.87	-1.069
294.24	-0.464
294.60	-1.043
294.97	0.595
295.34	-1.840
295.71	0.298
296.08	-0.598
296.44	-0.996
296.81	-0.278
297.18	-0.725
297.55	0.542
297.91	0.548
298.28	2.770
298.65	0.136
299.02	-0.674
299.38	-1.915
299.75	-0.138
300.12	0.262
300.48	-0.659
300.85	1.014
301.22	0.649
301.59	-0.263
301.95	1.013
302.32	0.649
302.69	0.746
303.05	-0.990
303.42	0.000
303.79	1.402
304.15	0.478
304.52	-0.476
304.89	-0.234
305.25	-0.121
305.62	-0.233
305.99	-0.234
306.35	-0.462
306.72	0.000
307.09	0.000
307.45	0.000
307.82	-0.116
308.19	-0.116
308.55	1.418
308.92	1.198
309.29	-1.006
309.65	0.000
310.02	-0.880
310.38	1.098
310.75	0.765
311.12	-0.215
311.48	-0.424
311.85	0.000
312.22	0.949
312.58	0.106
312.95	0.107
313.31	-0.414
313.68	-0.419
314.05	0.000
314.41	0.206
314.78	-0.103
315.14	1.233
315.51	1.760
315.87	0.102
316.24	1.112
316.61	2.165
316.97	1.389
317.34	0.781
317.70	0.478
318.07	0.962
318.43	0.784
318.80	1.042
319.16	1.367
319.53	1.330
319.89	0.984
320.26	1.721
320.62	2.307
320.99	0.522
321.35	2.055
321.72	3.219
322.08	1.410
322.45	1.726
322.81	1.179
323.18	2.061
323.54	1.931
323.91	1.947
324.27	3.613
324.64	3.277
325.00	3.376
325.37	3.857
325.73	3.536
326.10	4.541
326.46	4.753
326.83	5.599
327.19	5.231
327.56	6.082
327.92	6.338
328.29	5.804
328.65	6.698
329.01	7.537
329.38	8.203
329.74	7.838
330.11	8.712
330.47	8.163
330.84	8.942
331.20	11.217
331.56	10.648
331.93	11.598
332.29	12.832
332.66	13.303
333.02	13.104
333.38	12.649
333.75	14.377
334.11	13.697
334.48	15.956
334.84	15.934
335.20	15.005
335.57	15.684
335.93	17.254
336.29	16.206
336.66	16.985
337.02	16.357
337.38	17.500
337.75	18.727
338.11	18.395
338.47	18.339
338.84	18.577
339.20	18.921
339.56	17.615
339.93	18.532
340.29	20.000
340.65	19.086
341.02	18.528
341.38	19.381
341.74	18.286
342.11	18.631
342.47	18.594
342.83	19.291
343.20	19.774
343.56	18.696
343.92	20.461
344.28	19.385
344.65	19.171
345.01	19.274
345.37	18.082
345.73	20.502
346.10	19.672
346.46	19.765
346.82	19.722
347.19	18.620
347.55	18.630
347.91	20.227
348.27	19.483
348.63	19.847
349.00	20.098
349.36	19.534
349.72	19.652
350.08	19.180
350.45	19.792
350.81	18.439
351.17	18.078
351.53	19.510
351.89	18.415
352.26	18.960
352.62	19.032
352.98	18.313
353.34	19.082
353.70	20.469
354.07	17.661
354.43	18.335
354.79	18.249
355.15	19.921
355.51	19.146
355.87	19.498
356.24	17.945
356.60	19.078
356.96	19.762
357.32	18.371
357.68	18.608
358.04	18.659
358.40	19.051
358.77	18.900
359.13	18.895
359.49	18.490
359.85	19.657
360.21	18.262
360.57	19.816
360.93	18.986
361.29	18.353
361.66	19.514
362.02	19.167
362.38	18.355
362.74	18.319
363.10	19.413
363.46	19.274
363.82	18.933
364.18	19.041
364.54	18.971
364.90	18.996
365.26	18.268
365.62	19.927
365.98	18.768
366.35	18.937
366.71	19.364
367.07	19.086
367.43	18.548
367.79	19.505
368.15	18.952
368.51	19.446
368.87	18.306
369.23	18.051
369.59	18.732
369.95	18.842
370.31	19.364
370.67	18.731
371.03	18.671
371.39	19.402
371.75	18.828
372.11	19.615
372.47	18.417
372.83	20.156
373.19	18.973
373.55	18.339
373.91	19.870
374.27	20.057
374.63	18.880
374.99	19.220
375.35	19.499
375.71	20.140
376.07	19.171
376.42	19.864
376.78	20.470
377.14	19.025
377.50	18.991
377.86	20.348
378.22	20.421
378.58	19.615
378.94	19.786
379.30	20.025
379.66	20.815
380.02	20.785
380.38	19.842
380.74	19.330
381.09	20.245
381.45	20.428
381.81	20.481
382.17	20.051
382.53	20.425
382.89	21.406
383.25	21.033
383.61	20.000
383.97	20.571
384.32	20.200
384.68	21.300
385.04	20.650
385.40	19.291
385.76	21.698
386.12	20.828
386.48	20.051
386.83	20.038
387.19	21.429
387.55	20.891
387.91	20.905
388.27	20.879
388.62	20.831
388.98	20.810
389.34	21.549
389.70	21.442
390.06	20.013
390.42	20.531
390.77	19.948
391.13	21.185
391.49	20.957
391.85	20.078
392.20	20.213
392.56	20.153
392.92	21.257
393.28	21.462
393.64	20.901
393.99	22.257
394.35	20.746
394.71	21.137
395.07	20.239
395.42	20.644
395.78	21.107
396.14	21.311
396.50	22.194
396.85	21.442
397.21	20.489
397.57	20.690
397.92	20.971
398.28	20.402
398.64	20.000
399.00	21.106
399.35	20.034
399.71	20.448
400.07	20.979
400.42	20.808
400.78	20.514
401.14	20.871
401.49	20.667
401.85	19.927
402.21	20.542
402.57	20.312
402.92	20.075
403.28	20.802
403.63	20.177
403.99	19.579
404.35	20.175
404.70	19.821
405.06	20.270
405.42	20.634
405.77	19.640
406.13	20.547
406.49	20.841
406.84	20.599
407.20	19.627
407.55	19.317
407.91	19.586
408.27	19.439
408.62	20.369
408.98	19.593
409.34	20.012
409.69	19.444
410.05	20.074
410.40	19.074
410.76	19.723
411.11	19.187
411.47	19.395
411.83	18.393
412.18	20.077
412.54	19.413
412.89	19.150
413.25	20.217
413.60	19.627
413.96	18.589
414.31	19.573
414.67	19.436
415.03	19.441
415.38	19.060
415.74	19.805
416.09	19.726
416.45	19.986
416.80	20.225
417.16	19.337
417.51	20.253
417.87	20.078
418.22	20.337
418.58	19.532
418.93	20.125
419.29	19.526
419.64	18.924
420.00	20.844
420.35	20.060
420.71	19.806
421.06	19.214
421.42	20.313
421.77	20.231
422.12	19.410
422.48	20.357
422.83	19.780
423.19	19.865
423.54	19.048
423.90	19.788
424.25	20.092
424.61	20.747
424.96	19.744
425.31	21.202
425.67	20.833
426.02	20.377
426.38	21.039
426.73	20.218
427.09	20.886
427.44	20.294
427.79	20.330
428.15	21.299
428.50	21.078
428.85	20.147
429.21	19.977
429.56	21.024
429.92	20.750
430.27	20.902
430.62	20.387
430.98	20.541
431.33	21.030
431.68	20.565
432.04	20.961
432.39	20.308
432.74	20.565
433.10	21.954
433.45	20.609
433.80	21.997
434.16	21.330
434.51	21.022
434.86	21.487
435.22	21.593
435.57	21.460
435.92	20.599
436.28	20.990
436.63	21.278
436.98	21.147
437.34	21.113
437.69	22.004
438.04	20.798
438.39	21.442
438.75	21.676
439.10	21.958
439.45	22.094
439.81	22.446
440.16	22.328
440.51	23.104
440.86	23.384
441.22	22.851
441.57	22.682
441.92	22.665
442.27	21.896
442.63	23.019
442.98	21.941
443.33	21.870
443.68	21.963
444.03	22.653
444.39	23.020
444.74	22.798
445.09	23.497
445.44	22.165
445.79	22.641
446.15	22.797
446.50	21.409
446.85	22.795
447.20	22.628
447.55	23.382
447.91	22.843
448.26	23.278
448.61	22.971
448.96	23.121
449.31	22.601
449.66	23.113
450.02	22.932
450.37	22.762
450.72	23.196
451.07	23.101
451.42	22.971
451.77	22.905
452.12	22.548
452.47	22.923
452.83	24.323
453.18	22.960
453.53	23.009
453.88	23.437
454.23	23.417
454.58	23.804
454.93	23.647
455.28	22.540
455.63	23.807
455.98	23.211
456.34	23.436
456.69	24.142
457.04	23.819
457.39	23.512
457.74	23.519
458.09	22.778
458.44	23.230
458.79	23.193
459.14	23.112
459.49	24.418
459.84	23.576
460.19	23.422
460.54	24.694
460.89	23.295
461.24	24.037
461.59	23.872
461.94	22.075
462.29	24.668
462.64	24.252
462.99	23.494
463.34	23.157
463.69	24.131
464.04	24.213
464.39	23.166
464.74	23.926
465.09	24.579
465.44	24.293
465.79	23.243
466.14	23.831
466.49	24.669
466.84	24.747
467.19	24.406
467.54	24.138
467.89	24.068
468.24	23.905
468.59	23.810
468.94	23.937
469.29	24.197
469.64	25.154
469.99	25.788
470.34	23.549
470.68	23.937
471.03	25.053
471.38	23.680
471.73	24.580
472.08	24.423
472.43	23.490
472.78	23.509
473.13	24.218
473.48	25.212
473.83	24.222
474.17	24.935
474.52	24.442
474.87	24.909
475.22	23.673
475.57	23.602
475.92	24.301
476.27	24.854
476.61	25.231
476.96	24.149
477.31	23.905
477.66	25.449
478.01	24.088
478.36	24.782
478.70	24.579
479.05	25.110
479.40	24.165
479.75	24.088
480.10	24.270
480.45	25.050
480.79	24.673
481.14	24.795
481.49	23.547
481.84	24.952
482.19	23.807
482.53	24.796
482.88	24.487
483.23	23.800
483.58	24.811
483.92	23.911
484.27	23.792
484.62	24.742
484.97	24.337
485.31	23.808
485.66	24.261
486.01	24.141
486.36	24.069
486.70	24.541
487.05	24.123
487.40	23.837
487.75	24.225
488.09	23.331
488.44	24.381
488.79	23.646
489.13	24.679
489.48	24.669
489.83	24.484
490.17	24.539
490.52	24.249
490.87	24.202
491.22	24.451
491.56	24.146
491.91	24.809
492.26	24.745
492.60	24.664
492.95	25.037
493.30	24.182
493.64	25.147
493.99	24.541
494.34	24.417
494.68	24.619
495.03	24.088
495.37	25.172
495.72	25.492
496.07	24.829
496.41	24.623
496.76	25.150
497.11	24.546
497.45	24.821
497.80	24.723
498.14	24.739
498.49	24.886
498.84	24.451
499.18	25.502
499.53	24.851
499.87	24.951
500.22	25.272
500.56	25.870
500.91	25.201
501.26	24.617
501.60	24.840
501.95	25.230
502.29	24.988
502.64	25.434
502.98	25.358
503.33	24.063
503.67	24.819
504.02	24.829
504.36	25.631
504.71	24.444
505.06	24.207
505.40	25.178
505.75	25.103
506.09	25.190
506.44	25.359
506.78	25.714
507.13	25.181
507.47	24.439
507.82	24.840
508.16	23.930
508.51	25.446
508.85	25.222
509.19	25.226
509.54	26.327
509.88	24.919
510.23	25.229
510.57	25.762
510.92	23.667
511.26	25.750
511.61	24.477
511.95	24.932
512.30	25.721
512.64	26.155
512.98	25.211
513.33	25.014
513.67	26.151
514.02	26.144
514.36	26.057
514.70	25.524
515.05	26.439
515.39	25.620
515.74	26.647
516.08	26.778
516.42	26.090
516.77	26.097
517.11	25.697
517.46	25.972
517.80	26.162
518.14	25.720
518.49	24.820
518.83	25.638
519.17	24.742
519.52	24.808
519.86	24.850
520.20	25.699
520.55	25.141
520.89	26.412
521.23	25.522
521.58	26.625
521.92	26.026
522.26	25.960
522.61	26.299
522.95	26.954
523.29	25.604
523.64	25.667
523.98	27.090
524.32	26.353
524.66	26.633
525.01	26.169
525.35	26.118
525.69	26.532
526.04	25.331
526.38	26.978
526.72	25.638
527.06	26.848
527.41	26.583
527.75	26.005
528.09	26.047
528.43	26.671
528.78	26.007
529.12	26.000
529.46	26.056
529.80	25.016
530.15	26.931
530.49	25.657
530.83	26.197
531.17	26.595
531.51	26.129
531.86	25.289
532.20	25.678
532.54	26.549
532.88	26.557
533.22	26.478
533.57	26.737
533.91	26.501
534.25	26.888
534.59	25.593
534.93	25.362
535.27	25.317
535.62	25.729
535.96	26.484
536.30	26.253
536.64	26.465
536.98	25.714
537.32	26.387
537.66	26.928
538.01	26.364
538.35	26.768
538.69	27.031
539.03	26.247
539.37	27.793
539.71	25.767
540.05	26.069
540.39	26.454
540.73	26.081
541.07	26.657
541.42	26.613
541.76	25.877
542.10	25.533
542.44	26.199
542.78	24.914
543.12	26.030
543.46	26.147
543.80	26.648
544.14	25.167
544.48	25.650
544.82	26.658
545.16	26.708
545.50	26.435
545.84	25.850
546.18	26.312
546.52	26.027
546.86	25.593
547.20	25.894
547.54	25.371
547.88	26.359
548.22	26.233
548.56	26.517
548.90	26.415
549.24	26.515
549.58	26.728
549.92	25.304
550.26	26.007
550.60	26.914
550.94	26.139
551.28	26.352
551.62	26.692
551.96	26.767
552.30	25.585
552.64	25.458
552.98	25.668
553.32	25.678
553.66	25.762
554.00	25.912
554.34	26.662
554.68	25.590
555.02	26.786
555.36	27.001
555.69	25.495
556.03	26.838
556.37	25.907
556.71	26.715
557.05	27.368
557.39	25.576
557.73	26.462
558.07	26.546
558.41	26.110
558.75	26.189
559.08	25.690
559.42	26.825
559.76	26.341
560.10	26.223
560.44	26.210
560.78	25.944
561.12	25.882
561.45	25.931
561.79	27.381
562.13	26.615
562.47	25.971
562.81	26.513
563.15	26.093
563.48	26.662
563.82	26.905
564.16	27.089
564.50	25.338
564.84	26.640
565.17	25.486
565.51	26.981
565.85	27.366
566.19	27.188
566.52	26.743
566.86	27.699
567.20	26.339
567.54	26.642
567.88	26.362
568.21	26.640
568.55	25.598
568.89	26.951
569.23	25.710
569.56	26.095
569.90	27.040
570.24	26.014
570.57	26.145
570.91	26.490
571.25	25.748
571.59	25.288
571.92	25.007
572.26	25.181
572.60	25.023
572.93	25.510
573.27	25.016
573.61	25.388
573.95	25.341
574.28	24.947
574.62	25.121
574.96	24.807
575.29	25.088
575.63	24.125
575.97	24.478
576.30	24.937
576.64	25.007
576.98	25.328
577.31	24.994
577.65	25.161
577.98	25.571
578.32	24.797
578.66	24.457
578.99	24.591
579.33	24.856
579.67	24.754
580.00	24.785
580.34	24.776
580.67	24.654
581.01	25.000
581.35	24.871
581.68	24.975
582.02	25.087
582.35	25.107
582.69	24.776
583.02	24.973
583.36	24.722
583.70	25.234
584.03	25.299
584.37	26.059
584.70	24.890
585.04	24.326
585.37	24.742
585.71	24.636
586.04	24.912
586.38	24.380
586.72	25.194
587.05	25.852
587.39	25.356
587.72	25.615
588.06	24.938
588.39	25.093
588.73	25.488
589.06	25.408
589.40	25.510
589.73	25.338
590.07	26.020
590.40	26.161
590.73	26.277
591.07	25.403
591.40	25.646
591.74	25.837
592.07	25.881
592.41	26.369
592.74	26.006
593.08	25.148
593.41	25.305
593.75	25.646
594.08	25.300
594.41	25.473
594.75	24.466
595.08	25.009
595.42	26.353
595.75	25.573
596.09	25.137
596.42	25.010
596.75	24.956
597.09	24.647
597.42	25.474
597.75	25.378
598.09	24.445
598.42	24.910
598.76	24.968
599.09	25.441
599.42	25.237
599.76	25.395
600.09	24.623
600.42	24.829
600.76	24.517
601.09	24.542
601.42	24.677
601.76	25.367
602.09	25.330
602.42	25.484
602.76	25.340
603.09	25.457
603.42	25.543
603.76	25.202
604.09	24.909
604.42	25.212
604.76	25.679
605.09	25.091
605.42	25.237
605.75	25.263
606.09	25.265
606.42	24.937
606.75	24.719
607.09	25.451
607.42	24.856
607.75	24.423
608.08	24.753
608.42	24.623
608.75	25.398
609.08	25.162
609.41	25.635
609.75	25.353
610.08	25.911
610.41	25.121
610.74	24.427
611.07	24.961
611.41	25.843
611.74	25.640
612.07	24.465
612.40	25.656
612.73	24.746
613.07	25.141
613.40	25.492
613.73	25.182
614.06	25.376
614.39	24.760
614.72	24.874
615.06	24.972
615.39	25.055
615.72	24.919
616.05	25.642
616.38	24.786
616.71	24.037
617.05	25.324
617.38	25.644
617.71	25.472
618.04	24.889
618.37	25.284
618.70	25.611
619.03	25.764
619.36	25.470
619.69	26.914
620.03	26.808
620.36	25.680
620.69	25.981
621.02	26.453
621.35	26.805
621.68	25.510
622.01	25.833
622.34	25.778
622.67	26.183
623.00	26.187
623.33	25.305
623.66	25.430
623.99	24.962
624.32	25.399
624.65	25.489
624.99	26.110
625.32	24.640
625.65	26.473
625.98	25.866
626.31	26.018
626.64	26.516
626.97	25.916
627.30	26.357
627.63	26.343
627.96	25.337
628.29	26.087
628.62	28.319
628.95	26.152
629.28	27.016
629.61	25.324
629.94	26.197
630.26	26.087
630.59	27.055
630.92	26.564
631.25	25.538
631.58	24.780
631.91	24.781
632.24	27.064
632.57	27.500
632.90	26.335
633.23	27.294
633.56	26.448
633.89	26.634
634.22	27.407
634.55	25.286
634.88	27.331
635.20	26.282
635.53	27.467
635.86	27.048
636.19	26.779
636.52	27.296
636.85	24.814
637.18	25.660
637.51	25.535
637.83	26.807
638.16	28.377
638.49	26.567
638.82	27.763
639.15	25.780
639.48	25.997
639.81	27.615
640.13	27.417
640.46	25.656
640.79	26.068
641.12	25.554
641.45	26.126
641.77	24.741
642.10	28.436
642.43	26.527
642.76	27.228
643.09	28.595
643.41	27.023
643.74	27.183
644.07	27.750
644.40	27.703
644.73	25.569
645.05	26.846
645.38	26.808
645.71	27.128
646.04	28.007
646.36	27.660
646.69	27.158
647.02	27.032
647.35	25.000
647.67	28.885
648.00	27.052
648.33	26.109
648.66	26.102
648.98	25.963
649.31	23.140
649.64	27.786
649.96	25.122
650.29	27.257
650.62	25.983
650.94	27.593
651.27	25.326
651.60	28.108
651.92	28.671
652.25	25.933
652.58	27.167
652.90	27.444
653.23	25.546
653.56	24.196
653.88	26.117
654.21	24.518
654.54	26.995
654.86	26.995
655.19	25.877
655.52	24.768
655.84	23.834
656.17	26.748
656.49	36.255
656.82	36.985
657.15	27.980
657.47	20.484
657.80	14.945
658.13	14.924
658.45	22.518
658.78	22.062
659.10	21.886
659.43	22.387
659.75	22.743
660.08	23.379
660.41	25.638
660.73	24.862
661.06	25.477
661.38	23.092
661.71	23.819
662.03	29.399
662.36	26.593
662.68	26.770
663.01	27.074
663.33	23.434
663.66	25.349
663.98	25.349
664.31	26.439
664.63	27.189
664.96	25.435
665.28	24.283
665.61	27.706
665.93	24.348
666.26	27.766
666.58	25.056
666.91	26.353
667.23	26.887
667.56	27.014
667.88	25.659
668.21	27.685
668.53	28.605
668.86	27.830
669.18	26.887
669.50	24.697
669.83	25.116
670.15	25.874
670.48	26.316
670.80	26.959
671.13	23.937
671.45	24.886
671.77	27.253
672.10	26.733
672.42	26.779
672.75	25.933
673.07	27.191
673.39	25.138
673.72	22.880
674.04	22.708
674.37	27.331
674.69	24.411
675.01	26.889
675.34	25.450
675.66	26.389
675.98	24.390
676.31	27.294
676.63	25.653
676.95	25.455
677.28	24.941
677.60	27.470
677.92	24.083
678.25	26.915
678.57	25.325
678.89	26.471
679.22	23.937
679.54	24.498
679.86	22.465
680.18	26.019
680.51	24.053
680.83	20.477
681.15	27.600
681.48	25.410
681.80	25.620
682.12	25.000
682.44	22.594
682.77	27.815
683.09	23.341
683.41	24.318
683.73	24.654
684.06	24.558
684.38	24.516
684.70	24.401
685.02	24.274
685.34	21.937
685.67	23.077
685.99	25.497
686.31	24.425
686.63	25.232
686.96	23.194
687.28	22.626
687.60	23.384
687.92	23.030
688.24	22.379
688.56	21.179
688.89	23.661
689.21	25.333
689.53	24.130
689.85	24.651
690.17	25.446
690.49	23.168
690.82	25.243
691.14	25.000
691.46	23.832
691.78	24.324
692.10	24.301
692.42	24.242
692.74	25.855
693.06	23.198
693.39	22.851
693.71	23.756
694.03	21.016
694.35	22.664
694.67	25.505
694.99	25.065
695.31	26.371
695.63	23.000
695.95	23.232
696.27	22.021
696.59	26.944
696.91	21.849
697.23	21.337
697.56	26.733
697.88	25.376
698.20	23.007
698.52	21.882
698.84	22.967
699.16	21.750
699.48	24.311
699.80	21.588
700.12	24.528
700.44	24.650
700.76	24.709
701.08	23.636
701.40	25.301
701.72	29.938
702.04	25.413
702.36	24.415
702.68	21.922
703.00	29.394
703.32	21.994
703.64	22.316
703.96	22.899
704.28	26.687
704.60	24.762
704.91	22.082
705.23	20.266
705.55	26.148
705.87	24.910
706.19	24.074
706.51	27.491
706.83	28.296
707.15	21.807
707.47	24.370
707.79	22.396
708.11	22.000
708.43	23.250
708.74	23.514
709.06	27.606
709.38	22.936
709.70	25.148
710.02	26.752
710.34	26.006
710.66	24.359
710.98	23.510
711.29	25.574
711.61	23.390
711.93	28.339
712.25	26.460
712.57	26.374
712.89	30.224
713.20	25.260
713.52	23.693
713.84	24.915
714.16	22.680
714.48	22.258
714.80	21.474
715.11	24.924
715.43	19.436
715.75	22.667
716.07	24.917
716.39	21.141
716.70	21.402
717.02	21.756
717.34	24.291
717.66	22.124
717.97	25.217
718.29	23.849
718.61	23.622
718.93	22.481
719.24	23.954
719.56	26.506
719.88	23.711
720.20	25.000
720.51	17.625
720.83	23.938
721.15	24.370
721.46	22.581
721.78	20.553
722.10	22.305
722.42	19.087
722.73	22.041
723.05	21.224
723.37	25.847
723.68	25.225
724.00	26.923
724.32	19.111
724.63	20.455
724.95	20.524
725.27	26.267
725.58	22.881
725.90	21.429
726.22	23.552
726.53	23.729
726.85	20.599
727.16	27.170
727.48	21.862
727.80	20.648
728.11	19.915
728.43	25.098
728.74	17.339
729.06	22.000
729.38	24.436
729.69	22.709
730.01	21.538
730.32	22.015
730.64	22.261
730.96	25.283
731.27	21.000
731.59	18.644
731.90	20.064
732.22	23.028
732.53	23.588
732.85	23.759
733.16	25.253
733.48	20.144
733.80	25.000
734.11	23.390
734.43	22.337
734.74	20.303
735.06	20.847
735.37	21.148
735.69	23.569
736.00	21.254
736.32	20.134
736.63	20.423
736.95	21.502
737.26	24.555
737.58	19.799
737.89	19.414
738.21	18.421
738.52	23.457
738.83	23.581
739.15	19.214
739.46	21.654
739.78	22.344
740.09	21.242
740.41	21.377
740.72	18.504
741.04	25.101
741.35	21.277
741.66	25.592
741.98	16.837
742.29	20.297
742.61	19.895
742.92	12.796
743.23	15.278
743.55	24.887
743.86	21.531
744.18	22.010
744.49	21.809
744.80	19.022
745.12	26.203
745.43	18.049
745.74	16.667
746.06	21.951
746.37	27.749
746.68	26.066
747.00	21.277
747.31	27.861
747.62	17.961
747.94	23.445
748.25	16.337
748.56	21.858
748.88	26.178
749.19	26.596
749.50	21.182
749.82	22.642
750.13	19.725
750.44	26.316
750.75	25.746
751.07	25.182
751.38	20.307
751.69	18.039
752.01	20.543
752.32	20.717
752.63	23.320
752.94	22.414
753.26	29.707
753.57	15.385
753.88	18.142
754.19	18.333
754.51	20.661
754.82	19.028
755.13	25.417
755.44	23.387
755.75	24.219
756.07	19.844
756.38	20.377
756.69	11.877
757.00	19.667
757.31	20.588
757.63	21.037
757.94	20.278
758.25	21.370
758.56	17.021
758.87	19.547
759.18	19.938
759.50	21.091
759.81	21.739
760.12	19.355
760.43	20.606
760.74	20.679
761.05	21.231
761.36	18.466
761.67	21.212
761.99	22.109
762.30	15.636
762.61	20.553
762.92	17.647
763.23	20.721
763.54	19.159
763.85	21.186
764.16	22.407
764.47	19.758
764.78	19.780
765.10	22.559
765.41	17.981
765.72	16.825
766.03	18.421
766.34	21.168
766.65	22.311
766.96	21.212
767.27	15.426
767.58	14.943
767.89	11.348
768.20	21.591
768.51	15.934
768.82	21.182
769.13	16.129
769.44	14.592
769.75	19.178
770.06	23.276
770.37	20.192
770.68	15.228
770.99	16.742
771.30	25.000
771.61	18.552
771.92	21.983
772.23	21.182
772.54	22.581
772.85	19.753
773.16	23.596
773.47	26.797
773.78	18.954
774.09	22.156
774.39	12.667
774.70	26.752
775.01	31.724
775.32	20.000
775.63	18.182
775.94	13.740
776.25	22.047
776.56	20.000
776.87	22.115
777.18	15.385
777.48	8.621
777.79	26.087
778.10	21.905
778.41	14.414
778.72	18.254
779.03	19.549
779.34	19.149
779.65	23.288
779.95	16.438
780.26	13.793
780.57	8.130
780.88	24.409
781.19	11.207
781.50	14.729
781.80	17.751
782.11	12.579
782.42	26.923
782.73	13.669
783.04	23.704
783.34	9.722
783.65	11.111
783.96	9.836
784.27	24.828
784.57	14.634
784.88	23.437
785.19	30.000
785.50	26.000
785.81	22.414
786.11	17.241
786.42	28.155
786.73	22.727
787.04	14.286
787.34	13.393
787.65	16.190
787.96	7.965
788.26	17.273
788.57	15.385
788.88	23.438
789.19	12.698
789.49	17.391
789.80	16.327
790.11	11.111
790.41	14.545
790.72	33.696
791.03	20.455
791.33	18.750
791.64	3.750
791.95	15.116
792.25	7.447
792.56	17.978
792.87	17.808
793.17	26.087
793.48	6.667
793.79	16.250
794.09	21.250
794.40	6.604
794.70	17.476
795.01	8.130
795.32	21.368
795.62	23.810
795.93	14.706
796.23	14.151
796.54	19.792
796.85	16.176
797.15	14.085
797.46	27.778
797.76	22.727
798.07	26.744
798.37	26.316
798.68	24.242
798.99	13.580
799.29	22.857
799.60	20.290
799.90	28.000
800.21	22.951
800.51	18.462
800.82	27.119
801.12	11.594
801.43	19.672
801.73	31.746
802.04	12.000
802.34	10.448
802.65	11.538
802.95	1.786
803.26	0.000
803.56	9.804
803.87	4.348
804.17	14.667
804.48	26.984
804.78	33.333
805.09	17.391
805.39	-2.222
805.70	14.815
806.00	0.000
806.30	8.451
806.61	17.143
806.91	0.000
807.22	31.579
807.52	25.333
807.83	10.909
808.13	29.167
808.43	10.294
808.74	11.940
809.04	18.644
809.35	13.462
809.65	29.688
809.95	-10.811
810.26	-13.636
810.56	13.699
810.86	9.524
811.17	14.000
811.47	22.449
811.77	2.632
812.08	15.909
812.38	18.868
812.69	12.500
812.99	-9.091
813.29	47.368
813.59	0.000
813.90	18.182
814.20	-7.692
814.50	30.769
814.81	18.868
815.11	10.638
815.41	22.034
815.72	28.571
816.02	39.216
816.32	31.250
816.62	4.878
816.93	18.919
817.23	2.857
817.53	33.333
817.84	13.043
818.14	21.154
818.44	-18.421
818.74	36.957
819.04	-20.000
819.35	13.514
819.65	8.824
819.95	-2.778
820.25	21.429
820.56	22.500
820.86	-13.793
821.16	57.500
821.46	29.787
821.76	12.500
822.07	23.256
822.37	-2.703
822.67	21.875
822.97	11.905
823.27	-7.143
823.57	20.000
823.88	-48.148
824.18	17.857
824.48	5.882
824.78	-16.129
825.08	13.043
825.38	6.061
825.69	-16.667
825.99	23.684
826.29	16.667
826.59	66.667
826.89	-23.810
827.19	26.087
827.49	20.000
827.79	5.714
828.09	21.429
828.39	36.364
828.70	29.730
829.00	21.429
829.30	-14.286
829.60	10.000
829.90	12.500
830.20	-2.632
830.50	25.926
830.80	8.696
831.10	9.091
831.40	39.394
831.70	12.903
832.00	42.857
832.30	-4.762
832.60	-58.333
832.90	6.897
833.20	-20.000
833.50	24.242
833.80	11.111
834.10	0.000
834.40	31.250
834.70	-33.333
835.00	63.158
835.30	42.308
835.60	46.667
835.90	41.935
836.20	-18.182
836.50	25.000
836.80	-26.923
837.10	-10.714
837.40	-200.000
837.70	18.182
838.00	-72.727
838.30	30.435
838.60	61.538
838.90	31.818
839.19	32.143
839.49	50.000
839.79	-7.692
840.09	-8.333
840.39	21.429
840.69	0.000
840.99	-26.923
841.29	-47.368
841.59	20.000
841.88	-18.182
842.18	70.000
842.48	31.250
842.78	6.667
843.08	7.407
843.38	-100.000
843.68	-4.348
843.97	0.000
844.27	-73.333
844.57	0.000
844.87	-27.778
845.17	14.286
845.47	40.000
845.76	-42.857
846.06	29.412
846.36	-30.000
846.66	28.571
846.96	33.333
847.25	-50.000
847.55	42.857
847.85	62.500
848.15	22.727
848.44	-400.000
848.74	-15.000
849.04	18.519
849.34	-63.636
849.63	-166.667
849.93	-40.000
850.23	-22.222
850.53	-30.000
850.82	-46.154
851.12	-55.556
851.42	-40.000
851.71	19.231
852.01	21.429
852.31	175.000
852.61	-27.273
852.90	-5.000
853.20	5.263
853.50	0.000
853.79	47.826
854.09	29.167
854.39	-21.053
854.68	-12.500
854.98	41.935
855.28	38.462
855.57	-10.000
855.87	27.778
856.17	14.815
856.46	21.429
856.76	-6.667
857.05	0.000
857.35	24.000
857.65	44.444
857.94	46.154
858.24	34.483
858.53	133.333
858.83	22.222
859.13	31.818
859.42	17.391
859.72	-175.000
860.01	-333.333
860.31	64.000
860.60	19.048
860.90	-100.000
861.20	-13.333
861.49	-400.000
861.79	66.667
862.08	-5.000
862.38	-13.333
862.67	-40.000
862.97	-133.333
863.26	-16.667
863.56	66.667
863.85	-333.333
864.15	27.778
864.44	80.000
864.74	21.429
865.03	75.000
865.33	-100.000
865.62	0.000
865.92	-58.333
866.21	-66.667
866.51	18.750
866.80	-36.364
867.10	-100.000
867.39	25.000
867.69	0.000
867.98	100.000
868.27	-100.000
868.57	-20.000
868.86	33.333
869.16	-15.385
869.45	0.000
869.75	-300.000
870.04	0.000
870.33	14.286
870.63	38.095
870.92	433.333
871.22	-60.000
871.51	-400.000
871.80	166.667
872.10	366.667
>>>>>End Processed Spectral Data<<<<<
