SpectraSuite Data File
++++++++++++++++++++++++++++++++++++
Date: Fri May 15 17:14:25 PDT 2015
User: schluterlab
Dark Spectrum Present: Yes
Reference Spectrum Present: Yes
Number of Sampled Component Spectra: 1
Spectrometers: USB2E3373
Integration Time (usec): 3000 (USB2E3373)
Spectra Averaged: 3 (USB2E3373)
Boxcar Smoothing: 0 (USB2E3373)
Correct for Electrical Dark: No (USB2E3373)
Strobe/Lamp Enabled: No (USB2E3373)
Correct for Detector Non-linearity: No (USB2E3373)
Correct for Stray Light: No (USB2E3373)
Number of Pixels in Processed Spectrum: 2048
>>>>>Begin Processed Spectral Data<<<<<
178.53	0.000
178.91	0.000
179.29	175.000
179.67	0.000
180.04	-71.429
180.42	-25.000
180.80	-800.000
181.18	66.667
181.56	-150.000
181.94	450.000
182.31	-100.000
182.69	40.000
183.07	166.667
183.45	0.000
183.83	150.000
184.20	-18.182
184.58	-55.556
184.96	-50.000
185.34	-0.000
185.72	-100.000
186.09	130.769
186.47	-300.000
186.85	16.667
187.23	-0.000
187.61	-800.000
187.98	166.667
188.36	155.556
188.74	66.667
189.12	70.588
189.49	38.889
189.87	0.000
190.25	57.143
190.63	400.000
191.00	-166.667
191.38	31.579
191.76	700.000
192.14	-225.000
192.51	200.000
192.89	122.222
193.27	-57.143
193.65	216.667
194.02	118.182
194.40	50.000
194.78	-87.500
195.15	8.333
195.53	-25.000
195.91	-100.000
196.29	75.000
196.66	130.769
197.04	71.429
197.42	66.667
197.79	-100.000
198.17	-46.154
198.55	500.000
198.92	-33.333
199.30	-400.000
199.68	260.000
200.05	-500.000
200.43	0.000
200.81	100.000
201.18	66.667
201.56	300.000
201.94	150.000
202.31	-233.333
202.69	0.000
203.07	50.000
203.44	500.000
203.82	0.000
204.19	21.429
204.57	166.667
204.95	12.500
205.32	80.000
205.70	71.429
206.08	350.000
206.45	255.556
206.83	107.143
207.20	100.000
207.58	-400.000
207.96	-66.667
208.33	-50.000
208.71	-225.000
209.08	16.667
209.46	300.000
209.84	-20.000
210.21	1100.000
210.59	71.429
210.96	-150.000
211.34	125.000
211.71	53.333
212.09	-42.857
212.46	0.000
212.84	0.000
213.22	70.000
213.59	100.000
213.97	38.462
214.34	100.000
214.72	-83.333
215.09	250.000
215.47	15.385
215.84	18.182
216.22	66.667
216.59	137.500
216.97	-150.000
217.34	50.000
217.72	-140.000
218.09	0.000
218.47	100.000
218.84	700.000
219.22	44.444
219.59	120.000
219.97	200.000
220.34	-0.000
220.72	114.286
221.09	-250.000
221.47	350.000
221.84	-400.000
222.22	-150.000
222.59	72.727
222.97	66.667
223.34	166.667
223.72	-42.857
224.09	61.905
224.46	50.000
224.84	33.333
225.21	50.000
225.59	93.333
225.96	100.000
226.34	75.000
226.71	142.857
227.08	50.000
227.46	87.500
227.83	150.000
228.21	166.667
228.58	36.364
228.95	125.000
229.33	110.000
229.70	93.750
230.08	-75.000
230.45	-28.571
230.82	185.714
231.20	-26.667
231.57	64.286
231.95	42.857
232.32	10.000
232.69	92.857
233.07	666.667
233.44	60.000
233.81	10.000
234.19	122.222
234.56	11.765
234.93	250.000
235.31	125.000
235.68	-40.000
236.05	15.385
236.43	30.000
236.80	70.588
237.17	46.875
237.55	-25.000
237.92	-18.519
238.29	16.667
238.67	46.667
239.04	14.706
239.41	-4.878
239.79	33.333
240.16	31.707
240.53	28.947
240.91	23.913
241.28	12.698
241.65	46.429
242.02	26.027
242.40	20.000
242.77	13.559
243.14	9.091
243.51	23.750
243.89	19.540
244.26	2.299
244.63	21.429
245.00	17.526
245.38	25.773
245.75	14.607
246.12	6.897
246.49	12.397
246.87	20.192
247.24	7.563
247.61	8.772
247.98	10.569
248.36	21.250
248.73	19.079
249.10	14.935
249.47	17.089
249.84	13.725
250.22	15.294
250.59	6.536
250.96	21.127
251.33	17.442
251.70	15.882
252.08	17.766
252.45	14.851
252.82	11.558
253.19	17.051
253.56	10.280
253.94	18.468
254.31	11.304
254.68	18.421
255.05	17.717
255.42	16.594
255.79	14.672
256.16	18.288
256.54	16.418
256.91	12.548
257.28	14.126
257.65	15.356
258.02	12.057
258.39	19.192
258.76	17.949
259.14	18.937
259.51	16.505
259.88	18.900
260.25	19.935
260.62	14.583
260.99	10.508
261.36	15.411
261.73	14.241
262.10	14.590
262.47	15.951
262.85	15.047
263.22	14.462
263.59	18.692
263.96	16.770
264.33	17.576
264.70	15.774
265.07	15.476
265.44	14.731
265.81	16.667
266.18	15.301
266.55	16.452
266.92	13.990
267.29	13.055
267.66	15.857
268.03	14.398
268.40	15.927
268.77	19.251
269.14	14.149
269.51	18.252
269.88	13.716
270.25	14.286
270.62	14.146
270.99	14.322
271.36	13.447
271.73	15.493
272.10	16.545
272.47	15.366
272.84	13.614
273.21	15.777
273.58	12.771
273.95	18.535
274.32	13.626
274.69	13.801
275.06	15.848
275.43	13.605
275.80	13.687
276.17	14.253
276.54	13.490
276.91	14.035
277.28	11.354
277.65	14.256
278.02	11.702
278.39	12.035
278.76	14.675
279.13	11.203
279.50	16.807
279.87	12.959
280.23	13.333
280.60	14.230
280.97	14.949
281.34	12.692
281.71	16.016
282.08	12.270
282.45	11.155
282.82	11.583
283.19	14.120
283.56	12.909
283.92	13.093
284.29	12.115
284.66	12.791
285.03	11.788
285.40	11.342
285.77	12.302
286.14	11.552
286.51	14.207
286.87	11.335
287.24	14.917
287.61	11.817
287.98	14.912
288.35	12.132
288.72	12.084
289.08	12.326
289.45	13.708
289.82	14.336
290.19	11.433
290.56	12.178
290.93	11.953
291.29	13.097
291.66	12.598
292.03	10.526
292.40	11.290
292.77	10.845
293.13	9.740
293.50	11.077
293.87	12.672
294.24	12.519
294.60	12.668
294.97	12.649
295.34	9.049
295.71	11.028
296.08	11.061
296.44	9.957
296.81	9.167
297.18	11.594
297.55	10.976
297.91	11.918
298.28	11.478
298.65	11.262
299.02	10.916
299.38	9.302
299.75	11.034
300.12	8.901
300.48	9.486
300.85	9.886
301.22	10.779
301.59	9.474
301.95	10.886
302.32	12.581
302.69	10.075
303.05	10.520
303.42	11.706
303.79	11.098
304.15	10.753
304.52	8.680
304.89	8.772
305.25	11.138
305.62	9.802
305.99	10.292
306.35	11.676
306.72	9.449
307.09	9.806
307.45	11.022
307.82	10.648
308.19	11.847
308.55	10.469
308.92	11.547
309.29	9.944
309.65	11.087
310.02	9.791
310.38	12.184
310.75	12.350
311.12	12.379
311.48	11.771
311.85	11.204
312.22	11.920
312.58	12.208
312.95	11.846
313.31	13.251
313.68	12.251
314.05	12.347
314.41	12.887
314.78	13.608
315.14	14.697
315.51	14.493
315.87	14.447
316.24	17.290
316.61	16.831
316.97	17.262
317.34	15.527
317.70	16.061
318.07	17.404
318.43	18.627
318.80	17.235
319.16	18.457
319.53	19.373
319.89	19.783
320.26	20.445
320.62	21.364
320.99	20.042
321.35	21.788
321.72	23.676
322.08	23.867
322.45	24.467
322.81	23.969
323.18	25.221
323.54	25.290
323.91	26.290
324.27	27.539
324.64	28.839
325.00	28.832
325.37	30.762
325.73	29.918
326.10	29.882
326.46	32.287
326.83	32.371
327.19	34.612
327.56	34.839
327.92	36.356
328.29	37.411
328.65	38.019
329.01	37.960
329.38	38.986
329.74	39.660
330.11	40.500
330.47	40.909
330.84	41.442
331.20	44.677
331.56	43.704
331.93	44.384
332.29	44.638
332.66	43.167
333.02	45.260
333.38	44.638
333.75	46.978
334.11	44.942
334.48	47.779
334.84	46.978
335.20	46.020
335.57	45.875
335.93	47.064
336.29	48.711
336.66	46.322
337.02	47.119
337.38	46.944
337.75	48.545
338.11	48.242
338.47	48.175
338.84	48.706
339.20	49.177
339.56	49.817
339.93	48.881
340.29	48.165
340.65	48.835
341.02	47.784
341.38	49.204
341.74	47.173
342.11	48.180
342.47	48.665
342.83	48.702
343.20	49.216
343.56	49.304
343.92	49.159
344.28	48.335
344.65	50.432
345.01	50.908
345.37	48.528
345.73	49.372
346.10	50.820
346.46	49.369
346.82	48.854
347.19	47.880
347.55	50.877
347.91	50.243
348.27	48.424
348.63	50.596
349.00	48.975
349.36	49.626
349.72	51.741
350.08	49.426
350.45	50.599
350.81	49.169
351.17	50.326
351.53	50.694
351.89	49.711
352.26	50.160
352.62	51.452
352.98	49.799
353.34	50.081
353.70	51.861
354.07	50.726
354.43	49.960
354.79	50.702
355.15	50.952
355.51	50.475
355.87	52.427
356.24	50.816
356.60	49.960
356.96	50.397
357.32	50.639
357.68	52.072
358.04	51.292
358.40	52.733
358.77	52.392
359.13	52.842
359.49	52.080
359.85	51.326
360.21	52.552
360.57	50.727
360.93	51.513
361.29	50.302
361.66	53.683
362.02	54.091
362.38	54.227
362.74	53.444
363.10	54.853
363.46	55.300
363.82	55.147
364.18	53.358
364.54	53.529
364.90	52.975
365.26	54.148
365.62	55.474
365.98	54.692
366.35	55.936
366.71	56.319
367.07	55.152
367.43	53.415
367.79	53.922
368.15	55.635
368.51	56.519
368.87	54.559
369.23	54.585
369.59	57.653
369.95	56.232
370.31	57.370
370.67	57.090
371.03	55.937
371.39	57.914
371.75	57.582
372.11	57.489
372.47	58.580
372.83	56.707
373.19	57.418
373.55	57.906
373.91	58.675
374.27	58.894
374.63	58.938
374.99	59.007
375.35	59.123
375.71	60.140
376.07	60.323
376.42	61.020
376.78	60.067
377.14	60.325
377.50	59.429
377.86	60.977
378.22	61.200
378.58	62.436
378.94	61.563
379.30	60.262
379.66	62.382
380.02	61.435
380.38	61.351
380.74	60.443
381.09	61.779
381.45	62.202
381.81	62.122
382.17	62.246
382.53	61.899
382.89	64.532
383.25	64.157
383.61	64.146
383.97	63.810
384.32	63.790
384.68	63.034
385.04	64.216
385.40	63.161
385.76	65.786
386.12	65.977
386.48	67.305
386.83	66.011
387.19	66.606
387.55	67.440
387.91	65.220
388.27	65.873
388.62	67.590
388.98	66.114
389.34	65.646
389.70	67.557
390.06	65.009
390.42	66.386
390.77	66.710
391.13	67.024
391.49	68.952
391.85	67.576
392.20	67.294
392.56	66.497
392.92	67.528
393.28	67.983
393.64	67.207
393.99	68.339
394.35	67.299
394.71	68.966
395.07	68.196
395.42	67.152
395.78	68.664
396.14	68.726
396.50	68.928
396.85	70.251
397.21	67.607
397.57	68.088
397.92	66.747
398.28	69.253
398.64	66.807
399.00	68.284
399.35	67.043
399.71	67.260
400.07	69.589
400.42	68.543
400.78	68.157
401.14	66.788
401.49	68.493
401.85	68.129
402.21	68.554
402.57	67.188
402.92	67.503
403.28	68.672
403.63	69.231
403.99	67.985
404.35	67.583
404.70	66.131
405.06	67.391
405.42	68.987
405.77	67.112
406.13	69.441
406.49	68.620
406.84	69.193
407.20	68.152
407.55	67.997
407.91	66.578
408.27	68.260
408.62	67.692
408.98	68.145
409.34	68.154
409.69	68.798
410.05	66.133
410.40	67.407
410.76	68.758
411.11	68.000
411.47	69.888
411.83	68.236
412.18	67.696
412.54	66.479
412.89	67.057
413.25	68.291
413.60	68.385
413.96	67.914
414.31	68.171
414.67	68.505
415.03	68.242
415.38	67.493
415.74	69.055
416.09	68.779
416.45	68.265
416.80	69.002
417.16	70.166
417.51	69.953
417.87	69.100
418.22	70.272
418.58	70.635
418.93	69.843
419.29	68.374
419.64	69.410
420.00	71.788
420.35	68.955
420.71	70.231
421.06	71.087
421.42	70.433
421.77	70.058
422.12	71.112
422.48	70.005
422.83	71.404
423.19	71.275
423.54	70.135
423.90	70.966
424.25	71.183
424.61	72.889
424.96	70.035
425.31	74.581
425.67	74.178
426.02	72.968
426.38	73.513
426.73	73.668
427.09	74.557
427.44	73.471
427.79	74.131
428.15	73.483
428.50	74.379
428.85	73.157
429.21	74.420
429.56	75.148
429.92	74.268
430.27	74.386
430.62	74.752
430.98	74.257
431.33	74.290
431.68	74.516
432.04	76.076
432.39	74.786
432.74	74.263
433.10	75.747
433.45	75.627
433.80	77.771
434.16	75.789
434.51	77.419
434.86	78.688
435.22	75.715
435.57	78.415
435.92	77.126
436.28	75.432
436.63	77.867
436.98	75.782
437.34	76.830
437.69	77.340
438.04	77.778
438.39	77.764
438.75	80.510
439.10	78.268
439.45	78.028
439.81	78.960
440.16	79.216
440.51	79.343
440.86	80.181
441.22	79.242
441.57	80.408
441.92	79.801
442.27	81.486
442.63	80.621
442.98	80.816
443.33	80.412
443.68	78.939
444.03	80.576
444.39	79.488
444.74	81.661
445.09	80.846
445.44	80.798
445.79	82.104
446.15	80.617
446.50	79.867
446.85	81.456
447.20	80.083
447.55	81.306
447.91	81.782
448.26	80.876
448.61	81.750
448.96	82.329
449.31	81.214
449.66	80.894
450.02	82.373
450.37	83.106
450.72	81.214
451.07	83.418
451.42	80.899
451.77	81.193
452.12	82.177
452.47	82.614
452.83	82.214
453.18	84.187
453.53	83.186
453.88	84.092
454.23	83.344
454.58	83.942
454.93	82.474
455.28	81.587
455.63	83.137
455.98	83.103
456.34	83.461
456.69	84.244
457.04	83.554
457.39	83.779
457.74	83.797
458.09	81.695
458.44	82.738
458.79	82.745
459.14	84.153
459.49	82.567
459.84	82.234
460.19	84.951
460.54	83.802
460.89	84.545
461.24	83.354
461.59	83.135
461.94	80.881
462.29	84.922
462.64	84.784
462.99	83.006
463.34	84.492
463.69	84.685
464.04	83.717
464.39	84.051
464.74	83.129
465.09	85.278
465.44	84.824
465.79	82.086
466.14	83.979
466.49	84.359
466.84	82.213
467.19	84.355
467.54	85.121
467.89	84.081
468.24	84.550
468.59	85.651
468.94	83.683
469.29	84.656
469.64	84.826
469.99	86.405
470.34	84.573
470.68	86.130
471.03	85.492
471.38	86.448
471.73	85.084
472.08	84.328
472.43	85.973
472.78	85.538
473.13	87.551
473.48	85.993
473.83	84.371
474.17	86.528
474.52	84.301
474.87	86.364
475.22	85.174
475.57	85.319
475.92	86.725
476.27	85.448
476.61	86.227
476.96	84.663
477.31	85.614
477.66	85.337
478.01	85.794
478.36	86.220
478.70	87.765
479.05	86.593
479.40	86.169
479.75	84.776
480.10	85.509
480.45	86.100
480.79	87.613
481.14	88.678
481.49	84.631
481.84	87.355
482.19	85.267
482.53	85.851
482.88	85.346
483.23	85.461
483.58	85.519
483.92	84.511
484.27	84.549
484.62	85.029
484.97	84.867
485.31	85.910
485.66	84.068
486.01	84.266
486.36	83.408
486.70	83.730
487.05	83.806
487.40	84.126
487.75	84.141
488.09	82.540
488.44	84.078
488.79	84.273
489.13	84.655
489.48	86.148
489.83	85.247
490.17	85.528
490.52	84.942
490.87	85.099
491.22	87.249
491.56	86.290
491.91	83.795
492.26	87.117
492.60	85.605
492.95	87.211
493.30	84.709
493.64	87.770
493.99	86.135
494.34	86.748
494.68	86.048
495.03	86.229
495.37	86.114
495.72	86.017
496.07	87.024
496.41	86.321
496.76	86.596
497.11	85.934
497.45	86.014
497.80	87.286
498.14	84.848
498.49	87.049
498.84	86.577
499.18	87.249
499.53	86.954
499.87	86.868
500.22	86.647
500.56	87.998
500.91	85.894
501.26	84.577
501.60	87.014
501.95	87.239
502.29	87.022
502.64	86.293
502.98	87.519
503.33	86.167
503.67	86.120
504.02	88.123
504.36	86.591
504.71	86.616
505.06	86.462
505.40	87.310
505.75	87.732
506.09	86.113
506.44	86.653
506.78	86.786
507.13	87.487
507.47	87.467
507.82	87.447
508.16	86.582
508.51	88.510
508.85	88.802
509.19	88.398
509.54	89.008
509.88	87.594
510.23	88.919
510.57	88.509
510.92	85.661
511.26	89.089
511.61	90.099
511.95	88.712
512.30	88.137
512.64	87.034
512.98	89.725
513.33	88.584
513.67	90.222
514.02	89.760
514.36	90.686
514.70	90.093
515.05	91.774
515.39	89.138
515.74	91.257
516.08	91.213
516.42	90.931
516.77	91.516
517.11	91.217
517.46	92.340
517.80	88.439
518.14	91.304
518.49	90.204
518.83	89.611
519.17	89.024
519.52	89.639
519.86	89.676
520.20	92.467
520.55	91.307
520.89	90.778
521.23	91.767
521.58	91.924
521.92	92.885
522.26	92.648
522.61	91.039
522.95	93.709
523.29	90.851
523.64	93.075
523.98	93.260
524.32	91.817
524.66	91.101
525.01	93.831
525.35	91.575
525.69	93.535
526.04	92.196
526.38	92.737
526.72	90.778
527.06	90.856
527.41	92.348
527.75	93.029
528.09	90.831
528.43	92.978
528.78	93.267
529.12	92.452
529.46	92.528
529.80	90.247
530.15	92.277
530.49	93.939
530.83	93.502
531.17	91.739
531.51	93.707
531.86	91.842
532.20	93.876
532.54	93.261
532.88	94.251
533.22	92.339
533.57	89.908
533.91	94.517
534.25	91.927
534.59	92.431
534.93	91.189
535.27	89.277
535.62	92.158
535.96	91.455
536.30	91.557
536.64	92.901
536.98	90.801
537.32	93.883
537.66	92.637
538.01	92.028
538.35	91.748
538.69	91.611
539.03	90.567
539.37	91.790
539.71	91.275
540.05	91.785
540.39	92.798
540.73	91.841
541.07	92.265
541.42	92.070
541.76	94.081
542.10	91.191
542.44	92.425
542.78	90.709
543.12	91.277
543.46	91.725
543.80	93.963
544.14	90.254
544.48	91.206
544.82	92.139
545.16	93.238
545.50	88.718
545.84	91.856
546.18	93.262
546.52	91.492
546.86	93.314
547.20	93.419
547.54	91.590
547.88	91.712
548.22	90.664
548.56	88.918
548.90	92.992
549.24	91.116
549.58	91.608
549.92	90.565
550.26	91.209
550.60	93.011
550.94	94.175
551.28	93.431
551.62	93.154
551.96	93.609
552.30	93.275
552.64	90.409
552.98	91.210
553.32	90.728
553.66	92.380
554.00	93.285
554.34	93.427
554.68	90.855
555.02	92.560
555.36	92.670
555.69	93.480
556.03	91.934
556.37	92.242
556.71	93.141
557.05	93.438
557.39	91.822
557.73	93.103
558.07	94.646
558.41	94.257
558.75	93.453
559.08	93.538
559.42	95.238
559.76	94.235
560.10	93.731
560.44	92.405
560.78	91.888
561.12	94.006
561.45	94.027
561.79	92.787
562.13	92.974
562.47	94.388
562.81	92.795
563.15	92.595
563.48	93.352
563.82	93.137
564.16	92.549
564.50	91.081
564.84	91.499
565.17	91.818
565.51	95.150
565.85	94.376
566.19	93.700
566.52	92.895
566.86	92.416
567.20	91.781
567.54	93.309
567.88	95.723
568.21	93.213
568.55	91.793
568.89	90.246
569.23	93.115
569.56	91.375
569.90	91.636
570.24	88.202
570.57	90.655
570.91	90.310
571.25	89.247
571.59	88.072
571.92	87.496
572.26	88.285
572.60	88.744
572.93	87.135
573.27	87.085
573.61	88.067
573.95	88.749
574.28	87.050
574.62	87.287
574.96	85.839
575.29	86.699
575.63	84.789
575.97	86.256
576.30	86.955
576.64	85.828
576.98	87.156
577.31	87.859
577.65	86.904
577.98	86.855
578.32	86.048
578.66	85.880
578.99	86.406
579.33	85.986
579.67	85.466
580.00	86.911
580.34	85.498
580.67	85.880
581.01	87.224
581.35	85.659
581.68	85.830
582.02	86.364
582.35	86.221
582.69	86.093
583.02	86.349
583.36	86.586
583.70	87.773
584.03	88.268
584.37	89.272
584.70	87.500
585.04	86.917
585.37	87.346
585.71	87.336
586.04	87.191
586.38	86.796
586.72	88.293
587.05	89.110
587.39	88.929
587.72	90.268
588.06	88.486
588.39	87.952
588.73	88.736
589.06	89.269
589.40	88.317
589.73	88.682
590.07	91.163
590.40	90.402
590.73	91.351
591.07	89.737
591.40	90.160
591.74	90.814
592.07	92.161
592.41	91.873
592.74	89.885
593.08	87.845
593.41	89.786
593.75	88.224
594.08	88.363
594.41	88.974
594.75	90.534
595.08	89.103
595.42	90.762
595.75	90.875
596.09	90.774
596.42	89.996
596.75	90.542
597.09	90.205
597.42	89.521
597.75	91.342
598.09	88.411
598.42	89.937
598.76	89.146
599.09	90.425
599.42	86.245
599.76	89.541
600.09	88.575
600.42	88.362
600.76	89.562
601.09	89.618
601.42	89.072
601.76	89.202
602.09	89.893
602.42	90.607
602.76	91.426
603.09	90.656
603.42	91.430
603.76	89.919
604.09	89.996
604.42	89.509
604.76	90.521
605.09	90.494
605.42	88.984
605.75	90.937
606.09	89.045
606.42	89.074
606.75	88.615
607.09	90.242
607.42	88.879
607.75	90.320
608.08	88.994
608.42	87.757
608.75	92.193
609.08	91.878
609.41	91.218
609.75	91.633
610.08	92.262
610.41	89.952
610.74	89.907
611.07	93.282
611.41	89.725
611.74	92.164
612.07	91.649
612.40	92.341
612.73	92.147
613.07	91.732
613.40	90.646
613.73	92.334
614.06	90.262
614.39	91.201
614.72	90.364
615.06	91.173
615.39	88.537
615.72	89.559
616.05	89.721
616.38	89.801
616.71	90.581
617.05	92.217
617.38	92.206
617.71	93.082
618.04	93.714
618.37	93.380
618.70	94.389
619.03	94.375
619.36	95.007
619.69	97.422
620.03	94.741
620.36	93.848
620.69	93.719
621.02	93.960
621.35	96.680
621.68	96.429
622.01	96.583
622.34	94.733
622.67	94.795
623.00	92.343
623.33	94.588
623.66	92.745
623.99	93.570
624.32	93.308
624.65	93.459
624.99	94.432
625.32	95.072
625.65	94.108
625.98	95.246
626.31	93.516
626.64	96.967
626.97	97.557
627.30	96.147
627.63	94.801
627.96	95.508
628.29	95.375
628.62	96.952
628.95	95.190
629.28	97.480
629.61	97.906
629.94	95.699
630.26	95.059
630.59	100.000
630.92	97.949
631.25	96.103
631.58	98.238
631.91	98.355
632.24	101.720
632.57	97.727
632.90	98.221
633.23	97.059
633.56	104.282
633.89	99.137
634.22	99.630
634.55	101.779
634.88	100.766
635.20	98.974
635.53	102.000
635.86	99.870
636.19	102.070
636.52	100.765
636.85	97.395
637.18	101.258
637.51	96.981
637.83	96.715
638.16	102.319
638.49	98.774
638.82	100.000
639.15	99.729
639.48	101.100
639.81	101.255
640.13	103.030
640.46	101.458
640.79	103.535
641.12	101.182
641.45	99.550
641.77	98.815
642.10	102.054
642.43	102.572
642.76	104.125
643.09	99.677
643.41	101.456
643.74	99.341
644.07	101.642
644.40	103.378
644.73	106.655
645.05	100.671
645.38	104.762
645.71	103.546
646.04	103.770
646.36	101.241
646.69	104.317
647.02	104.915
647.35	103.358
647.67	102.011
648.00	105.970
648.33	100.000
648.66	103.729
648.98	102.178
649.31	102.314
649.64	100.314
649.96	98.703
650.29	100.852
650.62	99.145
650.94	104.630
651.27	100.372
651.60	101.081
651.92	97.028
652.25	100.178
652.58	103.333
652.90	101.029
653.23	101.176
653.56	99.831
653.88	100.515
654.21	99.825
654.54	97.963
654.86	101.019
655.19	97.222
655.52	93.885
655.84	86.774
656.17	96.517
656.49	100.000
656.82	100.000
657.15	100.000
657.47	100.000
657.80	91.428
658.13	55.503
658.45	86.453
658.78	86.043
659.10	86.167
659.43	85.461
659.75	89.295
660.08	88.828
660.41	94.688
660.73	96.409
661.06	96.880
661.38	100.978
661.71	100.616
662.03	104.506
662.36	100.440
662.68	101.106
663.01	102.838
663.33	107.193
663.66	102.093
663.98	104.186
664.31	101.279
664.63	101.843
664.96	97.609
665.28	103.974
665.61	106.277
665.93	103.478
666.26	101.952
666.58	103.579
666.91	104.471
667.23	106.368
667.56	102.370
667.88	101.679
668.21	104.296
668.53	104.492
668.86	104.481
669.18	100.943
669.50	101.211
669.83	98.837
670.15	101.865
670.48	106.459
670.80	101.152
671.13	101.790
671.45	100.000
671.77	100.215
672.10	96.238
672.42	96.816
672.75	96.980
673.07	100.358
673.39	97.248
673.72	96.647
674.04	100.625
674.37	97.458
674.69	101.927
675.01	101.778
675.34	102.703
675.66	102.315
675.98	98.670
676.31	103.899
676.63	104.513
676.95	100.227
677.28	105.647
677.60	105.783
677.92	102.523
678.25	96.937
678.57	103.030
678.89	102.101
679.22	105.369
679.54	96.586
679.86	98.608
680.18	99.806
680.51	96.402
680.83	99.205
681.15	99.600
681.48	102.254
681.80	94.835
682.12	93.548
682.44	99.582
682.77	102.428
683.09	99.085
683.41	98.636
683.73	98.157
684.06	99.115
684.38	101.720
684.70	104.357
685.02	99.793
685.34	94.466
685.67	95.122
685.99	95.118
686.31	98.761
686.63	97.217
686.96	92.966
687.28	96.364
687.60	94.867
687.92	99.596
688.24	98.790
688.56	101.310
688.89	98.661
689.21	97.333
689.53	94.896
689.85	97.907
690.17	98.884
690.49	100.709
690.82	99.029
691.14	94.762
691.46	101.869
691.78	99.099
692.10	96.989
692.42	94.156
692.74	97.009
693.06	97.973
693.39	97.285
693.71	100.905
694.03	94.226
694.35	96.495
694.67	101.515
694.99	98.433
695.31	100.522
695.63	96.750
695.95	94.444
696.27	101.554
696.59	101.111
696.91	102.241
697.23	96.915
697.56	103.218
697.88	98.710
698.20	95.672
698.52	96.235
698.84	96.411
699.16	101.500
699.48	102.506
699.80	95.037
700.12	101.078
700.44	100.840
700.76	96.802
701.08	103.333
701.40	97.289
701.72	104.321
702.04	100.000
702.36	105.686
702.68	100.300
703.00	105.455
703.32	100.000
703.64	91.808
703.96	98.261
704.28	98.466
704.60	103.175
704.91	98.738
705.23	100.664
705.55	105.300
705.87	106.498
706.19	105.185
706.51	101.031
706.83	96.463
707.15	98.754
707.47	98.880
707.79	97.135
708.11	96.000
708.43	96.500
708.74	94.832
709.06	102.817
709.38	103.976
709.70	97.041
710.02	98.726
710.34	96.285
710.66	93.269
710.98	102.318
711.29	102.295
711.61	102.373
711.93	98.046
712.25	103.780
712.57	101.832
712.89	104.104
713.20	94.810
713.52	95.819
713.84	96.246
714.16	96.564
714.48	99.355
714.80	98.397
715.11	92.401
715.43	90.596
715.75	97.333
716.07	97.674
716.39	90.604
716.70	94.465
717.02	99.237
717.34	101.215
717.66	106.637
717.97	100.000
718.29	100.000
718.61	97.244
718.93	99.612
719.24	96.578
719.56	106.827
719.88	96.564
720.20	98.485
720.51	93.103
720.83	98.069
721.15	104.622
721.46	101.613
721.78	102.372
722.10	92.937
722.42	101.245
722.73	95.102
723.05	103.265
723.37	105.085
723.68	104.505
724.00	96.581
724.32	99.556
724.63	101.364
724.95	100.000
725.27	104.608
725.58	102.542
725.90	93.651
726.22	97.683
726.53	93.898
726.85	97.378
727.16	98.868
727.48	93.927
727.80	96.761
728.11	102.542
728.43	92.941
728.74	95.161
729.06	94.400
729.38	96.241
729.69	98.008
730.01	95.000
730.32	101.119
730.64	94.346
730.96	99.623
731.27	94.000
731.59	97.288
731.90	93.949
732.22	93.375
732.53	92.691
732.85	96.454
733.16	90.236
733.48	97.842
733.80	98.188
734.11	93.559
734.43	95.533
734.74	93.030
735.06	95.440
735.37	92.749
735.69	96.633
736.00	91.986
736.32	88.255
736.63	93.662
736.95	92.491
737.26	95.018
737.58	90.940
737.89	98.901
738.21	96.617
738.52	98.354
738.83	98.253
739.15	95.197
739.46	93.307
739.78	91.575
740.09	86.928
740.41	94.203
740.72	93.307
741.04	102.024
741.35	99.574
741.66	96.209
741.98	103.061
742.29	100.000
742.61	93.194
742.92	89.573
743.23	91.667
743.55	96.833
743.86	97.129
744.18	91.866
744.49	101.064
744.80	104.348
745.12	110.160
745.43	90.244
745.74	102.083
746.06	99.512
746.37	101.047
746.68	96.682
747.00	103.723
747.31	97.512
747.62	100.000
747.94	95.694
748.25	99.505
748.56	104.918
748.88	96.859
749.19	109.043
749.50	96.059
749.82	97.170
750.13	99.083
750.44	93.609
750.75	96.642
751.07	100.000
751.38	91.571
751.69	92.549
752.01	94.186
752.32	97.610
752.63	94.466
752.94	99.138
753.26	97.908
753.57	98.643
753.88	93.363
754.19	92.917
754.51	94.215
754.82	94.332
755.13	100.417
755.44	95.161
755.75	95.703
756.07	91.440
756.38	94.717
756.69	95.402
757.00	85.000
757.31	86.275
757.63	89.329
757.94	83.889
758.25	89.589
758.56	88.032
758.87	84.986
759.18	83.489
759.50	92.727
759.81	89.632
760.12	90.000
760.43	92.121
760.74	91.667
761.05	91.077
761.36	87.500
761.67	94.848
761.99	94.898
762.30	85.818
762.61	87.352
762.92	100.000
763.23	92.342
763.54	94.860
763.85	90.254
764.16	90.041
764.47	87.903
764.78	89.011
765.10	92.256
765.41	86.751
765.72	84.762
766.03	96.241
766.34	87.591
766.65	89.243
766.96	98.485
767.27	94.149
767.58	90.805
767.89	101.418
768.20	88.068
768.51	93.956
768.82	86.207
769.13	91.705
769.44	92.704
769.75	94.521
770.06	83.621
770.37	92.788
770.68	92.386
770.99	82.805
771.30	96.078
771.61	89.593
771.92	92.672
772.23	93.103
772.54	94.086
772.85	96.296
773.16	89.888
773.47	103.268
773.78	96.732
774.09	86.826
774.39	99.333
774.70	91.083
775.01	97.931
775.32	95.000
775.63	98.347
775.94	93.130
776.25	92.913
776.56	91.667
776.87	102.885
777.18	98.291
777.48	89.655
777.79	90.435
778.10	89.524
778.41	81.081
778.72	96.032
779.03	82.707
779.34	90.071
779.65	83.562
779.95	88.356
780.26	85.517
780.57	91.870
780.88	86.614
781.19	100.862
781.50	93.023
781.80	81.065
782.11	89.308
782.42	99.231
782.73	95.683
783.04	87.407
783.34	86.111
783.65	80.342
783.96	94.262
784.27	86.207
784.57	94.309
784.88	84.375
785.19	94.000
785.50	92.000
785.81	87.069
786.11	86.207
786.42	84.466
786.73	86.364
787.04	95.918
787.34	71.429
787.65	81.905
787.96	81.416
788.26	90.909
788.57	84.615
788.88	93.750
789.19	84.127
789.49	82.609
789.80	93.878
790.11	96.970
790.41	84.545
790.72	97.826
791.03	80.682
791.33	95.000
791.64	90.000
791.95	83.721
792.25	96.809
792.56	91.011
792.87	89.041
793.17	97.101
793.48	74.667
793.79	78.750
794.09	91.250
794.40	84.906
794.70	84.466
795.01	77.236
795.32	82.906
795.62	81.905
795.93	84.314
796.23	90.566
796.54	87.500
796.85	107.353
797.15	76.056
797.46	94.444
797.76	100.000
798.07	83.721
798.37	90.789
798.68	87.879
798.99	75.309
799.29	88.571
799.60	86.957
799.90	92.000
800.21	119.672
800.51	83.077
800.82	108.475
801.12	85.507
801.43	98.361
801.73	95.238
802.04	98.000
802.34	71.642
802.65	88.462
802.95	87.500
803.26	80.769
803.56	96.078
803.87	78.261
804.17	69.333
804.48	93.651
804.78	81.481
805.09	89.130
805.39	62.222
805.70	105.556
806.00	77.193
806.30	81.690
806.61	82.857
806.91	65.278
807.22	101.316
807.52	82.667
807.83	90.909
808.13	87.500
808.43	95.588
808.74	83.582
809.04	89.831
809.35	96.154
809.65	92.188
809.95	94.595
810.26	88.636
810.56	60.274
810.86	97.619
811.17	74.000
811.47	87.755
811.77	97.368
812.08	97.727
812.38	84.906
812.69	62.500
812.99	90.909
813.29	68.421
813.59	71.429
813.90	97.727
814.20	82.051
814.50	86.538
814.81	84.906
815.11	100.000
815.41	62.712
815.72	76.190
816.02	84.314
816.32	56.250
816.62	82.927
816.93	89.189
817.23	91.429
817.53	85.417
817.84	91.304
818.14	63.462
818.44	63.158
818.74	76.087
819.04	65.000
819.35	102.703
819.65	79.412
819.95	94.444
820.25	64.286
820.56	97.500
820.86	75.862
821.16	75.000
821.46	93.617
821.76	102.500
822.07	83.721
822.37	48.649
822.67	65.625
822.97	71.429
823.27	103.571
823.57	108.000
823.88	96.296
824.18	64.286
824.48	73.529
824.78	61.290
825.08	104.348
825.38	84.848
825.69	41.667
825.99	60.526
826.29	80.556
826.59	186.667
826.89	76.190
827.19	86.957
827.49	75.000
827.79	74.286
828.09	114.286
828.39	115.152
828.70	113.514
829.00	53.571
829.30	90.476
829.60	80.000
829.90	81.250
830.20	60.526
830.50	55.556
830.80	104.348
831.10	95.455
831.40	93.939
831.70	103.226
832.00	85.714
832.30	109.524
832.60	75.000
832.90	68.966
833.20	55.000
833.50	72.727
833.80	74.074
834.10	92.308
834.40	81.250
834.70	144.444
835.00	131.579
835.30	142.308
835.60	173.333
835.90	83.871
836.20	109.091
836.50	85.714
836.80	76.923
837.10	32.143
837.40	266.667
837.70	31.818
838.00	63.636
838.30	86.957
838.60	69.231
838.90	86.364
839.19	64.286
839.49	86.667
839.79	130.769
840.09	41.667
840.39	107.143
840.69	78.571
840.99	38.462
841.29	52.632
841.59	210.000
841.88	127.273
842.18	90.000
842.48	56.250
842.78	113.333
843.08	88.889
843.38	20.000
843.68	86.957
843.97	133.333
844.27	93.333
844.57	65.000
844.87	111.111
845.17	47.619
845.47	93.333
845.76	47.619
846.06	88.235
846.36	150.000
846.66	35.714
846.96	100.000
847.25	50.000
847.55	107.143
847.85	225.000
848.15	68.182
848.44	233.333
848.74	110.000
849.04	81.481
849.34	90.909
849.63	216.667
849.93	80.000
850.23	55.556
850.53	120.000
850.82	61.538
851.12	88.889
851.42	40.000
851.71	69.231
852.01	121.429
852.31	175.000
852.61	63.636
852.90	15.000
853.20	110.526
853.50	116.667
853.79	73.913
854.09	116.667
854.39	78.947
854.68	58.333
854.98	64.516
855.28	103.846
855.57	140.000
855.87	94.444
856.17	74.074
856.46	92.857
856.76	80.000
857.05	88.889
857.35	112.000
857.65	155.556
857.94	84.615
858.24	75.862
858.53	138.889
858.83	77.778
859.13	59.091
859.42	17.391
859.72	125.000
860.01	-100.000
860.31	68.000
860.60	52.381
860.90	366.667
861.20	53.333
861.49	150.000
861.79	53.333
862.08	40.000
862.38	186.667
862.67	120.000
862.97	16.667
863.26	33.333
863.56	105.556
863.85	-66.667
864.15	44.444
864.44	60.000
864.74	64.286
865.03	-300.000
865.33	-100.000
865.62	83.333
865.92	66.667
866.21	-33.333
866.51	68.750
866.80	90.909
867.10	250.000
867.39	141.667
867.69	0.000
867.98	61.538
868.27	100.000
868.57	26.667
868.86	72.222
869.16	0.000
869.45	153.333
869.75	-600.000
870.04	0.000
870.33	-14.286
870.63	76.190
870.92	500.000
871.22	80.000
871.51	-200.000
871.80	77.778
872.10	133.333
>>>>>End Processed Spectral Data<<<<<
