SpectraSuite Data File
++++++++++++++++++++++++++++++++++++
Date: Fri May 15 17:03:34 PDT 2015
User: schluterlab
Dark Spectrum Present: Yes
Reference Spectrum Present: Yes
Number of Sampled Component Spectra: 1
Spectrometers: USB2E3373
Integration Time (usec): 3000 (USB2E3373)
Spectra Averaged: 3 (USB2E3373)
Boxcar Smoothing: 0 (USB2E3373)
Correct for Electrical Dark: No (USB2E3373)
Strobe/Lamp Enabled: No (USB2E3373)
Correct for Detector Non-linearity: No (USB2E3373)
Correct for Stray Light: No (USB2E3373)
Number of Pixels in Processed Spectrum: 2048
>>>>>Begin Processed Spectral Data<<<<<
178.53	0.000
178.91	0.000
179.29	100.000
179.67	300.000
180.04	-185.714
180.42	200.000
180.80	-300.000
181.18	-133.333
181.56	250.000
181.94	350.000
182.31	-600.000
182.69	100.000
183.07	400.000
183.45	200.000
183.83	216.667
184.20	81.818
184.58	77.778
184.96	-200.000
185.34	133.333
185.72	450.000
186.09	23.077
186.47	100.000
186.85	16.667
187.23	100.000
187.61	-900.000
187.98	133.333
188.36	-22.222
188.74	-100.000
189.12	76.471
189.49	88.889
189.87	0.000
190.25	71.429
190.63	150.000
191.00	-166.667
191.38	52.632
191.76	650.000
192.14	-225.000
192.51	550.000
192.89	44.444
193.27	0.000
193.65	66.667
194.02	90.909
194.40	90.000
194.78	-75.000
195.15	58.333
195.53	-112.500
195.91	150.000
196.29	-50.000
196.66	38.462
197.04	114.286
197.42	11.111
197.79	33.333
198.17	53.846
198.55	-100.000
198.92	0.000
199.30	200.000
199.68	-40.000
200.05	-133.333
200.43	0.000
200.81	-133.333
201.18	200.000
201.56	-200.000
201.94	250.000
202.31	-566.667
202.69	-60.000
203.07	-125.000
203.44	800.000
203.82	0.000
204.19	50.000
204.57	-33.333
204.95	-37.500
205.32	80.000
205.70	228.571
206.08	50.000
206.45	333.333
206.83	128.571
207.20	-14.286
207.58	-1000.000
207.96	300.000
208.33	10.000
208.71	225.000
209.08	-33.333
209.46	-200.000
209.84	-40.000
210.21	400.000
210.59	114.286
210.96	216.667
211.34	100.000
211.71	46.667
212.09	-14.286
212.46	-400.000
212.84	0.000
213.22	170.000
213.59	100.000
213.97	46.154
214.34	127.273
214.72	16.667
215.09	300.000
215.47	-7.692
215.84	27.273
216.22	100.000
216.59	75.000
216.97	250.000
217.34	275.000
217.72	-80.000
218.09	75.000
218.47	50.000
218.84	-500.000
219.22	133.333
219.59	-160.000
219.97	233.333
220.34	100.000
220.72	200.000
221.09	0.000
221.47	350.000
221.84	-100.000
222.22	-300.000
222.59	90.909
222.97	83.333
223.34	-33.333
223.72	14.286
224.09	42.857
224.46	42.857
224.84	200.000
225.21	60.000
225.59	60.000
225.96	100.000
226.34	-175.000
226.71	-14.286
227.08	0.000
227.46	112.500
227.83	100.000
228.21	66.667
228.58	109.091
228.95	75.000
229.33	-0.000
229.70	62.500
230.08	50.000
230.45	71.429
230.82	42.857
231.20	73.333
231.57	50.000
231.95	100.000
232.32	0.000
232.69	100.000
233.07	266.667
233.44	-140.000
233.81	20.000
234.19	77.778
234.56	41.176
234.93	250.000
235.31	400.000
235.68	0.000
236.05	7.692
236.43	45.000
236.80	58.824
237.17	34.375
237.55	35.000
237.92	-7.407
238.29	55.556
238.67	33.333
239.04	32.353
239.41	4.878
239.79	16.667
240.16	51.220
240.53	31.579
240.91	19.565
241.28	39.683
241.65	33.929
242.02	36.986
242.40	30.000
242.77	25.424
243.14	10.606
243.51	25.000
243.89	27.586
244.26	8.046
244.63	21.429
245.00	28.866
245.38	31.959
245.75	7.865
246.12	14.655
246.49	15.702
246.87	23.077
247.24	14.286
247.61	19.298
247.98	20.325
248.36	22.500
248.73	28.947
249.10	18.182
249.47	22.785
249.84	25.490
250.22	19.412
250.59	23.529
250.96	24.883
251.33	16.860
251.70	17.059
252.08	19.289
252.45	20.297
252.82	16.583
253.19	14.747
253.56	15.888
253.94	20.721
254.31	20.435
254.68	25.877
255.05	19.291
255.42	19.651
255.79	16.988
256.16	19.066
256.54	24.627
256.91	17.110
257.28	20.446
257.65	14.607
258.02	16.312
258.39	23.569
258.76	18.315
259.14	21.595
259.51	20.065
259.88	17.869
260.25	20.261
260.62	18.403
260.99	18.644
261.36	13.699
261.73	19.620
262.10	19.453
262.47	16.564
262.85	20.690
263.22	19.077
263.59	23.676
263.96	22.050
264.33	18.182
264.70	18.452
265.07	18.155
265.44	20.113
265.81	18.079
266.18	19.399
266.55	17.224
266.92	17.098
267.29	14.883
267.66	18.414
268.03	18.586
268.40	18.799
268.77	19.786
269.14	19.185
269.51	19.794
269.88	15.711
270.25	17.857
270.62	15.122
270.99	20.972
271.36	19.071
271.73	16.432
272.10	17.275
272.47	16.548
272.84	16.584
273.21	19.722
273.58	17.831
273.95	17.391
274.32	18.014
274.69	18.326
275.06	18.527
275.43	17.460
275.80	20.530
276.17	16.322
276.54	17.345
276.91	18.860
277.28	15.502
277.65	19.421
278.02	16.596
278.39	18.162
278.76	18.449
279.13	13.071
279.50	18.277
279.87	19.654
280.23	15.914
280.60	19.298
280.97	17.172
281.34	13.846
281.71	20.329
282.08	13.292
282.45	17.613
282.82	16.795
283.19	17.988
283.56	19.075
283.92	15.939
284.29	16.346
284.66	15.698
285.03	13.752
285.40	19.093
285.77	13.181
286.14	15.523
286.51	17.897
286.87	14.442
287.24	15.285
287.61	15.168
287.98	19.123
288.35	18.198
288.72	17.338
289.08	14.757
289.45	17.399
289.82	15.909
290.19	15.188
290.56	16.467
290.93	12.795
291.29	11.094
291.66	17.165
292.03	15.470
292.40	13.548
292.77	15.470
293.13	11.526
293.50	14.264
293.87	14.962
294.24	14.219
294.60	13.711
294.97	12.946
295.34	13.804
295.71	13.860
296.08	12.257
296.44	11.807
296.81	14.306
297.18	11.014
297.55	13.686
297.91	11.233
298.28	13.193
298.65	13.840
299.02	13.342
299.38	11.218
299.75	12.690
300.12	10.602
300.48	13.307
300.85	12.928
301.22	11.169
301.59	11.974
301.95	12.152
302.32	13.878
302.69	12.935
303.05	12.005
303.42	12.080
303.79	12.617
304.15	12.306
304.52	11.772
304.89	11.696
305.25	12.107
305.62	9.802
305.99	10.877
306.35	12.254
306.72	11.136
307.09	11.745
307.45	11.825
307.82	11.343
308.19	9.988
308.55	11.996
308.92	11.983
309.29	11.173
309.65	11.841
310.02	11.441
310.38	11.526
310.75	10.929
311.12	12.056
311.48	11.453
311.85	11.204
312.22	9.494
312.58	11.996
312.95	11.099
313.31	10.766
313.68	9.529
314.05	10.306
314.41	11.134
314.78	11.959
315.14	11.408
315.51	12.215
315.87	10.963
316.24	11.931
316.61	12.402
316.97	11.905
317.34	11.816
317.70	11.663
318.07	11.923
318.43	10.392
318.80	11.742
319.16	11.230
319.53	12.251
319.89	10.728
320.26	12.146
320.62	12.939
320.99	10.960
321.35	12.436
321.72	13.915
322.08	12.991
322.45	14.112
322.81	13.752
323.18	13.150
323.54	12.741
323.91	13.242
324.27	15.527
324.64	14.700
325.00	14.781
325.37	16.162
325.73	14.415
326.10	17.166
326.46	16.592
326.83	17.060
327.19	17.611
327.56	18.853
327.92	19.366
328.29	19.464
328.65	19.340
329.01	20.772
329.38	20.829
329.74	20.774
330.11	21.316
330.47	21.336
330.84	22.019
331.20	24.525
331.56	23.148
331.93	24.658
332.29	24.840
332.66	24.253
333.02	25.743
333.38	26.214
333.75	26.282
334.11	26.410
334.48	27.924
334.84	28.480
335.20	27.813
335.57	27.017
335.93	28.546
336.29	28.453
336.66	27.793
337.02	29.182
337.38	28.704
337.75	29.091
338.11	29.757
338.47	31.022
338.84	30.314
339.20	30.347
339.56	30.826
339.93	30.976
340.29	32.018
340.65	30.108
341.02	31.472
341.38	31.150
341.74	31.890
342.11	30.329
342.47	31.406
342.83	33.304
343.20	31.359
343.56	32.783
343.92	31.355
344.28	33.305
344.65	32.902
345.01	31.029
345.37	32.380
345.73	31.967
346.10	33.822
346.46	33.389
346.82	31.751
347.19	32.253
347.55	33.668
347.91	34.304
348.27	33.387
348.63	33.390
349.00	33.306
349.36	33.167
349.72	34.660
350.08	33.934
350.45	33.520
350.81	33.140
351.17	32.655
351.53	34.776
351.89	33.196
352.26	34.000
352.62	35.081
352.98	34.940
353.34	33.655
353.70	34.628
354.07	35.403
354.43	34.748
354.79	35.178
355.15	35.873
355.51	36.472
355.87	35.356
356.24	34.421
356.60	34.842
356.96	35.317
357.32	35.703
357.68	35.027
358.04	35.703
358.40	35.691
358.77	35.885
359.13	35.629
359.49	35.285
359.85	36.037
360.21	36.443
360.57	36.496
360.93	37.065
361.29	36.556
361.66	36.677
362.02	37.879
362.38	38.462
362.74	37.774
363.10	38.826
363.46	39.140
363.82	38.167
364.18	36.827
364.54	37.574
364.90	37.849
365.26	38.501
365.62	39.197
365.98	39.003
366.35	39.621
366.71	40.281
367.07	39.478
367.43	39.540
367.79	40.071
368.15	39.698
368.51	40.932
368.87	40.488
369.23	39.856
369.59	41.108
369.95	40.836
370.31	40.824
370.67	41.343
371.03	40.777
371.39	40.992
371.75	43.223
372.11	41.512
372.47	42.160
372.83	42.796
373.19	42.439
373.55	43.177
373.91	41.973
374.27	44.507
374.63	43.001
374.99	43.333
375.35	43.454
375.71	43.776
376.07	45.225
376.42	44.354
376.78	45.436
377.14	44.414
377.50	44.422
377.86	45.917
378.22	44.480
378.58	45.000
378.94	45.369
379.30	44.853
379.66	44.828
380.02	45.677
380.38	45.466
380.74	44.464
381.09	45.890
381.45	45.321
381.81	47.008
382.17	46.256
382.53	45.971
382.89	47.583
383.25	48.164
383.61	48.293
383.97	46.603
384.32	45.654
384.68	47.492
385.04	47.488
385.40	46.920
385.76	49.371
386.12	48.771
386.48	48.914
386.83	47.812
387.19	48.413
387.55	49.749
387.91	48.594
388.27	48.657
388.62	49.780
388.98	48.987
389.34	49.656
389.70	48.788
390.06	48.395
390.42	49.482
390.77	49.509
391.13	49.433
391.49	50.453
391.85	50.032
392.20	49.969
392.56	50.540
392.92	50.382
393.28	50.059
393.64	50.450
393.99	50.219
394.35	50.158
394.71	51.405
395.07	49.843
395.42	49.362
395.78	50.228
396.14	50.694
396.50	51.237
396.85	50.998
397.21	49.937
397.57	50.533
397.92	51.049
398.28	50.977
398.64	48.434
399.00	50.677
399.35	50.113
399.71	49.052
400.07	51.391
400.42	50.000
400.78	51.194
401.14	48.578
401.49	51.459
401.85	49.299
402.21	49.639
402.57	50.187
402.92	50.314
403.28	50.188
403.63	50.189
403.99	49.681
404.35	50.281
404.70	48.988
405.06	49.471
405.42	49.099
405.77	49.157
406.13	50.582
406.49	49.142
406.84	49.633
407.20	50.391
407.55	49.195
407.91	49.332
408.27	49.267
408.62	49.908
408.98	49.476
409.34	49.318
409.69	49.031
410.05	49.384
410.40	48.519
410.76	48.794
411.11	48.875
411.47	49.441
411.83	49.404
412.18	49.678
412.54	47.566
412.89	48.645
413.25	50.181
413.60	49.068
413.96	47.914
414.31	48.720
414.67	48.877
415.03	49.334
415.38	49.674
415.74	48.925
416.09	49.575
416.45	49.291
416.80	50.496
417.16	51.036
417.51	50.033
417.87	49.935
418.22	50.907
418.58	49.365
418.93	51.034
419.29	47.887
419.64	50.032
420.00	51.700
420.35	49.075
420.71	50.608
421.06	50.583
421.42	51.442
421.77	50.867
422.12	50.511
422.48	50.839
422.83	50.696
423.19	50.959
423.54	50.265
423.90	50.883
424.25	52.526
424.61	51.530
424.96	50.581
425.31	52.166
425.67	51.937
426.02	52.415
426.38	52.223
426.73	53.208
427.09	53.354
427.44	53.647
427.79	52.858
428.15	52.124
428.50	52.453
428.85	52.457
429.21	52.745
429.56	52.776
429.92	53.056
430.27	52.080
430.62	52.849
430.98	53.238
431.33	52.576
431.68	52.747
432.04	53.326
432.39	52.995
432.74	52.375
433.10	54.943
433.45	54.182
433.80	54.962
434.16	53.518
434.51	54.032
434.86	55.168
435.22	55.188
435.57	54.959
435.92	54.611
436.28	55.039
436.63	55.048
436.98	55.562
437.34	56.080
437.69	56.887
438.04	55.783
438.39	54.856
438.75	58.106
439.10	57.725
439.45	57.152
439.81	55.780
440.16	58.670
440.51	56.836
440.86	58.489
441.22	56.900
441.57	57.230
441.92	57.188
442.27	57.650
442.63	58.244
442.98	58.070
443.33	56.928
443.68	56.074
444.03	58.271
444.39	56.714
444.74	58.919
445.09	57.628
445.44	57.493
445.79	59.309
446.15	57.269
446.50	58.014
446.85	59.671
447.20	58.029
447.55	58.036
447.91	57.248
448.26	58.964
448.61	59.470
448.96	59.036
449.31	58.786
449.66	59.466
450.02	59.384
450.37	58.388
450.72	58.419
451.07	60.570
451.42	58.989
451.77	58.710
452.12	57.775
452.47	59.240
452.83	57.715
453.18	59.203
453.53	60.936
453.88	59.259
454.23	59.004
454.58	60.076
454.93	59.601
455.28	58.730
455.63	59.206
455.98	59.230
456.34	57.407
456.69	60.038
457.04	61.059
457.39	59.174
457.74	59.371
458.09	57.799
458.44	58.572
458.79	58.880
459.14	59.211
459.49	59.284
459.84	60.632
460.19	60.255
460.54	57.885
460.89	61.023
461.24	58.944
461.59	59.561
461.94	59.119
462.29	59.771
462.64	60.731
462.99	60.460
463.34	58.067
463.69	58.945
464.04	59.927
464.39	59.551
464.74	59.264
465.09	59.139
465.44	60.877
465.79	58.844
466.14	59.692
466.49	59.862
466.84	60.381
467.19	59.324
467.54	60.026
467.89	60.076
468.24	58.394
468.59	59.302
468.94	59.683
469.29	58.951
469.64	58.578
469.99	60.547
470.34	60.478
470.68	61.969
471.03	61.217
471.38	60.913
471.73	61.064
472.08	59.294
472.43	60.403
472.78	59.973
473.13	60.272
473.48	59.544
473.83	58.593
474.17	61.399
474.52	60.498
474.87	60.364
475.22	59.915
475.57	60.305
475.92	60.340
476.27	60.361
476.61	61.574
476.96	58.003
477.31	60.249
477.66	59.438
478.01	60.247
478.36	58.333
478.70	60.903
479.05	59.890
479.40	59.883
479.75	58.603
480.10	59.959
480.45	60.100
480.79	60.826
481.14	60.861
481.49	58.966
481.84	60.714
482.19	59.869
482.53	60.384
482.88	60.286
483.23	59.741
483.58	59.623
483.92	58.906
484.27	58.888
484.62	59.346
484.97	58.416
485.31	59.140
485.66	56.878
486.01	56.865
486.36	56.351
486.70	56.396
487.05	56.600
487.40	57.808
487.75	58.000
488.09	57.509
488.44	58.459
488.79	58.909
489.13	60.777
489.48	58.914
489.83	59.103
490.17	59.281
490.52	60.046
490.87	59.509
491.22	60.267
491.56	60.057
491.91	59.034
492.26	61.740
492.60	59.645
492.95	60.403
493.30	59.551
493.64	61.690
493.99	60.193
494.34	59.757
494.68	60.381
495.03	60.487
495.37	60.550
495.72	60.323
496.07	60.976
496.41	60.849
496.76	60.341
497.11	59.851
497.45	61.432
497.80	61.403
498.14	60.060
498.49	60.284
498.84	61.826
499.18	61.998
499.53	61.111
499.87	59.582
500.22	59.842
500.56	61.422
500.91	60.442
501.26	60.999
501.60	60.157
501.95	60.747
502.29	60.872
502.64	61.149
502.98	62.062
503.33	60.519
503.67	60.096
504.02	62.805
504.36	61.405
504.71	61.616
505.06	61.953
505.40	62.081
505.75	62.526
506.09	61.835
506.44	62.628
506.78	62.347
507.13	62.513
507.47	62.350
507.82	62.286
508.16	62.282
508.51	64.113
508.85	62.951
509.19	63.119
509.54	62.306
509.88	63.161
510.23	63.959
510.57	64.939
510.92	62.154
511.26	64.321
511.61	63.641
511.95	64.712
512.30	64.135
512.64	64.107
512.98	62.830
513.33	65.249
513.67	64.070
514.02	66.819
514.36	65.371
514.70	65.793
515.05	66.392
515.39	66.293
515.74	66.527
516.08	66.288
516.42	66.313
516.77	65.652
517.11	67.181
517.46	66.607
517.80	65.912
518.14	67.177
518.49	66.466
518.83	66.829
519.17	67.738
519.52	65.838
519.86	67.347
520.20	66.950
520.55	68.543
520.89	68.193
521.23	67.258
521.58	68.770
521.92	68.077
522.26	68.510
522.61	68.701
522.95	69.603
523.29	68.615
523.64	67.853
523.98	69.475
524.32	68.299
524.66	68.630
525.01	68.506
525.35	68.438
525.69	69.158
526.04	70.106
526.38	69.650
526.72	68.084
527.06	69.066
527.41	69.789
527.75	70.107
528.09	69.037
528.43	71.911
528.78	70.231
529.12	69.548
529.46	69.851
529.80	68.461
530.15	69.373
530.49	70.976
530.83	70.451
531.17	69.577
531.51	70.657
531.86	69.613
532.20	70.981
532.54	69.435
532.88	70.363
533.22	71.371
533.57	69.463
533.91	68.930
534.25	71.354
534.59	68.570
534.93	69.415
535.27	68.464
535.62	71.160
535.96	70.907
536.30	70.185
536.64	72.088
536.98	69.756
537.32	72.404
537.66	72.370
538.01	71.119
538.35	71.359
538.69	70.439
539.03	67.874
539.37	70.121
539.71	70.075
540.05	69.179
540.39	71.399
540.73	71.409
541.07	72.169
541.42	70.161
541.76	70.888
542.10	71.576
542.44	70.535
542.78	70.200
543.12	71.497
543.46	70.376
543.80	72.588
544.14	70.294
544.48	71.819
544.82	71.429
545.16	71.380
545.50	71.429
545.84	72.380
546.18	72.837
546.52	72.026
546.86	71.675
547.20	72.961
547.54	70.318
547.88	72.147
548.22	69.691
548.56	69.789
548.90	72.776
549.24	70.661
549.58	74.048
549.92	72.981
550.26	73.187
550.60	73.978
550.94	74.235
551.28	72.952
551.62	74.154
551.96	73.985
552.30	72.661
552.64	70.945
552.98	72.644
553.32	72.325
553.66	72.859
554.00	75.401
554.34	73.264
554.68	73.156
555.02	73.884
555.36	74.570
555.69	74.066
556.03	73.733
556.37	73.665
556.71	73.791
557.05	74.646
557.39	73.086
557.73	74.888
558.07	75.339
558.41	74.426
558.75	75.682
559.08	76.123
559.42	76.905
559.76	76.541
560.10	74.771
560.44	75.279
560.78	74.755
561.12	75.811
561.45	74.280
561.79	74.370
562.13	74.308
562.47	74.532
562.81	75.720
563.15	75.035
563.48	74.894
563.82	74.674
564.16	75.000
564.50	74.932
564.84	74.565
565.17	74.715
565.51	76.844
565.85	77.846
566.19	74.934
566.52	75.536
566.86	75.000
567.20	73.225
567.54	74.635
567.88	74.810
568.21	74.152
568.55	72.935
568.89	74.538
569.23	72.508
569.56	72.154
569.90	73.041
570.24	69.371
570.57	70.764
570.91	71.523
571.25	70.536
571.59	68.639
571.92	67.911
572.26	68.901
572.60	69.271
572.93	68.748
573.27	69.154
573.61	69.511
573.95	69.143
574.28	67.691
574.62	67.938
574.96	68.013
575.29	69.031
575.63	67.323
575.97	67.661
576.30	68.738
576.64	68.954
576.98	69.344
577.31	69.083
577.65	68.624
577.98	67.709
578.32	68.196
578.66	67.182
578.99	67.782
579.33	67.624
579.67	67.903
580.00	67.899
580.34	68.408
580.67	68.076
581.01	69.452
581.35	68.131
581.68	67.802
582.02	67.994
582.35	67.558
582.69	68.426
583.02	67.763
583.36	69.080
583.70	70.587
584.03	71.170
584.37	71.824
584.70	70.604
585.04	69.767
585.37	70.098
585.71	70.180
586.04	69.642
586.38	69.645
586.72	71.650
587.05	71.462
587.39	71.401
587.72	72.526
588.06	71.381
588.39	71.888
588.73	71.703
589.06	73.027
589.40	72.416
589.73	73.311
590.07	74.245
590.40	73.839
590.73	75.577
591.07	73.876
591.40	74.844
591.74	74.615
592.07	75.974
592.41	75.265
592.74	74.671
593.08	71.673
593.41	72.356
593.75	72.718
594.08	72.674
594.41	72.962
594.75	73.473
595.08	73.326
595.42	74.936
595.75	74.615
596.09	74.668
596.42	75.362
596.75	75.355
597.09	74.715
597.42	75.745
597.75	77.691
598.09	74.966
598.42	74.368
598.76	76.062
599.09	74.639
599.42	73.475
599.76	74.304
600.09	74.020
600.42	74.829
600.76	74.108
601.09	74.695
601.42	73.756
601.76	75.625
602.09	76.691
602.42	76.790
602.76	77.122
603.09	77.159
603.42	78.679
603.76	76.290
604.09	77.400
604.42	76.777
604.76	77.793
605.09	76.965
605.42	76.433
605.75	77.233
606.09	76.093
606.42	77.356
606.75	76.840
607.09	77.011
607.42	75.897
607.75	76.554
608.08	76.999
608.42	76.610
608.75	79.373
609.08	80.319
609.41	79.695
609.75	78.931
610.08	79.331
610.41	77.971
610.74	78.791
611.07	80.930
611.41	80.125
611.74	80.544
612.07	79.390
612.40	79.650
612.73	82.147
613.07	81.159
613.40	80.963
613.73	80.918
614.06	79.800
614.39	81.782
614.72	79.608
615.06	80.615
615.39	78.657
615.72	80.786
616.05	80.950
616.38	80.000
616.71	81.346
617.05	82.705
617.38	84.035
617.71	82.767
618.04	84.635
618.37	84.048
618.70	85.281
619.03	85.486
619.36	85.456
619.69	86.732
620.03	86.779
620.36	84.835
620.69	84.297
621.02	86.391
621.35	87.718
621.68	89.881
622.01	89.250
622.34	88.188
622.67	87.066
623.00	87.136
623.33	88.415
623.66	85.639
623.99	86.233
624.32	87.148
624.65	86.917
624.99	88.111
625.32	87.566
625.65	90.181
625.98	89.122
626.31	87.697
626.64	90.121
626.97	90.401
627.30	89.492
627.63	89.255
627.96	93.441
628.29	90.564
628.62	92.920
628.95	93.487
629.28	94.859
629.61	92.024
629.94	93.060
630.26	92.984
630.59	97.086
630.92	94.974
631.25	92.718
631.58	95.815
631.91	98.465
632.24	98.050
632.57	95.341
632.90	97.390
633.23	95.647
633.56	101.259
633.89	99.507
634.22	98.765
634.55	99.873
634.88	101.916
635.20	98.718
635.53	101.733
635.86	98.960
636.19	101.682
636.52	100.893
636.85	98.263
637.18	99.371
637.51	97.987
637.83	100.657
638.16	103.956
638.49	101.090
638.82	101.316
639.15	102.035
639.48	104.814
639.81	100.139
640.13	105.051
640.46	102.770
640.79	103.829
641.12	102.659
641.45	103.153
641.77	101.481
642.10	105.055
642.43	106.109
642.76	110.396
643.09	103.716
643.41	104.854
643.74	105.601
644.07	107.553
644.40	106.926
644.73	108.231
645.05	102.685
645.38	107.760
645.71	109.397
646.04	113.465
646.36	110.461
646.69	108.273
647.02	114.556
647.35	112.500
647.67	106.764
648.00	112.687
648.33	106.485
648.66	110.508
648.98	107.035
649.31	105.785
649.64	102.669
649.96	104.214
650.29	109.370
650.62	109.231
650.94	110.185
651.27	109.683
651.60	112.793
651.92	107.168
652.25	108.171
652.58	106.167
652.90	110.292
653.23	107.227
653.56	107.445
653.88	106.186
654.21	105.429
654.54	108.149
654.86	110.526
655.19	103.801
655.52	90.789
655.84	78.691
656.17	86.886
656.49	100.000
656.82	100.000
657.15	100.000
657.47	99.174
657.80	53.945
658.13	54.193
658.45	86.095
658.78	86.136
659.10	86.925
659.43	88.969
659.75	94.277
660.08	95.862
660.41	102.247
660.73	108.011
661.06	110.225
661.38	112.133
661.71	112.320
662.03	120.815
662.36	118.462
662.68	119.690
663.01	119.651
663.33	116.473
663.66	116.047
663.98	118.837
664.31	115.991
664.63	119.585
664.96	112.609
665.28	115.894
665.61	117.316
665.93	116.739
666.26	115.835
666.58	117.450
666.91	123.294
667.23	122.642
667.56	120.853
667.88	119.185
668.21	123.150
668.53	124.350
668.86	116.509
669.18	121.462
669.50	120.097
669.83	116.977
670.15	119.347
670.48	119.856
670.80	118.433
671.13	115.436
671.45	118.493
671.77	118.026
672.10	111.485
672.42	110.487
672.75	112.078
673.07	115.921
673.39	117.064
673.72	114.990
674.04	118.542
674.37	117.585
674.69	116.916
675.01	120.667
675.34	117.342
675.66	122.685
675.98	117.738
676.31	118.349
676.63	121.378
676.95	117.955
677.28	121.647
677.60	124.819
677.92	120.642
678.25	118.381
678.57	119.697
678.89	119.748
679.22	123.937
679.54	111.446
679.86	114.314
680.18	119.029
680.51	112.311
680.83	115.308
681.15	115.400
681.48	119.672
681.80	118.182
682.12	116.331
682.44	114.017
682.77	118.985
683.09	122.426
683.41	114.545
683.73	118.894
684.06	121.239
684.38	118.710
684.70	123.094
685.02	121.162
685.34	116.403
685.67	116.886
685.99	112.297
686.31	110.973
686.63	114.471
686.96	112.738
687.28	115.556
687.60	113.688
687.92	121.818
688.24	116.331
688.56	120.961
688.89	120.089
689.21	120.889
689.53	120.186
689.85	117.209
690.17	119.196
690.49	121.749
690.82	117.476
691.14	119.762
691.46	124.766
691.78	121.622
692.10	122.581
692.42	115.801
692.74	113.675
693.06	119.820
693.39	117.421
693.71	117.647
694.03	120.785
694.35	120.327
694.67	126.010
694.99	125.587
695.31	123.499
695.63	122.000
695.95	119.949
696.27	125.130
696.59	126.111
696.91	127.451
697.23	117.481
697.56	121.287
697.88	116.344
698.20	120.729
698.52	119.294
698.84	117.943
699.16	121.250
699.48	122.807
699.80	118.610
700.12	123.989
700.44	128.291
700.76	124.709
701.08	126.364
701.40	128.012
701.72	133.333
702.04	139.604
702.36	133.779
702.68	128.529
703.00	130.000
703.32	125.513
703.64	119.492
703.96	128.986
704.28	127.607
704.60	131.111
704.91	130.599
705.23	128.239
705.55	137.809
705.87	138.989
706.19	137.407
706.51	127.148
706.83	127.974
707.15	122.741
707.47	122.129
707.79	119.531
708.11	117.750
708.43	115.750
708.74	125.840
709.06	127.606
709.38	134.251
709.70	126.036
710.02	127.070
710.34	126.006
710.66	119.551
710.98	127.483
711.29	123.607
711.61	130.847
711.93	127.362
712.25	131.615
712.57	137.729
712.89	133.955
713.20	127.336
713.52	126.481
713.84	131.399
714.16	130.928
714.48	123.871
714.80	127.885
715.11	127.660
715.43	124.138
715.75	129.333
716.07	124.585
716.39	122.483
716.70	126.937
717.02	126.336
717.34	135.223
717.66	141.593
717.97	143.913
718.29	136.820
718.61	136.614
718.93	130.233
719.24	123.194
719.56	135.341
719.88	124.055
720.20	126.894
720.51	129.502
720.83	124.710
721.15	139.916
721.46	130.645
721.78	128.854
722.10	124.164
722.42	133.610
722.73	131.429
723.05	138.367
723.37	135.169
723.68	137.838
724.00	129.915
724.32	128.000
724.63	135.455
724.95	130.568
725.27	140.092
725.58	127.966
725.90	129.365
726.22	128.958
726.53	119.661
726.85	125.468
727.16	126.415
727.48	127.126
727.80	129.960
728.11	132.203
728.43	122.745
728.74	126.210
729.06	132.000
729.38	129.699
729.69	130.677
730.01	123.462
730.32	127.985
730.64	124.028
730.96	132.453
731.27	116.333
731.59	126.780
731.90	123.248
732.22	118.927
732.53	128.904
732.85	122.340
733.16	121.886
733.48	123.741
733.80	127.899
734.11	120.339
734.43	127.148
734.74	115.455
735.06	124.104
735.37	114.804
735.69	127.609
736.00	120.557
736.32	119.463
736.63	130.282
736.95	123.208
737.26	121.708
737.58	116.107
737.89	126.007
738.21	124.436
738.52	131.687
738.83	138.428
739.15	133.624
739.46	129.528
739.78	121.612
740.09	120.915
740.41	128.261
740.72	133.071
741.04	132.389
741.35	125.532
741.66	130.332
741.98	134.184
742.29	125.743
742.61	133.508
742.92	123.697
743.23	125.000
743.55	133.484
743.86	129.665
744.18	131.100
744.49	135.638
744.80	140.761
745.12	141.711
745.43	134.634
745.74	141.146
746.06	128.780
746.37	136.649
746.68	130.332
747.00	139.362
747.31	140.299
747.62	129.612
747.94	139.713
748.25	136.139
748.56	149.180
748.88	135.602
749.19	146.277
749.50	129.064
749.82	130.189
750.13	127.982
750.44	121.429
750.75	132.090
751.07	123.723
751.38	124.521
751.69	124.314
752.01	120.930
752.32	127.888
752.63	125.692
752.94	127.586
753.26	128.033
753.57	124.887
753.88	134.071
754.19	132.083
754.51	127.273
754.82	126.721
755.13	128.333
755.44	122.581
755.75	123.438
756.07	119.455
756.38	123.774
756.69	124.521
757.00	116.000
757.31	117.647
757.63	113.720
757.94	115.556
758.25	112.329
758.56	113.564
758.87	111.898
759.18	113.707
759.50	123.636
759.81	119.732
760.12	116.774
760.43	113.939
760.74	119.753
761.05	115.385
761.36	115.057
761.67	119.394
761.99	120.408
762.30	116.364
762.61	119.368
762.92	126.697
763.23	127.027
763.54	131.308
763.85	127.542
764.16	116.183
764.47	116.935
764.78	118.681
765.10	118.519
765.41	111.672
765.72	120.000
766.03	122.556
766.34	111.679
766.65	120.717
766.96	136.869
767.27	125.532
767.58	128.161
767.89	148.227
768.20	121.023
768.51	126.923
768.82	117.241
769.13	117.512
769.44	116.738
769.75	123.744
770.06	117.672
770.37	125.481
770.68	120.812
770.99	114.932
771.30	138.725
771.61	119.457
771.92	118.966
772.23	129.064
772.54	124.731
772.85	132.716
773.16	121.348
773.47	140.523
773.78	131.373
774.09	121.557
774.39	131.333
774.70	123.567
775.01	130.345
775.32	122.143
775.63	142.149
775.94	130.534
776.25	133.858
776.56	138.333
776.87	145.192
777.18	139.316
777.48	134.483
777.79	136.522
778.10	134.286
778.41	136.036
778.72	127.778
779.03	126.316
779.34	133.333
779.65	130.137
779.95	123.288
780.26	123.448
780.57	121.951
780.88	128.346
781.19	136.207
781.50	127.907
781.80	108.284
782.11	114.465
782.42	133.846
782.73	123.741
783.04	118.519
783.34	114.583
783.65	131.624
783.96	134.426
784.27	124.828
784.57	126.829
784.88	124.219
785.19	148.000
785.50	143.000
785.81	120.690
786.11	131.897
786.42	138.835
786.73	132.727
787.04	136.735
787.34	121.429
787.65	123.810
787.96	118.584
788.26	126.364
788.57	127.350
788.88	118.750
789.19	118.254
789.49	127.826
789.80	145.918
790.11	133.333
790.41	116.364
790.72	143.478
791.03	125.000
791.33	142.500
791.64	130.000
791.95	120.930
792.25	126.596
792.56	141.573
792.87	131.507
793.17	142.029
793.48	122.667
793.79	113.750
794.09	135.000
794.40	116.038
794.70	130.097
795.01	108.130
795.32	123.077
795.62	122.857
795.93	120.588
796.23	121.698
796.54	115.625
796.85	145.588
797.15	133.803
797.46	129.167
797.76	150.000
798.07	119.767
798.37	111.842
798.68	139.394
798.99	111.111
799.29	150.000
799.60	126.087
799.90	128.000
800.21	154.098
800.51	129.231
800.82	147.458
801.12	123.188
801.43	147.541
801.73	125.397
802.04	164.000
802.34	117.910
802.65	163.462
802.95	108.929
803.26	140.385
803.56	152.941
803.87	163.043
804.17	97.333
804.48	134.921
804.78	112.963
805.09	163.043
805.39	144.444
805.70	137.037
806.00	91.228
806.30	121.127
806.61	125.714
806.91	112.500
807.22	102.632
807.52	130.667
807.83	125.455
808.13	130.556
808.43	147.059
808.74	102.985
809.04	115.254
809.35	151.923
809.65	126.562
809.95	145.946
810.26	120.455
810.56	86.301
810.86	164.286
811.17	118.000
811.47	132.653
811.77	136.842
812.08	127.273
812.38	113.208
812.69	155.000
812.99	160.606
813.29	139.474
813.59	177.143
813.90	125.000
814.20	117.949
814.50	132.692
814.81	137.736
815.11	97.872
815.41	135.593
815.72	145.238
816.02	127.451
816.32	116.667
816.62	143.902
816.93	148.649
817.23	157.143
817.53	127.083
817.84	95.652
818.14	115.385
818.44	121.053
818.74	160.870
819.04	120.000
819.35	145.946
819.65	120.588
819.95	133.333
820.25	104.762
820.56	140.000
820.86	134.483
821.16	125.000
821.46	119.149
821.76	135.000
822.07	125.581
822.37	135.135
822.67	171.875
822.97	126.190
823.27	135.714
823.57	192.000
823.88	148.148
824.18	128.571
824.48	126.471
824.78	141.935
825.08	173.913
825.38	148.485
825.69	145.833
825.99	147.368
826.29	133.333
826.59	266.667
826.89	176.190
827.19	121.739
827.49	115.000
827.79	120.000
828.09	164.286
828.39	139.394
828.70	148.649
829.00	110.714
829.30	147.619
829.60	153.333
829.90	125.000
830.20	115.789
830.50	140.741
830.80	104.348
831.10	163.636
831.40	121.212
831.70	132.258
832.00	204.762
832.30	123.810
832.60	275.000
832.90	110.345
833.20	165.000
833.50	96.970
833.80	151.852
834.10	123.077
834.40	140.625
834.70	222.222
835.00	205.263
835.30	157.692
835.60	240.000
835.90	135.484
836.20	118.182
836.50	146.429
836.80	84.615
837.10	100.000
837.40	900.000
837.70	150.000
838.00	281.818
838.30	100.000
838.60	184.615
838.90	140.909
839.19	125.000
839.49	103.333
839.79	184.615
840.09	158.333
840.39	92.857
840.69	114.286
840.99	73.077
841.29	115.789
841.59	240.000
841.88	172.727
842.18	250.000
842.48	187.500
842.78	106.667
843.08	114.815
843.38	240.000
843.68	100.000
843.97	173.333
844.27	93.333
844.57	95.000
844.87	166.667
845.17	109.524
845.47	180.000
845.76	95.238
846.06	152.941
846.36	130.000
846.66	157.143
846.96	106.667
847.25	125.000
847.55	214.286
847.85	387.500
848.15	150.000
848.44	266.667
848.74	95.000
849.04	92.593
849.34	200.000
849.63	50.000
849.93	100.000
850.23	61.111
850.53	220.000
850.82	176.923
851.12	177.778
851.42	206.667
851.71	61.538
852.01	92.857
852.31	200.000
852.61	127.273
852.90	40.000
853.20	89.474
853.50	141.667
853.79	100.000
854.09	129.167
854.39	173.684
854.68	112.500
854.98	100.000
855.28	115.385
855.57	70.000
855.87	150.000
856.17	125.926
856.46	157.143
856.76	40.000
857.05	366.667
857.35	136.000
857.65	172.222
857.94	153.846
858.24	134.483
858.53	144.444
858.83	129.630
859.13	68.182
859.42	78.261
859.72	400.000
860.01	66.667
860.31	92.000
860.60	138.095
860.90	200.000
861.20	86.667
861.49	450.000
861.79	93.333
862.08	105.000
862.38	213.333
862.67	260.000
862.97	300.000
863.26	225.000
863.56	138.889
863.85	233.333
864.15	88.889
864.44	60.000
864.74	135.714
865.03	-250.000
865.33	60.000
865.62	466.667
865.92	100.000
866.21	300.000
866.51	118.750
866.80	81.818
867.10	150.000
867.39	158.333
867.69	0.000
867.98	138.462
868.27	-100.000
868.57	100.000
868.86	105.556
869.16	23.077
869.45	153.333
869.75	800.000
870.04	0.000
870.33	100.000
870.63	90.476
870.92	-100.000
871.22	260.000
871.51	1700.000
871.80	144.444
872.10	-100.000
>>>>>End Processed Spectral Data<<<<<
