SpectraSuite Data File
++++++++++++++++++++++++++++++++++++
Date: Fri May 15 17:33:07 PDT 2015
User: schluterlab
Dark Spectrum Present: Yes
Reference Spectrum Present: Yes
Number of Sampled Component Spectra: 1
Spectrometers: USB2E3373
Integration Time (usec): 3000 (USB2E3373)
Spectra Averaged: 3 (USB2E3373)
Boxcar Smoothing: 0 (USB2E3373)
Correct for Electrical Dark: No (USB2E3373)
Strobe/Lamp Enabled: No (USB2E3373)
Correct for Detector Non-linearity: No (USB2E3373)
Correct for Stray Light: No (USB2E3373)
Number of Pixels in Processed Spectrum: 2048
>>>>>Begin Processed Spectral Data<<<<<
178.53	0.000
178.91	0.000
179.29	200.000
179.67	-350.000
180.04	-0.000
180.42	175.000
180.80	-400.000
181.18	-300.000
181.56	350.000
181.94	-100.000
182.31	-400.000
182.69	100.000
183.07	133.333
183.45	-160.000
183.83	133.333
184.20	-9.091
184.58	88.889
184.96	-75.000
185.34	66.667
185.72	50.000
186.09	23.077
186.47	100.000
186.85	-66.667
187.23	144.444
187.61	-1000.000
187.98	-300.000
188.36	44.444
188.74	33.333
189.12	0.000
189.49	33.333
189.87	0.000
190.25	85.714
190.63	150.000
191.00	33.333
191.38	21.053
191.76	550.000
192.14	-125.000
192.51	550.000
192.89	-88.889
193.27	-71.429
193.65	266.667
194.02	154.545
194.40	170.000
194.78	-37.500
195.15	8.333
195.53	50.000
195.91	150.000
196.29	-100.000
196.66	100.000
197.04	-42.857
197.42	44.444
197.79	-100.000
198.17	-84.615
198.55	500.000
198.92	33.333
199.30	500.000
199.68	-60.000
200.05	0.000
200.43	0.000
200.81	-133.333
201.18	-166.667
201.56	800.000
201.94	0.000
202.31	-33.333
202.69	40.000
203.07	-50.000
203.44	100.000
203.82	0.000
204.19	71.429
204.57	-466.667
204.95	62.500
205.32	60.000
205.70	114.286
206.08	-125.000
206.45	111.111
206.83	42.857
207.20	-42.857
207.58	600.000
207.96	-233.333
208.33	-80.000
208.71	100.000
209.08	0.000
209.46	-300.000
209.84	-60.000
210.21	700.000
210.59	128.571
210.96	83.333
211.34	125.000
211.71	66.667
212.09	-42.857
212.46	-900.000
212.84	0.000
213.22	150.000
213.59	200.000
213.97	7.692
214.34	63.636
214.72	-83.333
215.09	200.000
215.47	100.000
215.84	-18.182
216.22	133.333
216.59	-125.000
216.97	0.000
217.34	-50.000
217.72	-240.000
218.09	37.500
218.47	75.000
218.84	-400.000
219.22	-100.000
219.59	60.000
219.97	133.333
220.34	175.000
220.72	-71.429
221.09	-75.000
221.47	250.000
221.84	-600.000
222.22	-350.000
222.59	54.545
222.97	16.667
223.34	-100.000
223.72	-14.286
224.09	57.143
224.46	14.286
224.84	166.667
225.21	-30.000
225.59	66.667
225.96	-200.000
226.34	275.000
226.71	-14.286
227.08	-50.000
227.46	-37.500
227.83	-250.000
228.21	44.444
228.58	72.727
228.95	12.500
229.33	110.000
229.70	6.250
230.08	-62.500
230.45	-28.571
230.82	142.857
231.20	0.000
231.57	57.143
231.95	57.143
232.32	-80.000
232.69	78.571
233.07	166.667
233.44	-80.000
233.81	-40.000
234.19	-33.333
234.56	29.412
234.93	600.000
235.31	250.000
235.68	-40.000
236.05	-53.846
236.43	-15.000
236.80	-17.647
237.17	18.750
237.55	10.000
237.92	-3.704
238.29	-13.889
238.67	-13.333
239.04	23.529
239.41	-24.390
239.79	0.000
240.16	17.073
240.53	-10.526
240.91	-13.043
241.28	7.937
241.65	5.357
242.02	12.329
242.40	6.667
242.77	6.780
243.14	-7.576
243.51	-5.000
243.89	14.943
244.26	-6.897
244.63	-2.381
245.00	5.155
245.38	5.155
245.75	-13.483
246.12	6.897
246.49	5.785
246.87	0.000
247.24	-5.882
247.61	-8.772
247.98	-5.691
248.36	0.625
248.73	1.316
249.10	-4.545
249.47	3.165
249.84	0.654
250.22	-1.176
250.59	5.229
250.96	8.920
251.33	-1.744
251.70	-1.176
252.08	-2.030
252.45	2.475
252.82	-4.523
253.19	-3.687
253.56	-2.804
253.94	-0.450
254.31	3.913
254.68	4.386
255.05	1.575
255.42	0.873
255.79	2.317
256.16	1.167
256.54	2.239
256.91	-1.521
257.28	-2.974
257.65	-2.996
258.02	-2.837
258.39	3.030
258.76	0.733
259.14	0.997
259.51	3.883
259.88	-3.436
260.25	1.634
260.62	3.472
260.99	0.339
261.36	-4.110
261.73	0.316
262.10	1.520
262.47	-0.920
262.85	-2.508
263.22	1.231
263.59	-0.935
263.96	-1.242
264.33	2.424
264.70	-2.083
265.07	-1.786
265.44	3.116
265.81	0.847
266.18	0.000
266.55	3.085
266.92	1.295
267.29	-0.261
267.66	0.000
268.03	0.785
268.40	1.567
268.77	0.535
269.14	2.158
269.51	1.285
269.88	-0.499
270.25	-3.316
270.62	-1.220
270.99	-2.558
271.36	0.489
271.73	0.235
272.10	-2.433
272.47	-0.473
272.84	0.248
273.21	1.160
273.58	0.723
273.95	2.288
274.32	-0.693
274.69	-2.262
275.06	2.902
275.43	-2.494
275.80	1.545
276.17	-1.379
276.54	0.857
276.91	0.877
277.28	-0.218
277.65	2.479
278.02	2.979
278.39	-0.438
278.76	0.000
279.13	-2.905
279.50	0.630
279.87	1.080
280.23	0.000
280.60	1.754
280.97	-0.404
281.34	-1.923
281.71	2.464
282.08	-0.818
282.45	0.196
282.82	0.193
283.19	1.354
283.56	-0.193
283.92	-1.708
284.29	-0.962
284.66	-1.550
285.03	-0.393
285.40	0.567
285.77	0.351
286.14	-0.181
286.51	2.214
286.87	-2.377
287.24	-0.184
287.61	-0.176
287.98	1.053
288.35	-1.560
288.72	0.876
289.08	-0.347
289.45	0.351
289.82	0.524
290.19	0.341
290.56	-1.544
290.93	-0.505
291.29	-0.154
291.66	0.472
292.03	0.957
292.40	-0.161
292.77	-0.319
293.13	-1.786
293.50	0.303
293.87	1.221
294.24	-0.309
294.60	0.149
294.97	1.190
295.34	-0.307
295.71	0.149
296.08	-1.345
296.44	-1.422
296.81	1.528
297.18	0.725
297.55	1.626
297.91	1.096
298.28	1.979
298.65	0.543
299.02	0.270
299.38	-1.094
299.75	0.414
300.12	0.524
300.48	-1.318
300.85	2.281
301.22	0.260
301.59	-1.579
301.95	0.380
302.32	0.778
302.69	-0.995
303.05	-0.990
303.42	1.370
303.79	1.285
304.15	0.717
304.52	-0.951
304.89	0.117
305.25	-0.847
305.62	-0.350
305.99	0.117
306.35	0.231
306.72	-0.225
307.09	0.570
307.45	1.033
307.82	-0.926
308.19	0.000
308.55	0.218
308.92	0.980
309.29	0.670
309.65	-0.108
310.02	-0.880
310.38	0.768
310.75	0.219
311.12	-0.215
311.48	-0.742
311.85	0.628
312.22	-1.055
312.58	0.212
312.95	-0.213
313.31	-1.242
313.68	0.628
314.05	0.510
314.41	0.000
314.78	-0.309
315.14	0.514
315.51	0.828
315.87	-0.102
316.24	1.314
316.61	0.295
316.97	0.496
317.34	0.684
317.70	0.956
318.07	-0.577
318.43	-0.490
318.80	0.284
319.16	0.293
319.53	1.045
319.89	0.000
320.26	0.810
320.62	0.802
320.99	-0.418
321.35	1.028
321.72	1.350
322.08	0.302
322.45	1.523
322.81	1.572
323.18	0.687
323.54	0.000
323.91	0.097
324.27	1.367
324.64	1.685
325.00	2.190
325.37	2.755
325.73	0.816
326.10	1.181
326.46	2.332
326.83	1.837
327.19	1.744
327.56	1.477
327.92	1.937
328.29	0.714
328.65	0.189
329.01	1.654
329.38	2.212
329.74	0.567
330.11	1.205
330.47	1.577
330.84	0.865
331.20	2.091
331.56	1.667
331.93	1.826
332.29	2.475
332.66	1.267
333.02	1.580
333.38	1.558
333.75	1.282
334.11	1.880
334.48	2.267
334.84	2.198
335.20	2.379
335.57	1.813
335.93	1.897
336.29	1.565
336.66	0.999
337.02	1.208
337.38	1.944
337.75	2.364
338.11	3.697
338.47	1.369
338.84	2.218
339.20	2.011
339.56	2.661
339.93	2.149
340.29	1.376
340.65	2.599
341.02	1.773
341.38	2.124
341.74	1.060
342.11	0.953
342.47	2.135
342.83	2.595
343.20	2.003
343.56	2.261
343.92	1.949
344.28	2.477
344.65	1.554
345.01	1.988
345.37	2.019
345.73	2.594
346.10	2.243
346.46	3.028
346.82	2.291
347.19	2.411
347.55	1.504
347.91	3.155
348.27	2.183
348.63	2.981
349.00	2.051
349.36	1.912
349.72	3.317
350.08	2.377
350.45	3.033
350.81	1.578
351.17	3.013
351.53	3.184
351.89	1.817
352.26	1.840
352.62	3.629
352.98	2.008
353.34	2.093
353.70	3.155
354.07	2.097
354.43	1.761
354.79	1.982
355.15	2.460
355.51	3.323
355.87	2.265
356.24	1.550
356.60	2.587
356.96	2.460
357.32	1.677
357.68	1.955
358.04	1.858
358.40	1.849
358.77	1.834
359.13	0.961
359.49	2.619
359.85	2.340
360.21	1.276
360.57	2.525
360.93	2.496
361.29	1.586
361.66	2.351
362.02	2.576
362.38	3.046
362.74	2.044
363.10	2.709
363.46	2.372
363.82	3.381
364.18	2.657
364.54	2.647
364.90	2.007
365.26	1.892
365.62	3.285
365.98	3.446
366.35	3.059
366.71	2.513
367.07	1.959
367.43	2.229
367.79	2.120
368.15	3.087
368.51	2.986
368.87	1.508
369.23	1.733
369.59	1.895
369.95	2.493
370.31	2.529
370.67	2.388
371.03	1.942
371.39	2.115
371.75	1.978
372.11	2.710
372.47	1.923
372.83	2.910
373.19	3.352
373.55	2.238
373.91	2.520
374.27	2.339
374.63	3.302
374.99	2.057
375.35	2.646
375.71	2.517
376.07	2.669
376.42	2.653
376.78	2.416
377.14	2.573
377.50	3.054
377.86	2.744
378.22	2.489
378.58	3.141
378.94	2.205
379.30	2.932
379.66	3.636
380.02	2.636
380.38	2.617
380.74	2.334
381.09	3.006
381.45	2.997
381.81	2.899
382.17	2.982
382.53	2.998
382.89	2.323
383.25	3.236
383.61	3.293
383.97	2.286
384.32	3.252
384.68	3.096
385.04	2.574
385.40	2.925
385.76	3.522
386.12	2.911
386.48	3.512
386.83	3.614
387.19	3.297
387.55	3.388
387.91	3.606
388.27	3.297
388.62	3.272
388.98	3.622
389.34	3.248
389.70	3.791
390.06	2.643
390.42	2.720
390.77	2.878
391.13	2.648
391.49	2.846
391.85	3.379
392.20	3.013
392.56	3.115
392.92	4.169
393.28	3.243
393.64	3.664
393.99	4.201
394.35	3.099
394.71	3.448
395.07	3.708
395.42	3.582
395.78	2.932
396.14	3.594
396.50	3.805
396.85	3.606
397.21	3.759
397.57	3.072
397.92	3.954
398.28	3.851
398.64	3.072
399.00	4.007
399.35	2.652
399.71	3.159
400.07	3.325
400.42	4.162
400.78	3.307
401.14	3.630
401.49	3.871
401.85	3.900
402.21	3.373
402.57	3.375
402.92	2.572
403.28	4.135
403.63	3.594
403.99	3.380
404.35	3.810
404.70	3.690
405.06	3.114
405.42	3.356
405.77	2.615
406.13	3.434
406.49	3.848
406.84	3.545
407.20	3.913
407.55	2.962
407.91	2.874
408.27	3.697
408.62	4.554
408.98	3.450
409.34	4.461
409.69	3.618
410.05	3.387
410.40	3.827
410.76	3.076
411.11	4.250
411.47	3.419
411.83	3.327
412.18	3.218
412.54	3.870
412.89	3.571
413.25	4.091
413.60	3.602
413.96	3.681
414.31	3.902
414.67	3.400
415.03	3.862
415.38	3.786
415.74	4.169
416.09	4.376
416.45	4.186
416.80	4.627
417.16	3.729
417.51	3.664
417.87	3.977
418.22	3.756
418.58	3.679
418.93	3.887
419.29	4.417
419.64	2.787
420.00	4.471
420.35	4.179
420.71	4.982
421.06	3.622
421.42	4.928
421.77	3.526
422.12	4.086
422.48	4.602
422.83	4.524
423.19	4.063
423.54	3.410
423.90	4.358
424.25	4.248
424.61	4.957
424.96	4.762
425.31	3.871
425.67	3.991
426.02	4.358
426.38	4.822
426.73	5.145
427.09	5.190
427.44	5.235
427.79	4.478
428.15	5.158
428.50	4.603
428.85	3.808
429.21	5.263
429.56	5.013
429.92	4.725
430.27	5.063
430.62	4.600
430.98	4.246
431.33	4.942
431.68	4.500
432.04	5.087
432.39	4.963
432.74	5.171
433.10	5.460
433.45	5.436
433.80	4.353
434.16	4.100
434.51	5.108
434.86	4.530
435.22	5.216
435.57	4.741
435.92	5.090
436.28	4.651
436.63	4.507
436.98	4.635
437.34	5.324
437.69	5.486
438.04	5.128
438.39	5.070
438.75	4.675
439.10	5.603
439.45	5.234
439.81	4.832
440.16	5.582
440.51	5.254
440.86	5.801
441.22	6.109
441.57	5.353
441.92	5.981
442.27	4.878
442.63	6.210
442.98	5.859
443.33	5.454
443.68	5.782
444.03	6.408
444.39	5.952
444.74	5.630
445.09	6.125
445.44	4.843
445.79	6.137
446.15	5.947
446.50	5.047
446.85	5.473
447.20	5.683
447.55	5.915
447.91	5.584
448.26	6.090
448.61	6.102
448.96	5.737
449.31	6.243
449.66	5.168
450.02	6.047
450.37	5.631
450.72	5.842
451.07	6.582
451.42	6.367
451.77	6.148
452.12	5.682
452.47	6.053
452.83	5.771
453.18	6.578
453.53	6.384
453.88	6.254
454.23	6.208
454.58	6.486
454.93	6.443
455.28	5.524
455.63	6.262
455.98	6.615
456.34	5.875
456.69	6.353
457.04	6.553
457.39	5.407
457.74	5.925
458.09	6.004
458.44	6.144
458.79	6.611
459.14	6.693
459.49	6.627
459.84	6.994
460.19	6.250
460.54	5.990
460.89	6.136
461.24	6.646
461.59	6.888
461.94	6.541
462.29	6.454
462.64	6.445
462.99	6.906
463.34	6.050
463.69	6.628
464.04	7.082
464.39	6.064
464.74	6.319
465.09	6.925
465.44	7.098
465.79	6.916
466.14	6.385
466.49	6.383
466.84	7.733
467.19	6.821
467.54	6.705
467.89	7.075
468.24	6.569
468.59	6.984
468.94	6.476
469.29	7.344
469.64	6.699
469.99	7.498
470.34	6.212
470.68	7.755
471.03	7.785
471.38	7.275
471.73	6.443
472.08	7.123
472.43	6.644
472.78	6.991
473.13	7.075
473.48	7.687
473.83	7.410
474.17	7.966
474.52	7.275
474.87	7.333
475.22	6.711
475.57	7.228
475.92	6.692
476.27	7.509
476.61	7.002
476.96	6.302
477.31	7.409
477.66	6.685
478.01	7.075
478.36	7.407
478.70	7.395
479.05	8.187
479.40	7.737
479.75	6.621
480.10	7.322
480.45	7.450
480.79	7.754
481.14	7.275
481.49	6.798
481.84	7.143
482.19	7.250
482.53	7.434
482.88	7.780
483.23	7.102
483.58	7.453
483.92	7.502
484.27	7.429
484.62	7.261
484.97	7.380
485.31	6.936
485.66	6.905
486.01	6.777
486.36	6.693
486.70	6.793
487.05	6.679
487.40	7.161
487.75	6.789
488.09	6.768
488.44	6.843
488.79	7.359
489.13	7.732
489.48	7.311
489.83	7.220
490.17	7.056
490.52	7.021
490.87	7.774
491.22	7.116
491.56	7.353
491.91	7.266
492.26	7.535
492.60	7.774
492.95	8.018
493.30	7.132
493.64	7.809
493.99	7.971
494.34	6.990
494.68	7.667
495.03	6.959
495.37	7.605
495.72	6.966
496.07	7.805
496.41	7.170
496.76	7.140
497.11	6.893
497.45	8.783
497.80	7.669
498.14	7.650
498.49	7.567
498.84	7.485
499.18	8.384
499.53	7.837
499.87	8.123
500.22	7.468
500.56	7.463
500.91	7.932
501.26	8.107
501.60	8.411
501.95	8.103
502.29	8.184
502.64	7.963
502.98	7.745
503.33	7.493
503.67	8.000
504.02	7.967
504.36	7.966
504.71	7.727
505.06	8.052
505.40	7.716
505.75	8.093
506.09	7.299
506.44	8.111
506.78	8.010
507.13	8.428
507.47	7.520
507.82	7.425
508.16	8.030
508.51	8.552
508.85	7.849
509.19	7.930
509.54	8.043
509.88	7.389
510.23	7.961
510.57	8.765
510.92	7.303
511.26	7.801
511.61	8.086
511.95	8.164
512.30	7.816
512.64	8.180
512.98	7.805
513.33	8.282
513.67	8.414
514.02	9.211
514.36	9.143
514.70	9.557
515.05	8.343
515.39	8.264
515.74	8.503
516.08	8.249
516.42	9.011
516.77	9.421
517.11	7.834
517.46	9.216
517.80	8.641
518.14	8.573
518.49	8.173
518.83	9.417
519.17	8.187
519.52	8.526
519.86	8.163
520.20	8.809
520.55	8.193
520.89	8.720
521.23	8.676
521.58	9.653
521.92	8.526
522.26	9.174
522.61	9.935
522.95	8.543
523.29	9.466
523.64	8.895
523.98	9.332
524.32	8.247
524.66	9.219
525.01	9.286
525.35	9.527
525.69	8.418
526.04	8.664
526.38	10.441
526.72	7.979
527.06	8.690
527.41	9.499
527.75	8.378
528.09	8.704
528.43	9.993
528.78	9.109
529.12	9.032
529.46	9.097
529.80	9.310
530.15	10.033
530.49	9.091
530.83	9.713
531.17	9.268
531.51	9.097
531.86	8.838
532.20	8.977
532.54	9.530
532.88	9.377
533.22	9.812
533.57	9.043
533.91	8.747
534.25	9.245
534.59	9.173
534.93	9.377
535.27	9.010
535.62	9.332
535.96	9.654
536.30	9.565
536.64	9.373
536.98	8.990
537.32	9.673
537.66	9.958
538.01	10.490
538.35	9.778
538.69	10.519
539.03	9.159
539.37	9.690
539.71	8.862
540.05	9.504
540.39	10.180
540.73	10.391
541.07	9.807
541.42	10.753
541.76	10.805
542.10	10.117
542.44	9.729
542.78	8.121
543.12	8.723
543.46	9.597
543.80	9.715
544.14	9.012
544.48	9.993
544.82	9.091
545.16	9.973
545.50	9.680
545.84	10.057
546.18	10.071
546.52	10.671
546.86	9.418
547.20	9.657
547.54	9.046
547.88	10.734
548.22	9.007
548.56	8.971
548.90	10.580
549.24	9.642
549.58	10.014
549.92	9.435
550.26	9.304
550.60	10.260
550.94	9.858
551.28	10.046
551.62	9.615
551.96	9.850
552.30	10.234
552.64	9.732
552.98	10.408
553.32	10.271
553.66	9.071
554.00	10.073
554.34	10.561
554.68	9.440
555.02	11.086
555.36	9.349
555.69	8.938
556.03	9.707
556.37	9.751
556.71	10.830
557.05	10.515
557.39	9.665
557.73	11.019
558.07	10.860
558.41	10.184
558.75	10.912
559.08	10.008
559.42	9.762
559.76	10.008
560.10	10.321
560.44	9.605
560.78	10.070
561.12	10.296
561.45	10.471
561.79	11.064
562.13	9.794
562.47	9.712
562.81	10.663
563.15	10.437
563.48	10.255
563.82	10.707
564.16	10.237
564.50	10.541
564.84	9.839
565.17	9.859
565.51	10.587
565.85	9.877
566.19	10.743
566.52	10.724
566.86	10.797
567.20	10.025
567.54	10.036
567.88	10.955
568.21	10.294
568.55	9.511
568.89	10.267
569.23	10.159
569.56	9.282
569.90	9.744
570.24	9.602
570.57	9.600
570.91	9.864
571.25	9.438
571.59	9.156
571.92	9.244
572.26	9.390
572.60	8.992
572.93	9.319
573.27	9.561
573.61	9.218
573.95	9.585
574.28	9.216
574.62	8.950
574.96	9.050
575.29	8.985
575.63	9.251
575.97	9.135
576.30	8.912
576.64	9.060
576.98	9.421
577.31	9.241
577.65	9.381
577.98	9.108
578.32	9.197
578.66	9.026
578.99	8.985
579.33	9.218
579.67	9.008
580.00	9.443
580.34	9.129
580.67	8.754
581.01	9.174
581.35	8.979
581.68	9.053
582.02	8.809
582.35	8.988
582.69	9.096
583.02	8.866
583.36	9.416
583.70	9.787
584.03	9.286
584.37	9.740
584.70	9.643
585.04	9.223
585.37	9.287
585.71	9.553
586.04	9.355
586.38	9.416
586.72	9.555
587.05	9.619
587.39	9.869
587.72	9.732
588.06	9.715
588.39	10.225
588.73	9.737
589.06	10.144
589.40	10.232
589.73	10.150
590.07	10.650
590.40	10.139
590.73	10.667
591.07	10.051
591.40	10.062
591.74	10.271
592.07	10.575
592.41	11.263
592.74	10.474
593.08	9.780
593.41	9.621
593.75	9.715
594.08	9.715
594.41	10.371
594.75	9.466
595.08	9.875
595.42	9.753
595.75	9.989
596.09	10.164
596.42	10.335
596.75	11.190
597.09	10.888
597.42	10.524
597.75	10.353
598.09	10.684
598.42	10.469
598.76	10.339
599.09	10.296
599.42	10.383
599.76	9.782
600.09	10.332
600.42	10.425
600.76	9.918
601.09	10.000
601.42	10.341
601.76	10.361
602.09	9.365
602.42	10.447
602.76	10.102
603.09	10.963
603.42	11.162
603.76	9.879
604.09	9.964
604.42	9.983
604.76	10.992
605.09	10.375
605.42	10.609
605.75	10.464
606.09	10.106
606.42	10.801
606.75	11.039
607.09	11.648
607.42	9.925
607.75	10.169
608.08	10.243
608.42	10.964
608.75	10.988
609.08	10.713
609.41	10.812
609.75	10.484
610.08	11.033
610.41	10.725
610.74	10.239
611.07	11.008
611.41	11.157
611.74	11.087
612.07	11.028
612.40	11.269
612.73	10.508
613.07	11.530
613.40	10.667
613.73	10.632
614.06	11.241
614.39	11.168
614.72	10.980
615.06	11.061
615.39	11.354
615.72	10.495
616.05	11.508
616.38	11.054
616.71	10.826
617.05	11.303
617.38	11.502
617.71	10.629
618.04	12.254
618.37	11.223
618.70	11.617
619.03	12.708
619.36	11.433
619.69	11.979
620.03	13.002
620.36	12.518
620.69	11.420
621.02	12.232
621.35	13.029
621.68	12.245
622.01	12.833
622.34	11.971
622.67	12.066
623.00	11.639
623.33	11.662
623.66	11.743
623.99	10.741
624.32	11.939
624.65	11.955
624.99	11.061
625.32	11.676
625.65	12.962
625.98	12.571
626.31	11.721
626.64	11.872
626.97	13.089
627.30	12.347
627.63	13.518
627.96	12.040
628.29	12.858
628.62	13.766
628.95	13.126
629.28	13.004
629.61	13.559
629.94	13.490
630.26	12.747
630.59	12.695
630.92	13.744
631.25	13.026
631.58	12.996
631.91	11.075
632.24	12.500
632.57	13.636
632.90	13.286
633.23	13.412
633.56	14.358
633.89	12.947
634.22	14.321
634.55	13.469
634.88	13.665
635.20	13.590
635.53	14.667
635.86	12.094
636.19	14.101
636.52	13.393
636.85	11.787
637.18	12.075
637.51	13.711
637.83	13.403
638.16	15.280
638.49	12.534
638.82	14.079
639.15	14.790
639.48	13.893
639.81	13.808
640.13	14.141
640.46	14.577
640.79	12.813
641.12	14.032
641.45	14.565
641.77	13.926
642.10	16.114
642.43	13.987
642.76	15.347
643.09	16.478
643.41	13.592
643.74	14.498
644.07	16.092
644.40	16.047
644.73	16.988
645.05	14.597
645.38	14.991
645.71	13.298
646.04	15.799
646.36	15.603
646.69	19.604
647.02	16.446
647.35	13.060
647.67	15.356
648.00	15.112
648.33	14.676
648.66	14.407
648.98	10.218
649.31	13.223
649.64	14.600
649.96	13.290
650.29	14.651
650.62	13.846
650.94	14.444
651.27	15.084
651.60	14.775
651.92	15.385
652.25	14.387
652.58	14.833
652.90	13.551
653.23	15.294
653.56	15.059
653.88	14.777
654.21	12.785
654.54	15.789
654.86	16.299
655.19	13.889
655.52	14.319
655.84	10.377
656.17	11.207
656.49	15.331
656.82	15.963
657.15	12.354
657.47	9.599
657.80	7.089
658.13	7.245
658.45	11.200
658.78	11.821
659.10	11.785
659.43	12.080
659.75	12.284
660.08	13.379
660.41	14.096
660.73	15.470
661.06	16.464
661.38	13.699
661.71	12.936
662.03	15.880
662.36	15.385
662.68	12.611
663.01	16.812
663.33	12.761
663.66	16.512
663.98	16.512
664.31	16.418
664.63	13.825
664.96	14.348
665.28	11.479
665.61	13.636
665.93	14.783
666.26	16.920
666.58	14.765
666.91	17.412
667.23	18.396
667.56	18.483
667.88	12.950
668.21	15.990
668.53	17.021
668.86	15.094
669.18	18.160
669.50	14.528
669.83	16.977
670.15	14.918
670.48	15.789
670.80	18.203
671.13	17.673
671.45	15.297
671.77	18.026
672.10	15.050
672.42	17.041
672.75	15.275
673.07	16.995
673.39	14.679
673.72	12.229
674.04	12.500
674.37	19.492
674.69	15.632
675.01	13.333
675.34	17.568
675.66	16.667
675.98	15.965
676.31	16.055
676.63	14.727
676.95	13.182
677.28	18.353
677.60	16.386
677.92	15.367
678.25	16.849
678.57	12.771
678.89	16.597
679.22	16.779
679.54	13.655
679.86	13.917
680.18	16.117
680.51	15.341
680.83	15.706
681.15	15.000
681.48	16.803
681.80	15.496
682.12	14.919
682.44	13.389
682.77	15.894
683.09	16.247
683.41	15.000
683.73	18.203
684.06	15.708
684.38	13.763
684.70	17.429
685.02	12.448
685.34	14.822
685.67	13.508
685.99	15.009
686.31	15.575
686.63	15.028
686.96	11.787
687.28	13.535
687.60	14.639
687.92	17.374
688.24	15.323
688.56	14.629
688.89	15.848
689.21	16.889
689.53	14.849
689.85	13.721
690.17	15.402
690.49	16.312
690.82	14.078
691.14	16.905
691.46	14.720
691.78	16.667
692.10	15.484
692.42	14.502
692.74	15.598
693.06	13.739
693.39	12.670
693.71	15.158
694.03	12.240
694.35	15.421
694.67	15.909
694.99	16.188
695.31	17.493
695.63	16.750
695.95	15.152
696.27	15.544
696.59	16.389
696.91	14.286
697.23	14.910
697.56	16.089
697.88	17.634
698.20	14.806
698.52	15.294
698.84	13.158
699.16	17.500
699.48	15.539
699.80	18.362
700.12	15.364
700.44	18.207
700.76	13.953
701.08	15.152
701.40	15.663
701.72	22.531
702.04	15.512
702.36	16.388
702.68	15.616
703.00	18.182
703.32	16.716
703.64	12.712
703.96	18.261
704.28	15.951
704.60	19.365
704.91	15.457
705.23	18.937
705.55	23.675
705.87	18.051
706.19	14.074
706.51	14.089
706.83	18.006
707.15	12.773
707.47	17.927
707.79	11.198
708.11	16.500
708.43	14.500
708.74	14.987
709.06	17.465
709.38	19.878
709.70	18.935
710.02	18.153
710.34	16.409
710.66	14.744
710.98	12.914
711.29	15.082
711.61	13.220
711.93	16.612
712.25	18.900
712.57	19.414
712.89	12.313
713.20	15.225
713.52	14.983
713.84	15.358
714.16	17.869
714.48	15.161
714.80	20.192
715.11	19.149
715.43	16.928
715.75	13.000
716.07	15.947
716.39	16.107
716.70	14.022
717.02	14.122
717.34	18.623
717.66	20.796
717.97	13.043
718.29	16.318
718.61	19.685
718.93	13.953
719.24	16.350
719.56	12.851
719.88	17.526
720.20	15.152
720.51	18.391
720.83	18.919
721.15	17.647
721.46	17.742
721.78	16.996
722.10	17.844
722.42	15.353
722.73	13.061
723.05	21.224
723.37	22.458
723.68	23.423
724.00	16.667
724.32	15.111
724.63	13.182
724.95	18.777
725.27	18.433
725.58	22.458
725.90	18.254
726.22	14.672
726.53	17.288
726.85	18.352
727.16	23.019
727.48	12.551
727.80	20.243
728.11	14.407
728.43	17.255
728.74	15.726
729.06	18.000
729.38	22.556
729.69	16.335
730.01	13.846
730.32	14.179
730.64	14.841
730.96	12.830
731.27	16.333
731.59	18.644
731.90	14.650
732.22	20.820
732.53	21.262
732.85	19.149
733.16	20.539
733.48	15.827
733.80	17.029
734.11	16.949
734.43	16.151
734.74	13.939
735.06	14.332
735.37	18.731
735.69	21.212
736.00	13.240
736.32	13.423
736.63	15.845
736.95	19.454
737.26	13.879
737.58	15.436
737.89	14.286
738.21	18.045
738.52	15.226
738.83	18.341
739.15	10.917
739.46	17.717
739.78	15.018
740.09	18.627
740.41	15.217
740.72	14.173
741.04	18.219
741.35	17.872
741.66	17.536
741.98	18.367
742.29	20.297
742.61	19.372
742.92	15.166
743.23	11.574
743.55	17.647
743.86	16.268
744.18	21.053
744.49	14.362
744.80	9.783
745.12	19.251
745.43	20.000
745.74	17.708
746.06	13.171
746.37	19.895
746.68	22.749
747.00	20.213
747.31	16.418
747.62	16.990
747.94	18.182
748.25	21.782
748.56	17.486
748.88	16.230
749.19	25.000
749.50	17.734
749.82	15.094
750.13	18.807
750.44	16.917
750.75	17.164
751.07	19.343
751.38	21.456
751.69	16.078
752.01	16.279
752.32	18.327
752.63	19.368
752.94	15.517
753.26	23.431
753.57	15.837
753.88	14.159
754.19	14.167
754.51	15.702
754.82	17.004
755.13	22.500
755.44	18.548
755.75	21.094
756.07	18.288
756.38	12.453
756.69	15.326
757.00	16.667
757.31	18.954
757.63	17.378
757.94	15.000
758.25	15.068
758.56	13.032
758.87	16.431
759.18	18.692
759.50	18.182
759.81	18.729
760.12	18.710
760.43	14.242
760.74	17.901
761.05	18.154
761.36	13.920
761.67	17.273
761.99	22.789
762.30	16.727
762.61	16.601
762.92	13.122
763.23	18.919
763.54	9.813
763.85	22.034
764.16	14.938
764.47	14.516
764.78	16.117
765.10	18.519
765.41	14.511
765.72	14.921
766.03	13.158
766.34	18.248
766.65	21.116
766.96	19.192
767.27	21.809
767.58	12.644
767.89	14.894
768.20	11.932
768.51	18.681
768.82	16.749
769.13	12.442
769.44	16.738
769.75	15.982
770.06	21.552
770.37	18.750
770.68	15.736
770.99	17.195
771.30	17.647
771.61	15.837
771.92	14.655
772.23	26.108
772.54	17.742
772.85	19.753
773.16	21.348
773.47	28.105
773.78	21.569
774.09	17.964
774.39	23.333
774.70	24.841
775.01	21.379
775.32	20.000
775.63	6.612
775.94	11.450
776.25	13.386
776.56	17.500
776.87	16.346
777.18	15.385
777.48	12.069
777.79	17.391
778.10	7.619
778.41	18.919
778.72	15.079
779.03	13.534
779.34	19.149
779.65	21.233
779.95	13.699
780.26	24.138
780.57	13.821
780.88	18.898
781.19	18.103
781.50	21.705
781.80	20.710
782.11	15.094
782.42	22.308
782.73	17.986
783.04	22.222
783.34	14.583
783.65	10.256
783.96	11.475
784.27	23.448
784.57	17.073
784.88	25.781
785.19	26.000
785.50	26.000
785.81	18.103
786.11	17.241
786.42	12.621
786.73	27.273
787.04	11.224
787.34	16.964
787.65	19.048
787.96	7.965
788.26	21.818
788.57	12.821
788.88	17.188
789.19	12.698
789.49	12.174
789.80	19.388
790.11	17.172
790.41	21.818
790.72	26.087
791.03	10.227
791.33	22.500
791.64	18.750
791.95	12.791
792.25	28.723
792.56	26.966
792.87	2.740
793.17	14.493
793.48	5.333
793.79	18.750
794.09	21.250
794.40	12.264
794.70	13.592
795.01	4.065
795.32	11.966
795.62	10.476
795.93	19.608
796.23	25.472
796.54	33.333
796.85	23.529
797.15	18.310
797.46	19.444
797.76	36.364
798.07	15.116
798.37	3.947
798.68	13.636
798.99	27.160
799.29	14.286
799.60	11.594
799.90	12.000
800.21	9.836
800.51	13.846
800.82	8.475
801.12	30.435
801.43	24.590
801.73	20.635
802.04	16.000
802.34	0.000
802.65	38.462
802.95	10.714
803.26	28.846
803.56	1.961
803.87	28.261
804.17	24.000
804.48	41.270
804.78	27.778
805.09	17.391
805.39	4.444
805.70	24.074
806.00	3.509
806.30	15.493
806.61	27.143
806.91	8.333
807.22	17.105
807.52	37.333
807.83	21.818
808.13	27.778
808.43	32.353
808.74	13.433
809.04	0.000
809.35	17.308
809.65	20.313
809.95	-10.811
810.26	9.091
810.56	16.438
810.86	7.143
811.17	28.000
811.47	24.490
811.77	-5.263
812.08	15.909
812.38	20.755
812.69	5.000
812.99	9.091
813.29	26.316
813.59	-25.714
813.90	25.000
814.20	-7.692
814.50	19.231
814.81	30.189
815.11	19.149
815.41	25.424
815.72	16.667
816.02	31.373
816.32	8.333
816.62	4.878
816.93	-2.703
817.23	-5.714
817.53	31.250
817.84	17.391
818.14	15.385
818.44	10.526
818.74	23.913
819.04	-2.500
819.35	37.838
819.65	41.176
819.95	13.889
820.25	28.571
820.56	22.500
820.86	-27.586
821.16	32.500
821.46	31.915
821.76	30.000
822.07	25.581
822.37	5.405
822.67	25.000
822.97	45.238
823.27	-10.714
823.57	12.000
823.88	-14.815
824.18	25.000
824.48	35.294
824.78	32.258
825.08	26.087
825.38	39.394
825.69	-45.833
825.99	-7.895
826.29	8.333
826.59	46.667
826.89	0.000
827.19	4.348
827.49	35.000
827.79	28.571
828.09	21.429
828.39	39.394
828.70	48.649
829.00	25.000
829.30	14.286
829.60	30.000
829.90	37.500
830.20	7.895
830.50	3.704
830.80	30.435
831.10	40.909
831.40	42.424
831.70	19.355
832.00	38.095
832.30	-28.571
832.60	-33.333
832.90	-6.897
833.20	-25.000
833.50	27.273
833.80	11.111
834.10	7.692
834.40	68.750
834.70	-44.444
835.00	0.000
835.30	61.538
835.60	40.000
835.90	67.742
836.20	22.727
836.50	14.286
836.80	-26.923
837.10	10.714
837.40	-300.000
837.70	63.636
838.00	-109.091
838.30	60.870
838.60	-7.692
838.90	59.091
839.19	0.000
839.49	73.333
839.79	53.846
840.09	-50.000
840.39	53.571
840.69	25.000
840.99	-50.000
841.29	-36.842
841.59	30.000
841.88	54.545
842.18	0.000
842.48	31.250
842.78	120.000
843.08	44.444
843.38	-50.000
843.68	26.087
843.97	60.000
844.27	33.333
844.57	25.000
844.87	44.444
845.17	-28.571
845.47	60.000
845.76	38.095
846.06	47.059
846.36	-40.000
846.66	7.143
846.96	46.667
847.25	-175.000
847.55	64.286
847.85	0.000
848.15	-4.545
848.44	-333.333
848.74	55.000
849.04	22.222
849.34	0.000
849.63	83.333
849.93	80.000
850.23	-5.556
850.53	100.000
850.82	-7.692
851.12	22.222
851.42	80.000
851.71	7.692
852.01	64.286
852.31	-125.000
852.61	-18.182
852.90	0.000
853.20	36.842
853.50	8.333
853.79	26.087
854.09	37.500
854.39	-15.789
854.68	16.667
854.98	12.903
855.28	7.692
855.57	-10.000
855.87	27.778
856.17	33.333
856.46	14.286
856.76	40.000
857.05	144.444
857.35	40.000
857.65	55.556
857.94	53.846
858.24	37.931
858.53	-22.222
858.83	33.333
859.13	45.455
859.42	-30.435
859.72	-100.000
860.01	-233.333
860.31	56.000
860.60	47.619
860.90	133.333
861.20	-80.000
861.49	-50.000
861.79	-20.000
862.08	15.000
862.38	106.667
862.67	-140.000
862.97	33.333
863.26	108.333
863.56	33.333
863.85	-66.667
864.15	50.000
864.44	-20.000
864.74	50.000
865.03	325.000
865.33	-120.000
865.62	16.667
865.92	16.667
866.21	-200.000
866.51	62.500
866.80	-18.182
867.10	350.000
867.39	58.333
867.69	0.000
867.98	69.231
868.27	-166.667
868.57	66.667
868.86	72.222
869.16	-53.846
869.45	13.333
869.75	-600.000
870.04	0.000
870.33	-57.143
870.63	71.429
870.92	300.000
871.22	100.000
871.51	600.000
871.80	88.889
872.10	-133.333
>>>>>End Processed Spectral Data<<<<<
