SpectraSuite Data File
++++++++++++++++++++++++++++++++++++
Date: Fri May 15 17:20:45 PDT 2015
User: schluterlab
Dark Spectrum Present: Yes
Reference Spectrum Present: Yes
Number of Sampled Component Spectra: 1
Spectrometers: USB2E3373
Integration Time (usec): 3000 (USB2E3373)
Spectra Averaged: 3 (USB2E3373)
Boxcar Smoothing: 0 (USB2E3373)
Correct for Electrical Dark: No (USB2E3373)
Strobe/Lamp Enabled: No (USB2E3373)
Correct for Detector Non-linearity: No (USB2E3373)
Correct for Stray Light: No (USB2E3373)
Number of Pixels in Processed Spectrum: 2048
>>>>>Begin Processed Spectral Data<<<<<
178.53	0.000
178.91	0.000
179.29	187.500
179.67	400.000
180.04	-114.286
180.42	375.000
180.80	900.000
181.18	-433.333
181.56	-50.000
181.94	150.000
182.31	-0.000
182.69	-20.000
183.07	-100.000
183.45	100.000
183.83	116.667
184.20	-27.273
184.58	111.111
184.96	-125.000
185.34	133.333
185.72	200.000
186.09	61.538
186.47	100.000
186.85	33.333
187.23	88.889
187.61	-200.000
187.98	-66.667
188.36	22.222
188.74	-200.000
189.12	47.059
189.49	100.000
189.87	0.000
190.25	71.429
190.63	850.000
191.00	166.667
191.38	26.316
191.76	600.000
192.14	-125.000
192.51	150.000
192.89	66.667
193.27	0.000
193.65	150.000
194.02	-27.273
194.40	90.000
194.78	-25.000
195.15	58.333
195.53	-75.000
195.91	300.000
196.29	-25.000
196.66	46.154
197.04	-0.000
197.42	-11.111
197.79	-433.333
198.17	-53.846
198.55	1300.000
198.92	-100.000
199.30	300.000
199.68	-100.000
200.05	133.333
200.43	0.000
200.81	66.667
201.18	100.000
201.56	100.000
201.94	50.000
202.31	-200.000
202.69	-140.000
203.07	-150.000
203.44	700.000
203.82	0.000
204.19	121.429
204.57	-133.333
204.95	-25.000
205.32	-40.000
205.70	171.429
206.08	175.000
206.45	277.778
206.83	207.143
207.20	0.000
207.58	-1300.000
207.96	33.333
208.33	-110.000
208.71	525.000
209.08	16.667
209.46	600.000
209.84	60.000
210.21	-900.000
210.59	128.571
210.96	133.333
211.34	-100.000
211.71	53.333
212.09	-28.571
212.46	-800.000
212.84	0.000
213.22	90.000
213.59	200.000
213.97	107.692
214.34	27.273
214.72	133.333
215.09	325.000
215.47	46.154
215.84	-72.727
216.22	-266.667
216.59	37.500
216.97	600.000
217.34	150.000
217.72	-40.000
218.09	100.000
218.47	50.000
218.84	100.000
219.22	-33.333
219.59	160.000
219.97	366.667
220.34	-50.000
220.72	85.714
221.09	75.000
221.47	800.000
221.84	-350.000
222.22	-500.000
222.59	72.727
222.97	125.000
223.34	100.000
223.72	35.714
224.09	42.857
224.46	50.000
224.84	200.000
225.21	80.000
225.59	46.667
225.96	300.000
226.34	200.000
226.71	-28.571
227.08	116.667
227.46	-50.000
227.83	150.000
228.21	55.556
228.58	45.455
228.95	12.500
229.33	90.000
229.70	112.500
230.08	-37.500
230.45	-71.429
230.82	185.714
231.20	-13.333
231.57	92.857
231.95	42.857
232.32	10.000
232.69	7.143
233.07	433.333
233.44	40.000
233.81	50.000
234.19	100.000
234.56	64.706
234.93	-0.000
235.31	250.000
235.68	-80.000
236.05	-23.077
236.43	35.000
236.80	11.765
237.17	34.375
237.55	25.000
237.92	51.852
238.29	58.333
238.67	43.333
239.04	32.353
239.41	12.195
239.79	23.333
240.16	39.024
240.53	28.947
240.91	23.913
241.28	38.095
241.65	42.857
242.02	19.178
242.40	26.667
242.77	33.898
243.14	25.758
243.51	25.000
243.89	32.184
244.26	20.690
244.63	29.762
245.00	35.052
245.38	30.928
245.75	17.978
246.12	18.966
246.49	26.446
246.87	18.269
247.24	15.966
247.61	21.053
247.98	20.325
248.36	21.875
248.73	28.947
249.10	25.325
249.47	23.418
249.84	24.183
250.22	22.941
250.59	26.797
250.96	25.352
251.33	18.605
251.70	20.000
252.08	26.904
252.45	26.733
252.82	23.116
253.19	19.816
253.56	14.953
253.94	23.423
254.31	18.696
254.68	25.000
255.05	23.228
255.42	20.961
255.79	25.097
256.16	26.070
256.54	25.746
256.91	26.616
257.28	17.100
257.65	23.596
258.02	20.213
258.39	24.916
258.76	24.176
259.14	22.924
259.51	23.625
259.88	23.368
260.25	26.144
260.62	27.778
260.99	18.983
261.36	21.233
261.73	20.886
262.10	23.404
262.47	22.699
262.85	21.630
263.22	22.462
263.59	25.234
263.96	26.087
264.33	21.212
264.70	20.536
265.07	20.536
265.44	27.762
265.81	23.729
266.18	25.683
266.55	23.393
266.92	25.389
267.29	25.065
267.66	20.205
268.03	23.298
268.40	21.932
268.77	25.936
269.14	22.302
269.51	25.193
269.88	21.446
270.25	21.684
270.62	20.976
270.99	24.297
271.36	23.227
271.73	22.535
272.10	22.628
272.47	22.459
272.84	21.040
273.21	23.898
273.58	23.373
273.95	25.629
274.32	23.326
274.69	22.172
275.06	23.438
275.43	24.490
275.80	20.530
276.17	20.000
276.54	22.912
276.91	25.000
277.28	20.524
277.65	22.314
278.02	22.979
278.39	21.007
278.76	22.222
279.13	21.162
279.50	21.849
279.87	23.326
280.23	20.430
280.60	23.197
280.97	22.626
281.34	19.231
281.71	24.435
282.08	22.904
282.45	21.135
282.82	20.077
283.19	22.631
283.56	23.121
283.92	21.063
284.29	19.423
284.66	20.930
285.03	20.629
285.40	21.550
285.77	20.035
286.14	21.119
286.51	22.878
286.87	17.916
287.24	18.969
287.61	21.340
287.98	19.123
288.35	20.104
288.72	22.242
289.08	19.965
289.45	20.387
289.82	22.378
290.19	19.625
290.56	20.412
290.93	19.024
291.29	18.182
291.66	18.425
292.03	20.096
292.40	22.258
292.77	19.777
293.13	18.506
293.50	17.299
293.87	18.931
294.24	18.856
294.60	18.033
294.97	19.196
295.34	20.092
295.71	20.566
296.08	18.236
296.44	16.643
296.81	19.583
297.18	19.420
297.55	20.054
297.91	18.904
298.28	18.865
298.65	18.453
299.02	18.329
299.38	16.689
299.75	20.000
300.12	19.110
300.48	18.182
300.85	20.152
301.22	18.312
301.59	18.289
301.95	18.734
302.32	20.623
302.69	19.030
303.05	18.688
303.42	18.306
303.79	18.224
304.15	20.908
304.52	18.312
304.89	16.608
305.25	19.492
305.62	16.569
305.99	18.129
306.35	18.613
306.72	19.010
307.09	19.384
307.45	19.403
307.82	18.056
308.19	19.977
308.55	18.539
308.92	20.044
309.29	17.318
309.65	17.223
310.02	18.482
310.38	18.771
310.75	21.202
311.12	18.084
311.48	19.194
311.85	18.639
312.22	17.405
312.58	18.577
312.95	17.396
313.31	17.495
313.68	18.743
314.05	17.959
314.41	19.072
314.78	18.763
315.14	19.219
315.51	18.841
315.87	19.775
316.24	20.425
316.61	19.783
316.97	19.246
317.34	19.727
317.70	19.598
318.07	18.558
318.43	19.608
318.80	18.655
319.16	20.898
319.53	19.088
319.89	18.602
320.26	19.737
320.62	20.261
320.99	17.954
321.35	21.274
321.72	20.353
322.08	20.443
322.45	20.102
322.81	18.762
323.18	21.001
323.54	19.402
323.91	19.961
324.27	20.020
324.64	22.004
325.00	22.354
325.37	22.130
325.73	20.762
326.10	22.797
326.46	22.152
326.83	22.835
327.19	22.493
327.56	23.284
327.92	23.063
328.29	22.589
328.65	25.283
329.01	24.357
329.38	24.240
329.74	24.363
330.11	24.930
330.47	23.562
330.84	24.712
331.20	26.901
331.56	25.278
331.93	26.393
332.29	26.764
332.66	26.154
333.02	26.766
333.38	25.940
333.75	27.289
334.11	25.067
334.48	26.655
334.84	26.648
335.20	27.539
335.57	26.201
335.93	26.739
336.29	27.532
336.66	27.339
337.02	26.487
337.38	26.944
337.75	27.455
338.11	26.330
338.47	26.916
338.84	27.726
339.20	26.508
339.56	27.523
339.93	27.842
340.29	27.064
340.65	28.047
341.02	26.418
341.38	26.460
341.74	26.060
342.11	26.516
342.47	27.669
342.83	28.374
343.20	26.220
343.56	27.652
343.92	26.838
344.28	27.327
344.65	26.770
345.01	27.139
345.37	26.997
345.73	26.611
346.10	27.524
346.46	27.839
346.82	26.105
347.19	26.185
347.55	26.650
347.91	27.508
348.27	27.082
348.63	26.405
349.00	26.743
349.36	24.356
349.72	26.866
350.08	26.311
350.45	26.417
350.81	25.581
351.17	25.651
351.53	26.939
351.89	26.012
352.26	26.640
352.62	27.016
352.98	25.944
353.34	25.926
353.70	27.023
354.07	25.081
354.43	25.781
354.79	26.920
355.15	26.587
355.51	27.927
355.87	27.346
356.24	25.775
356.60	26.112
356.96	26.270
357.32	25.639
357.68	26.271
358.04	26.010
358.40	25.804
358.77	26.236
359.13	25.620
359.49	24.499
359.85	25.741
360.21	26.156
360.57	24.866
360.93	25.038
361.29	25.378
361.66	26.567
362.02	26.970
362.38	27.037
362.74	25.965
363.10	26.035
363.46	26.464
363.82	26.672
364.18	25.756
364.54	26.029
364.90	25.878
365.26	26.128
365.62	27.080
365.98	26.979
366.35	26.875
366.71	27.125
367.07	26.197
367.43	27.031
367.79	27.138
368.15	27.279
368.51	26.948
368.87	26.274
369.23	25.560
369.59	26.531
369.95	27.053
370.31	26.301
370.67	27.463
371.03	26.363
371.39	26.842
371.75	27.253
372.11	28.245
372.47	27.663
372.83	27.608
373.19	28.245
373.55	26.282
373.91	26.926
374.27	28.349
374.63	27.279
374.99	26.596
375.35	28.482
375.71	28.252
376.07	27.598
376.42	28.231
376.78	28.255
377.14	29.045
377.50	28.818
377.86	28.648
378.22	28.079
378.58	29.038
378.94	28.103
379.30	28.135
379.66	29.467
380.02	28.387
380.38	28.119
380.74	28.785
381.09	29.571
381.45	29.358
381.81	29.426
382.17	29.632
382.53	29.482
382.89	30.006
383.25	29.807
383.61	30.427
383.97	29.397
384.32	30.457
384.68	30.650
385.04	30.086
385.40	30.305
385.76	31.258
386.12	31.371
386.48	31.673
386.83	30.184
387.19	31.624
387.55	31.054
387.91	31.296
388.27	31.563
388.62	32.033
388.98	30.755
389.34	31.480
389.70	32.380
390.06	30.774
390.42	31.930
390.77	31.982
391.13	32.409
391.49	32.018
391.85	32.099
392.20	31.011
392.56	31.977
392.92	32.590
393.28	32.193
393.64	31.532
393.99	33.730
394.35	32.321
394.71	32.822
395.07	31.490
395.42	31.633
395.78	31.726
396.14	31.778
396.50	32.720
396.85	32.260
397.21	32.393
397.57	31.724
397.92	31.336
398.28	32.989
398.64	30.723
399.00	32.054
399.35	31.716
399.71	31.476
400.07	31.862
400.42	32.130
400.78	32.762
401.14	31.579
401.49	31.447
401.85	32.480
402.21	31.807
402.57	32.000
402.92	30.928
403.28	31.642
403.63	32.093
403.99	31.760
404.35	32.542
404.70	30.536
405.06	31.316
405.42	31.448
405.77	30.273
406.13	30.501
406.49	31.202
406.84	31.357
407.20	31.788
407.55	30.844
407.91	30.615
408.27	31.103
408.62	30.769
408.98	30.129
409.34	31.289
409.69	30.233
410.05	29.557
410.40	31.358
410.76	31.725
411.11	30.375
411.47	30.703
411.83	30.885
412.18	30.888
412.54	30.649
412.89	30.542
413.25	30.325
413.60	31.553
413.96	30.307
414.31	32.317
414.67	30.276
415.03	30.426
415.38	30.614
415.74	31.075
416.09	30.503
416.45	31.938
416.80	32.122
417.16	31.906
417.51	30.979
417.87	31.291
418.22	31.930
418.58	31.839
418.93	31.724
419.29	30.602
419.64	32.404
420.00	32.620
420.35	32.119
420.71	32.928
421.06	32.413
421.42	32.993
421.77	32.428
422.12	32.179
422.48	33.297
422.83	32.309
423.19	32.280
423.54	32.040
423.90	32.980
424.25	34.328
424.61	33.782
424.96	32.520
425.31	34.547
425.67	33.451
426.02	34.158
426.38	34.064
426.73	33.232
427.09	34.557
427.44	34.765
427.79	34.001
428.15	34.223
428.50	34.827
428.85	33.784
429.21	34.918
429.56	34.340
429.92	33.847
430.27	33.734
430.62	34.030
430.98	34.130
431.33	34.490
431.68	33.647
432.04	34.656
432.39	34.227
432.74	33.854
433.10	34.713
433.45	34.170
433.80	35.287
434.16	34.349
434.51	35.376
434.86	35.192
435.22	34.941
435.57	36.057
435.92	35.329
436.28	35.182
436.63	34.512
436.98	34.820
437.34	35.632
437.69	36.076
438.04	36.011
438.39	34.453
438.75	35.033
439.10	35.540
439.45	36.458
439.81	36.024
440.16	35.986
440.51	36.179
440.86	38.127
441.22	36.425
441.57	36.755
441.92	36.201
442.27	36.475
442.63	36.724
442.98	36.933
443.33	36.672
443.68	36.233
444.03	36.960
444.39	36.498
444.74	37.235
445.09	36.136
445.44	36.581
445.79	36.617
446.15	36.674
446.50	36.162
446.85	37.194
447.20	36.861
447.55	37.723
447.91	36.717
448.26	36.881
448.61	37.881
448.96	37.866
449.31	36.705
449.66	36.643
450.02	36.566
450.37	37.226
450.72	37.113
451.07	37.468
451.42	36.454
451.77	36.709
452.12	35.885
452.47	36.768
452.83	36.985
453.18	36.749
453.53	36.599
453.88	37.098
454.23	36.509
454.58	37.972
454.93	37.822
455.28	36.698
455.63	38.066
455.98	37.943
456.34	38.123
456.69	36.912
457.04	37.996
457.39	38.032
457.74	37.062
458.09	36.551
458.44	36.454
458.79	36.639
459.14	37.128
459.49	38.149
459.84	37.338
460.19	37.500
460.54	38.264
460.89	36.591
461.24	37.640
461.59	38.124
461.94	37.421
462.29	37.817
462.64	39.203
462.99	37.305
463.34	37.969
463.69	38.031
464.04	37.651
464.39	38.266
464.74	37.853
465.09	37.929
465.44	38.430
465.79	36.848
466.14	38.198
466.49	37.608
466.84	36.466
467.19	38.924
467.54	37.676
467.89	37.271
468.24	37.652
468.59	38.222
468.94	37.397
469.29	38.230
469.64	38.209
469.99	39.523
470.34	37.133
470.68	39.374
471.03	39.561
471.38	39.158
471.73	39.146
472.08	38.399
472.43	38.188
472.78	38.177
473.13	38.367
473.48	39.283
473.83	38.169
474.17	37.565
474.52	37.843
474.87	38.788
475.22	39.353
475.57	37.436
475.92	38.727
476.27	38.766
476.61	38.773
476.96	37.535
477.31	38.345
477.66	37.360
478.01	38.574
478.36	38.181
478.70	39.152
479.05	38.352
479.40	38.739
479.75	37.591
480.10	37.737
480.45	38.350
480.79	39.778
481.14	40.010
481.49	38.621
481.84	38.996
482.19	37.699
482.53	39.233
482.88	37.757
483.23	37.956
483.58	38.774
483.92	38.238
484.27	38.149
484.62	37.875
484.97	39.055
485.31	38.078
485.66	37.775
486.01	36.849
486.36	36.321
486.70	36.378
487.05	36.565
487.40	36.711
487.75	37.324
488.09	37.021
488.44	37.655
488.79	37.878
489.13	38.462
489.48	38.692
489.83	38.655
490.17	38.607
490.52	38.799
490.87	38.454
491.22	39.685
491.56	38.567
491.91	38.623
492.26	39.669
492.60	39.395
492.95	39.793
493.30	39.375
493.64	38.703
493.99	39.517
494.34	39.126
494.68	38.762
495.03	38.491
495.37	39.401
495.72	39.778
496.07	39.073
496.41	38.915
496.76	38.968
497.11	38.752
497.45	38.807
497.80	39.405
498.14	38.847
498.49	37.887
498.84	39.571
499.18	39.408
499.53	38.839
499.87	38.667
500.22	38.773
500.56	39.032
500.91	38.855
501.26	39.397
501.60	38.613
501.95	39.738
502.29	39.322
502.64	40.106
502.98	39.862
503.33	39.721
503.67	38.843
504.02	39.687
504.36	39.832
504.71	39.141
505.06	38.249
505.40	39.391
505.75	39.897
506.09	39.432
506.44	40.092
506.78	38.827
507.13	39.452
507.47	38.381
507.82	39.316
508.16	38.933
508.51	39.454
508.85	39.665
509.19	40.128
509.54	39.142
509.88	39.482
510.23	40.022
510.57	40.994
510.92	39.392
511.26	39.771
511.61	40.539
511.95	39.288
512.30	40.188
512.64	40.401
512.98	39.079
513.33	40.067
513.67	39.397
514.02	40.847
514.36	40.800
514.70	41.259
515.05	42.009
515.39	40.673
515.74	41.557
516.08	40.586
516.42	40.695
516.77	40.726
517.11	40.653
517.46	40.814
517.80	40.286
518.14	40.416
518.49	40.925
518.83	39.854
519.17	40.267
519.52	39.432
519.86	40.276
520.20	40.279
520.55	40.275
520.89	41.468
521.23	41.799
521.58	41.640
521.92	41.090
522.26	40.599
522.61	40.455
522.95	43.245
523.29	40.851
523.64	41.550
523.98	41.154
524.32	40.271
524.66	40.845
525.01	41.104
525.35	40.635
525.69	41.886
526.04	40.079
526.38	42.023
526.72	40.811
527.06	40.143
527.41	42.216
527.75	40.483
528.09	40.332
528.43	41.999
528.78	40.660
529.12	41.677
529.46	41.780
529.80	40.849
530.15	41.584
530.49	41.347
530.83	40.561
531.17	40.698
531.51	41.518
531.86	40.313
532.20	41.267
532.54	42.138
532.88	42.163
533.22	41.129
533.57	40.170
533.91	40.927
534.25	40.495
534.59	39.448
534.93	39.207
535.27	40.355
535.62	39.469
535.96	40.639
536.30	40.765
536.64	40.386
536.98	39.721
537.32	40.683
537.66	41.935
538.01	41.049
538.35	40.707
538.69	40.280
539.03	40.533
539.37	40.444
539.71	40.968
540.05	40.733
540.39	41.343
540.73	40.586
541.07	41.782
541.42	40.927
541.76	40.743
542.10	40.262
542.44	39.889
542.78	39.160
543.12	39.354
543.46	41.099
543.80	40.319
544.14	39.720
544.48	41.239
544.82	39.918
545.16	39.959
545.50	41.322
545.84	40.864
546.18	41.418
546.52	40.447
546.86	41.337
547.20	41.416
547.54	39.223
547.88	40.489
548.22	39.185
548.56	39.776
548.90	41.173
549.24	40.152
549.58	39.915
549.92	40.672
550.26	40.440
550.60	40.892
550.94	41.897
551.28	41.036
551.62	41.231
551.96	40.977
552.30	41.520
552.64	38.928
552.98	39.873
553.32	41.655
553.66	40.639
554.00	40.584
554.34	41.876
554.68	40.118
555.02	40.625
555.36	41.511
555.69	40.733
556.03	40.186
556.37	41.637
556.71	41.227
557.05	41.909
557.39	39.851
557.73	41.529
558.07	41.101
558.41	41.348
558.75	40.374
559.08	42.080
559.42	41.349
559.76	42.674
560.10	41.820
560.44	40.655
560.78	40.420
561.12	41.185
561.45	40.970
561.79	41.246
562.13	40.809
562.47	40.432
562.81	40.922
563.15	39.915
563.48	40.523
563.82	41.181
564.16	40.808
564.50	39.527
564.84	40.295
565.17	40.241
565.51	42.008
565.85	41.221
566.19	40.451
566.52	39.946
566.86	41.131
567.20	40.349
567.54	39.964
567.88	40.305
568.21	41.120
568.55	39.728
568.89	39.425
569.23	38.758
569.56	38.704
569.90	39.748
570.24	37.700
570.57	38.582
570.91	38.341
571.25	37.159
571.59	37.216
571.92	36.148
572.26	36.624
572.60	36.899
572.93	36.555
573.27	36.395
573.61	36.724
573.95	37.056
574.28	36.335
574.62	36.232
574.96	36.176
575.29	35.613
575.63	35.605
575.97	36.053
576.30	36.407
576.64	36.053
576.98	36.885
577.31	36.225
577.65	36.032
577.98	36.074
578.32	35.266
578.66	35.848
578.99	35.611
579.33	36.123
579.67	35.907
580.00	36.101
580.34	36.194
580.67	35.262
581.01	35.951
581.35	35.401
581.68	35.564
582.02	35.383
582.35	35.506
582.69	35.937
583.02	35.826
583.36	36.338
583.70	36.812
584.03	36.920
584.37	37.211
584.70	36.593
585.04	36.062
585.37	35.971
585.71	35.868
586.04	35.830
586.38	36.356
586.72	36.758
587.05	36.800
587.39	37.126
587.72	36.878
588.06	36.535
588.39	36.087
588.73	37.210
589.06	37.476
589.40	36.882
589.73	37.276
590.07	37.764
590.40	37.693
590.73	38.386
591.07	38.762
591.40	37.578
591.74	37.738
592.07	37.755
592.41	38.869
592.74	37.794
593.08	35.837
593.41	37.035
593.75	36.376
594.08	36.457
594.41	37.118
594.75	37.863
595.08	37.647
595.42	37.173
595.75	37.251
596.09	37.725
596.42	36.999
596.75	38.499
597.09	37.813
597.42	37.263
597.75	37.929
598.09	37.392
598.42	37.816
598.76	36.937
599.09	36.779
599.42	36.605
599.76	36.531
600.09	36.840
600.42	36.619
600.76	36.776
601.09	36.756
601.42	36.780
601.76	37.078
602.09	37.789
602.42	37.574
602.76	38.200
603.09	38.331
603.42	38.754
603.76	36.855
604.09	36.938
604.42	38.071
604.76	38.184
605.09	37.112
605.42	37.427
605.75	37.084
606.09	36.688
606.42	37.490
606.75	37.532
607.09	37.275
607.42	37.173
607.75	37.211
608.08	37.062
608.42	36.683
608.75	38.169
609.08	38.814
609.41	38.223
609.75	37.651
610.08	38.093
610.41	36.957
610.74	37.104
611.07	38.501
611.41	38.454
611.74	39.019
612.07	37.634
612.40	38.731
612.73	38.870
613.07	37.570
613.40	38.293
613.73	38.668
614.06	38.509
614.39	37.902
614.72	37.479
615.06	37.318
615.39	37.555
615.72	37.836
616.05	38.492
616.38	37.550
616.71	38.410
617.05	38.419
617.38	39.346
617.71	38.742
618.04	38.730
618.37	38.840
618.70	38.548
619.03	39.861
619.36	38.567
619.69	41.016
620.03	40.687
620.36	40.773
620.69	39.115
621.02	39.755
621.35	41.162
621.68	40.561
622.01	40.417
622.34	39.346
622.67	39.353
623.00	39.357
623.33	38.948
623.66	38.743
623.99	39.486
624.32	40.837
624.65	38.872
624.99	40.557
625.32	39.045
625.65	41.320
625.98	41.338
626.31	40.233
626.64	41.161
626.97	42.059
627.30	41.506
627.63	40.641
627.96	40.791
628.29	42.276
628.62	41.986
628.95	42.084
629.28	42.440
629.61	40.578
629.94	42.717
630.26	41.502
630.59	42.560
630.92	42.256
631.25	40.000
631.58	42.291
631.91	39.803
632.24	43.119
632.57	43.182
632.90	42.823
633.23	41.529
633.56	45.088
633.89	44.513
634.22	44.568
634.55	44.346
634.88	42.656
635.20	41.923
635.53	45.200
635.86	42.133
636.19	44.114
636.52	41.199
636.85	42.060
637.18	42.264
637.51	43.145
637.83	42.707
638.16	45.020
638.49	41.281
638.82	44.342
639.15	42.605
639.48	45.530
639.81	42.259
640.13	44.444
640.46	43.878
640.79	44.624
641.12	42.836
641.45	43.393
641.77	43.111
642.10	44.550
642.43	43.569
642.76	45.875
643.09	46.365
643.41	44.498
643.74	42.834
644.07	44.171
644.40	45.946
644.73	44.133
645.05	45.470
645.38	45.679
645.71	44.681
646.04	47.935
646.36	48.227
646.69	46.763
647.02	46.503
647.35	44.590
647.67	45.338
648.00	47.388
648.33	44.710
648.66	44.068
648.98	42.881
649.31	44.132
649.64	41.915
649.96	45.219
650.29	44.634
650.62	45.299
650.94	46.481
651.27	43.389
651.60	45.946
651.92	45.629
652.25	44.583
652.58	43.500
652.90	45.969
653.23	42.521
653.56	42.301
653.88	45.189
654.21	38.529
654.54	44.312
654.86	44.143
655.19	40.789
655.52	38.003
655.84	33.749
656.17	37.392
656.49	50.648
656.82	52.419
657.15	40.087
657.47	29.904
657.80	22.572
658.13	22.085
658.45	34.255
658.78	34.487
659.10	34.792
659.43	35.009
659.75	35.816
660.08	38.207
660.41	41.267
660.73	40.470
661.06	43.674
661.38	41.096
661.71	44.559
662.03	47.425
662.36	41.099
662.68	46.018
663.01	46.507
663.33	45.940
663.66	43.721
663.98	46.744
664.31	43.284
664.63	44.931
664.96	43.043
665.28	45.254
665.61	43.290
665.93	46.522
666.26	46.855
666.58	44.519
666.91	43.765
667.23	48.585
667.56	46.682
667.88	47.482
668.21	44.153
668.53	45.390
668.86	45.991
669.18	42.925
669.50	44.794
669.83	42.326
670.15	45.921
670.48	42.344
670.80	47.465
671.13	42.729
671.45	43.151
671.77	44.635
672.10	41.782
672.42	42.509
672.75	43.162
673.07	42.218
673.39	43.303
673.72	40.237
674.04	43.750
674.37	43.220
674.69	41.542
675.01	46.667
675.34	47.072
675.66	43.519
675.98	44.568
676.31	41.284
676.63	46.318
676.95	43.636
677.28	44.706
677.60	46.265
677.92	44.725
678.25	42.013
678.57	41.342
678.89	43.277
679.22	44.295
679.54	42.369
679.86	41.551
680.18	43.301
680.51	42.614
680.83	40.954
681.15	44.000
681.48	42.828
681.80	44.008
682.12	42.540
682.44	43.096
682.77	44.592
683.09	45.538
683.41	42.273
683.73	43.779
684.06	45.796
684.38	40.215
684.70	43.573
685.02	40.041
685.34	37.352
685.67	42.402
685.99	40.868
686.31	41.593
686.63	40.445
686.96	40.684
687.28	38.586
687.60	40.304
687.92	45.657
688.24	42.540
688.56	43.231
688.89	42.634
689.21	43.778
689.53	42.691
689.85	44.419
690.17	41.071
690.49	44.917
690.82	44.417
691.14	39.762
691.46	41.589
691.78	39.414
692.10	42.151
692.42	41.991
692.74	40.385
693.06	40.541
693.39	38.009
693.71	39.140
694.03	41.339
694.35	44.393
694.67	43.939
694.99	41.253
695.31	40.731
695.63	42.750
695.95	44.444
696.27	44.560
696.59	44.167
696.91	40.616
697.23	40.103
697.56	41.337
697.88	43.441
698.20	41.458
698.52	41.412
698.84	39.713
699.16	43.500
699.48	42.356
699.80	40.199
700.12	44.205
700.44	47.339
700.76	40.988
701.08	43.333
701.40	41.265
701.72	46.296
702.04	41.254
702.36	48.495
702.68	46.246
703.00	40.303
703.32	41.642
703.64	38.701
703.96	38.551
704.28	47.546
704.60	42.857
704.91	43.218
705.23	44.518
705.55	46.643
705.87	48.375
706.19	45.556
706.51	45.361
706.83	42.122
707.15	41.433
707.47	45.378
707.79	38.542
708.11	39.500
708.43	39.250
708.74	41.085
709.06	42.254
709.38	42.508
709.70	40.828
710.02	41.401
710.34	41.486
710.66	39.744
710.98	42.053
711.29	44.262
711.61	42.034
711.93	41.368
712.25	48.110
712.57	44.689
712.89	43.657
713.20	46.021
713.52	38.328
713.84	42.662
714.16	39.175
714.48	39.032
714.80	40.705
715.11	41.641
715.43	38.558
715.75	38.000
716.07	37.542
716.39	41.611
716.70	38.007
717.02	40.840
717.34	46.154
717.66	42.478
717.97	46.957
718.29	46.025
718.61	46.457
718.93	42.636
719.24	46.768
719.56	46.185
719.88	48.454
720.20	40.909
720.51	38.697
720.83	42.471
721.15	45.798
721.46	46.774
721.78	41.897
722.10	40.149
722.42	39.419
722.73	41.224
723.05	48.163
723.37	43.644
723.68	45.946
724.00	44.872
724.32	44.444
724.63	39.545
724.95	42.795
725.27	45.622
725.58	47.034
725.90	39.286
726.22	41.313
726.53	40.339
726.85	44.944
727.16	44.151
727.48	37.652
727.80	38.866
728.11	41.949
728.43	37.255
728.74	33.871
729.06	42.400
729.38	42.857
729.69	39.841
730.01	39.231
730.32	39.179
730.64	36.749
730.96	41.509
731.27	39.000
731.59	40.000
731.90	40.127
732.22	37.855
732.53	42.193
732.85	40.071
733.16	43.434
733.48	35.612
733.80	39.130
734.11	40.000
734.43	38.488
734.74	37.879
735.06	35.179
735.37	38.671
735.69	40.067
736.00	34.843
736.32	35.906
736.63	38.028
736.95	41.980
737.26	38.078
737.58	39.597
737.89	36.630
738.21	38.722
738.52	43.621
738.83	40.611
739.15	44.105
739.46	40.157
739.78	35.897
740.09	34.641
740.41	37.319
740.72	40.945
741.04	42.915
741.35	32.766
741.66	36.967
741.98	41.327
742.29	40.594
742.61	41.885
742.92	36.019
743.23	37.500
743.55	41.629
743.86	40.670
744.18	34.928
744.49	40.426
744.80	41.304
745.12	44.385
745.43	35.122
745.74	43.750
746.06	42.927
746.37	44.503
746.68	39.810
747.00	42.553
747.31	44.279
747.62	43.689
747.94	40.670
748.25	44.059
748.56	42.623
748.88	41.885
749.19	49.468
749.50	45.320
749.82	36.792
750.13	39.908
750.44	41.353
750.75	36.940
751.07	42.336
751.38	40.996
751.69	35.686
752.01	40.698
752.32	39.841
752.63	39.526
752.94	38.362
753.26	42.678
753.57	38.009
753.88	40.708
754.19	35.833
754.51	34.298
754.82	37.652
755.13	42.917
755.44	36.694
755.75	39.062
756.07	40.856
756.38	35.472
756.69	36.782
757.00	36.000
757.31	38.235
757.63	35.366
757.94	34.722
758.25	34.795
758.56	35.372
758.87	30.878
759.18	34.268
759.50	36.364
759.81	41.806
760.12	34.839
760.43	36.970
760.74	35.185
761.05	37.231
761.36	34.375
761.67	38.485
761.99	36.735
762.30	37.091
762.61	35.968
762.92	38.009
763.23	37.387
763.54	41.121
763.85	40.254
764.16	38.174
764.47	33.065
764.78	34.799
765.10	38.721
765.41	35.331
765.72	35.556
766.03	34.211
766.34	36.496
766.65	39.841
766.96	43.939
767.27	38.298
767.58	41.379
767.89	37.589
768.20	37.500
768.51	35.714
768.82	35.468
769.13	34.101
769.44	38.197
769.75	28.311
770.06	36.638
770.37	39.423
770.68	31.472
770.99	30.769
771.30	39.706
771.61	33.032
771.92	37.069
772.23	44.828
772.54	44.624
772.85	45.062
773.16	40.449
773.47	53.595
773.78	47.059
774.09	35.329
774.39	42.000
774.70	31.210
775.01	45.517
775.32	30.000
775.63	36.364
775.94	43.511
776.25	42.520
776.56	34.167
776.87	32.692
777.18	35.897
777.48	38.793
777.79	40.870
778.10	36.190
778.41	42.342
778.72	40.476
779.03	39.850
779.34	36.170
779.65	32.192
779.95	37.671
780.26	37.931
780.57	34.959
780.88	40.945
781.19	47.414
781.50	41.085
781.80	26.627
782.11	36.478
782.42	50.000
782.73	35.971
783.04	41.481
783.34	36.806
783.65	33.333
783.96	34.426
784.27	36.552
784.57	30.894
784.88	38.281
785.19	36.000
785.50	55.000
785.81	38.793
786.11	34.483
786.42	45.631
786.73	49.091
787.04	30.612
787.34	41.071
787.65	41.905
787.96	33.628
788.26	42.727
788.57	39.316
788.88	43.750
789.19	39.683
789.49	37.391
789.80	36.735
790.11	42.424
790.41	24.545
790.72	48.913
791.03	32.955
791.33	52.500
791.64	50.000
791.95	37.209
792.25	36.170
792.56	38.202
792.87	36.986
793.17	36.232
793.48	30.667
793.79	36.250
794.09	41.250
794.40	41.509
794.70	41.748
795.01	23.577
795.32	30.769
795.62	39.048
795.93	43.137
796.23	42.453
796.54	43.750
796.85	41.176
797.15	54.930
797.46	50.000
797.76	56.061
798.07	38.372
798.37	31.579
798.68	43.939
798.99	37.037
799.29	27.143
799.60	34.783
799.90	57.333
800.21	39.344
800.51	58.462
800.82	32.203
801.12	40.580
801.43	55.738
801.73	44.444
802.04	44.000
802.34	37.313
802.65	48.077
802.95	12.500
803.26	30.769
803.56	31.373
803.87	36.957
804.17	50.667
804.48	55.556
804.78	29.630
805.09	52.174
805.39	62.222
805.70	29.630
806.00	24.561
806.30	45.070
806.61	38.571
806.91	20.833
807.22	44.737
807.52	49.333
807.83	23.636
808.13	54.167
808.43	57.353
808.74	46.269
809.04	23.729
809.35	23.077
809.65	28.125
809.95	5.405
810.26	34.091
810.56	23.288
810.86	45.238
811.17	30.000
811.47	24.490
811.77	42.105
812.08	34.091
812.38	45.283
812.69	47.500
812.99	30.303
813.29	47.368
813.59	25.714
813.90	54.545
814.20	64.103
814.50	57.692
814.81	18.868
815.11	21.277
815.41	66.102
815.72	42.857
816.02	47.059
816.32	37.500
816.62	43.902
816.93	8.108
817.23	48.571
817.53	47.917
817.84	21.739
818.14	44.231
818.44	28.947
818.74	50.000
819.04	10.000
819.35	51.351
819.65	32.353
819.95	55.556
820.25	40.476
820.56	55.000
820.86	0.000
821.16	70.000
821.46	44.681
821.76	75.000
822.07	41.860
822.37	35.135
822.67	43.750
822.97	45.238
823.27	57.143
823.57	64.000
823.88	44.444
824.18	85.714
824.48	38.235
824.78	58.065
825.08	47.826
825.38	21.212
825.69	16.667
825.99	47.368
826.29	27.778
826.59	20.000
826.89	4.762
827.19	58.696
827.49	30.000
827.79	37.143
828.09	82.143
828.39	33.333
828.70	59.459
829.00	64.286
829.30	9.524
829.60	43.333
829.90	53.125
830.20	39.474
830.50	3.704
830.80	69.565
831.10	50.000
831.40	75.758
831.70	83.871
832.00	85.714
832.30	-19.048
832.60	25.000
832.90	24.138
833.20	-5.000
833.50	51.515
833.80	29.630
834.10	-11.538
834.40	43.750
834.70	122.222
835.00	26.316
835.30	69.231
835.60	106.667
835.90	64.516
836.20	50.000
836.50	85.714
836.80	46.154
837.10	14.286
837.40	366.667
837.70	77.273
838.00	81.818
838.30	34.783
838.60	53.846
838.90	68.182
839.19	53.571
839.49	30.000
839.79	-15.385
840.09	-16.667
840.39	60.714
840.69	53.571
840.99	42.308
841.29	36.842
841.59	40.000
841.88	0.000
842.18	50.000
842.48	31.250
842.78	80.000
843.08	33.333
843.38	-70.000
843.68	69.565
843.97	80.000
844.27	40.000
844.57	70.000
844.87	22.222
845.17	33.333
845.47	100.000
845.76	23.810
846.06	64.706
846.36	50.000
846.66	78.571
846.96	46.667
847.25	-125.000
847.55	57.143
847.85	37.500
848.15	9.091
848.44	-33.333
848.74	40.000
849.04	62.963
849.34	127.273
849.63	-33.333
849.93	20.000
850.23	55.556
850.53	220.000
850.82	53.846
851.12	33.333
851.42	73.333
851.71	19.231
852.01	21.429
852.31	-225.000
852.61	90.909
852.90	10.000
853.20	47.368
853.50	58.333
853.79	65.217
854.09	95.833
854.39	68.421
854.68	37.500
854.98	48.387
855.28	69.231
855.57	15.000
855.87	44.444
856.17	66.667
856.46	157.143
856.76	66.667
857.05	77.778
857.35	40.000
857.65	22.222
857.94	-7.692
858.24	65.517
858.53	77.778
858.83	33.333
859.13	31.818
859.42	8.696
859.72	-75.000
860.01	-200.000
860.31	76.000
860.60	47.619
860.90	333.333
861.20	0.000
861.49	-200.000
861.79	-20.000
862.08	25.000
862.38	33.333
862.67	-80.000
862.97	33.333
863.26	58.333
863.56	61.111
863.85	-233.333
864.15	83.333
864.44	-40.000
864.74	50.000
865.03	-125.000
865.33	100.000
865.62	83.333
865.92	-16.667
866.21	33.333
866.51	56.250
866.80	109.091
867.10	150.000
867.39	83.333
867.69	0.000
867.98	153.846
868.27	33.333
868.57	40.000
868.86	50.000
869.16	-7.692
869.45	113.333
869.75	400.000
870.04	0.000
870.33	-85.714
870.63	38.095
870.92	200.000
871.22	-240.000
871.51	100.000
871.80	200.000
872.10	166.667
>>>>>End Processed Spectral Data<<<<<
