SpectraSuite Data File
++++++++++++++++++++++++++++++++++++
Date: Fri May 15 20:11:36 PDT 2015
User: schluterlab
Dark Spectrum Present: Yes
Reference Spectrum Present: Yes
Number of Sampled Component Spectra: 1
Spectrometers: USB2E3373
Integration Time (usec): 3000 (USB2E3373)
Spectra Averaged: 3 (USB2E3373)
Boxcar Smoothing: 0 (USB2E3373)
Correct for Electrical Dark: No (USB2E3373)
Strobe/Lamp Enabled: No (USB2E3373)
Correct for Detector Non-linearity: No (USB2E3373)
Correct for Stray Light: No (USB2E3373)
Number of Pixels in Processed Spectrum: 2048
>>>>>Begin Processed Spectral Data<<<<<
178.53	0.000
178.91	0.000
179.29	-12.500
179.67	-300.000
180.04	71.429
180.42	-75.000
180.80	100.000
181.18	266.667
181.56	150.000
181.94	50.000
182.31	100.000
182.69	0.000
183.07	33.333
183.45	-120.000
183.83	-16.667
184.20	27.273
184.58	44.444
184.96	225.000
185.34	33.333
185.72	-100.000
186.09	53.846
186.47	-700.000
186.85	16.667
187.23	22.222
187.61	-200.000
187.98	233.333
188.36	33.333
188.74	-133.333
189.12	5.882
189.49	77.778
189.87	0.000
190.25	121.429
190.63	-100.000
191.00	-33.333
191.38	10.526
191.76	350.000
192.14	-300.000
192.51	200.000
192.89	66.667
193.27	-128.571
193.65	150.000
194.02	127.273
194.40	40.000
194.78	-12.500
195.15	0.000
195.53	-50.000
195.91	200.000
196.29	200.000
196.66	76.923
197.04	71.429
197.42	88.889
197.79	-500.000
198.17	-76.923
198.55	1500.000
198.92	-366.667
199.30	-100.000
199.68	0.000
200.05	-200.000
200.43	0.000
200.81	-200.000
201.18	-33.333
201.56	900.000
201.94	-150.000
202.31	-133.333
202.69	-280.000
203.07	325.000
203.44	1000.000
203.82	0.000
204.19	71.429
204.57	-300.000
204.95	-25.000
205.32	-30.000
205.70	100.000
206.08	75.000
206.45	177.778
206.83	50.000
207.20	-100.000
207.58	-0.000
207.96	-66.667
208.33	-70.000
208.71	-50.000
209.08	-133.333
209.46	-800.000
209.84	-240.000
210.21	-100.000
210.59	85.714
210.96	-33.333
211.34	200.000
211.71	73.333
212.09	-14.286
212.46	-1000.000
212.84	0.000
213.22	120.000
213.59	350.000
213.97	46.154
214.34	18.182
214.72	0.000
215.09	150.000
215.47	38.462
215.84	-81.818
216.22	-233.333
216.59	75.000
216.97	-200.000
217.34	-200.000
217.72	-220.000
218.09	37.500
218.47	-0.000
218.84	800.000
219.22	55.556
219.59	-40.000
219.97	-33.333
220.34	100.000
220.72	28.571
221.09	-225.000
221.47	-50.000
221.84	-100.000
222.22	-700.000
222.59	90.909
222.97	50.000
223.34	66.667
223.72	-21.429
224.09	4.762
224.46	28.571
224.84	166.667
225.21	10.000
225.59	20.000
225.96	-400.000
226.34	275.000
226.71	-57.143
227.08	-33.333
227.46	50.000
227.83	-200.000
228.21	77.778
228.58	0.000
228.95	87.500
229.33	90.000
229.70	18.750
230.08	-62.500
230.45	-228.571
230.82	42.857
231.20	-86.667
231.57	107.143
231.95	0.000
232.32	-60.000
232.69	107.143
233.07	66.667
233.44	160.000
233.81	-70.000
234.19	22.222
234.56	-17.647
234.93	550.000
235.31	-75.000
235.68	-380.000
236.05	-30.769
236.43	-45.000
236.80	17.647
237.17	3.125
237.55	-20.000
237.92	-18.519
238.29	16.667
238.67	3.333
239.04	-5.882
239.41	-21.951
239.79	-30.000
240.16	14.634
240.53	-10.526
240.91	-2.174
241.28	1.587
241.65	1.786
242.02	10.959
242.40	13.333
242.77	11.864
243.14	0.000
243.51	1.250
243.89	21.839
244.26	2.299
244.63	2.381
245.00	9.278
245.38	5.155
245.75	-2.247
246.12	2.586
246.49	9.917
246.87	9.615
247.24	-8.403
247.61	-9.649
247.98	5.691
248.36	4.375
248.73	10.526
249.10	1.948
249.47	1.266
249.84	3.922
250.22	7.647
250.59	1.307
250.96	7.512
251.33	2.907
251.70	2.941
252.08	2.030
252.45	3.960
252.82	0.000
253.19	5.991
253.56	5.140
253.94	4.054
254.31	6.087
254.68	4.825
255.05	1.575
255.42	4.367
255.79	6.564
256.16	5.447
256.54	4.851
256.91	4.943
257.28	6.320
257.65	3.745
258.02	1.418
258.39	8.081
258.76	5.495
259.14	5.648
259.51	4.207
259.88	6.873
260.25	8.824
260.62	12.153
260.99	1.017
261.36	3.425
261.73	2.532
262.10	4.559
262.47	5.215
262.85	5.643
263.22	3.385
263.59	6.854
263.96	5.901
264.33	6.667
264.70	5.060
265.07	1.786
265.44	9.632
265.81	3.390
266.18	5.191
266.55	7.198
266.92	5.959
267.29	4.961
267.66	4.348
268.03	3.927
268.40	3.655
268.77	4.813
269.14	3.597
269.51	6.941
269.88	4.239
270.25	3.571
270.62	2.195
270.99	3.581
271.36	3.912
271.73	4.695
272.10	2.676
272.47	6.619
272.84	5.198
273.21	5.800
273.58	6.265
273.95	4.805
274.32	4.388
274.69	3.394
275.06	6.250
275.43	4.082
275.80	4.857
276.17	3.448
276.54	6.852
276.91	4.167
277.28	3.712
277.65	4.339
278.02	5.745
278.39	4.595
278.76	3.774
279.13	2.697
279.50	4.622
279.87	3.024
280.23	3.226
280.60	6.238
280.97	5.253
281.34	2.885
281.71	6.776
282.08	4.908
282.45	4.697
282.82	2.317
283.19	4.642
283.56	5.010
283.92	2.467
284.29	5.577
284.66	4.457
285.03	2.554
285.40	6.805
285.77	2.460
286.14	4.332
286.51	3.690
286.87	4.205
287.24	2.947
287.61	4.056
287.98	5.263
288.35	3.813
288.72	5.254
289.08	3.646
289.45	4.218
289.82	3.846
290.19	2.730
290.56	3.431
290.93	5.892
291.29	2.003
291.66	4.882
292.03	3.349
292.40	3.871
292.77	4.625
293.13	3.571
293.50	1.517
293.87	3.359
294.24	4.173
294.60	4.620
294.97	5.655
295.34	2.914
295.71	3.726
296.08	4.484
296.44	1.565
296.81	3.889
297.18	3.043
297.55	5.285
297.91	4.247
298.28	5.013
298.65	3.528
299.02	4.313
299.38	3.146
299.75	2.207
300.12	2.225
300.48	4.348
300.85	4.436
301.22	2.857
301.59	2.632
301.95	4.684
302.32	4.150
302.69	3.607
303.05	2.723
303.42	3.985
303.79	3.154
304.15	4.421
304.52	1.784
304.89	3.158
305.25	3.269
305.62	1.400
305.99	3.509
306.35	3.006
306.72	1.687
307.09	3.763
307.45	3.559
307.82	3.241
308.19	3.484
308.55	3.926
308.92	4.248
309.29	3.128
309.65	3.229
310.02	4.180
310.38	2.634
310.75	4.372
311.12	3.552
311.48	3.499
311.85	2.513
312.22	3.376
312.58	2.229
312.95	1.601
313.31	2.277
313.68	2.304
314.05	3.367
314.41	3.608
314.78	2.784
315.14	3.186
315.51	4.037
315.87	2.869
316.24	5.258
316.61	2.854
316.97	3.472
317.34	2.734
317.70	2.581
318.07	3.077
318.43	4.020
318.80	3.693
319.16	2.637
319.53	3.229
319.89	3.445
320.26	3.239
320.62	4.313
320.99	3.236
321.35	3.494
321.72	4.258
322.08	3.525
322.45	3.249
322.81	3.831
323.18	2.944
323.54	3.764
323.91	3.116
324.27	3.711
324.64	3.558
325.00	4.197
325.37	4.224
325.73	3.173
326.10	3.906
326.46	4.305
326.83	3.937
327.19	3.749
327.56	4.083
327.92	3.785
328.29	3.393
328.65	3.491
329.01	4.596
329.38	3.871
329.74	3.211
330.11	4.171
330.47	3.618
330.84	3.365
331.20	4.278
331.56	4.444
331.93	4.840
332.29	4.400
332.66	4.253
333.02	4.554
333.38	3.300
333.75	3.755
334.11	3.312
334.48	4.170
334.84	4.853
335.20	4.300
335.57	3.808
335.93	4.336
336.29	3.499
336.66	3.361
337.02	2.788
337.38	3.796
337.75	4.455
338.11	5.500
338.47	3.923
338.84	4.251
339.20	4.845
339.56	4.679
339.93	4.834
340.29	4.771
340.65	5.197
341.02	3.635
341.38	3.717
341.74	3.092
342.11	3.726
342.47	3.737
342.83	3.460
343.20	3.659
343.56	3.478
343.92	4.694
344.28	4.953
344.65	3.713
345.01	4.235
345.37	4.037
345.73	4.184
346.10	3.883
346.46	3.953
346.82	4.337
347.19	3.741
347.55	4.678
347.91	3.883
348.27	4.931
348.63	4.514
349.00	2.953
349.36	3.325
349.72	3.897
350.08	3.770
350.45	4.629
350.81	3.322
351.17	3.502
351.53	4.245
351.89	3.386
352.26	4.240
352.62	4.516
352.98	4.177
353.34	2.899
353.70	4.369
354.07	3.871
354.43	4.484
354.79	2.725
355.15	5.476
355.51	5.459
355.87	4.288
356.24	2.773
356.60	4.285
356.96	4.286
357.32	3.834
357.68	4.691
358.04	4.362
358.40	3.778
358.77	4.545
359.13	3.042
359.49	4.391
359.85	4.368
360.21	2.632
360.57	4.208
360.93	4.312
361.29	3.701
361.66	4.075
362.02	5.152
362.38	4.646
362.74	3.936
363.10	4.138
363.46	4.299
363.82	4.733
364.18	4.428
364.54	3.897
364.90	4.301
365.26	3.712
365.62	4.672
365.98	4.619
366.35	5.025
366.71	4.065
367.07	4.282
367.43	3.954
367.79	4.170
368.15	3.948
368.51	3.350
368.87	3.518
369.23	3.827
369.59	3.061
369.95	4.692
370.31	4.263
370.67	3.433
371.03	4.033
371.39	3.939
371.75	4.249
372.11	3.852
372.47	3.624
372.83	4.258
373.19	4.922
373.55	3.755
373.91	4.032
374.27	4.536
374.63	4.523
374.99	3.759
375.35	4.039
375.71	4.476
376.07	3.581
376.42	4.422
376.78	4.362
377.14	4.062
377.50	3.320
377.86	4.752
378.22	4.403
378.58	3.974
378.94	4.285
379.30	3.868
379.66	4.075
380.02	3.801
380.38	3.530
380.74	4.309
381.09	5.092
381.45	4.220
381.81	3.886
382.17	3.934
382.53	3.873
382.89	3.704
383.25	4.418
383.61	4.695
383.97	4.000
384.32	4.753
384.68	4.211
385.04	4.350
385.40	3.547
385.76	4.969
386.12	4.657
386.48	4.534
386.83	4.692
387.19	4.823
387.55	5.332
387.91	4.156
388.27	4.518
388.62	4.720
388.98	5.157
389.34	4.747
389.70	5.594
390.06	4.783
390.42	4.987
390.77	4.251
391.13	4.414
391.49	5.304
391.85	5.263
392.20	4.583
392.56	4.832
392.92	5.109
393.28	4.599
393.64	4.565
393.99	6.207
394.35	4.428
394.71	5.619
395.07	5.217
395.42	4.797
395.78	4.691
396.14	4.918
396.50	5.327
396.85	5.023
397.21	5.138
397.57	5.392
397.92	4.793
398.28	5.460
398.64	4.578
399.00	5.643
399.35	4.289
399.71	5.514
400.07	4.958
400.42	5.875
400.78	6.062
401.14	5.566
401.49	5.301
401.85	4.997
402.21	6.325
402.57	5.313
402.92	5.019
403.28	5.952
403.63	5.485
403.99	5.485
404.35	6.121
404.70	5.357
405.06	5.288
405.42	5.407
405.77	4.765
406.13	5.180
406.49	4.914
406.84	5.746
407.20	5.238
407.55	3.928
407.91	5.749
408.27	5.226
408.62	6.585
408.98	5.730
409.34	5.762
409.69	5.814
410.05	5.234
410.40	5.741
410.76	5.850
411.11	4.938
411.47	5.588
411.83	4.583
412.18	4.891
412.54	5.618
412.89	4.803
413.25	5.596
413.60	5.342
413.96	5.828
414.31	6.098
414.67	4.939
415.03	5.393
415.38	5.091
415.74	6.254
416.09	5.748
416.45	5.807
416.80	5.816
417.16	5.663
417.51	5.863
417.87	5.541
418.22	6.671
418.58	5.485
418.93	6.458
419.29	5.186
419.64	5.833
420.00	6.612
420.35	6.149
420.71	6.561
421.06	5.463
421.42	6.731
421.77	5.665
422.12	6.129
422.48	6.010
422.83	5.742
423.19	6.095
423.54	5.526
423.90	5.536
424.25	6.257
424.61	6.793
424.96	5.981
425.31	6.124
425.67	5.869
426.02	6.243
426.38	5.573
426.73	6.477
427.09	7.089
427.44	5.529
427.79	6.364
428.15	7.403
428.50	5.512
428.85	5.098
429.21	6.395
429.56	6.577
429.92	6.882
430.27	6.316
430.62	5.436
430.98	7.006
431.33	6.940
431.68	6.803
432.04	6.819
432.39	6.731
432.74	5.893
433.10	7.069
433.45	6.452
433.80	5.804
434.16	6.427
434.51	6.613
434.86	5.981
435.22	6.338
435.57	5.490
435.92	6.287
436.28	6.619
436.63	6.218
436.98	5.678
437.34	6.413
437.69	6.559
438.04	6.838
438.39	6.109
438.75	6.557
439.10	6.112
439.45	7.243
439.81	6.116
440.16	6.057
440.51	7.343
440.86	7.855
441.22	6.731
441.57	7.230
441.92	6.978
442.27	6.984
442.63	6.852
442.98	7.639
443.33	6.344
443.68	6.844
444.03	7.253
444.39	6.936
444.74	7.860
445.09	6.904
445.44	7.350
445.79	6.756
446.15	6.112
446.50	6.711
446.85	6.748
447.20	7.091
447.55	7.199
447.91	6.655
448.26	7.285
448.61	8.175
448.96	7.344
449.31	6.821
449.66	7.085
450.02	6.161
450.37	7.291
450.72	7.045
451.07	7.532
451.42	7.054
451.77	6.932
452.12	6.579
452.47	6.890
452.83	7.479
453.18	7.021
453.53	8.217
453.88	7.347
454.23	7.068
454.58	7.116
454.93	7.539
455.28	6.476
455.63	6.634
455.98	7.637
456.34	7.216
456.69	7.497
457.04	7.372
457.39	7.047
457.74	7.557
458.09	6.945
458.44	6.788
458.79	7.731
459.14	7.437
459.49	7.881
459.84	6.881
460.19	7.342
460.54	7.029
460.89	7.159
461.24	7.950
461.59	7.957
461.94	6.855
462.29	8.444
462.64	7.907
462.99	7.448
463.34	7.232
463.69	7.465
464.04	7.324
464.39	7.156
464.74	7.178
465.09	6.987
465.44	7.213
465.79	7.200
466.14	7.754
466.49	7.016
466.84	7.852
467.19	8.135
467.54	7.024
467.89	7.707
468.24	6.326
468.59	8.127
468.94	7.302
469.29	7.803
469.64	7.997
469.99	8.409
470.34	6.758
470.68	7.606
471.03	8.422
471.38	7.347
471.73	7.773
472.08	7.463
472.43	6.309
472.78	7.060
473.13	7.619
473.48	7.687
473.83	7.597
474.17	7.642
474.52	7.466
474.87	7.636
475.22	7.200
475.57	6.776
475.92	7.131
476.27	8.033
476.61	7.581
476.96	7.864
477.31	8.545
477.66	7.247
478.01	7.355
478.36	8.551
478.70	8.048
479.05	7.857
479.40	7.843
479.75	7.612
480.10	8.346
480.45	7.450
480.79	8.359
481.14	8.043
481.49	7.438
481.84	7.867
482.19	7.577
482.53	7.722
482.88	8.115
483.23	7.102
483.58	7.830
483.92	7.454
484.27	7.338
484.62	7.799
484.97	7.380
485.31	7.298
485.66	7.308
486.01	7.346
486.36	7.011
486.70	7.550
487.05	7.550
487.40	7.446
487.75	7.465
488.09	7.602
488.44	7.909
488.79	7.471
489.13	7.732
489.48	7.567
489.83	7.489
490.17	7.506
490.52	6.836
490.87	7.265
491.22	8.071
491.56	7.211
491.91	7.218
492.26	8.119
492.60	7.678
492.95	7.969
493.30	7.865
493.64	7.269
493.99	8.309
494.34	7.184
494.68	7.857
495.03	7.445
495.37	7.704
495.72	8.077
496.07	8.098
496.41	7.547
496.76	7.370
497.11	7.778
497.45	8.305
497.80	8.123
498.14	7.849
498.49	7.974
498.84	8.134
499.18	7.781
499.53	7.589
499.87	7.442
500.22	7.864
500.56	7.564
500.91	7.430
501.26	7.810
501.60	7.280
501.95	7.957
502.29	7.409
502.64	7.674
502.98	7.499
503.33	6.628
503.67	7.566
504.02	7.331
504.36	7.669
504.71	7.424
505.06	7.499
505.40	7.462
505.75	7.320
506.09	7.552
506.44	7.957
506.78	8.010
507.13	8.118
507.47	7.572
507.82	7.265
508.16	7.607
508.51	7.975
508.85	8.059
509.19	7.131
509.54	7.560
509.88	7.174
510.23	8.230
510.57	7.964
510.92	6.557
511.26	7.420
511.61	7.316
511.95	7.781
512.30	8.647
512.64	8.792
512.98	7.412
513.33	7.890
513.67	7.220
514.02	8.982
514.36	8.514
514.70	8.159
515.05	8.754
515.39	7.497
515.74	8.743
516.08	7.770
516.42	9.128
516.77	8.543
517.11	7.656
517.46	8.199
517.80	7.747
518.14	7.655
518.49	7.512
518.83	8.384
519.17	6.853
519.52	8.052
519.86	7.563
520.20	8.262
520.55	7.817
520.89	8.971
521.23	8.423
521.58	8.517
521.92	8.718
522.26	7.482
522.61	8.571
522.95	7.815
523.29	8.895
523.64	8.577
523.98	8.425
524.32	7.603
524.66	9.091
525.01	8.442
525.35	8.879
525.69	7.475
526.04	7.870
526.38	9.339
526.72	7.652
527.06	7.977
527.41	9.169
527.75	8.043
528.09	8.571
528.43	10.398
528.78	8.713
529.12	8.452
529.46	8.317
529.80	8.740
530.15	8.581
530.49	7.811
530.83	8.482
531.17	7.253
531.51	9.576
531.86	8.362
532.20	8.351
532.54	8.781
532.88	8.624
533.22	8.401
533.57	8.716
533.91	7.507
534.25	8.659
534.59	7.697
534.93	8.118
535.27	7.614
535.62	7.842
535.96	9.459
536.30	8.905
536.64	7.099
536.98	8.362
537.32	9.246
537.66	8.626
538.01	8.741
538.35	7.351
538.69	8.389
539.03	7.587
539.37	8.277
539.71	8.589
540.05	8.690
540.39	9.003
540.73	8.717
541.07	8.149
541.42	9.005
541.76	8.396
542.10	8.672
542.44	8.478
542.78	7.364
543.12	6.937
543.46	9.179
543.80	7.772
544.14	8.344
544.48	7.662
544.82	8.202
545.16	8.948
545.50	9.346
545.84	8.074
546.18	8.865
546.52	8.940
546.86	8.483
547.20	9.084
547.54	8.410
547.88	8.356
548.22	7.364
548.56	8.707
548.90	8.558
549.24	7.507
549.58	8.322
549.92	8.578
550.26	8.571
550.60	8.996
550.94	9.559
551.28	7.960
551.62	8.462
551.96	9.248
552.30	8.333
552.64	8.039
552.98	8.228
553.32	8.559
553.66	7.692
554.00	7.810
554.34	9.084
554.68	8.702
555.02	9.152
555.36	9.125
555.69	7.839
556.03	7.138
556.37	8.114
556.71	8.375
557.05	8.352
557.39	8.327
557.73	8.921
558.07	8.522
558.41	7.427
558.75	8.184
559.08	8.668
559.42	8.651
559.76	7.606
560.10	9.021
560.44	8.116
560.78	8.601
561.12	7.687
561.45	8.995
561.79	8.543
562.13	8.801
562.47	7.050
562.81	7.853
563.15	9.591
563.48	9.052
563.82	8.717
564.16	7.730
564.50	8.851
564.84	8.300
565.17	7.981
565.51	8.811
565.85	8.162
566.19	8.355
566.52	8.244
566.86	8.933
567.20	8.406
567.54	8.394
567.88	8.553
568.21	8.541
568.55	7.826
568.89	8.830
569.23	7.655
569.56	7.925
569.90	7.998
570.24	8.336
570.57	8.073
570.91	8.400
571.25	7.826
571.59	8.066
571.92	8.119
572.26	7.488
572.60	7.597
572.93	7.782
573.27	7.618
573.61	7.846
573.95	7.974
574.28	7.945
574.62	7.399
574.96	7.729
575.29	7.496
575.63	7.567
575.97	7.699
576.30	7.703
576.64	7.152
576.98	7.748
577.31	7.815
577.65	7.844
577.98	7.608
578.32	7.466
578.66	7.415
578.99	7.721
579.33	7.619
579.67	7.494
580.00	7.722
580.34	7.861
580.67	7.591
581.01	7.589
581.35	7.386
581.68	7.597
582.02	7.341
582.35	7.391
582.69	7.635
583.02	7.648
583.36	7.878
583.70	8.152
584.03	8.201
584.37	8.470
584.70	8.132
585.04	7.720
585.37	7.666
585.71	7.578
586.04	7.489
586.38	7.655
586.72	7.690
587.05	7.972
587.39	7.856
587.72	7.900
588.06	7.999
588.39	7.861
588.73	8.059
589.06	8.056
589.40	8.365
589.73	8.799
590.07	7.779
590.40	8.282
590.73	8.814
591.07	8.567
591.40	8.326
591.74	8.824
592.07	8.302
592.41	8.701
592.74	7.845
593.08	8.348
593.41	7.875
593.75	7.753
594.08	8.067
594.41	7.715
594.75	8.015
595.08	7.529
595.42	7.876
595.75	8.374
596.09	7.897
596.42	8.351
596.75	8.393
597.09	8.337
597.42	8.040
597.75	8.291
598.09	8.284
598.42	7.807
598.76	7.937
599.09	7.933
599.42	7.465
599.76	8.089
600.09	7.692
600.42	7.847
600.76	8.061
601.09	7.405
601.42	7.951
601.76	7.900
602.09	7.715
602.42	8.425
602.76	8.192
603.09	7.641
603.42	8.278
603.76	7.581
604.09	7.817
604.42	7.783
604.76	8.500
605.09	8.547
605.42	7.991
605.75	8.406
606.09	8.195
606.42	8.257
606.75	8.139
607.09	8.264
607.42	8.019
607.75	7.948
608.08	8.311
608.42	8.817
608.75	8.193
609.08	7.922
609.41	7.970
609.75	7.964
610.08	8.337
610.41	7.391
610.74	7.850
611.07	8.114
611.41	8.199
611.74	9.009
612.07	7.709
612.40	8.370
612.73	7.006
613.07	7.762
613.40	7.440
613.73	7.275
614.06	8.514
614.39	8.686
614.72	8.067
615.06	7.709
615.39	7.969
615.72	7.750
616.05	8.994
616.38	7.350
616.71	8.196
617.05	7.659
617.38	8.548
617.71	8.239
618.04	8.254
618.37	8.890
618.70	8.779
619.03	9.167
619.36	8.032
619.69	7.809
620.03	8.400
620.36	8.155
620.69	8.351
621.02	9.633
621.35	8.216
621.68	8.418
622.01	7.750
622.34	9.577
622.67	9.385
623.00	9.265
623.33	8.079
623.66	7.704
623.99	8.396
624.32	8.593
624.65	8.195
624.99	7.600
625.32	7.885
625.65	8.091
625.98	8.461
626.31	7.648
626.64	9.619
626.97	9.250
627.30	8.494
627.63	8.319
627.96	9.793
628.29	8.603
628.62	9.440
628.95	8.617
629.28	8.165
629.61	7.478
629.94	8.798
630.26	8.794
630.59	9.677
630.92	9.128
631.25	9.333
631.58	8.040
631.91	7.456
632.24	8.716
632.57	9.545
632.90	7.473
633.23	8.824
633.56	8.816
633.89	7.522
634.22	9.630
634.55	7.624
634.88	8.174
635.20	7.692
635.53	9.867
635.86	7.282
636.19	8.926
636.52	8.036
636.85	8.189
637.18	7.925
637.51	8.302
637.83	9.724
638.16	10.641
638.49	6.403
638.82	9.474
639.15	8.412
639.48	8.528
639.81	9.344
640.13	8.225
640.46	7.434
640.79	6.627
641.12	7.976
641.45	8.408
641.77	10.222
642.10	10.111
642.43	7.878
642.76	8.416
643.09	10.824
643.41	9.061
643.74	8.402
644.07	10.016
644.40	9.628
644.73	8.056
645.05	9.060
645.38	8.289
645.71	7.624
646.04	9.874
646.36	9.397
646.69	10.072
647.02	7.372
647.35	11.007
647.67	10.603
648.00	9.515
648.33	10.068
648.66	8.983
648.98	7.370
649.31	8.430
649.64	7.378
649.96	7.293
650.29	9.370
650.62	10.256
650.94	9.259
651.27	6.890
651.60	10.270
651.92	9.441
652.25	8.171
652.58	9.833
652.90	10.978
653.23	8.739
653.56	8.122
653.88	9.107
654.21	7.706
654.54	9.677
654.86	10.017
655.19	7.310
655.52	8.978
655.84	6.513
656.17	7.332
656.49	9.874
656.82	10.664
657.15	8.477
657.47	6.507
657.80	4.789
658.13	4.848
658.45	7.639
658.78	8.059
659.10	7.828
659.43	8.861
659.75	8.288
660.08	9.034
660.41	9.602
660.73	9.254
661.06	9.012
661.38	7.241
661.71	7.803
662.03	9.013
662.36	9.890
662.68	5.752
663.01	8.515
663.33	6.265
663.66	4.884
663.98	6.744
664.31	7.463
664.63	7.834
664.96	6.522
665.28	9.051
665.61	7.792
665.93	8.043
666.26	9.761
666.58	6.040
666.91	8.471
667.23	7.783
667.56	9.953
667.88	7.434
668.21	9.069
668.53	8.747
668.86	10.849
669.18	8.255
669.50	7.022
669.83	9.070
670.15	10.023
670.48	5.981
670.80	8.986
671.13	10.067
671.45	7.306
671.77	10.515
672.10	9.703
672.42	8.801
672.75	8.348
673.07	9.839
673.39	10.275
673.72	7.692
674.04	8.750
674.37	8.475
674.69	6.424
675.01	7.556
675.34	9.234
675.66	9.954
675.98	11.308
676.31	8.257
676.63	5.463
676.95	7.500
677.28	8.471
677.60	11.084
677.92	7.798
678.25	8.972
678.57	8.009
678.89	7.983
679.22	7.383
679.54	10.040
679.86	6.958
680.18	9.903
680.51	8.523
680.83	8.946
681.15	6.400
681.48	10.656
681.80	9.298
682.12	5.645
682.44	6.067
682.77	10.155
683.09	6.636
683.41	7.500
683.73	9.447
684.06	5.973
684.38	4.946
684.70	7.843
685.02	5.187
685.34	5.138
685.67	8.255
685.99	7.957
686.31	6.372
686.63	9.091
686.96	6.844
687.28	4.040
687.60	9.125
687.92	8.081
688.24	8.266
688.56	7.642
688.89	7.589
689.21	10.889
689.53	8.585
689.85	5.814
690.17	8.259
690.49	8.983
690.82	7.524
691.14	6.905
691.46	6.308
691.78	8.108
692.10	9.032
692.42	6.277
692.74	7.265
693.06	7.883
693.39	6.787
693.71	4.977
694.03	6.928
694.35	8.645
694.67	6.313
694.99	7.050
695.31	10.444
695.63	6.750
695.95	4.293
696.27	10.363
696.59	10.556
696.91	6.723
697.23	8.226
697.56	6.188
697.88	8.387
698.20	8.884
698.52	7.529
698.84	7.416
699.16	7.000
699.48	9.023
699.80	8.933
700.12	4.852
700.44	8.403
700.76	7.558
701.08	3.939
701.40	8.133
701.72	11.111
702.04	7.261
702.36	7.358
702.68	7.207
703.00	6.061
703.32	8.504
703.64	6.497
703.96	8.696
704.28	6.135
704.60	7.619
704.91	6.309
705.23	3.987
705.55	13.074
705.87	8.664
706.19	7.037
706.51	5.155
706.83	7.717
707.15	6.854
707.47	11.204
707.79	4.948
708.11	9.250
708.43	9.000
708.74	9.302
709.06	7.606
709.38	6.422
709.70	8.876
710.02	7.962
710.34	8.669
710.66	4.487
710.98	6.954
711.29	9.508
711.61	7.458
711.93	9.446
712.25	13.746
712.57	7.326
712.89	3.731
713.20	7.958
713.52	9.059
713.84	5.802
714.16	5.498
714.48	6.774
714.80	8.333
715.11	9.422
715.43	7.210
715.75	5.333
716.07	3.987
716.39	7.718
716.70	7.011
717.02	8.015
717.34	11.336
717.66	4.867
717.97	3.913
718.29	5.021
718.61	8.661
718.93	5.814
719.24	6.464
719.56	4.819
719.88	13.746
720.20	9.091
720.51	6.897
720.83	4.633
721.15	9.244
721.46	6.452
721.78	1.581
722.10	6.320
722.42	4.149
722.73	4.490
723.05	7.755
723.37	8.898
723.68	8.108
724.00	7.692
724.32	9.333
724.63	2.273
724.95	9.170
725.27	11.521
725.58	9.322
725.90	3.175
726.22	7.722
726.53	12.203
726.85	6.367
727.16	9.434
727.48	6.478
727.80	3.644
728.11	7.203
728.43	7.451
728.74	3.629
729.06	6.000
729.38	16.165
729.69	2.789
730.01	3.462
730.32	4.851
730.64	7.420
730.96	10.189
731.27	8.333
731.59	8.136
731.90	8.280
732.22	7.571
732.53	11.960
732.85	8.865
733.16	11.785
733.48	4.676
733.80	5.072
734.11	5.763
734.43	5.155
734.74	7.879
735.06	4.886
735.37	9.668
735.69	10.438
736.00	4.878
736.32	6.376
736.63	5.282
736.95	7.850
737.26	5.694
737.58	3.691
737.89	7.692
738.21	7.143
738.52	6.584
738.83	9.607
739.15	5.677
739.46	7.874
739.78	5.861
740.09	6.536
740.41	9.783
740.72	1.181
741.04	8.097
741.35	10.213
741.66	9.953
741.98	-1.531
742.29	7.921
742.61	8.377
742.92	-1.896
743.23	2.315
743.55	5.430
743.86	5.742
744.18	8.134
744.49	6.915
744.80	2.717
745.12	16.578
745.43	9.756
745.74	10.417
746.06	13.659
746.37	6.806
746.68	6.161
747.00	3.191
747.31	3.980
747.62	11.165
747.94	5.263
748.25	2.970
748.56	3.279
748.88	5.236
749.19	9.574
749.50	10.837
749.82	4.245
750.13	2.294
750.44	11.654
750.75	7.463
751.07	12.409
751.38	4.598
751.69	4.314
752.01	10.465
752.32	6.375
752.63	4.743
752.94	5.172
753.26	10.879
753.57	6.787
753.88	9.292
754.19	2.500
754.51	6.612
754.82	4.858
755.13	9.583
755.44	6.855
755.75	10.156
756.07	6.615
756.38	4.906
756.69	4.598
757.00	7.333
757.31	8.170
757.63	5.793
757.94	6.667
758.25	3.836
758.56	5.319
758.87	9.065
759.18	6.542
759.50	4.364
759.81	8.696
760.12	6.129
760.43	5.152
760.74	6.790
761.05	4.615
761.36	7.955
761.67	8.182
761.99	9.864
762.30	6.909
762.61	8.696
762.92	3.620
763.23	4.505
763.54	5.140
763.85	9.746
764.16	6.639
764.47	5.645
764.78	10.989
765.10	11.448
765.41	7.571
765.72	8.571
766.03	0.752
766.34	7.664
766.65	9.163
766.96	4.545
767.27	8.511
767.58	4.023
767.89	4.965
768.20	3.977
768.51	6.593
768.82	7.389
769.13	-0.461
769.44	7.725
769.75	2.283
770.06	12.931
770.37	12.019
770.68	4.061
770.99	3.620
771.30	7.843
771.61	5.882
771.92	5.603
772.23	5.911
772.54	8.065
772.85	6.173
773.16	2.809
773.47	7.190
773.78	7.843
774.09	10.778
774.39	7.333
774.70	14.013
775.01	13.793
775.32	12.857
775.63	1.653
775.94	10.687
776.25	9.449
776.56	3.333
776.87	2.885
777.18	8.547
777.48	6.034
777.79	0.870
778.10	-0.952
778.41	0.000
778.72	9.524
779.03	6.767
779.34	12.057
779.65	10.274
779.95	0.000
780.26	6.897
780.57	-1.626
780.88	10.236
781.19	0.862
781.50	12.403
781.80	0.000
782.11	4.403
782.42	0.769
782.73	5.755
783.04	6.667
783.34	5.556
783.65	-16.239
783.96	6.557
784.27	8.276
784.57	-2.439
784.88	11.719
785.19	9.000
785.50	13.000
785.81	8.621
786.11	-1.724
786.42	0.971
786.73	10.000
787.04	4.082
787.34	8.929
787.65	5.714
787.96	7.965
788.26	0.000
788.57	8.547
788.88	13.281
789.19	10.317
789.49	5.217
789.80	-7.143
790.11	-3.030
790.41	8.182
790.72	9.783
791.03	1.136
791.33	7.500
791.64	3.750
791.95	13.953
792.25	4.255
792.56	17.978
792.87	9.589
793.17	4.348
793.48	5.333
793.79	0.000
794.09	16.250
794.40	5.660
794.70	10.680
795.01	7.317
795.32	-0.855
795.62	5.714
795.93	0.000
796.23	2.830
796.54	8.333
796.85	14.706
797.15	2.817
797.46	4.167
797.76	19.697
798.07	15.116
798.37	-5.263
798.68	-12.121
798.99	3.704
799.29	0.000
799.60	13.043
799.90	16.000
800.21	8.197
800.51	10.769
800.82	8.475
801.12	15.942
801.43	11.475
801.73	22.222
802.04	0.000
802.34	7.463
802.65	-3.846
802.95	-5.357
803.26	1.923
803.56	13.725
803.87	-26.087
804.17	14.667
804.48	25.397
804.78	0.000
805.09	-8.696
805.39	-13.333
805.70	20.370
806.00	-15.789
806.30	9.859
806.61	28.571
806.91	1.389
807.22	14.474
807.52	8.000
807.83	0.000
808.13	6.944
808.43	30.882
808.74	11.940
809.04	1.695
809.35	-1.923
809.65	6.250
809.95	-56.757
810.26	2.273
810.56	2.740
810.86	9.524
811.17	-2.000
811.47	6.122
811.77	-2.632
812.08	22.727
812.38	20.755
812.69	-12.500
812.99	-3.030
813.29	47.368
813.59	-14.286
813.90	-15.909
814.20	0.000
814.50	1.923
814.81	28.302
815.11	0.000
815.41	27.119
815.72	-16.667
816.02	25.490
816.32	12.500
816.62	24.390
816.93	-8.108
817.23	0.000
817.53	8.333
817.84	2.174
818.14	9.615
818.44	-23.684
818.74	15.217
819.04	-12.500
819.35	-27.027
819.65	-32.353
819.95	16.667
820.25	-14.286
820.56	20.000
820.86	-27.586
821.16	12.500
821.46	14.894
821.76	17.500
822.07	13.953
822.37	-27.027
822.67	-15.625
822.97	14.286
823.27	-46.429
823.57	12.000
823.88	-3.704
824.18	3.571
824.48	-11.765
824.78	16.129
825.08	8.696
825.38	6.061
825.69	-50.000
825.99	-2.632
826.29	-11.111
826.59	-6.667
826.89	-52.381
827.19	13.043
827.49	-2.500
827.79	5.714
828.09	7.143
828.39	9.091
828.70	27.027
829.00	-14.286
829.30	-9.524
829.60	3.333
829.90	6.250
830.20	-2.632
830.50	3.704
830.80	47.826
831.10	-22.727
831.40	6.061
831.70	22.581
832.00	19.048
832.30	-42.857
832.60	66.667
832.90	55.172
833.20	5.000
833.50	15.152
833.80	-7.407
834.10	26.923
834.40	9.375
834.70	-133.333
835.00	-21.053
835.30	50.000
835.60	80.000
835.90	9.677
836.20	9.091
836.50	42.857
836.80	-19.231
837.10	10.714
837.40	-266.667
837.70	45.455
838.00	27.273
838.30	-21.739
838.60	0.000
838.90	-13.636
839.19	21.429
839.49	46.667
839.79	0.000
840.09	-41.667
840.39	46.429
840.69	-10.714
840.99	-23.077
841.29	-5.263
841.59	-30.000
841.88	9.091
842.18	-10.000
842.48	18.750
842.78	-13.333
843.08	-3.704
843.38	-60.000
843.68	56.522
843.97	6.667
844.27	20.000
844.57	-10.000
844.87	5.556
845.17	-33.333
845.47	-13.333
845.76	-28.571
846.06	70.588
846.36	30.000
846.66	-14.286
846.96	80.000
847.25	-87.500
847.55	-14.286
847.85	-125.000
848.15	-9.091
848.44	-333.333
848.74	40.000
849.04	3.704
849.34	54.545
849.63	-66.667
849.93	-80.000
850.23	-83.333
850.53	150.000
850.82	-23.077
851.12	66.667
851.42	60.000
851.71	3.846
852.01	-64.286
852.31	-100.000
852.61	54.545
852.90	-20.000
853.20	36.842
853.50	-25.000
853.79	21.739
854.09	12.500
854.39	-26.316
854.68	0.000
854.98	3.226
855.28	-3.846
855.57	-50.000
855.87	5.556
856.17	51.852
856.46	21.429
856.76	-26.667
857.05	33.333
857.35	8.000
857.65	11.111
857.94	-76.923
858.24	17.241
858.53	55.556
858.83	29.630
859.13	36.364
859.42	4.348
859.72	-200.000
860.01	-66.667
860.31	60.000
860.60	33.333
860.90	-366.667
861.20	-26.667
861.49	-500.000
861.79	-46.667
862.08	20.000
862.38	46.667
862.67	-80.000
862.97	-183.333
863.26	58.333
863.56	5.556
863.85	-266.667
864.15	50.000
864.44	-50.000
864.74	57.143
865.03	200.000
865.33	-100.000
865.62	200.000
865.92	-58.333
866.21	-50.000
866.51	75.000
866.80	-27.273
867.10	-150.000
867.39	75.000
867.69	0.000
867.98	-23.077
868.27	-466.667
868.57	80.000
868.86	5.556
869.16	-38.462
869.45	20.000
869.75	-1200.000
870.04	0.000
870.33	42.857
870.63	38.095
870.92	300.000
871.22	-100.000
871.51	-600.000
871.80	100.000
872.10	-0.000
>>>>>End Processed Spectral Data<<<<<
