SpectraSuite Data File
++++++++++++++++++++++++++++++++++++
Date: Fri May 15 17:11:38 PDT 2015
User: schluterlab
Dark Spectrum Present: Yes
Reference Spectrum Present: Yes
Number of Sampled Component Spectra: 1
Spectrometers: USB2E3373
Integration Time (usec): 3000 (USB2E3373)
Spectra Averaged: 3 (USB2E3373)
Boxcar Smoothing: 0 (USB2E3373)
Correct for Electrical Dark: No (USB2E3373)
Strobe/Lamp Enabled: No (USB2E3373)
Correct for Detector Non-linearity: No (USB2E3373)
Correct for Stray Light: No (USB2E3373)
Number of Pixels in Processed Spectrum: 2048
>>>>>Begin Processed Spectral Data<<<<<
178.53	0.000
178.91	0.000
179.29	25.000
179.67	0.000
180.04	-14.286
180.42	200.000
180.80	-300.000
181.18	-0.000
181.56	200.000
181.94	200.000
182.31	-100.000
182.69	-20.000
183.07	133.333
183.45	100.000
183.83	33.333
184.20	36.364
184.58	122.222
184.96	-75.000
185.34	-433.333
185.72	150.000
186.09	38.462
186.47	300.000
186.85	183.333
187.23	33.333
187.61	-1300.000
187.98	66.667
188.36	88.889
188.74	66.667
189.12	23.529
189.49	44.444
189.87	0.000
190.25	21.429
190.63	450.000
191.00	-166.667
191.38	31.579
191.76	50.000
192.14	-300.000
192.51	450.000
192.89	11.111
193.27	28.571
193.65	66.667
194.02	54.545
194.40	120.000
194.78	-112.500
195.15	-8.333
195.53	-137.500
195.91	250.000
196.29	0.000
196.66	7.692
197.04	-42.857
197.42	55.556
197.79	366.667
198.17	-23.077
198.55	900.000
198.92	-333.333
199.30	0.000
199.68	60.000
200.05	-133.333
200.43	0.000
200.81	300.000
201.18	100.000
201.56	100.000
201.94	-50.000
202.31	-133.333
202.69	-100.000
203.07	-50.000
203.44	600.000
203.82	0.000
204.19	42.857
204.57	-66.667
204.95	112.500
205.32	40.000
205.70	0.000
206.08	125.000
206.45	111.111
206.83	78.571
207.20	-100.000
207.58	400.000
207.96	66.667
208.33	-20.000
208.71	75.000
209.08	-116.667
209.46	600.000
209.84	20.000
210.21	-1000.000
210.59	0.000
210.96	66.667
211.34	-25.000
211.71	86.667
212.09	-42.857
212.46	-700.000
212.84	0.000
213.22	120.000
213.59	-0.000
213.97	84.615
214.34	190.909
214.72	0.000
215.09	175.000
215.47	23.077
215.84	-18.182
216.22	33.333
216.59	-75.000
216.97	-50.000
217.34	-50.000
217.72	160.000
218.09	137.500
218.47	200.000
218.84	-900.000
219.22	-11.111
219.59	-20.000
219.97	300.000
220.34	175.000
220.72	28.571
221.09	75.000
221.47	0.000
221.84	-700.000
222.22	-350.000
222.59	145.455
222.97	91.667
223.34	-66.667
223.72	0.000
224.09	23.810
224.46	53.571
224.84	266.667
225.21	-40.000
225.59	20.000
225.96	-50.000
226.34	100.000
226.71	-114.286
227.08	-66.667
227.46	-37.500
227.83	-250.000
228.21	33.333
228.58	36.364
228.95	87.500
229.33	80.000
229.70	-37.500
230.08	-25.000
230.45	-157.143
230.82	-57.143
231.20	126.667
231.57	107.143
231.95	-14.286
232.32	-80.000
232.69	71.429
233.07	33.333
233.44	-100.000
233.81	20.000
234.19	111.111
234.56	0.000
234.93	250.000
235.31	225.000
235.68	0.000
236.05	-69.231
236.43	35.000
236.80	58.824
237.17	12.500
237.55	25.000
237.92	18.519
238.29	30.556
238.67	13.333
239.04	0.000
239.41	-12.195
239.79	-10.000
240.16	24.390
240.53	-13.158
240.91	-8.696
241.28	11.111
241.65	28.571
242.02	32.877
242.40	8.333
242.77	0.000
243.14	15.152
243.51	8.750
243.89	17.241
244.26	1.149
244.63	3.571
245.00	4.124
245.38	10.309
245.75	-3.371
246.12	0.862
246.49	7.438
246.87	3.846
247.24	-5.882
247.61	-5.263
247.98	4.065
248.36	1.250
248.73	3.947
249.10	0.000
249.47	10.759
249.84	2.614
250.22	-0.588
250.59	5.229
250.96	6.573
251.33	4.651
251.70	5.294
252.08	7.107
252.45	2.475
252.82	3.015
253.19	7.834
253.56	-2.336
253.94	6.306
254.31	2.609
254.68	7.895
255.05	4.331
255.42	0.000
255.79	8.108
256.16	5.447
256.54	7.463
256.91	3.422
257.28	7.435
257.65	5.993
258.02	3.901
258.39	8.418
258.76	5.128
259.14	4.319
259.51	6.796
259.88	5.155
260.25	3.595
260.62	7.292
260.99	4.746
261.36	4.110
261.73	0.949
262.10	4.559
262.47	4.601
262.85	4.702
263.22	6.154
263.59	8.411
263.96	2.795
264.33	2.121
264.70	3.869
265.07	4.464
265.44	4.816
265.81	0.847
266.18	4.098
266.55	4.370
266.92	5.181
267.29	5.483
267.66	2.046
268.03	2.356
268.40	5.744
268.77	5.080
269.14	6.235
269.51	4.370
269.88	2.743
270.25	3.571
270.62	3.659
270.99	2.302
271.36	4.890
271.73	5.869
272.10	3.650
272.47	5.201
272.84	3.465
273.21	4.872
273.58	5.783
273.95	4.577
274.32	4.850
274.69	2.715
275.06	7.143
275.43	2.721
275.80	3.974
276.17	3.448
276.54	4.925
276.91	3.728
277.28	4.585
277.65	5.992
278.02	5.319
278.39	2.626
278.76	7.547
279.13	2.697
279.50	5.042
279.87	5.832
280.23	1.290
280.60	6.628
280.97	2.424
281.34	2.692
281.71	8.830
282.08	3.885
282.45	1.761
282.82	3.668
283.19	2.321
283.56	4.432
283.92	2.467
284.29	3.269
284.66	2.326
285.03	2.358
285.40	3.403
285.77	1.582
286.14	2.527
286.51	5.351
286.87	2.194
287.24	3.499
287.61	2.293
287.98	5.439
288.35	1.906
288.72	3.853
289.08	3.299
289.45	2.812
289.82	3.846
290.19	4.096
290.56	3.087
290.93	4.377
291.29	3.544
291.66	3.150
292.03	2.552
292.40	4.355
292.77	2.392
293.13	1.948
293.50	2.731
293.87	3.969
294.24	4.173
294.60	3.726
294.97	4.018
295.34	2.761
295.71	2.385
296.08	2.990
296.44	2.134
296.81	2.500
297.18	3.188
297.55	5.014
297.91	3.014
298.28	4.222
298.65	2.578
299.02	3.639
299.38	2.326
299.75	2.345
300.12	2.618
300.48	2.372
300.85	4.943
301.22	2.468
301.59	2.632
301.95	4.430
302.32	3.761
302.69	3.856
303.05	1.856
303.42	2.615
303.79	3.855
304.15	3.106
304.52	0.595
304.89	2.339
305.25	3.511
305.62	2.917
305.99	1.871
306.35	2.890
306.72	1.800
307.09	2.395
307.45	3.330
307.82	3.241
308.19	3.020
308.55	2.835
308.92	3.704
309.29	1.788
309.65	1.615
310.02	2.970
310.38	2.195
310.75	2.623
311.12	2.691
311.48	3.287
311.85	2.932
312.22	2.743
312.58	3.715
312.95	1.814
313.31	2.174
313.68	1.780
314.05	1.939
314.41	4.433
314.78	2.474
315.14	3.392
315.51	3.830
315.87	3.893
316.24	4.044
316.61	4.035
316.97	5.060
317.34	4.297
317.70	4.111
318.07	3.846
318.43	4.020
318.80	3.977
319.16	4.199
319.53	5.983
319.89	4.035
320.26	5.466
320.62	5.817
320.99	5.219
321.35	5.961
321.72	7.061
322.08	6.546
322.45	5.990
322.81	7.171
323.18	7.262
323.54	7.143
323.91	7.887
324.27	7.813
324.64	9.738
325.00	10.128
325.37	10.927
325.73	8.613
326.10	10.082
326.46	11.031
326.83	11.199
327.19	11.944
327.56	12.858
327.92	13.820
328.29	13.750
328.65	13.113
329.01	14.430
329.38	14.654
329.74	14.353
330.11	16.219
330.47	15.121
330.84	15.481
331.20	17.205
331.56	16.296
331.93	17.169
332.29	17.507
332.66	16.833
333.02	18.123
333.38	17.140
333.75	19.872
334.11	17.099
334.48	18.404
334.84	19.872
335.20	19.305
335.57	19.946
335.93	20.235
336.29	19.797
336.66	20.345
337.02	20.725
337.38	19.630
337.75	21.091
338.11	21.641
338.47	20.712
338.84	22.551
339.20	21.481
339.56	20.917
339.93	21.397
340.29	22.110
340.65	21.505
341.02	21.720
341.38	20.708
341.74	21.466
342.11	21.924
342.47	22.331
342.83	22.578
343.20	22.735
343.56	21.913
343.92	22.409
344.28	23.228
344.65	21.416
345.01	21.867
345.37	21.699
345.73	21.841
346.10	22.951
346.46	21.531
346.82	21.768
347.19	21.862
347.55	22.473
347.91	22.330
348.27	21.261
348.63	21.806
349.00	21.329
349.36	22.195
349.72	23.134
350.08	22.377
350.45	22.506
350.81	21.678
351.17	22.801
351.53	22.612
351.89	21.965
352.26	21.280
352.62	22.984
352.98	21.606
353.34	21.498
353.70	22.735
354.07	23.065
354.43	22.258
354.79	22.130
355.15	23.254
355.51	23.497
355.87	24.353
356.24	23.002
356.60	22.150
356.96	24.206
357.32	23.562
357.68	23.065
358.04	22.698
358.40	23.553
358.77	23.365
359.13	23.139
359.49	22.111
359.85	23.401
360.21	24.163
360.57	23.489
360.93	22.769
361.29	22.734
361.66	23.746
362.02	23.409
362.38	23.686
362.74	24.603
363.10	23.777
363.46	24.463
363.82	25.845
364.18	23.911
364.54	23.971
364.90	25.448
365.26	25.036
365.62	25.693
365.98	25.073
366.35	25.346
366.71	25.277
367.07	25.689
367.43	25.090
367.79	25.159
368.15	26.131
368.51	25.055
368.87	24.408
369.23	25.271
369.59	25.583
369.95	26.613
370.31	25.939
370.67	25.597
371.03	25.541
371.39	25.748
371.75	25.788
372.11	26.248
372.47	26.331
372.83	28.531
373.19	26.177
373.55	26.354
373.91	26.710
374.27	27.286
374.63	28.069
374.99	26.809
375.35	28.064
375.71	27.063
376.07	26.826
376.42	27.143
376.78	27.584
377.14	27.624
377.50	28.420
377.86	28.715
378.22	27.696
378.58	28.526
378.94	27.536
379.30	28.322
379.66	29.530
380.02	28.387
380.38	28.850
380.74	29.324
381.09	30.245
381.45	29.235
381.81	29.796
382.17	29.378
382.53	29.856
382.89	29.944
383.25	31.238
383.61	30.610
383.97	29.905
384.32	30.832
384.68	31.022
385.04	30.821
385.40	29.247
385.76	31.635
386.12	31.501
386.48	31.545
386.83	30.755
387.19	30.403
387.55	32.058
387.91	32.274
388.27	30.891
388.62	32.347
388.98	31.737
389.34	31.730
389.70	33.561
390.06	31.026
390.42	32.642
390.77	32.112
391.13	31.652
391.49	30.789
391.85	33.723
392.20	32.392
392.56	32.422
392.92	33.529
393.28	33.726
393.64	32.973
393.99	34.169
394.35	32.701
394.71	32.822
395.07	34.507
395.42	32.848
395.78	33.029
396.14	33.228
396.50	35.637
396.85	33.741
397.21	33.459
397.57	33.103
397.92	33.972
398.28	33.563
398.64	31.928
399.00	33.634
399.35	33.014
399.71	33.946
400.07	34.764
400.42	33.354
400.78	34.109
401.14	33.394
401.49	34.366
401.85	32.968
402.21	34.036
402.57	33.750
402.92	33.689
403.28	35.088
403.63	35.309
403.99	35.077
404.35	35.353
404.70	34.762
405.06	33.431
405.42	33.561
405.77	34.224
406.13	33.760
406.49	34.044
406.84	34.658
407.20	34.317
407.55	34.256
407.91	34.024
408.27	33.525
408.62	34.338
408.98	34.073
409.34	34.325
409.69	34.302
410.05	34.298
410.40	35.000
410.76	34.318
411.11	34.438
411.47	34.057
411.83	33.836
412.18	34.234
412.54	34.270
412.89	33.559
413.25	34.958
413.60	34.534
413.96	32.761
414.31	34.024
414.67	33.162
415.03	33.822
415.38	33.420
415.74	34.593
416.09	34.553
416.45	35.179
416.80	34.038
417.16	35.014
417.51	34.910
417.87	34.550
418.22	34.974
418.58	34.983
418.93	35.298
419.29	33.035
419.64	34.349
420.00	35.390
420.35	35.104
420.71	36.452
421.06	35.605
421.42	35.517
421.77	36.532
422.12	34.904
422.48	35.734
422.83	34.107
423.19	35.158
423.54	36.273
423.90	35.866
424.25	35.763
424.61	35.802
424.96	35.424
425.31	35.471
425.67	36.796
426.02	36.985
426.38	36.255
426.73	37.893
427.09	37.595
427.44	37.000
427.79	35.887
428.15	37.015
428.50	38.219
428.85	36.732
429.21	37.465
429.56	38.113
429.92	37.083
430.27	36.541
430.62	36.383
430.98	36.783
431.33	37.382
431.68	37.101
432.04	38.010
432.39	37.136
432.74	37.583
433.10	37.586
433.45	38.292
433.80	37.086
434.16	37.895
434.51	38.118
434.86	37.747
435.22	38.026
435.57	37.742
435.92	39.162
436.28	38.581
436.63	38.334
436.98	38.007
437.34	38.173
437.69	39.595
438.04	38.234
438.39	38.241
438.75	38.859
439.10	37.691
439.45	40.049
439.81	39.144
440.16	40.796
440.51	40.836
440.86	40.000
441.22	38.914
441.57	40.232
441.92	40.399
442.27	40.798
442.63	41.167
442.98	41.413
443.33	40.512
443.68	39.894
444.03	41.033
444.39	39.547
444.74	40.858
445.09	41.258
445.44	41.140
445.79	41.671
446.15	40.198
446.50	40.654
446.85	42.189
447.20	40.563
447.55	41.350
447.91	41.737
448.26	41.662
448.61	40.990
448.96	42.283
449.31	40.983
449.66	40.941
450.02	41.472
450.37	42.205
450.72	41.237
451.07	42.975
451.42	40.325
451.77	41.471
452.12	41.627
452.47	42.498
452.83	41.166
453.18	42.188
453.53	41.024
453.88	42.380
454.23	41.672
454.58	43.136
454.93	43.235
455.28	41.016
455.63	42.963
455.98	42.995
456.34	42.784
456.69	43.964
457.04	42.470
457.39	41.859
457.74	43.349
458.09	41.730
458.44	41.896
458.79	41.513
459.14	42.677
459.49	43.701
459.84	43.091
460.19	43.022
460.54	44.071
460.89	43.011
461.24	42.671
461.59	43.587
461.94	42.516
462.29	43.788
462.64	43.189
462.99	42.654
463.34	41.725
463.69	43.436
464.04	43.341
464.39	42.389
464.74	43.374
465.09	44.417
465.44	42.585
465.79	42.630
466.14	42.645
466.49	41.633
466.84	42.772
467.19	42.678
467.54	42.146
467.89	43.462
468.24	41.788
468.59	44.635
468.94	41.333
469.29	44.328
469.64	42.994
469.99	42.887
470.34	42.730
470.68	43.550
471.03	42.321
471.38	43.153
471.73	42.367
472.08	42.266
472.43	42.819
472.78	42.221
473.13	43.061
473.48	43.127
473.83	43.026
474.17	43.394
474.52	43.331
474.87	43.818
475.22	43.563
475.57	43.139
475.92	44.871
476.27	43.772
476.61	44.734
476.96	43.112
477.31	43.862
477.66	43.371
478.01	43.066
478.36	42.484
478.70	44.535
479.05	43.187
479.40	43.826
479.75	42.544
480.10	44.291
480.45	44.150
480.79	44.260
481.14	44.570
481.49	43.300
481.84	43.629
482.19	43.358
482.53	44.269
482.88	43.103
483.23	43.090
483.58	43.302
483.92	44.240
484.27	42.753
484.62	43.882
484.97	42.869
485.31	42.955
485.66	43.122
486.01	44.038
486.36	43.766
486.70	42.901
487.05	43.176
487.40	42.787
487.75	42.225
488.09	42.707
488.44	42.263
488.79	42.884
489.13	43.670
489.48	43.138
489.83	43.004
490.17	43.011
490.52	43.418
490.87	42.573
491.22	44.222
491.56	43.359
491.91	43.499
492.26	43.316
492.60	43.234
492.95	44.811
493.30	44.455
493.64	44.646
493.99	44.348
494.34	43.883
494.68	43.857
495.03	42.628
495.37	44.014
495.72	44.018
496.07	44.000
496.41	43.821
496.76	43.851
497.11	43.223
497.45	44.153
497.80	44.097
498.14	42.971
498.49	43.220
498.84	43.363
499.18	44.428
499.53	44.097
499.87	43.385
500.22	42.532
500.56	44.175
500.91	43.173
501.26	43.253
501.60	44.024
501.95	43.862
502.29	43.196
502.64	44.643
502.98	44.105
503.33	42.891
503.67	43.807
504.02	43.695
504.36	45.077
504.71	43.788
505.06	43.583
505.40	43.706
505.75	44.691
506.09	43.994
506.44	44.559
506.78	44.286
507.13	44.157
507.47	43.551
507.82	44.658
508.16	43.529
508.51	43.652
508.85	43.747
509.19	44.811
509.54	44.343
509.88	43.635
510.23	43.088
510.57	44.575
510.92	43.017
511.26	43.808
511.61	46.040
511.95	44.767
512.30	44.900
512.64	44.018
512.98	44.076
513.33	44.488
513.67	44.343
514.02	45.538
514.36	45.486
514.70	45.338
515.05	44.888
515.39	44.156
515.74	44.731
516.08	44.172
516.42	45.289
516.77	44.939
517.11	44.866
517.46	45.661
517.80	44.696
518.14	44.642
518.49	44.471
518.83	44.957
519.17	43.966
519.52	44.879
519.86	43.878
520.20	45.140
520.55	44.403
520.89	45.985
521.23	44.649
521.58	46.120
521.92	45.641
522.26	45.413
522.61	43.766
522.95	46.954
523.29	46.696
523.64	44.091
523.98	46.014
524.32	44.201
524.66	45.711
525.01	45.260
525.35	45.755
525.69	45.051
526.04	45.569
526.38	46.368
526.72	44.212
527.06	44.617
527.41	45.844
527.75	45.576
528.09	44.385
528.43	46.725
528.78	45.083
529.12	44.710
529.46	45.614
529.80	44.775
530.15	46.139
530.49	45.185
530.83	46.306
531.17	44.795
531.51	46.785
531.86	45.955
532.20	45.303
532.54	44.792
532.88	45.311
533.22	45.833
533.57	44.954
533.91	45.692
534.25	46.354
534.59	44.772
534.93	45.123
535.27	45.178
535.62	44.524
535.96	45.662
536.30	46.372
536.64	45.762
536.98	46.202
537.32	47.511
537.66	45.442
538.01	46.084
538.35	45.423
538.69	45.672
539.03	43.951
539.37	47.308
539.71	45.399
540.05	44.535
540.39	45.983
540.73	45.188
541.07	45.580
541.42	45.901
541.76	45.836
542.10	46.524
542.44	46.352
542.78	44.184
543.12	45.192
543.46	47.079
543.80	45.246
544.14	43.925
544.48	45.503
544.82	46.753
545.16	46.516
545.50	44.259
545.84	46.671
546.18	46.596
546.52	45.999
546.86	47.448
547.20	47.139
547.54	44.028
547.88	46.535
548.22	45.759
548.56	44.657
548.90	46.294
549.24	45.523
549.58	46.615
549.92	44.746
550.26	45.934
550.60	46.171
550.94	46.527
551.28	45.595
551.62	47.077
551.96	46.165
552.30	47.807
552.64	45.769
552.98	46.132
553.32	46.077
553.66	44.993
554.00	46.642
554.34	47.341
554.68	44.617
555.02	45.536
555.36	45.999
555.69	45.348
556.03	45.396
556.37	45.623
556.71	45.993
557.05	45.339
557.39	45.799
557.73	46.327
558.07	46.833
558.41	46.248
558.75	46.454
559.08	46.809
559.42	46.587
559.76	46.597
560.10	44.954
560.44	46.835
560.78	46.573
561.12	47.179
561.45	47.365
561.79	46.078
562.13	45.422
562.47	46.043
562.81	46.542
563.15	45.346
563.48	46.747
563.82	45.436
564.16	46.309
564.50	44.122
564.84	46.319
565.17	47.485
565.51	47.609
565.85	46.571
566.19	47.149
566.52	46.783
566.86	46.658
567.20	46.326
567.54	47.263
567.88	47.100
568.21	47.229
568.55	45.652
568.89	47.228
569.23	46.558
569.56	46.235
569.90	46.853
570.24	46.595
570.57	47.855
570.91	46.288
571.25	46.103
571.59	45.624
571.92	44.948
572.26	46.014
572.60	45.860
572.93	45.529
573.27	45.078
573.61	45.316
573.95	45.330
574.28	45.577
574.62	45.512
574.96	45.550
575.29	45.103
575.63	43.820
575.97	44.158
576.30	45.488
576.64	44.795
576.98	46.023
577.31	45.982
577.65	45.711
577.98	45.330
578.32	45.401
578.66	44.444
578.99	45.391
579.33	45.041
579.67	43.502
580.00	45.316
580.34	45.920
580.67	45.054
581.01	45.173
581.35	45.090
581.68	45.424
582.02	45.495
582.35	45.478
582.69	45.403
583.02	45.503
583.36	45.375
583.70	46.210
584.03	46.344
584.37	46.330
584.70	45.110
585.04	44.560
585.37	45.381
585.71	46.137
586.04	45.537
586.38	45.425
586.72	46.313
587.05	46.129
587.39	45.737
587.72	47.376
588.06	46.443
588.39	46.568
588.73	46.154
589.06	46.869
589.40	46.526
589.73	46.550
590.07	47.319
590.40	47.214
590.73	48.064
591.07	47.413
591.40	46.839
591.74	47.783
592.07	47.681
592.41	48.057
592.74	46.476
593.08	45.651
593.41	47.183
593.75	46.418
594.08	45.726
594.41	46.288
594.75	46.794
595.08	46.614
595.42	47.332
595.75	46.977
596.09	46.443
596.42	47.416
596.75	47.291
597.09	46.606
597.42	46.929
597.75	48.053
598.09	46.356
598.42	47.563
598.76	46.504
599.09	47.236
599.42	46.305
599.76	47.065
600.09	46.267
600.42	46.778
600.76	46.062
601.09	46.489
601.42	46.690
601.76	46.963
602.09	47.525
602.42	47.641
602.76	47.878
603.09	47.508
603.42	48.035
603.76	47.218
604.09	47.145
604.42	47.081
604.76	48.198
605.09	47.623
605.42	46.862
605.75	45.447
606.09	47.304
606.42	47.206
606.75	46.537
607.09	47.297
607.42	47.231
607.75	46.092
608.08	47.080
608.42	46.277
608.75	47.711
609.08	47.334
609.41	46.802
609.75	46.573
610.08	47.229
610.41	46.087
610.74	47.635
611.07	47.855
611.41	47.794
611.74	47.495
612.07	46.842
612.40	47.374
612.73	48.079
613.07	46.794
613.40	48.359
613.73	48.685
614.06	47.913
614.39	47.321
614.72	46.387
615.06	46.872
615.39	46.779
615.72	45.748
616.05	48.324
616.38	46.553
616.71	47.462
617.05	47.807
617.38	48.083
617.71	47.484
618.04	49.333
618.37	49.243
618.70	48.911
619.03	49.583
619.36	47.323
619.69	48.749
620.03	49.598
620.36	48.498
620.69	47.109
621.02	46.713
621.35	48.880
621.68	49.915
622.01	49.500
622.34	48.524
622.67	48.344
623.00	48.775
623.33	48.933
623.66	48.392
623.99	48.185
624.32	48.213
624.65	47.820
624.99	49.737
625.32	48.218
625.65	48.154
625.98	48.670
626.31	47.132
626.64	48.787
626.97	50.087
627.30	49.562
627.63	48.873
627.96	48.068
628.29	48.659
628.62	49.263
628.95	48.297
629.28	47.883
629.61	49.352
629.94	48.485
630.26	49.407
630.59	49.740
630.92	49.128
631.25	48.103
631.58	50.881
631.91	49.561
632.24	50.803
632.57	50.000
632.90	50.178
633.23	49.294
633.56	50.000
633.89	49.692
634.22	50.741
634.55	49.301
634.88	48.787
635.20	48.846
635.53	50.133
635.86	49.025
636.19	51.229
636.52	51.531
636.85	51.117
637.18	48.050
637.51	49.308
637.83	48.095
638.16	52.797
638.49	48.229
638.82	51.447
639.15	49.525
639.48	49.106
639.81	51.883
640.13	50.505
640.46	49.417
640.79	51.546
641.12	50.222
641.45	50.150
641.77	49.481
642.10	51.659
642.43	48.553
642.76	50.495
643.09	49.919
643.41	49.515
643.74	49.588
644.07	50.903
644.40	53.716
644.73	52.539
645.05	51.174
645.38	50.265
645.71	51.596
646.04	53.142
646.36	52.482
646.69	55.396
647.02	52.741
647.35	51.306
647.67	51.554
648.00	53.172
648.33	50.000
648.66	49.831
648.98	51.591
649.31	49.256
649.64	51.177
649.96	49.433
650.29	52.470
650.62	50.256
650.94	52.037
651.27	52.142
651.60	50.991
651.92	50.000
652.25	49.734
652.58	50.500
652.90	52.487
653.23	51.261
653.56	50.931
653.88	52.405
654.21	49.212
654.54	49.066
654.86	50.764
655.19	49.269
655.52	51.316
655.84	47.960
656.17	53.538
656.49	72.451
656.82	74.830
657.15	56.641
657.47	41.819
657.80	31.271
658.13	30.376
658.45	47.464
658.78	46.679
659.10	45.875
659.43	45.967
659.75	47.311
660.08	46.621
660.41	49.540
660.73	47.790
661.06	52.513
661.38	50.098
661.71	50.308
662.03	53.004
662.36	51.209
662.68	48.451
663.01	53.493
663.33	54.292
663.66	49.535
663.98	53.023
664.31	51.386
664.63	48.387
664.96	49.130
665.28	49.669
665.61	50.866
665.93	51.087
666.26	52.278
666.58	48.322
666.91	51.765
667.23	53.538
667.56	49.289
667.88	50.120
668.21	53.222
668.53	52.955
668.86	51.651
669.18	48.113
669.50	50.847
669.83	51.860
670.15	48.951
670.48	53.110
670.80	52.074
671.13	51.230
671.45	47.945
671.77	50.000
672.10	50.099
672.42	47.940
672.75	51.155
673.07	52.236
673.39	52.661
673.72	48.521
674.04	49.792
674.37	53.390
674.69	49.679
675.01	53.556
675.34	50.901
675.66	52.083
675.98	51.885
676.31	51.376
676.63	49.406
676.95	49.545
677.28	52.941
677.60	51.084
677.92	54.587
678.25	50.109
678.57	53.463
678.89	51.050
679.22	52.796
679.54	48.996
679.86	50.298
680.18	52.816
680.51	51.894
680.83	47.714
681.15	54.200
681.48	53.484
681.80	53.926
682.12	49.597
682.44	50.837
682.77	52.980
683.09	49.886
683.41	50.000
683.73	51.843
684.06	50.885
684.38	49.247
684.70	53.595
685.02	50.000
685.34	50.988
685.67	47.467
685.99	52.984
686.31	50.796
686.63	51.206
686.96	47.909
687.28	48.283
687.60	48.099
687.92	51.111
688.24	52.419
688.56	54.367
688.89	49.777
689.21	53.778
689.53	51.044
689.85	50.930
690.17	54.018
690.49	52.246
690.82	53.398
691.14	46.905
691.46	49.533
691.78	53.378
692.10	50.538
692.42	49.784
692.74	50.214
693.06	52.928
693.39	50.679
693.71	49.548
694.03	47.344
694.35	51.869
694.67	50.000
694.99	50.392
695.31	54.569
695.63	51.750
695.95	52.020
696.27	51.813
696.59	56.389
696.91	50.140
697.23	46.787
697.56	50.495
697.88	51.613
698.20	52.392
698.52	51.294
698.84	49.761
699.16	50.000
699.48	52.632
699.80	46.898
700.12	53.908
700.44	48.179
700.76	45.349
701.08	49.697
701.40	47.590
701.72	55.247
702.04	56.436
702.36	53.512
702.68	50.150
703.00	51.212
703.32	51.906
703.64	50.282
703.96	51.014
704.28	47.239
704.60	51.746
704.91	48.580
705.23	54.485
705.55	54.770
705.87	50.542
706.19	55.185
706.51	51.546
706.83	53.376
707.15	46.729
707.47	51.261
707.79	49.740
708.11	52.000
708.43	50.250
708.74	50.904
709.06	54.366
709.38	57.187
709.70	48.225
710.02	52.548
710.34	53.560
710.66	47.756
710.98	52.649
711.29	51.475
711.61	50.847
711.93	54.723
712.25	52.577
712.57	53.114
712.89	51.493
713.20	55.709
713.52	48.432
713.84	52.218
714.16	55.326
714.48	49.355
714.80	56.731
715.11	53.191
715.43	47.649
715.75	49.667
716.07	46.844
716.39	53.691
716.70	48.339
717.02	50.382
717.34	52.227
717.66	52.655
717.97	54.348
718.29	51.464
718.61	48.819
718.93	54.651
719.24	54.753
719.56	53.012
719.88	51.546
720.20	53.409
720.51	47.893
720.83	50.965
721.15	55.042
721.46	54.839
721.78	48.221
722.10	51.673
722.42	50.207
722.73	54.286
723.05	55.102
723.37	57.627
723.68	57.207
724.00	49.573
724.32	57.778
724.63	52.727
724.95	51.092
725.27	51.613
725.58	49.576
725.90	47.222
726.22	51.351
726.53	47.797
726.85	50.187
727.16	55.849
727.48	52.632
727.80	52.632
728.11	50.424
728.43	57.255
728.74	47.177
729.06	52.400
729.38	56.391
729.69	50.996
730.01	50.000
730.32	50.000
730.64	49.117
730.96	59.245
731.27	47.667
731.59	55.932
731.90	50.637
732.22	55.521
732.53	50.498
732.85	58.865
733.16	53.535
733.48	51.799
733.80	50.362
734.11	48.814
734.43	50.859
734.74	52.424
735.06	50.163
735.37	54.381
735.69	54.882
736.00	53.310
736.32	50.671
736.63	54.577
736.95	50.512
737.26	52.313
737.58	47.315
737.89	53.114
738.21	48.120
738.52	53.909
738.83	49.782
739.15	51.965
739.46	53.543
739.78	49.451
740.09	50.000
740.41	50.000
740.72	51.575
741.04	53.036
741.35	46.809
741.66	54.502
741.98	53.571
742.29	47.525
742.61	52.356
742.92	42.180
743.23	47.685
743.55	52.036
743.86	53.110
744.18	50.718
744.49	57.447
744.80	55.435
745.12	54.545
745.43	49.756
745.74	55.208
746.06	55.610
746.37	54.450
746.68	53.081
747.00	49.468
747.31	58.706
747.62	51.942
747.94	57.895
748.25	54.455
748.56	53.552
748.88	56.545
749.19	51.596
749.50	54.187
749.82	52.358
750.13	49.083
750.44	55.639
750.75	52.985
751.07	52.920
751.38	51.341
751.69	54.510
752.01	52.713
752.32	51.394
752.63	52.964
752.94	52.155
753.26	58.159
753.57	55.204
753.88	54.867
754.19	53.750
754.51	48.760
754.82	52.227
755.13	57.083
755.44	49.194
755.75	50.391
756.07	50.195
756.38	47.925
756.69	49.425
757.00	50.667
757.31	50.000
757.63	46.341
757.94	50.833
758.25	49.863
758.56	45.213
758.87	45.892
759.18	49.844
759.50	49.455
759.81	55.853
760.12	51.290
760.43	49.394
760.74	54.630
761.05	51.385
761.36	51.420
761.67	52.424
761.99	47.279
762.30	46.545
762.61	48.617
762.92	48.416
763.23	46.396
763.54	47.664
763.85	51.271
764.16	47.718
764.47	52.419
764.78	46.154
765.10	52.862
765.41	45.741
765.72	48.571
766.03	47.368
766.34	50.730
766.65	54.582
766.96	56.061
767.27	49.468
767.58	47.126
767.89	63.830
768.20	56.250
768.51	53.846
768.82	47.783
769.13	44.700
769.44	46.352
769.75	48.402
770.06	46.121
770.37	53.846
770.68	51.269
770.99	43.891
771.30	57.353
771.61	52.489
771.92	53.879
772.23	54.187
772.54	48.925
772.85	62.346
773.16	50.000
773.47	57.516
773.78	64.052
774.09	43.713
774.39	55.333
774.70	42.675
775.01	62.069
775.32	57.143
775.63	57.025
775.94	51.908
776.25	55.118
776.56	53.333
776.87	54.808
777.18	51.282
777.48	44.828
777.79	54.783
778.10	50.476
778.41	53.153
778.72	50.000
779.03	51.128
779.34	53.191
779.65	48.630
779.95	49.315
780.26	51.034
780.57	44.715
780.88	51.181
781.19	53.448
781.50	63.566
781.80	46.746
782.11	50.943
782.42	62.308
782.73	48.201
783.04	54.074
783.34	43.750
783.65	51.282
783.96	56.557
784.27	51.724
784.57	47.967
784.88	51.562
785.19	40.000
785.50	48.000
785.81	50.862
786.11	48.276
786.42	45.631
786.73	55.455
787.04	45.918
787.34	53.571
787.65	50.476
787.96	48.673
788.26	65.455
788.57	50.427
788.88	60.156
789.19	44.444
789.49	46.957
789.80	53.061
790.11	44.444
790.41	37.273
790.72	58.696
791.03	43.182
791.33	55.000
791.64	61.250
791.95	54.651
792.25	44.681
792.56	51.685
792.87	53.425
793.17	30.435
793.48	44.000
793.79	58.750
794.09	61.250
794.40	49.057
794.70	49.515
795.01	43.902
795.32	47.009
795.62	46.667
795.93	50.980
796.23	55.660
796.54	53.125
796.85	73.529
797.15	50.704
797.46	50.000
797.76	45.455
798.07	37.209
798.37	47.368
798.68	50.000
798.99	51.852
799.29	64.286
799.60	53.623
799.90	68.000
800.21	49.180
800.51	49.231
800.82	44.068
801.12	39.130
801.43	62.295
801.73	55.556
802.04	38.000
802.34	40.299
802.65	55.769
802.95	42.857
803.26	38.462
803.56	64.706
803.87	43.478
804.17	44.000
804.48	55.556
804.78	57.407
805.09	56.522
805.39	57.778
805.70	51.852
806.00	40.351
806.30	53.521
806.61	61.429
806.91	34.722
807.22	51.316
807.52	46.667
807.83	47.273
808.13	38.889
808.43	50.000
808.74	46.269
809.04	40.678
809.35	38.462
809.65	43.750
809.95	35.135
810.26	45.455
810.56	45.205
810.86	50.000
811.17	48.000
811.47	63.265
811.77	26.316
812.08	47.727
812.38	49.057
812.69	57.500
812.99	33.333
813.29	44.737
813.59	28.571
813.90	52.273
814.20	58.974
814.50	73.077
814.81	45.283
815.11	63.830
815.41	44.068
815.72	40.476
816.02	47.059
816.32	62.500
816.62	56.098
816.93	29.730
817.23	51.429
817.53	85.417
817.84	54.348
818.14	46.154
818.44	47.368
818.74	71.739
819.04	37.500
819.35	45.946
819.65	58.824
819.95	8.333
820.25	33.333
820.56	62.500
820.86	27.586
821.16	55.000
821.46	44.681
821.76	82.500
822.07	39.535
822.37	18.919
822.67	37.500
822.97	69.048
823.27	14.286
823.57	24.000
823.88	59.259
824.18	89.286
824.48	52.941
824.78	67.742
825.08	43.478
825.38	42.424
825.69	0.000
825.99	31.579
826.29	33.333
826.59	73.333
826.89	33.333
827.19	39.130
827.49	45.000
827.79	51.429
828.09	57.143
828.39	39.394
828.70	78.378
829.00	14.286
829.30	76.190
829.60	76.667
829.90	53.125
830.20	44.737
830.50	-3.704
830.80	56.522
831.10	109.091
831.40	93.939
831.70	54.839
832.00	23.810
832.30	23.810
832.60	83.333
832.90	34.483
833.20	30.000
833.50	60.606
833.80	85.185
834.10	38.462
834.40	93.750
834.70	100.000
835.00	94.737
835.30	92.308
835.60	106.667
835.90	51.613
836.20	63.636
836.50	71.429
836.80	15.385
837.10	67.857
837.40	-66.667
837.70	95.455
838.00	54.545
838.30	69.565
838.60	38.462
838.90	72.727
839.19	46.429
839.49	63.333
839.79	76.923
840.09	-41.667
840.39	82.143
840.69	46.429
840.99	80.769
841.29	21.053
841.59	-80.000
841.88	45.455
842.18	70.000
842.48	37.500
842.78	133.333
843.08	40.741
843.38	100.000
843.68	34.783
843.97	73.333
844.27	-6.667
844.57	70.000
844.87	61.111
845.17	14.286
845.47	-6.667
845.76	9.524
846.06	52.941
846.36	120.000
846.66	-21.429
846.96	93.333
847.25	-75.000
847.55	14.286
847.85	137.500
848.15	13.636
848.44	-66.667
848.74	65.000
849.04	55.556
849.34	81.818
849.63	0.000
849.93	40.000
850.23	94.444
850.53	20.000
850.82	46.154
851.12	-33.333
851.42	66.667
851.71	34.615
852.01	85.714
852.31	0.000
852.61	-9.091
852.90	40.000
853.20	84.211
853.50	66.667
853.79	82.609
854.09	87.500
854.39	42.105
854.68	54.167
854.98	38.710
855.28	46.154
855.57	75.000
855.87	0.000
856.17	81.481
856.46	57.143
856.76	-6.667
857.05	211.111
857.35	60.000
857.65	33.333
857.94	76.923
858.24	72.414
858.53	66.667
858.83	77.778
859.13	86.364
859.42	34.783
859.72	125.000
860.01	-200.000
860.31	48.000
860.60	61.905
860.90	33.333
861.20	33.333
861.49	-50.000
861.79	40.000
862.08	25.000
862.38	166.667
862.67	140.000
862.97	183.333
863.26	16.667
863.56	83.333
863.85	-100.000
864.15	44.444
864.44	70.000
864.74	135.714
865.03	-25.000
865.33	-80.000
865.62	266.667
865.92	-16.667
866.21	-66.667
866.51	118.750
866.80	-36.364
867.10	100.000
867.39	41.667
867.69	0.000
867.98	46.154
868.27	-66.667
868.57	46.667
868.86	72.222
869.16	7.692
869.45	86.667
869.75	100.000
870.04	0.000
870.33	42.857
870.63	47.619
870.92	66.667
871.22	80.000
871.51	500.000
871.80	77.778
872.10	366.667
>>>>>End Processed Spectral Data<<<<<
