SpectraSuite Data File
++++++++++++++++++++++++++++++++++++
Date: Fri May 15 17:13:48 PDT 2015
User: schluterlab
Dark Spectrum Present: Yes
Reference Spectrum Present: Yes
Number of Sampled Component Spectra: 1
Spectrometers: USB2E3373
Integration Time (usec): 3000 (USB2E3373)
Spectra Averaged: 3 (USB2E3373)
Boxcar Smoothing: 0 (USB2E3373)
Correct for Electrical Dark: No (USB2E3373)
Strobe/Lamp Enabled: No (USB2E3373)
Correct for Detector Non-linearity: No (USB2E3373)
Correct for Stray Light: No (USB2E3373)
Number of Pixels in Processed Spectrum: 2048
>>>>>Begin Processed Spectral Data<<<<<
178.53	0.000
178.91	0.000
179.29	-87.500
179.67	100.000
180.04	-0.000
180.42	300.000
180.80	500.000
181.18	-233.333
181.56	-300.000
181.94	-200.000
182.31	-200.000
182.69	-20.000
183.07	266.667
183.45	60.000
183.83	133.333
184.20	9.091
184.58	122.222
184.96	-200.000
185.34	33.333
185.72	-150.000
186.09	84.615
186.47	-400.000
186.85	-33.333
187.23	77.778
187.61	-100.000
187.98	100.000
188.36	166.667
188.74	300.000
189.12	47.059
189.49	22.222
189.87	0.000
190.25	100.000
190.63	250.000
191.00	66.667
191.38	63.158
191.76	300.000
192.14	-175.000
192.51	-50.000
192.89	122.222
193.27	28.571
193.65	133.333
194.02	109.091
194.40	90.000
194.78	-150.000
195.15	108.333
195.53	-50.000
195.91	150.000
196.29	-125.000
196.66	46.154
197.04	157.143
197.42	-55.556
197.79	-133.333
198.17	-15.385
198.55	100.000
198.92	100.000
199.30	-400.000
199.68	-120.000
200.05	-166.667
200.43	0.000
200.81	233.333
201.18	-100.000
201.56	300.000
201.94	-300.000
202.31	-166.667
202.69	-100.000
203.07	-125.000
203.44	-200.000
203.82	0.000
204.19	28.571
204.57	-166.667
204.95	200.000
205.32	10.000
205.70	171.429
206.08	75.000
206.45	155.556
206.83	157.143
207.20	-28.571
207.58	-600.000
207.96	100.000
208.33	-90.000
208.71	25.000
209.08	-66.667
209.46	400.000
209.84	-80.000
210.21	-100.000
210.59	0.000
210.96	33.333
211.34	75.000
211.71	66.667
212.09	0.000
212.46	-500.000
212.84	0.000
213.22	110.000
213.59	300.000
213.97	38.462
214.34	118.182
214.72	33.333
215.09	400.000
215.47	7.692
215.84	36.364
216.22	0.000
216.59	-37.500
216.97	500.000
217.34	-75.000
217.72	0.000
218.09	62.500
218.47	50.000
218.84	100.000
219.22	-55.556
219.59	160.000
219.97	-0.000
220.34	50.000
220.72	-28.571
221.09	-25.000
221.47	250.000
221.84	-600.000
222.22	-400.000
222.59	90.909
222.97	-16.667
223.34	233.333
223.72	-7.143
224.09	14.286
224.46	42.857
224.84	166.667
225.21	160.000
225.59	73.333
225.96	-200.000
226.34	250.000
226.71	100.000
227.08	-16.667
227.46	12.500
227.83	150.000
228.21	22.222
228.58	154.545
228.95	-50.000
229.33	-60.000
229.70	68.750
230.08	-87.500
230.45	28.571
230.82	0.000
231.20	0.000
231.57	50.000
231.95	128.571
232.32	-10.000
232.69	78.571
233.07	233.333
233.44	20.000
233.81	-10.000
234.19	122.222
234.56	5.882
234.93	-0.000
235.31	150.000
235.68	-100.000
236.05	-61.538
236.43	25.000
236.80	11.765
237.17	18.750
237.55	-5.000
237.92	-37.037
238.29	22.222
238.67	30.000
239.04	32.353
239.41	-21.951
239.79	-13.333
240.16	29.268
240.53	5.263
240.91	13.043
241.28	23.810
241.65	25.000
242.02	34.247
242.40	13.333
242.77	6.780
243.14	6.061
243.51	18.750
243.89	27.586
244.26	4.598
244.63	15.476
245.00	12.371
245.38	13.402
245.75	8.989
246.12	6.034
246.49	18.182
246.87	10.577
247.24	10.084
247.61	9.649
247.98	14.634
248.36	11.875
248.73	9.211
249.10	12.987
249.47	8.228
249.84	7.190
250.22	8.824
250.59	14.379
250.96	18.779
251.33	10.465
251.70	6.471
252.08	14.213
252.45	7.921
252.82	13.065
253.19	12.903
253.56	13.084
253.94	16.667
254.31	15.652
254.68	12.281
255.05	8.661
255.42	7.860
255.79	13.900
256.16	10.895
256.54	14.552
256.91	13.688
257.28	14.870
257.65	8.989
258.02	10.284
258.39	15.488
258.76	14.652
259.14	12.625
259.51	11.974
259.88	13.058
260.25	8.170
260.62	15.278
260.99	9.492
261.36	8.904
261.73	12.975
262.10	11.246
262.47	15.951
262.85	12.853
263.22	10.154
263.59	15.888
263.96	14.907
264.33	14.848
264.70	12.500
265.07	13.988
265.44	13.314
265.81	12.429
266.18	13.115
266.55	13.625
266.92	13.990
267.29	13.577
267.66	13.043
268.03	14.136
268.40	14.360
268.77	13.636
269.14	12.950
269.51	13.625
269.88	11.970
270.25	11.480
270.62	10.976
270.99	12.788
271.36	10.269
271.73	13.146
272.10	13.869
272.47	10.638
272.84	10.891
273.21	15.313
273.58	13.012
273.95	11.670
274.32	10.855
274.69	6.561
275.06	10.714
275.43	12.018
275.80	8.830
276.17	10.805
276.54	10.707
276.91	11.623
277.28	9.170
277.65	10.744
278.02	12.553
278.39	10.941
278.76	9.224
279.13	7.884
279.50	12.605
279.87	12.959
280.23	9.247
280.60	13.840
280.97	12.323
281.34	10.962
281.71	13.758
282.08	13.292
282.45	11.937
282.82	11.390
283.19	12.959
283.56	12.717
283.92	9.677
284.29	10.192
284.66	8.527
285.03	13.163
285.40	12.665
285.77	8.260
286.14	10.830
286.51	12.362
286.87	10.969
287.24	8.287
287.61	10.229
287.98	11.579
288.35	10.225
288.72	12.434
289.08	8.507
289.45	11.424
289.82	11.888
290.19	9.215
290.56	8.233
290.93	9.091
291.29	10.940
291.66	10.551
292.03	8.134
292.40	9.839
292.77	8.134
293.13	7.143
293.50	7.284
293.87	10.229
294.24	9.737
294.60	9.538
294.97	8.631
295.34	7.822
295.71	9.687
296.08	8.969
296.44	7.824
296.81	8.889
297.18	8.696
297.55	10.569
297.91	9.315
298.28	8.047
298.65	9.227
299.02	8.760
299.38	7.114
299.75	8.138
300.12	7.199
300.48	8.564
300.85	9.506
301.22	8.442
301.59	8.158
301.95	9.114
302.32	8.949
302.69	7.711
303.05	8.168
303.42	8.842
303.79	7.593
304.15	8.244
304.52	6.778
304.89	8.421
305.25	8.232
305.62	6.768
305.99	7.836
306.35	5.780
306.72	6.299
307.09	8.438
307.45	7.233
307.82	8.102
308.19	8.246
308.55	7.197
308.92	7.625
309.29	6.034
309.65	7.320
310.02	7.261
310.38	7.355
310.75	8.743
311.12	7.104
311.48	7.529
311.85	7.016
312.22	6.751
312.58	7.325
312.95	7.684
313.31	7.557
313.68	6.283
314.05	7.143
314.41	7.732
314.78	7.320
315.14	7.914
315.51	7.660
315.87	7.377
316.24	8.999
316.61	7.283
316.97	8.631
317.34	7.227
317.70	7.361
318.07	7.788
318.43	8.235
318.80	7.008
319.16	7.910
319.53	8.832
319.89	7.579
320.26	7.895
320.62	8.927
320.99	7.516
321.35	8.325
321.72	9.034
322.08	6.848
322.45	7.310
322.81	7.269
323.18	6.477
323.54	7.239
323.91	8.666
324.27	8.398
324.64	8.333
325.00	8.394
325.37	8.724
325.73	6.800
326.10	8.356
326.46	8.430
326.83	7.437
327.19	8.457
327.56	9.036
327.92	8.803
328.29	7.143
328.65	8.679
329.01	7.996
329.38	7.834
329.74	6.704
330.11	8.619
330.47	7.978
330.84	7.115
331.20	9.791
331.56	7.130
331.93	8.767
332.29	7.883
332.66	6.787
333.02	7.435
333.38	6.691
333.75	7.967
334.11	7.341
334.48	7.434
334.84	7.418
335.20	7.777
335.57	6.528
335.93	8.130
336.29	8.471
336.66	8.538
337.02	7.435
337.38	7.963
337.75	8.000
338.11	8.115
338.47	8.850
338.84	7.671
339.20	7.861
339.56	7.615
339.93	8.863
340.29	7.890
340.65	8.423
341.02	8.511
341.38	7.257
341.74	7.862
342.11	7.712
342.47	7.028
342.83	7.266
343.20	6.882
343.56	7.913
343.92	7.617
344.28	8.711
344.65	7.858
345.01	6.914
345.37	7.065
345.73	8.452
346.10	8.283
346.46	7.906
346.82	7.365
347.19	7.398
347.55	7.686
347.91	8.172
348.27	8.246
348.63	7.240
349.00	7.055
349.36	6.650
349.72	8.458
350.08	7.377
350.45	8.460
350.81	7.807
351.17	6.840
351.53	8.735
351.89	6.028
352.26	7.600
352.62	6.613
352.98	6.827
353.34	6.924
353.70	8.819
354.07	6.774
354.43	7.766
354.79	7.267
355.15	8.571
355.51	8.544
355.87	6.796
356.24	7.259
356.60	7.033
356.96	7.937
357.32	7.588
357.68	7.506
358.04	6.704
358.40	6.833
358.77	7.735
359.13	6.805
359.49	7.011
359.85	7.332
360.21	7.337
360.57	7.345
360.93	6.354
361.29	6.949
361.66	6.975
362.02	6.894
362.38	7.845
362.74	5.905
363.10	7.148
363.46	7.561
363.82	8.114
364.18	7.011
364.54	7.206
364.90	7.168
365.26	7.278
365.62	7.883
365.98	7.185
366.35	8.740
366.71	7.169
367.07	7.692
367.43	6.542
367.79	6.714
368.15	7.538
368.51	6.919
368.87	6.604
369.23	7.076
369.59	7.070
369.95	7.551
370.31	7.514
370.67	7.463
371.03	7.244
371.39	7.440
371.75	6.593
372.11	7.846
372.47	6.953
372.83	6.955
373.19	8.631
373.55	7.004
373.91	8.207
374.27	7.938
374.63	7.466
374.99	7.234
375.35	7.939
375.71	6.993
376.07	7.303
376.42	7.483
376.78	6.846
377.14	7.312
377.50	7.105
377.86	6.627
378.22	6.126
378.58	6.795
378.94	7.246
379.30	7.424
379.66	7.774
380.02	6.990
380.38	6.817
380.74	7.241
381.09	7.178
381.45	6.483
381.81	7.156
382.17	7.487
382.53	7.245
382.89	6.905
383.25	7.343
383.61	7.561
383.97	7.111
384.32	7.442
384.68	6.625
385.04	6.066
385.40	6.534
385.76	7.799
386.12	6.792
386.48	7.407
386.83	7.546
387.19	7.937
387.55	7.528
387.91	7.274
388.27	7.265
388.62	6.797
388.98	6.937
389.34	7.620
389.70	8.515
390.06	7.111
390.42	7.124
390.77	7.390
391.13	6.747
391.49	6.856
391.85	7.018
392.20	7.659
392.56	6.866
392.92	7.575
393.28	7.370
393.64	6.847
393.99	8.276
394.35	7.717
394.71	7.854
395.07	6.788
395.42	7.711
395.78	7.687
396.14	7.629
396.50	7.546
396.85	8.113
397.21	6.830
397.57	7.712
397.92	7.729
398.28	8.333
398.64	7.169
399.00	7.731
399.35	6.885
399.71	7.926
400.07	7.316
400.42	7.528
400.78	8.389
401.14	7.864
401.49	8.398
401.85	8.166
402.21	7.470
402.57	7.750
402.92	6.462
403.28	8.521
403.63	6.999
403.99	6.888
404.35	8.120
404.70	8.095
405.06	6.992
405.42	7.769
405.77	7.031
406.13	7.858
406.49	7.164
406.84	7.641
407.20	7.285
407.55	6.825
407.91	6.551
408.27	7.393
408.62	7.754
408.98	8.872
409.34	8.364
409.69	7.558
410.05	7.635
410.40	7.593
410.76	8.142
411.11	7.437
411.47	7.824
411.83	7.031
412.18	7.465
412.54	7.366
412.89	7.451
413.25	7.641
413.60	7.453
413.96	8.037
414.31	7.988
414.67	7.248
415.03	7.457
415.38	7.507
415.74	7.818
416.09	7.969
416.45	7.968
416.80	7.931
417.16	7.942
417.51	7.728
417.87	7.627
418.22	7.189
418.58	7.625
418.93	8.527
419.29	7.618
419.64	6.805
420.00	8.186
420.35	7.284
420.71	8.748
421.06	7.673
421.42	7.993
421.77	7.630
422.12	6.754
422.48	7.796
422.83	8.121
423.19	8.014
423.54	7.349
423.90	7.185
424.25	7.750
424.61	7.956
424.96	8.072
425.31	8.146
425.67	7.218
426.02	7.833
426.38	8.015
426.73	7.869
427.09	7.975
427.44	8.235
427.79	8.427
428.15	8.495
428.50	7.389
428.85	7.187
429.21	8.602
429.56	7.763
429.92	7.910
430.27	7.368
430.62	6.900
430.98	7.484
431.33	7.781
431.68	7.326
432.04	7.546
432.39	7.587
432.74	8.058
433.10	8.678
433.45	7.646
433.80	7.719
434.16	6.482
434.51	7.903
434.86	8.072
435.22	8.132
435.57	7.611
435.92	8.263
436.28	7.513
436.63	8.043
436.98	7.300
437.34	7.562
437.69	8.766
438.04	7.350
438.39	7.514
438.75	6.982
439.10	8.206
439.45	7.730
439.81	7.768
440.16	7.067
440.51	8.299
440.86	9.063
441.22	8.371
441.57	7.892
441.92	8.709
442.27	7.373
442.63	8.512
442.98	8.041
443.33	7.902
443.68	7.905
444.03	8.544
444.39	8.116
444.74	7.748
445.09	8.241
445.44	8.034
445.79	8.355
446.15	7.819
446.50	7.876
446.85	7.970
447.20	7.925
447.55	9.040
447.91	8.065
448.26	8.480
448.61	8.233
448.96	9.065
449.31	7.977
449.66	8.537
450.02	8.557
450.37	7.706
450.72	8.133
451.07	8.671
451.42	8.427
451.77	7.896
452.12	7.656
452.47	7.663
452.83	8.127
453.18	8.096
453.53	9.039
453.88	8.075
454.23	8.052
454.58	7.997
454.93	9.214
455.28	7.365
455.63	9.051
455.98	8.298
456.34	8.429
456.69	8.704
457.04	8.129
457.39	8.323
457.74	7.557
458.09	7.946
458.44	7.841
458.79	8.627
459.14	8.753
459.49	8.836
459.84	8.742
460.19	8.313
460.54	8.863
460.89	8.636
461.24	8.447
461.59	9.086
461.94	8.302
462.29	9.228
462.64	9.502
462.99	9.276
463.34	7.789
463.69	8.430
464.04	8.354
464.39	7.520
464.74	8.834
465.09	8.484
465.44	8.367
465.79	8.617
466.14	8.552
466.49	8.281
466.84	8.626
467.19	8.949
467.54	8.812
467.89	7.517
468.24	8.577
468.59	9.778
468.94	8.317
469.29	8.787
469.64	8.817
469.99	7.849
470.34	7.577
470.68	9.620
471.03	8.563
471.38	8.060
471.73	9.384
472.08	8.820
472.43	7.919
472.78	7.814
473.13	8.776
473.48	8.078
473.83	8.904
474.17	7.966
474.52	8.424
474.87	8.606
475.22	8.847
475.57	8.018
475.92	8.941
476.27	9.313
476.61	8.449
476.96	7.808
477.31	8.707
477.66	9.045
478.01	8.198
478.36	8.932
478.70	9.027
479.05	8.736
479.40	8.903
479.75	8.238
480.10	8.193
480.45	8.900
480.79	8.560
481.14	9.016
481.49	8.522
481.84	8.349
482.19	7.951
482.53	8.537
482.88	8.831
483.23	8.397
483.58	8.679
483.92	8.277
484.27	8.842
484.62	8.113
484.97	8.665
485.31	7.948
485.66	7.818
486.01	7.975
486.36	7.929
486.70	8.198
487.05	8.153
487.40	8.428
487.75	8.310
488.09	8.714
488.44	8.666
488.79	8.666
489.13	8.854
489.48	8.508
489.83	8.744
490.17	7.955
490.52	8.314
490.87	8.607
491.22	8.883
491.56	8.397
491.91	8.604
492.26	8.216
492.60	8.109
492.95	8.854
493.30	8.305
493.64	8.644
493.99	8.696
494.34	8.544
494.68	8.190
495.03	8.224
495.37	8.930
495.72	8.935
496.07	9.122
496.41	8.585
496.76	7.923
497.11	8.197
497.45	9.117
497.80	8.880
498.14	8.892
498.49	8.939
498.84	8.982
499.18	8.333
499.53	8.681
499.87	8.366
500.22	8.160
500.56	9.178
500.91	8.283
501.26	8.354
501.60	8.559
501.95	8.540
502.29	8.620
502.64	8.880
502.98	8.633
503.33	8.069
503.67	8.771
504.02	8.749
504.36	8.808
504.71	8.384
505.06	9.260
505.40	8.680
505.75	8.918
506.09	8.718
506.44	8.932
506.78	8.878
507.13	9.100
507.47	8.721
507.82	8.333
508.16	9.245
508.51	9.077
508.85	8.425
509.19	7.557
509.54	8.954
509.88	8.360
510.23	9.306
510.57	8.765
510.92	7.516
511.26	9.220
511.61	9.131
511.95	8.712
512.30	9.202
512.64	9.460
512.98	8.759
513.33	9.401
513.67	8.926
514.02	9.611
514.36	9.314
514.70	9.091
515.05	8.931
515.39	8.560
515.74	9.760
516.08	9.623
516.42	9.423
516.77	9.011
517.11	9.199
517.46	9.037
517.80	10.191
518.14	9.492
518.49	8.774
518.83	9.781
519.17	8.369
519.52	8.644
519.86	8.523
520.20	8.445
520.55	8.318
520.89	9.285
521.23	8.423
521.58	9.464
521.92	9.359
522.26	9.304
522.61	9.221
522.95	9.073
523.29	8.958
523.64	9.339
523.98	8.749
524.32	8.505
524.66	9.283
525.01	8.766
525.35	9.657
525.69	8.687
526.04	8.267
526.38	9.403
526.72	9.091
527.06	8.820
527.41	9.960
527.75	9.383
528.09	8.904
528.43	10.736
528.78	7.921
529.12	9.097
529.46	8.837
529.80	9.246
530.15	9.835
530.49	8.754
530.83	8.618
531.17	8.664
531.51	9.439
531.86	9.041
532.20	8.768
532.54	10.279
532.88	8.966
533.22	9.610
533.57	10.026
533.91	8.616
534.25	9.766
534.59	9.365
534.93	8.936
535.27	9.074
535.62	9.138
535.96	9.589
536.30	9.235
536.64	9.855
536.98	9.408
537.32	8.677
537.66	9.818
538.01	9.930
538.35	8.252
538.69	9.987
539.03	8.407
539.37	8.479
539.71	9.339
540.05	9.301
540.39	9.141
540.73	8.996
541.07	9.254
541.42	9.812
541.76	9.498
542.10	8.741
542.44	9.034
542.78	8.396
543.12	7.967
543.46	9.040
543.80	9.022
544.14	9.212
544.48	8.728
544.82	8.202
545.16	9.016
545.50	10.481
545.84	9.278
546.18	8.794
546.52	8.796
546.86	8.699
547.20	9.514
547.54	8.481
547.88	9.307
548.22	8.941
548.56	9.103
548.90	10.108
549.24	9.780
549.58	10.014
549.92	8.792
550.26	9.744
550.60	8.625
550.94	9.037
551.28	9.428
551.62	9.615
551.96	9.850
552.30	9.137
552.64	9.027
552.98	9.212
553.32	9.130
553.66	9.071
554.00	8.905
554.34	8.272
554.68	8.997
555.02	9.524
555.36	9.125
555.69	8.791
556.03	8.922
556.37	9.039
556.71	9.819
557.05	8.576
557.39	8.699
557.73	9.070
558.07	9.427
558.41	9.418
558.75	8.652
559.08	8.668
559.42	9.127
559.76	8.167
560.10	9.327
560.44	8.563
560.78	9.650
561.12	8.181
561.45	9.206
561.79	9.734
562.13	9.439
562.47	8.058
562.81	9.510
563.15	9.450
563.48	9.618
563.82	9.677
564.16	8.983
564.50	8.581
564.84	9.839
565.17	9.054
565.51	9.904
565.85	9.945
566.19	9.218
566.52	8.981
566.86	9.447
567.20	9.402
567.54	8.759
567.88	9.197
568.21	9.219
568.55	8.804
568.89	9.086
569.23	8.570
569.56	8.406
569.90	9.054
570.24	9.155
570.57	8.764
570.91	9.272
571.25	8.122
571.59	8.689
571.92	8.356
572.26	8.635
572.60	8.279
572.93	8.378
573.27	8.088
573.61	8.353
573.95	8.493
574.28	8.051
574.62	8.772
574.96	8.302
575.29	8.531
575.63	8.292
575.97	8.295
576.30	8.631
576.64	8.185
576.98	8.674
577.31	8.159
577.65	8.601
577.98	8.580
578.32	8.530
578.66	8.317
578.99	8.329
579.33	8.569
579.67	8.504
580.00	8.152
580.34	8.532
580.67	8.531
581.01	8.381
581.35	8.312
581.68	8.227
582.02	8.203
582.35	8.301
582.69	8.434
583.02	7.968
583.36	8.351
583.70	8.982
584.03	8.646
584.37	8.837
584.70	8.709
585.04	8.575
585.37	8.673
585.71	8.516
586.04	8.396
586.38	8.029
586.72	8.407
587.05	8.694
587.39	8.666
587.72	8.803
588.06	8.552
588.39	8.345
588.73	8.333
589.06	9.132
589.40	8.987
589.73	9.273
590.07	9.177
590.40	9.017
590.73	9.308
591.07	8.736
591.40	9.083
591.74	8.914
592.07	9.091
592.41	9.011
592.74	8.005
593.08	8.453
593.41	8.007
593.75	8.309
594.08	8.308
594.41	8.697
594.75	8.206
595.08	8.664
595.42	8.686
595.75	8.412
596.09	8.679
596.42	8.764
596.75	8.748
597.09	8.428
597.42	8.491
597.75	9.253
598.09	8.511
598.42	8.664
598.76	8.795
599.09	8.854
599.42	8.071
599.76	8.841
600.09	8.484
600.42	9.022
600.76	8.210
601.09	8.511
601.42	8.265
601.76	8.416
602.09	8.581
602.42	9.773
602.76	8.659
603.09	8.762
603.42	8.863
603.76	7.823
604.09	8.222
604.42	8.756
604.76	9.435
605.09	9.461
605.42	8.488
605.75	8.538
606.09	8.960
606.42	8.549
606.75	8.918
607.09	9.231
607.42	8.463
607.75	8.615
608.08	7.951
608.42	8.908
608.75	8.675
609.08	8.869
609.41	9.137
609.75	8.669
610.08	8.437
610.41	8.744
610.74	8.776
611.07	8.992
611.41	8.407
611.74	9.009
612.07	8.244
612.40	8.807
612.73	8.249
613.07	9.111
613.40	9.354
613.73	8.506
614.06	8.459
614.39	9.137
614.72	9.020
615.06	9.441
615.39	8.297
615.72	8.342
616.05	8.883
616.38	8.775
616.71	8.379
617.05	8.956
617.38	9.177
617.71	7.925
618.04	9.270
618.37	9.458
618.70	8.845
619.03	10.278
619.36	8.466
619.69	9.401
620.03	9.715
620.36	9.371
620.69	9.065
621.02	8.333
621.35	10.290
621.68	9.694
622.01	7.750
622.34	9.417
622.67	10.489
623.00	9.495
623.33	9.299
623.66	8.601
623.99	8.396
624.32	8.441
624.65	8.120
624.99	9.481
625.32	8.870
625.65	10.134
625.98	9.347
626.31	8.479
626.64	9.012
626.97	9.773
627.30	8.844
627.63	10.399
627.96	10.243
628.29	9.066
628.62	8.850
628.95	10.120
629.28	9.778
629.61	8.774
629.94	9.775
630.26	9.486
630.59	10.614
630.92	10.359
631.25	9.949
631.58	9.581
631.91	8.772
632.24	8.830
632.57	10.795
632.90	8.660
633.23	10.824
633.56	9.194
633.89	8.261
634.22	9.753
634.55	8.132
634.88	10.728
635.20	8.718
635.53	8.133
635.86	9.623
636.19	10.867
636.52	10.332
636.85	10.422
637.18	8.679
637.51	9.308
637.83	10.381
638.16	10.641
638.49	8.992
638.82	10.658
639.15	9.227
639.48	10.591
639.81	9.205
640.13	8.369
640.46	9.767
640.79	8.100
641.12	10.044
641.45	8.709
641.77	9.778
642.10	10.742
642.43	8.521
642.76	9.736
643.09	10.016
643.41	9.223
643.74	9.390
644.07	9.360
644.40	11.318
644.73	9.982
645.05	11.074
645.38	9.700
645.71	8.865
646.04	10.952
646.36	10.284
646.69	12.770
647.02	8.129
647.35	8.769
647.67	11.883
648.00	10.634
648.33	9.727
648.66	8.475
648.98	7.538
649.31	9.256
649.64	9.262
649.96	7.293
650.29	8.518
650.62	9.060
650.94	8.333
651.27	9.311
651.60	10.811
651.92	9.441
652.25	8.171
652.58	10.833
652.90	10.635
653.23	9.076
653.56	8.122
653.88	10.481
654.21	8.757
654.54	10.187
654.86	10.357
655.19	8.626
655.52	8.746
655.84	7.190
656.17	8.158
656.49	11.366
656.82	12.376
657.15	9.755
657.47	7.444
657.80	5.649
658.13	5.598
658.45	8.793
658.78	8.848
659.10	9.175
659.43	9.078
659.75	9.571
660.08	9.310
660.41	9.806
660.73	10.221
661.06	10.745
661.38	9.198
661.71	8.624
662.03	11.803
662.36	10.330
662.68	9.956
663.01	13.100
663.33	8.585
663.66	5.814
663.98	7.209
664.31	13.006
664.63	8.756
664.96	9.565
665.28	8.168
665.61	9.307
665.93	10.652
666.26	9.111
666.58	8.725
666.91	7.294
667.23	10.613
667.56	12.085
667.88	11.031
668.21	7.637
668.53	10.402
668.86	9.670
669.18	10.849
669.50	8.475
669.83	9.070
670.15	10.490
670.48	11.483
670.80	11.290
671.13	9.620
671.45	6.393
671.77	10.730
672.10	11.485
672.42	9.551
672.75	11.368
673.07	10.733
673.39	11.193
673.72	6.706
674.04	10.000
674.37	10.381
674.69	8.351
675.01	9.111
675.34	11.712
675.66	9.259
675.98	11.530
676.31	9.404
676.63	8.551
676.95	10.455
677.28	11.059
677.60	10.120
677.92	9.862
678.25	11.597
678.57	8.658
678.89	9.454
679.22	9.843
679.54	9.036
679.86	7.356
680.18	10.097
680.51	7.765
680.83	7.555
681.15	10.400
681.48	11.680
681.80	11.570
682.12	8.669
682.44	7.950
682.77	9.934
683.09	6.865
683.41	8.636
683.73	9.447
684.06	9.956
684.38	8.817
684.70	8.061
685.02	6.846
685.34	5.336
685.67	9.568
685.99	10.488
686.31	9.735
686.63	8.720
686.96	8.555
687.28	7.273
687.60	9.316
687.92	9.091
688.24	10.081
688.56	7.860
688.89	8.259
689.21	11.111
689.53	9.049
689.85	10.000
690.17	9.152
690.49	7.092
690.82	8.738
691.14	9.524
691.46	8.645
691.78	8.333
692.10	9.032
692.42	7.792
692.74	9.829
693.06	9.685
693.39	7.466
693.71	8.371
694.03	5.543
694.35	11.215
694.67	9.343
694.99	10.183
695.31	9.922
695.63	9.000
695.95	5.808
696.27	12.435
696.59	10.278
696.91	8.683
697.23	5.398
697.56	6.931
697.88	9.892
698.20	9.795
698.52	10.353
698.84	6.220
699.16	8.000
699.48	10.025
699.80	11.911
700.12	10.782
700.44	13.445
700.76	10.174
701.08	7.273
701.40	10.843
701.72	13.272
702.04	10.231
702.36	9.030
702.68	10.811
703.00	11.818
703.32	10.557
703.64	8.192
703.96	8.696
704.28	10.123
704.60	9.524
704.91	6.309
705.23	8.970
705.55	9.894
705.87	8.303
706.19	11.111
706.51	6.186
706.83	9.646
707.15	8.411
707.47	12.885
707.79	7.813
708.11	10.250
708.43	8.000
708.74	8.786
709.06	12.676
709.38	7.034
709.70	12.426
710.02	11.146
710.34	12.384
710.66	5.449
710.98	7.616
711.29	9.180
711.61	9.831
711.93	8.469
712.25	15.808
712.57	8.791
712.89	4.478
713.20	10.035
713.52	9.756
713.84	6.143
714.16	4.811
714.48	11.935
714.80	11.218
715.11	10.638
715.43	7.837
715.75	10.667
716.07	7.641
716.39	7.718
716.70	7.749
717.02	9.160
717.34	10.526
717.66	10.177
717.97	9.130
718.29	10.042
718.61	9.843
718.93	13.178
719.24	10.646
719.56	10.442
719.88	11.684
720.20	6.061
720.51	4.598
720.83	11.197
721.15	13.025
721.46	8.468
721.78	6.324
722.10	7.807
722.42	6.224
722.73	8.571
723.05	15.102
723.37	17.373
723.68	11.261
724.00	5.983
724.32	8.444
724.63	6.818
724.95	6.550
725.27	7.834
725.58	8.898
725.90	2.381
726.22	11.197
726.53	14.576
726.85	11.236
727.16	12.830
727.48	3.644
727.80	12.146
728.11	5.085
728.43	10.196
728.74	4.839
729.06	12.800
729.38	16.541
729.69	5.976
730.01	5.000
730.32	8.582
730.64	11.661
730.96	10.566
731.27	8.333
731.59	9.831
731.90	13.057
732.22	11.987
732.53	12.625
732.85	7.447
733.16	9.764
733.48	6.115
733.80	6.884
734.11	7.458
734.43	8.591
734.74	10.303
735.06	6.515
735.37	8.459
735.69	13.131
736.00	9.059
736.32	8.725
736.63	7.746
736.95	9.215
737.26	9.253
737.58	12.416
737.89	6.960
738.21	9.398
738.52	9.877
738.83	10.480
739.15	5.240
739.46	12.205
739.78	5.861
740.09	12.745
740.41	7.609
740.72	11.024
741.04	9.312
741.35	7.660
741.66	9.479
741.98	8.163
742.29	9.901
742.61	7.853
742.92	0.948
743.23	3.704
743.55	10.860
743.86	7.177
744.18	12.919
744.49	6.383
744.80	7.065
745.12	12.834
745.43	9.268
745.74	11.979
746.06	6.829
746.37	5.759
746.68	14.218
747.00	2.660
747.31	12.438
747.62	7.282
747.94	9.091
748.25	5.446
748.56	12.568
748.88	3.665
749.19	9.574
749.50	9.852
749.82	2.358
750.13	8.716
750.44	13.158
750.75	10.075
751.07	12.409
751.38	8.046
751.69	10.196
752.01	12.016
752.32	7.968
752.63	9.091
752.94	5.603
753.26	18.410
753.57	9.502
753.88	12.832
754.19	8.750
754.51	9.091
754.82	5.668
755.13	11.667
755.44	12.903
755.75	11.328
756.07	8.171
756.38	6.415
756.69	6.513
757.00	8.333
757.31	8.170
757.63	9.146
757.94	8.611
758.25	9.041
758.56	6.117
758.87	8.499
759.18	5.607
759.50	11.636
759.81	11.037
760.12	8.710
760.43	8.485
760.74	7.716
761.05	5.846
761.36	9.943
761.67	12.727
761.99	8.503
762.30	4.364
762.61	13.439
762.92	10.407
763.23	9.009
763.54	4.206
763.85	9.322
764.16	12.033
764.47	2.823
764.78	6.593
765.10	9.428
765.41	5.363
765.72	8.889
766.03	1.128
766.34	8.394
766.65	13.546
766.96	7.576
767.27	9.043
767.58	10.920
767.89	0.709
768.20	6.818
768.51	10.989
768.82	12.315
769.13	8.295
769.44	9.871
769.75	3.653
770.06	12.500
770.37	15.865
770.68	10.152
770.99	9.955
771.30	10.784
771.61	11.312
771.92	11.638
772.23	17.241
772.54	11.828
772.85	13.580
773.16	10.112
773.47	20.915
773.78	8.497
774.09	5.389
774.39	6.667
774.70	12.102
775.01	11.034
775.32	10.714
775.63	10.744
775.94	10.687
776.25	11.024
776.56	8.333
776.87	14.423
777.18	5.128
777.48	4.310
777.79	-1.739
778.10	-4.762
778.41	6.306
778.72	10.317
779.03	11.278
779.34	7.801
779.65	12.329
779.95	15.068
780.26	13.793
780.57	0.000
780.88	3.937
781.19	11.207
781.50	20.930
781.80	7.101
782.11	6.289
782.42	17.692
782.73	9.353
783.04	8.889
783.34	13.889
783.65	3.419
783.96	6.557
784.27	11.034
784.57	8.943
784.88	7.813
785.19	14.000
785.50	12.000
785.81	16.379
786.11	-3.448
786.42	4.854
786.73	24.545
787.04	9.184
787.34	10.714
787.65	-0.952
787.96	7.965
788.26	16.364
788.57	2.564
788.88	12.500
789.19	4.762
789.49	7.826
789.80	2.041
790.11	5.051
790.41	8.182
790.72	15.217
791.03	9.091
791.33	5.000
791.64	10.000
791.95	11.628
792.25	10.638
792.56	11.236
792.87	9.589
793.17	-2.899
793.48	-12.000
793.79	3.750
794.09	23.750
794.40	12.264
794.70	0.000
795.01	4.065
795.32	10.256
795.62	10.476
795.93	10.784
796.23	14.151
796.54	13.542
796.85	11.765
797.15	15.493
797.46	9.722
797.76	18.182
798.07	11.628
798.37	13.158
798.68	28.788
798.99	16.049
799.29	5.714
799.60	7.246
799.90	28.000
800.21	11.475
800.51	27.692
800.82	22.034
801.12	15.942
801.43	13.115
801.73	14.286
802.04	8.000
802.34	14.925
802.65	17.308
802.95	3.571
803.26	11.538
803.56	-1.961
803.87	-13.043
804.17	10.667
804.48	30.159
804.78	12.963
805.09	-26.087
805.39	0.000
805.70	24.074
806.00	5.263
806.30	12.676
806.61	25.714
806.91	-2.778
807.22	13.158
807.52	9.333
807.83	-1.818
808.13	11.111
808.43	20.588
808.74	17.910
809.04	5.085
809.35	15.385
809.65	4.687
809.95	5.405
810.26	9.091
810.56	4.110
810.86	-2.381
811.17	-16.000
811.47	12.245
811.77	-34.211
812.08	2.273
812.38	13.208
812.69	5.000
812.99	-9.091
813.29	7.895
813.59	5.714
813.90	13.636
814.20	7.692
814.50	1.923
814.81	13.208
815.11	2.128
815.41	16.949
815.72	30.952
816.02	3.922
816.32	-2.083
816.62	12.195
816.93	2.703
817.23	-37.143
817.53	20.833
817.84	15.217
818.14	5.769
818.44	18.421
818.74	28.261
819.04	-12.500
819.35	21.622
819.65	17.647
819.95	8.333
820.25	23.810
820.56	22.500
820.86	-17.241
821.16	22.500
821.46	4.255
821.76	22.500
822.07	20.930
822.37	2.703
822.67	-18.750
822.97	7.143
823.27	-14.286
823.57	-36.000
823.88	-29.630
824.18	7.143
824.48	14.706
824.78	29.032
825.08	26.087
825.38	21.212
825.69	-8.333
825.99	21.053
826.29	11.111
826.59	-20.000
826.89	-57.143
827.19	26.087
827.49	10.000
827.79	-5.714
828.09	42.857
828.39	15.152
828.70	24.324
829.00	14.286
829.30	-23.810
829.60	-6.667
829.90	65.625
830.20	42.105
830.50	-48.148
830.80	39.130
831.10	36.364
831.40	66.667
831.70	41.935
832.00	14.286
832.30	-9.524
832.60	-8.333
832.90	31.034
833.20	-30.000
833.50	18.182
833.80	3.704
834.10	15.385
834.40	9.375
834.70	-55.556
835.00	21.053
835.30	46.154
835.60	0.000
835.90	32.258
836.20	4.545
836.50	0.000
836.80	-15.385
837.10	-7.143
837.40	0.000
837.70	4.545
838.00	0.000
838.30	8.696
838.60	-38.462
838.90	-4.545
839.19	0.000
839.49	43.333
839.79	0.000
840.09	-91.667
840.39	60.714
840.69	14.286
840.99	-11.538
841.29	5.263
841.59	-30.000
841.88	54.545
842.18	30.000
842.48	18.750
842.78	-6.667
843.08	29.630
843.38	-70.000
843.68	-4.348
843.97	-26.667
844.27	6.667
844.57	-35.000
844.87	22.222
845.17	14.286
845.47	60.000
845.76	19.048
846.06	23.529
846.36	-10.000
846.66	28.571
846.96	80.000
847.25	-162.500
847.55	14.286
847.85	0.000
848.15	4.545
848.44	-266.667
848.74	40.000
849.04	25.926
849.34	-18.182
849.63	-166.667
849.93	-140.000
850.23	38.889
850.53	50.000
850.82	-23.077
851.12	33.333
851.42	20.000
851.71	-38.462
852.01	71.429
852.31	200.000
852.61	-18.182
852.90	15.000
853.20	15.789
853.50	-75.000
853.79	13.043
854.09	4.167
854.39	-5.263
854.68	4.167
854.98	-3.226
855.28	46.154
855.57	30.000
855.87	11.111
856.17	40.741
856.46	35.714
856.76	73.333
857.05	77.778
857.35	24.000
857.65	44.444
857.94	53.846
858.24	37.931
858.53	11.111
858.83	48.148
859.13	63.636
859.42	-8.696
859.72	-100.000
860.01	-333.333
860.31	4.000
860.60	14.286
860.90	-133.333
861.20	-20.000
861.49	-450.000
861.79	13.333
862.08	35.000
862.38	53.333
862.67	40.000
862.97	33.333
863.26	100.000
863.56	16.667
863.85	33.333
864.15	55.556
864.44	0.000
864.74	0.000
865.03	225.000
865.33	-120.000
865.62	100.000
865.92	58.333
866.21	-66.667
866.51	37.500
866.80	9.091
867.10	-700.000
867.39	50.000
867.69	0.000
867.98	-23.077
868.27	100.000
868.57	46.667
868.86	94.444
869.16	46.154
869.45	33.333
869.75	-300.000
870.04	0.000
870.33	42.857
870.63	9.524
870.92	33.333
871.22	-120.000
871.51	500.000
871.80	111.111
872.10	166.667
>>>>>End Processed Spectral Data<<<<<
