SpectraSuite Data File
++++++++++++++++++++++++++++++++++++
Date: Fri May 15 17:27:56 PDT 2015
User: schluterlab
Dark Spectrum Present: Yes
Reference Spectrum Present: Yes
Number of Sampled Component Spectra: 1
Spectrometers: USB2E3373
Integration Time (usec): 3000 (USB2E3373)
Spectra Averaged: 3 (USB2E3373)
Boxcar Smoothing: 0 (USB2E3373)
Correct for Electrical Dark: No (USB2E3373)
Strobe/Lamp Enabled: No (USB2E3373)
Correct for Detector Non-linearity: No (USB2E3373)
Correct for Stray Light: No (USB2E3373)
Number of Pixels in Processed Spectrum: 2048
>>>>>Begin Processed Spectral Data<<<<<
178.53	0.000
178.91	0.000
179.29	75.000
179.67	-450.000
180.04	57.143
180.42	50.000
180.80	-400.000
181.18	-100.000
181.56	250.000
181.94	-250.000
182.31	-600.000
182.69	60.000
183.07	66.667
183.45	0.000
183.83	50.000
184.20	-18.182
184.58	155.556
184.96	125.000
185.34	233.333
185.72	-50.000
186.09	61.538
186.47	-400.000
186.85	66.667
187.23	166.667
187.61	400.000
187.98	-66.667
188.36	55.556
188.74	100.000
189.12	-11.765
189.49	27.778
189.87	0.000
190.25	7.143
190.63	-250.000
191.00	100.000
191.38	5.263
191.76	200.000
192.14	-75.000
192.51	-200.000
192.89	-66.667
193.27	-28.571
193.65	33.333
194.02	109.091
194.40	60.000
194.78	-87.500
195.15	-33.333
195.53	-50.000
195.91	175.000
196.29	50.000
196.66	76.923
197.04	-0.000
197.42	55.556
197.79	-266.667
198.17	-92.308
198.55	800.000
198.92	-100.000
199.30	1100.000
199.68	-240.000
200.05	-133.333
200.43	0.000
200.81	166.667
201.18	100.000
201.56	-600.000
201.94	300.000
202.31	-266.667
202.69	-80.000
203.07	75.000
203.44	100.000
203.82	0.000
204.19	35.714
204.57	-833.333
204.95	50.000
205.32	-60.000
205.70	57.143
206.08	-25.000
206.45	111.111
206.83	42.857
207.20	-42.857
207.58	800.000
207.96	100.000
208.33	-30.000
208.71	25.000
209.08	-183.333
209.46	-700.000
209.84	20.000
210.21	-300.000
210.59	71.429
210.96	33.333
211.34	-150.000
211.71	13.333
212.09	-114.286
212.46	-400.000
212.84	0.000
213.22	100.000
213.59	500.000
213.97	69.231
214.34	127.273
214.72	16.667
215.09	250.000
215.47	-69.231
215.84	9.091
216.22	-33.333
216.59	0.000
216.97	200.000
217.34	-100.000
217.72	-100.000
218.09	-12.500
218.47	-0.000
218.84	-200.000
219.22	-44.444
219.59	-120.000
219.97	366.667
220.34	125.000
220.72	42.857
221.09	50.000
221.47	-150.000
221.84	-300.000
222.22	-600.000
222.59	63.636
222.97	0.000
223.34	-66.667
223.72	0.000
224.09	-14.286
224.46	0.000
224.84	133.333
225.21	-30.000
225.59	40.000
225.96	50.000
226.34	300.000
226.71	-85.714
227.08	-66.667
227.46	-75.000
227.83	-650.000
228.21	66.667
228.58	100.000
228.95	12.500
229.33	20.000
229.70	25.000
230.08	-100.000
230.45	-128.571
230.82	-14.286
231.20	-53.333
231.57	107.143
231.95	28.571
232.32	-180.000
232.69	-7.143
233.07	-66.667
233.44	200.000
233.81	-40.000
234.19	100.000
234.56	-17.647
234.93	900.000
235.31	-125.000
235.68	-140.000
236.05	-100.000
236.43	-30.000
236.80	-5.882
237.17	37.500
237.55	20.000
237.92	29.630
238.29	13.889
238.67	6.667
239.04	-14.706
239.41	-12.195
239.79	3.333
240.16	51.220
240.53	-23.684
240.91	-4.348
241.28	4.762
241.65	1.786
242.02	16.438
242.40	8.333
242.77	3.390
243.14	4.545
243.51	-2.500
243.89	20.690
244.26	-3.448
244.63	1.190
245.00	9.278
245.38	18.557
245.75	5.618
246.12	5.172
246.49	13.223
246.87	24.038
247.24	10.084
247.61	4.386
247.98	12.195
248.36	11.250
248.73	15.132
249.10	9.740
249.47	8.861
249.84	9.804
250.22	12.941
250.59	14.379
250.96	15.962
251.33	1.163
251.70	11.176
252.08	14.721
252.45	6.931
252.82	9.045
253.19	11.060
253.56	7.477
253.94	13.964
254.31	13.043
254.68	15.789
255.05	6.693
255.42	15.721
255.79	10.425
256.16	11.284
256.54	14.925
256.91	13.308
257.28	10.409
257.65	10.112
258.02	8.511
258.39	10.774
258.76	15.018
259.14	14.950
259.51	14.239
259.88	12.715
260.25	11.765
260.62	12.500
260.99	11.864
261.36	10.616
261.73	11.709
262.10	11.854
262.47	9.816
262.85	13.480
263.22	15.077
263.59	14.953
263.96	14.907
264.33	13.939
264.70	12.202
265.07	12.798
265.44	13.314
265.81	14.124
266.18	13.388
266.55	14.910
266.92	13.212
267.29	9.399
267.66	12.788
268.03	10.471
268.40	10.444
268.77	15.775
269.14	10.791
269.51	12.339
269.88	10.973
270.25	9.439
270.62	9.024
270.99	9.974
271.36	11.247
271.73	11.268
272.10	11.922
272.47	11.584
272.84	13.366
273.21	13.225
273.58	14.458
273.95	10.526
274.32	10.393
274.69	11.538
275.06	13.393
275.43	11.111
275.80	10.817
276.17	11.954
276.54	11.563
276.91	11.404
277.28	9.825
277.65	14.669
278.02	11.277
278.39	11.597
278.76	12.998
279.13	9.751
279.50	11.134
279.87	12.527
280.23	8.172
280.60	11.696
280.97	10.505
281.34	10.769
281.71	13.963
282.08	10.020
282.45	9.002
282.82	12.934
283.19	9.865
283.56	12.139
283.92	9.677
284.29	10.000
284.66	10.465
285.03	10.413
285.40	11.342
285.77	8.963
286.14	11.733
286.51	13.838
286.87	9.506
287.24	8.656
287.61	8.818
287.98	11.930
288.35	10.052
288.72	12.609
289.08	9.375
289.45	11.599
289.82	8.741
290.19	9.556
290.56	9.091
290.93	8.081
291.29	8.320
291.66	9.921
292.03	10.686
292.40	9.355
292.77	10.686
293.13	7.630
293.50	9.105
293.87	8.702
294.24	9.583
294.60	8.048
294.97	9.524
295.34	8.282
295.71	6.706
296.08	8.221
296.44	6.970
296.81	8.056
297.18	7.681
297.55	9.485
297.91	8.356
298.28	9.631
298.65	7.463
299.02	7.817
299.38	5.882
299.75	7.724
300.12	9.686
300.48	7.510
300.85	7.731
301.22	8.052
301.59	8.684
301.95	8.987
302.32	9.468
302.69	7.463
303.05	6.807
303.42	8.468
303.79	8.061
304.15	10.514
304.52	6.540
304.89	7.602
305.25	7.506
305.62	8.518
305.99	8.187
306.35	8.208
306.72	5.849
307.09	7.298
307.45	8.726
307.82	7.755
308.19	8.479
308.55	8.506
308.92	9.586
309.29	7.709
309.65	7.535
310.02	7.591
310.38	8.782
310.75	8.087
311.12	8.396
311.48	7.741
311.85	6.492
312.22	7.806
312.58	7.006
312.95	7.471
313.31	6.729
313.68	8.482
314.05	7.449
314.41	7.835
314.78	7.629
315.14	8.530
315.51	7.143
315.87	8.197
316.24	8.797
316.61	9.252
316.97	7.440
317.34	7.715
317.70	8.126
318.07	8.462
318.43	6.176
318.80	8.144
319.16	8.203
319.53	8.832
319.89	7.874
320.26	7.085
320.62	8.626
320.99	6.159
321.35	7.708
321.72	8.204
322.08	8.157
322.45	8.020
322.81	8.939
323.18	7.360
323.54	6.274
323.91	8.374
324.27	7.715
324.64	7.865
325.00	8.029
325.37	8.907
325.73	7.525
326.10	8.084
326.46	8.969
326.83	7.874
327.19	7.498
327.56	8.601
327.92	7.394
328.29	8.750
328.65	8.113
329.01	7.813
329.38	9.677
329.74	7.460
330.11	9.082
330.47	7.607
330.84	7.115
331.20	8.175
331.56	7.870
331.93	9.041
332.29	7.974
332.66	8.054
333.02	9.572
333.38	7.058
333.75	8.883
334.11	7.610
334.48	8.432
334.84	7.784
335.20	8.692
335.57	7.344
335.93	8.853
336.29	8.195
336.66	7.811
337.02	7.342
337.38	7.130
337.75	7.364
338.11	8.837
338.47	8.485
338.84	8.595
339.20	8.318
339.56	7.982
339.93	8.863
340.29	8.073
340.65	8.513
341.02	7.801
341.38	8.319
341.74	6.714
342.11	7.366
342.47	7.740
342.83	8.651
343.20	7.578
343.56	9.478
343.92	8.060
344.28	8.625
344.65	8.549
345.01	7.606
345.37	8.999
345.73	9.540
346.10	8.456
346.46	7.990
346.82	7.201
347.19	7.814
347.55	7.435
347.91	8.576
348.27	8.892
348.63	8.603
349.00	7.793
349.36	8.645
349.72	8.789
350.08	7.623
350.45	7.821
350.81	7.724
351.17	7.655
351.53	8.408
351.89	7.102
352.26	7.840
352.62	9.113
352.98	8.916
353.34	8.132
353.70	7.686
354.07	7.339
354.43	7.766
354.79	7.349
355.15	8.571
355.51	7.516
355.87	7.524
356.24	8.728
356.60	7.518
356.96	8.651
357.32	8.866
357.68	7.115
358.04	7.674
358.40	7.556
358.77	7.337
359.13	7.446
359.49	7.550
359.85	7.488
360.21	7.496
360.57	7.575
360.93	8.699
361.29	7.100
361.66	7.759
362.02	8.106
362.38	8.073
362.74	6.889
363.10	7.073
363.46	8.154
363.82	9.016
364.18	8.118
364.54	6.985
364.90	8.315
365.26	8.006
365.62	8.759
365.98	8.504
366.35	7.939
366.71	8.204
367.07	8.055
367.43	7.692
367.79	7.420
368.15	8.184
368.51	8.667
368.87	7.107
369.23	6.931
369.59	8.746
369.95	8.798
370.31	8.526
370.67	7.985
371.03	7.618
371.39	7.732
371.75	7.399
372.11	6.990
372.47	8.062
372.83	7.878
373.19	8.845
373.55	7.220
373.91	8.351
374.27	7.725
374.63	7.968
374.99	7.730
375.35	8.078
375.71	8.601
376.07	7.654
376.42	7.959
376.78	7.919
377.14	7.921
377.50	8.499
377.86	8.434
378.22	8.296
378.58	8.269
378.94	8.570
379.30	8.110
379.66	8.339
380.02	7.480
380.38	7.547
380.74	8.318
381.09	8.344
381.45	7.523
381.81	8.513
382.17	8.503
382.53	8.994
382.89	8.286
383.25	9.085
383.61	8.659
383.97	8.508
384.32	8.443
384.68	7.988
385.04	7.966
385.40	8.276
385.76	8.365
386.12	8.926
386.48	9.579
386.83	8.244
387.19	8.486
387.55	8.783
387.91	8.191
388.27	9.035
388.62	8.559
388.98	8.471
389.34	8.932
389.70	9.012
390.06	8.999
390.42	8.938
390.77	8.829
391.13	8.575
391.49	8.409
391.85	8.447
392.20	8.161
392.56	8.328
392.92	9.865
393.28	8.962
393.64	8.949
393.99	9.279
394.35	8.349
394.71	9.770
395.07	8.925
395.42	9.532
395.78	8.990
396.14	9.269
396.50	9.385
396.85	9.466
397.21	9.837
397.57	9.028
397.92	9.347
398.28	10.460
398.64	8.855
399.00	9.537
399.35	8.860
399.71	9.477
400.07	9.613
400.42	9.914
400.78	9.614
401.14	9.195
401.49	9.529
401.85	9.202
402.21	9.759
402.57	10.125
402.92	9.724
403.28	9.586
403.63	9.521
403.99	8.610
404.35	10.056
404.70	9.524
405.06	9.048
405.42	8.390
405.77	8.367
406.13	8.615
406.49	9.118
406.84	9.474
407.20	8.910
407.55	8.500
407.91	9.826
408.27	9.114
408.62	9.662
408.98	9.920
409.34	10.409
409.69	9.496
410.05	9.236
410.40	9.815
410.76	9.831
411.11	9.625
411.47	9.139
411.83	8.977
412.18	9.202
412.54	9.738
412.89	9.113
413.25	9.266
413.60	9.627
413.96	9.939
414.31	8.780
414.67	9.173
415.03	8.256
415.38	8.681
415.74	10.293
416.09	10.385
416.45	9.386
416.80	9.584
417.16	9.807
417.51	10.260
417.87	10.169
418.22	9.650
418.58	9.431
418.93	10.784
419.29	9.859
419.64	9.268
420.00	11.146
420.35	9.970
420.71	9.417
421.06	9.454
421.42	9.675
421.77	9.827
422.12	9.137
422.48	10.233
422.83	8.991
423.19	9.312
423.54	8.760
423.90	9.717
424.25	10.505
424.61	9.914
424.96	9.001
425.31	10.052
425.67	9.214
426.02	9.776
426.38	10.645
426.73	10.351
427.09	9.684
427.44	10.647
427.79	10.312
428.15	10.376
428.50	9.994
428.85	9.029
429.21	10.413
429.56	10.296
429.92	10.375
430.27	10.025
430.62	9.984
430.98	9.130
431.33	10.095
431.68	10.204
432.04	10.397
432.39	10.097
432.74	10.102
433.10	10.632
433.45	9.857
433.80	9.460
434.16	9.806
434.51	10.323
434.86	10.105
435.22	10.488
435.57	10.231
435.92	10.359
436.28	10.555
436.63	10.553
436.98	10.255
437.34	9.921
437.69	10.793
438.04	10.199
438.39	10.202
438.75	10.565
439.10	10.357
439.45	10.956
439.81	9.786
440.16	10.095
440.51	11.343
440.86	11.360
441.22	11.029
441.57	10.155
441.92	10.756
442.27	10.200
442.63	11.510
442.98	10.052
443.33	10.239
443.68	10.610
444.03	10.283
444.39	10.330
444.74	10.368
445.09	10.078
445.44	10.655
445.79	11.552
446.15	10.352
446.50	9.207
446.85	10.521
447.20	9.802
447.55	10.938
447.91	10.886
448.26	10.814
448.61	11.054
448.96	11.130
449.31	10.173
449.66	10.337
450.02	10.610
450.37	9.721
450.72	9.908
451.07	10.316
451.42	10.175
451.77	10.669
452.12	10.227
452.47	10.045
452.83	10.306
453.18	10.310
453.53	10.556
453.88	10.383
454.23	9.773
454.58	11.272
454.93	10.438
455.28	9.397
455.63	10.229
455.98	11.305
456.34	9.706
456.69	10.928
457.04	11.909
457.39	10.389
457.74	10.399
458.09	10.065
458.44	10.474
458.79	10.140
459.14	10.755
459.49	10.388
459.84	11.168
460.19	9.830
460.54	10.880
460.89	10.966
461.24	10.559
461.59	10.629
461.94	10.252
462.29	11.098
462.64	10.764
462.99	10.291
463.34	10.223
463.69	10.296
464.04	10.956
464.39	10.552
464.74	10.429
465.09	10.667
465.44	11.252
465.79	10.091
466.14	11.117
466.49	10.063
466.84	11.065
467.19	10.325
467.54	10.920
467.89	10.297
468.24	10.584
468.59	11.746
468.94	10.159
469.29	11.475
469.64	11.415
469.99	11.072
470.34	9.352
470.68	10.738
471.03	11.323
471.38	10.556
471.73	10.994
472.08	10.923
472.43	9.866
472.78	10.898
473.13	10.748
473.48	10.619
473.83	10.710
474.17	11.788
474.52	11.934
474.87	10.545
475.22	10.311
475.57	10.672
475.92	10.861
476.27	11.874
476.61	10.880
476.96	10.374
477.31	10.492
477.66	10.843
478.01	9.657
478.36	10.403
478.70	11.147
479.05	11.758
479.40	10.175
479.75	11.262
480.10	10.241
480.45	11.300
480.79	11.027
481.14	11.322
481.49	10.345
481.84	10.811
482.19	10.337
482.53	10.983
482.88	10.692
483.23	10.413
483.58	10.613
483.92	9.874
484.27	10.483
484.62	10.713
484.97	10.531
485.31	10.477
485.66	10.344
486.01	10.450
486.36	10.466
486.70	10.270
487.05	10.788
487.40	10.626
487.75	10.085
488.09	10.352
488.44	10.316
488.79	10.684
489.13	10.697
489.48	10.047
489.83	10.224
490.17	10.382
490.52	10.300
490.87	10.736
491.22	10.888
491.56	10.484
491.91	10.803
492.26	11.424
492.60	10.125
492.95	11.215
493.30	10.357
493.64	10.167
493.99	10.676
494.34	10.000
494.68	10.143
495.03	10.560
495.37	10.893
495.72	10.853
496.07	10.683
496.41	10.566
496.76	10.594
497.11	10.340
497.45	11.504
497.80	11.403
498.14	10.979
498.49	10.919
498.84	10.679
499.18	10.793
499.53	10.764
499.87	10.457
500.22	10.930
500.56	10.792
500.91	10.743
501.26	10.430
501.60	10.772
501.95	10.723
502.29	10.557
502.64	11.824
502.98	10.853
503.33	10.279
503.67	11.036
504.02	10.899
504.36	11.529
504.71	10.556
505.06	10.418
505.40	10.761
505.75	11.031
506.09	10.694
506.44	10.986
506.78	10.714
507.13	10.755
507.47	10.131
507.82	10.417
508.16	10.671
508.51	11.542
508.85	10.884
509.19	10.059
509.54	11.046
509.88	10.841
510.23	10.920
510.57	11.224
510.92	10.288
511.26	11.675
511.61	11.221
511.95	11.342
512.30	11.253
512.64	10.796
512.98	10.780
513.33	11.863
513.67	9.892
514.02	11.098
514.36	11.829
514.70	12.296
515.05	11.457
515.39	11.216
515.74	12.275
516.08	11.536
516.42	11.779
516.77	11.527
517.11	11.157
517.46	11.969
517.80	11.502
518.14	10.716
518.49	10.877
518.83	10.875
519.17	10.188
519.52	11.486
519.86	11.525
520.20	10.996
520.55	10.006
520.89	11.543
521.23	10.956
521.58	11.672
521.92	11.090
522.26	11.841
522.61	11.623
522.95	10.265
523.29	11.881
523.64	11.881
523.98	11.536
524.32	11.147
524.66	12.036
525.01	11.948
525.35	11.471
525.69	10.101
526.04	10.847
526.38	12.970
526.72	11.445
527.06	11.608
527.41	11.148
527.75	10.992
528.09	11.030
528.43	11.816
528.78	10.825
529.12	11.484
529.46	11.371
529.80	12.476
530.15	11.551
530.49	11.111
530.83	10.876
531.17	11.820
531.51	10.876
531.86	11.693
532.20	11.552
532.54	11.913
532.88	12.868
533.22	12.097
533.57	11.402
533.91	10.770
534.25	12.044
534.59	11.097
534.93	11.580
535.27	11.168
535.62	10.888
535.96	12.329
536.30	12.005
536.64	11.923
536.98	11.638
537.32	11.949
537.66	12.272
538.01	11.538
538.35	11.650
538.69	11.585
539.03	10.800
539.37	11.036
539.71	11.179
540.05	11.473
540.39	12.396
540.73	11.855
541.07	11.326
541.42	12.634
541.76	11.425
542.10	10.530
542.44	11.466
542.78	10.736
543.12	11.126
543.46	12.656
543.80	12.214
544.14	10.681
544.48	12.059
544.82	11.757
545.16	11.407
545.50	12.684
545.84	12.110
546.18	12.057
546.52	11.968
546.86	11.215
547.20	12.232
547.54	10.813
547.88	11.889
548.22	11.834
548.56	11.412
548.90	12.332
549.24	11.570
549.58	11.142
549.92	11.866
550.26	12.088
550.60	11.450
550.94	11.725
551.28	11.978
551.62	12.462
551.96	11.504
552.30	12.135
552.64	10.790
552.98	11.181
553.32	12.340
553.66	11.103
554.00	11.971
554.34	11.448
554.68	11.799
555.02	13.021
555.36	12.117
555.69	10.623
556.03	10.992
556.37	10.534
556.71	11.697
557.05	11.633
557.39	10.558
557.73	12.219
558.07	11.916
558.41	11.179
558.75	11.458
559.08	12.214
559.42	10.873
559.76	12.010
560.10	11.009
560.44	12.435
560.78	12.238
561.12	11.566
561.45	12.368
561.79	11.695
562.13	11.781
562.47	11.223
562.81	12.536
563.15	12.200
563.48	11.598
563.82	11.462
564.16	11.281
564.50	10.541
564.84	11.446
565.17	11.871
565.51	12.500
565.85	12.071
566.19	11.737
566.52	12.265
566.86	11.761
567.20	11.644
567.54	11.131
567.88	11.951
568.21	11.934
568.55	10.870
568.89	11.756
569.23	11.170
569.56	11.340
569.90	11.937
570.24	11.277
570.57	11.055
570.91	11.084
571.25	11.345
571.59	10.993
571.92	10.963
572.26	10.900
572.60	10.760
572.93	11.233
573.27	10.721
573.61	11.038
573.95	10.841
574.28	10.779
574.62	10.501
574.96	10.621
575.29	10.803
575.63	10.521
575.97	10.436
576.30	10.739
576.64	10.252
576.98	10.888
577.31	10.740
577.65	11.124
577.98	10.904
578.32	10.657
578.66	10.681
578.99	10.482
579.33	10.292
579.67	10.749
580.00	10.633
580.34	10.721
580.67	10.831
581.01	10.999
581.35	10.810
581.68	10.962
582.02	10.974
582.35	10.678
582.69	11.025
583.02	10.916
583.36	10.977
583.70	10.877
584.03	11.093
584.37	11.491
584.70	10.934
585.04	10.544
585.37	11.179
585.71	10.862
586.04	11.019
586.38	10.349
586.72	11.248
587.05	11.438
587.39	11.350
587.72	11.345
588.06	11.376
588.39	11.592
588.73	11.355
589.06	10.763
589.40	11.372
589.73	11.756
590.07	11.707
590.40	11.300
590.73	11.532
591.07	10.814
591.40	11.754
591.74	11.991
592.07	11.781
592.41	12.191
592.74	11.629
593.08	11.037
593.41	11.334
593.75	11.613
594.08	11.500
594.41	11.317
594.75	10.878
595.08	12.145
595.42	11.005
595.75	11.791
596.09	11.142
596.42	11.782
596.75	11.812
597.09	11.526
597.42	11.969
597.75	11.361
598.09	11.951
598.42	11.236
598.76	10.854
599.09	11.739
599.42	11.065
599.76	11.550
600.09	11.802
600.42	11.183
600.76	10.921
601.09	11.031
601.42	11.281
601.76	11.671
602.09	11.221
602.42	11.752
602.76	11.078
603.09	11.420
603.42	11.915
603.76	11.048
604.09	11.665
604.42	11.760
604.76	11.660
605.09	11.654
605.42	11.467
605.75	11.252
606.09	11.592
606.42	11.343
606.75	11.212
607.09	11.868
607.42	11.254
607.75	11.190
608.08	11.500
608.42	11.147
608.75	12.048
609.08	11.360
609.41	11.371
609.75	11.139
610.08	11.732
610.41	11.691
610.74	11.117
611.07	11.214
611.41	11.469
611.74	12.100
612.07	11.135
612.40	12.309
612.73	10.847
613.07	11.192
613.40	11.816
613.73	11.416
614.06	11.797
614.39	11.732
614.72	12.213
615.06	11.453
615.39	11.299
615.72	10.926
616.05	12.235
616.38	10.883
616.71	11.315
617.05	11.242
617.38	12.194
617.71	11.132
618.04	11.492
618.37	12.043
618.70	11.617
619.03	12.778
619.36	11.216
619.69	11.448
620.03	12.783
620.36	12.375
620.69	12.348
621.02	12.156
621.35	11.784
621.68	12.500
622.01	12.333
622.34	12.849
622.67	12.776
623.00	12.098
623.33	11.128
623.66	11.369
623.99	12.557
624.32	12.091
624.65	10.977
624.99	13.017
625.32	11.600
625.65	12.804
625.98	11.845
626.31	11.471
626.64	12.045
626.97	12.827
627.30	12.697
627.63	12.738
627.96	11.770
628.29	12.303
628.62	12.881
628.95	12.425
629.28	11.593
629.61	12.562
629.94	12.903
630.26	12.549
630.59	11.446
630.92	12.513
631.25	11.897
631.58	12.335
631.91	11.842
632.24	10.665
632.57	12.841
632.90	11.625
633.23	12.824
633.56	12.972
633.89	12.084
634.22	14.568
634.55	12.071
634.88	12.644
635.20	11.923
635.53	12.533
635.86	12.354
636.19	12.807
636.52	11.990
636.85	12.407
637.18	11.069
637.51	11.572
637.83	12.221
638.16	13.915
638.49	13.079
638.82	12.763
639.15	12.619
639.48	11.967
639.81	13.668
640.13	12.843
640.46	12.828
640.79	11.929
641.12	14.919
641.45	13.964
641.77	13.333
642.10	12.954
642.43	13.987
642.76	15.017
643.09	13.732
643.41	12.783
643.74	15.815
644.07	13.629
644.40	13.514
644.73	11.033
645.05	13.255
645.38	12.169
645.71	10.993
646.04	15.978
646.36	12.943
646.69	13.849
647.02	11.909
647.35	11.754
647.67	12.980
648.00	14.925
648.33	12.457
648.66	12.373
648.98	11.725
649.31	11.901
649.64	12.716
649.96	11.669
650.29	13.118
650.62	13.504
650.94	11.852
651.27	11.918
651.60	13.333
651.92	12.937
652.25	10.835
652.58	13.667
652.90	15.780
653.23	12.941
653.56	12.183
653.88	12.199
654.21	9.457
654.54	12.903
654.86	12.564
655.19	13.012
655.52	13.313
655.84	11.517
656.17	12.944
656.49	17.053
656.82	17.445
657.15	12.908
657.47	9.718
657.80	7.209
658.13	7.119
658.45	10.782
658.78	10.845
659.10	10.634
659.43	10.488
659.75	11.051
660.08	11.310
660.41	12.257
660.73	10.912
661.06	13.345
661.38	11.350
661.71	11.499
662.03	14.592
662.36	13.187
662.68	13.053
663.01	14.847
663.33	11.833
663.66	10.233
663.98	13.023
664.31	14.499
664.63	13.134
664.96	12.174
665.28	11.479
665.61	14.286
665.93	14.565
666.26	11.280
666.58	13.199
666.91	10.353
667.23	14.387
667.56	12.559
667.88	12.230
668.21	15.036
668.53	16.076
668.86	12.500
669.18	12.736
669.50	12.591
669.83	10.698
670.15	11.888
670.48	9.330
670.80	14.055
671.13	10.067
671.45	12.329
671.77	16.309
672.10	13.861
672.42	13.483
672.75	14.565
673.07	14.669
673.39	13.945
673.72	10.256
674.04	10.833
674.37	12.288
674.69	11.349
675.01	13.111
675.34	12.387
675.66	15.278
675.98	14.191
676.31	13.073
676.63	11.164
676.95	13.409
677.28	11.294
677.60	13.735
677.92	12.385
678.25	13.786
678.57	13.636
678.89	12.395
679.22	13.647
679.54	12.048
679.86	10.736
680.18	12.233
680.51	14.962
680.83	10.736
681.15	12.800
681.48	14.959
681.80	15.083
682.12	11.089
682.44	10.669
682.77	13.466
683.09	11.899
683.41	12.955
683.73	12.442
684.06	14.381
684.38	12.258
684.70	11.111
685.02	12.863
685.34	11.858
685.67	12.383
685.99	13.020
686.31	12.743
686.63	13.544
686.96	10.266
687.28	10.303
687.60	11.787
687.92	12.727
688.24	13.306
688.56	13.755
688.89	14.955
689.21	16.667
689.53	11.369
689.85	14.651
690.17	13.839
690.49	11.820
690.82	11.408
691.14	11.429
691.46	14.720
691.78	12.387
692.10	13.548
692.42	12.338
692.74	13.034
693.06	13.063
693.39	9.729
693.71	9.729
694.03	14.550
694.35	11.682
694.67	14.141
694.99	12.533
695.31	13.316
695.63	10.750
695.95	12.879
696.27	13.472
696.59	12.222
696.91	11.485
697.23	14.139
697.56	13.861
697.88	14.194
698.20	9.795
698.52	14.588
698.84	11.722
699.16	12.250
699.48	12.782
699.80	12.655
700.12	14.286
700.44	13.725
700.76	11.337
701.08	12.727
701.40	12.048
701.72	14.198
702.04	12.541
702.36	10.702
702.68	13.213
703.00	11.212
703.32	13.196
703.64	7.345
703.96	13.043
704.28	13.190
704.60	10.794
704.91	7.256
705.23	11.628
705.55	13.781
705.87	16.606
706.19	13.333
706.51	12.027
706.83	15.113
707.15	9.657
707.47	13.165
707.79	13.281
708.11	12.500
708.43	16.000
708.74	11.886
709.06	14.930
709.38	8.563
709.70	12.722
710.02	11.146
710.34	15.480
710.66	7.692
710.98	11.589
711.29	14.098
711.61	10.847
711.93	15.309
712.25	19.588
712.57	12.821
712.89	10.821
713.20	20.069
713.52	12.195
713.84	10.239
714.16	13.746
714.48	13.226
714.80	15.385
715.11	13.070
715.43	12.539
715.75	13.333
716.07	8.970
716.39	11.409
716.70	9.594
717.02	8.779
717.34	16.194
717.66	10.177
717.97	10.870
718.29	11.715
718.61	15.748
718.93	14.341
719.24	17.110
719.56	10.843
719.88	16.151
720.20	10.606
720.51	11.877
720.83	8.108
721.15	11.345
721.46	12.500
721.78	8.696
722.10	13.755
722.42	9.129
722.73	7.347
723.05	18.776
723.37	16.949
723.68	19.369
724.00	14.957
724.32	14.222
724.63	10.909
724.95	10.480
725.27	14.286
725.58	14.407
725.90	7.143
726.22	9.653
726.53	14.915
726.85	16.105
727.16	14.340
727.48	10.931
727.80	12.955
728.11	8.051
728.43	8.627
728.74	4.839
729.06	8.400
729.38	16.917
729.69	12.351
730.01	12.692
730.32	11.940
730.64	16.608
730.96	10.189
731.27	13.667
731.59	12.881
731.90	10.510
732.22	17.035
732.53	14.286
732.85	13.475
733.16	18.519
733.48	9.353
733.80	7.609
734.11	8.136
734.43	9.278
734.74	12.121
735.06	10.098
735.37	14.502
735.69	15.488
736.00	8.014
736.32	12.416
736.63	9.507
736.95	13.993
737.26	7.829
737.58	10.738
737.89	12.454
738.21	8.647
738.52	15.638
738.83	12.664
739.15	7.424
739.46	14.567
739.78	10.256
740.09	15.359
740.41	13.406
740.72	8.268
741.04	12.955
741.35	12.766
741.66	16.114
741.98	17.347
742.29	10.396
742.61	14.660
742.92	9.953
743.23	3.704
743.55	16.742
743.86	11.962
744.18	10.526
744.49	7.979
744.80	6.522
745.12	18.182
745.43	13.659
745.74	17.708
746.06	8.780
746.37	13.613
746.68	15.640
747.00	9.574
747.31	14.925
747.62	10.194
747.94	14.833
748.25	10.891
748.56	11.475
748.88	13.089
749.19	16.489
749.50	14.778
749.82	7.547
750.13	7.339
750.44	14.286
750.75	17.537
751.07	14.599
751.38	12.261
751.69	9.412
752.01	17.829
752.32	7.968
752.63	14.625
752.94	9.052
753.26	17.155
753.57	11.765
753.88	11.062
754.19	6.250
754.51	7.025
754.82	12.551
755.13	16.667
755.44	15.726
755.75	12.109
756.07	13.619
756.38	17.358
756.69	13.027
757.00	13.000
757.31	15.686
757.63	11.890
757.94	12.778
758.25	9.863
758.56	9.043
758.87	11.048
759.18	12.461
759.50	13.455
759.81	15.719
760.12	14.516
760.43	13.030
760.74	9.877
761.05	14.462
761.36	11.932
761.67	16.061
761.99	13.605
762.30	11.636
762.61	13.043
762.92	11.312
763.23	11.261
763.54	9.813
763.85	13.136
764.16	11.203
764.47	13.306
764.78	12.454
765.10	13.468
765.41	11.041
765.72	13.968
766.03	8.647
766.34	8.394
766.65	14.741
766.96	8.081
767.27	7.979
767.58	6.897
767.89	3.546
768.20	11.364
768.51	8.791
768.82	10.345
769.13	12.903
769.44	8.584
769.75	4.566
770.06	12.500
770.37	8.654
770.68	11.168
770.99	13.122
771.30	15.196
771.61	14.480
771.92	15.086
772.23	17.734
772.54	15.591
772.85	11.728
773.16	9.551
773.47	19.608
773.78	16.340
774.09	13.772
774.39	4.667
774.70	12.739
775.01	20.000
775.32	12.143
775.63	9.917
775.94	11.450
776.25	18.110
776.56	11.667
776.87	12.500
777.18	5.983
777.48	10.345
777.79	5.217
778.10	2.857
778.41	3.604
778.72	11.111
779.03	9.774
779.34	14.184
779.65	6.849
779.95	9.589
780.26	14.483
780.57	10.569
780.88	13.386
781.19	6.897
781.50	11.628
781.80	11.834
782.11	11.950
782.42	14.615
782.73	10.072
783.04	11.852
783.34	9.028
783.65	-3.419
783.96	14.754
784.27	19.310
784.57	17.073
784.88	12.500
785.19	19.000
785.50	19.000
785.81	13.793
786.11	17.241
786.42	13.592
786.73	17.273
787.04	7.143
787.34	7.143
787.65	14.286
787.96	15.929
788.26	12.727
788.57	3.419
788.88	14.063
789.19	3.968
789.49	16.522
789.80	11.224
790.11	18.182
790.41	14.545
790.72	16.304
791.03	9.091
791.33	23.750
791.64	10.000
791.95	11.628
792.25	19.149
792.56	12.360
792.87	2.740
793.17	5.797
793.48	4.000
793.79	-7.500
794.09	12.500
794.40	4.717
794.70	8.738
795.01	7.317
795.32	10.256
795.62	1.905
795.93	9.804
796.23	12.264
796.54	14.583
796.85	19.118
797.15	15.493
797.46	36.111
797.76	15.152
798.07	13.953
798.37	2.632
798.68	10.606
798.99	18.519
799.29	27.143
799.60	11.594
799.90	17.333
800.21	22.951
800.51	13.846
800.82	-5.085
801.12	15.942
801.43	8.197
801.73	12.698
802.04	2.000
802.34	16.418
802.65	1.923
802.95	0.000
803.26	-7.692
803.56	9.804
803.87	-17.391
804.17	2.667
804.48	22.222
804.78	-1.852
805.09	4.348
805.39	13.333
805.70	3.704
806.00	-7.018
806.30	7.042
806.61	14.286
806.91	0.000
807.22	25.000
807.52	21.333
807.83	5.455
808.13	29.167
808.43	10.294
808.74	7.463
809.04	13.559
809.35	1.923
809.65	14.062
809.95	-10.811
810.26	13.636
810.56	13.699
810.86	21.429
811.17	12.000
811.47	16.327
811.77	-7.895
812.08	-11.364
812.38	7.547
812.69	-27.500
812.99	3.030
813.29	-2.632
813.59	8.571
813.90	11.364
814.20	-20.513
814.50	23.077
814.81	-1.887
815.11	-2.128
815.41	15.254
815.72	7.143
816.02	11.765
816.32	22.917
816.62	29.268
816.93	10.811
817.23	-5.714
817.53	27.083
817.84	-6.522
818.14	13.462
818.44	0.000
818.74	26.087
819.04	2.500
819.35	21.622
819.65	-5.882
819.95	0.000
820.25	28.571
820.56	15.000
820.86	-24.138
821.16	52.500
821.46	17.021
821.76	-17.500
822.07	2.326
822.37	-24.324
822.67	6.250
822.97	35.714
823.27	-14.286
823.57	-28.000
823.88	-11.111
824.18	14.286
824.48	44.118
824.78	6.452
825.08	-4.348
825.38	12.121
825.69	16.667
825.99	18.421
826.29	-2.778
826.59	-40.000
826.89	-23.810
827.19	30.435
827.49	37.500
827.79	28.571
828.09	21.429
828.39	24.242
828.70	35.135
829.00	10.714
829.30	-76.190
829.60	30.000
829.90	-3.125
830.20	7.895
830.50	3.704
830.80	17.391
831.10	-4.545
831.40	42.424
831.70	19.355
832.00	14.286
832.30	-38.095
832.60	-58.333
832.90	34.483
833.20	-30.000
833.50	12.121
833.80	22.222
834.10	26.923
834.40	15.625
834.70	0.000
835.00	5.263
835.30	57.692
835.60	0.000
835.90	16.129
836.20	45.455
836.50	17.857
836.80	-46.154
837.10	14.286
837.40	-366.667
837.70	45.455
838.00	-100.000
838.30	17.391
838.60	-15.385
838.90	40.909
839.19	7.143
839.49	43.333
839.79	-30.769
840.09	-41.667
840.39	25.000
840.69	17.857
840.99	-26.923
841.29	-26.316
841.59	-80.000
841.88	-63.636
842.18	-40.000
842.48	12.500
842.78	-20.000
843.08	22.222
843.38	-80.000
843.68	30.435
843.97	-73.333
844.27	6.667
844.57	5.000
844.87	-16.667
845.17	28.571
845.47	26.667
845.76	19.048
846.06	35.294
846.36	-20.000
846.66	7.143
846.96	26.667
847.25	-100.000
847.55	71.429
847.85	0.000
848.15	-18.182
848.44	-633.333
848.74	30.000
849.04	0.000
849.34	63.636
849.63	-150.000
849.93	-160.000
850.23	-27.778
850.53	30.000
850.82	-23.077
851.12	0.000
851.42	6.667
851.71	7.692
852.01	28.571
852.31	100.000
852.61	-72.727
852.90	10.000
853.20	5.263
853.50	16.667
853.79	34.783
854.09	33.333
854.39	42.105
854.68	16.667
854.98	25.806
855.28	-30.769
855.57	20.000
855.87	27.778
856.17	29.630
856.46	50.000
856.76	-20.000
857.05	77.778
857.35	8.000
857.65	16.667
857.94	-23.077
858.24	10.345
858.53	88.889
858.83	18.519
859.13	40.909
859.42	0.000
859.72	-225.000
860.01	-200.000
860.31	40.000
860.60	23.810
860.90	-233.333
861.20	-53.333
861.49	-800.000
861.79	13.333
862.08	-20.000
862.38	46.667
862.67	60.000
862.97	-116.667
863.26	-25.000
863.56	27.778
863.85	33.333
864.15	5.556
864.44	-30.000
864.74	14.286
865.03	275.000
865.33	-220.000
865.62	16.667
865.92	-16.667
866.21	-50.000
866.51	6.250
866.80	36.364
867.10	-450.000
867.39	41.667
867.69	0.000
867.98	0.000
868.27	-133.333
868.57	6.667
868.86	5.556
869.16	-46.154
869.45	6.667
869.75	-700.000
870.04	0.000
870.33	-100.000
870.63	28.571
870.92	100.000
871.22	-260.000
871.51	-500.000
871.80	-122.222
872.10	233.333
>>>>>End Processed Spectral Data<<<<<
