SpectraSuite Data File
++++++++++++++++++++++++++++++++++++
Date: Fri May 15 17:11:40 PDT 2015
User: schluterlab
Dark Spectrum Present: Yes
Reference Spectrum Present: Yes
Number of Sampled Component Spectra: 1
Spectrometers: USB2E3373
Integration Time (usec): 3000 (USB2E3373)
Spectra Averaged: 3 (USB2E3373)
Boxcar Smoothing: 0 (USB2E3373)
Correct for Electrical Dark: No (USB2E3373)
Strobe/Lamp Enabled: No (USB2E3373)
Correct for Detector Non-linearity: No (USB2E3373)
Correct for Stray Light: No (USB2E3373)
Number of Pixels in Processed Spectrum: 2048
>>>>>Begin Processed Spectral Data<<<<<
178.53	0.000
178.91	0.000
179.29	112.500
179.67	-300.000
180.04	-128.571
180.42	275.000
180.80	400.000
181.18	-0.000
181.56	-100.000
181.94	350.000
182.31	100.000
182.69	180.000
183.07	0.000
183.45	140.000
183.83	83.333
184.20	0.000
184.58	22.222
184.96	-225.000
185.34	-33.333
185.72	-400.000
186.09	76.923
186.47	700.000
186.85	166.667
187.23	122.222
187.61	-1300.000
187.98	-133.333
188.36	111.111
188.74	-400.000
189.12	47.059
189.49	55.556
189.87	0.000
190.25	107.143
190.63	300.000
191.00	100.000
191.38	-10.526
191.76	250.000
192.14	-25.000
192.51	100.000
192.89	-22.222
193.27	-28.571
193.65	50.000
194.02	27.273
194.40	40.000
194.78	-12.500
195.15	-16.667
195.53	25.000
195.91	-25.000
196.29	0.000
196.66	76.923
197.04	-42.857
197.42	77.778
197.79	-233.333
198.17	-92.308
198.55	900.000
198.92	-166.667
199.30	200.000
199.68	140.000
200.05	166.667
200.43	0.000
200.81	-66.667
201.18	133.333
201.56	900.000
201.94	0.000
202.31	-233.333
202.69	60.000
203.07	25.000
203.44	300.000
203.82	0.000
204.19	114.286
204.57	-333.333
204.95	37.500
205.32	10.000
205.70	28.571
206.08	175.000
206.45	222.222
206.83	192.857
207.20	-42.857
207.58	-200.000
207.96	166.667
208.33	-40.000
208.71	75.000
209.08	-83.333
209.46	-100.000
209.84	220.000
210.21	-300.000
210.59	128.571
210.96	16.667
211.34	175.000
211.71	86.667
212.09	-171.429
212.46	-1900.000
212.84	0.000
213.22	140.000
213.59	250.000
213.97	107.692
214.34	63.636
214.72	-16.667
215.09	50.000
215.47	115.385
215.84	18.182
216.22	0.000
216.59	87.500
216.97	650.000
217.34	50.000
217.72	-60.000
218.09	25.000
218.47	37.500
218.84	200.000
219.22	-22.222
219.59	-120.000
219.97	333.333
220.34	150.000
220.72	42.857
221.09	-50.000
221.47	0.000
221.84	-500.000
222.22	-650.000
222.59	54.545
222.97	100.000
223.34	333.333
223.72	-7.143
224.09	38.095
224.46	57.143
224.84	-33.333
225.21	-20.000
225.59	26.667
225.96	150.000
226.34	150.000
226.71	-42.857
227.08	-33.333
227.46	137.500
227.83	-550.000
228.21	144.444
228.58	27.273
228.95	50.000
229.33	110.000
229.70	6.250
230.08	75.000
230.45	0.000
230.82	100.000
231.20	6.667
231.57	78.571
231.95	157.143
232.32	-110.000
232.69	107.143
233.07	-66.667
233.44	80.000
233.81	60.000
234.19	-22.222
234.56	52.941
234.93	-250.000
235.31	175.000
235.68	0.000
236.05	-53.846
236.43	10.000
236.80	0.000
237.17	71.875
237.55	-35.000
237.92	-37.037
238.29	16.667
238.67	10.000
239.04	14.706
239.41	2.439
239.79	-16.667
240.16	24.390
240.53	18.421
240.91	19.565
241.28	19.048
241.65	17.857
242.02	36.986
242.40	18.333
242.77	10.169
243.14	13.636
243.51	6.250
243.89	20.690
244.26	1.149
244.63	16.667
245.00	7.216
245.38	10.309
245.75	-4.494
246.12	16.379
246.49	12.397
246.87	6.731
247.24	16.807
247.61	8.772
247.98	7.317
248.36	8.750
248.73	14.474
249.10	4.545
249.47	8.861
249.84	12.418
250.22	11.765
250.59	6.536
250.96	17.371
251.33	9.302
251.70	9.412
252.08	7.614
252.45	9.901
252.82	6.030
253.19	8.295
253.56	7.009
253.94	15.766
254.31	11.304
254.68	9.649
255.05	8.661
255.42	7.424
255.79	10.811
256.16	9.728
256.54	14.925
256.91	11.407
257.28	12.268
257.65	7.491
258.02	4.965
258.39	9.428
258.76	9.890
259.14	9.967
259.51	11.003
259.88	8.591
260.25	9.150
260.62	9.722
260.99	8.136
261.36	6.164
261.73	7.595
262.10	11.550
262.47	8.282
262.85	5.643
263.22	9.538
263.59	7.165
263.96	11.180
264.33	12.727
264.70	9.226
265.07	8.036
265.44	7.932
265.81	11.582
266.18	9.290
266.55	11.311
266.92	13.212
267.29	11.749
267.66	9.974
268.03	10.471
268.40	10.444
268.77	12.567
269.14	10.552
269.51	13.625
269.88	10.224
270.25	7.908
270.62	7.317
270.99	8.440
271.36	10.513
271.73	7.981
272.10	10.706
272.47	10.402
272.84	7.426
273.21	11.369
273.58	8.675
273.95	10.526
274.32	9.469
274.69	6.787
275.06	9.598
275.43	8.163
275.80	8.168
276.17	10.575
276.54	11.777
276.91	11.623
277.28	9.825
277.65	9.091
278.02	11.064
278.39	7.659
278.76	9.015
279.13	5.602
279.50	13.655
279.87	9.287
280.23	9.032
280.60	7.407
280.97	10.505
281.34	7.308
281.71	10.062
282.08	7.975
282.45	8.219
282.82	9.459
283.19	7.737
283.56	10.212
283.92	7.590
284.29	7.115
284.66	6.977
285.03	8.055
285.40	9.074
285.77	8.963
286.14	8.484
286.51	12.546
286.87	8.592
287.24	8.287
287.61	7.055
287.98	11.228
288.35	6.066
288.72	7.706
289.08	8.681
289.45	8.436
289.82	7.343
290.19	8.191
290.56	7.890
290.93	7.744
291.29	8.783
291.66	7.244
292.03	8.453
292.40	7.742
292.77	8.293
293.13	6.169
293.50	6.070
293.87	8.092
294.24	6.955
294.60	8.942
294.97	7.143
295.34	5.521
295.71	7.899
296.08	6.726
296.44	4.979
296.81	7.083
297.18	6.667
297.55	8.808
297.91	6.986
298.28	8.971
298.65	7.463
299.02	5.795
299.38	5.062
299.75	6.621
300.12	4.974
300.48	5.929
300.85	5.703
301.22	6.883
301.59	6.447
301.95	6.203
302.32	7.134
302.69	6.716
303.05	6.807
303.42	6.227
303.79	7.009
304.15	7.049
304.52	3.567
304.89	5.263
305.25	6.174
305.62	5.834
305.99	5.497
306.35	6.705
306.72	6.074
307.09	5.587
307.45	6.429
307.82	6.250
308.19	5.691
308.55	6.652
308.92	7.298
309.29	5.475
309.65	6.136
310.02	6.161
310.38	5.488
310.75	6.776
311.12	5.167
311.48	6.045
311.85	5.969
312.22	5.696
312.58	5.945
312.95	4.909
313.31	4.865
313.68	5.131
314.05	5.306
314.41	7.113
314.78	5.670
315.14	7.194
315.51	7.764
315.87	6.660
316.24	7.988
316.61	7.185
316.97	7.242
317.34	7.520
317.70	7.553
318.07	7.981
318.43	9.020
318.80	8.049
319.16	7.520
319.53	8.927
319.89	7.874
320.26	9.211
320.62	8.726
320.99	10.752
321.35	9.661
321.72	10.177
322.08	10.977
322.45	9.848
322.81	12.279
323.18	10.991
323.54	12.066
323.91	12.853
324.27	13.965
324.64	14.888
325.00	15.602
325.37	15.611
325.73	14.959
326.10	16.803
326.46	16.592
326.83	18.198
327.19	18.832
327.56	18.940
327.92	19.718
328.29	20.625
328.65	20.849
329.01	22.151
329.38	22.857
329.74	22.852
330.11	24.467
330.47	23.191
330.84	24.904
331.20	27.947
331.56	26.389
331.93	26.667
332.29	27.131
332.66	29.140
333.02	28.346
333.38	28.323
333.75	30.220
334.11	29.454
334.48	30.916
334.84	30.495
335.20	30.741
335.57	30.100
335.93	31.978
336.29	31.860
336.66	31.153
337.02	31.134
337.38	31.389
337.75	31.545
338.11	32.552
338.47	32.938
338.84	32.717
339.20	33.547
339.56	33.394
339.93	33.841
340.29	33.761
340.65	34.050
341.02	32.713
341.38	33.805
341.74	32.862
342.11	33.016
342.47	33.808
342.83	33.391
343.20	34.843
343.56	33.565
343.92	34.987
344.28	34.757
344.65	33.765
345.01	34.659
345.37	34.903
345.73	35.481
346.10	36.324
346.46	34.483
346.82	34.943
347.19	33.333
347.55	35.255
347.91	34.547
348.27	34.276
348.63	35.860
349.00	34.619
349.36	36.825
349.72	35.075
350.08	35.492
350.45	35.435
350.81	34.219
351.17	34.853
351.53	36.490
351.89	34.682
352.26	34.960
352.62	35.806
352.98	35.261
353.34	35.829
353.70	35.922
354.07	35.242
354.43	36.429
354.79	36.168
355.15	35.952
355.51	36.709
355.87	36.003
356.24	35.155
356.60	36.217
356.96	37.143
357.32	36.422
357.68	36.982
358.04	37.884
358.40	36.897
358.77	38.118
359.13	37.470
359.49	35.901
359.85	37.363
360.21	36.762
360.57	36.878
360.93	37.746
361.29	37.085
361.66	37.382
362.02	38.333
362.38	38.919
362.74	39.516
363.10	38.977
363.46	38.769
363.82	38.467
364.18	37.343
364.54	38.456
364.90	38.853
365.26	39.156
365.62	39.927
365.98	38.856
366.35	40.422
366.71	39.468
367.07	39.187
367.43	38.893
367.79	38.516
368.15	39.555
368.51	40.422
368.87	40.129
369.23	39.495
369.59	40.525
369.95	40.029
370.31	41.185
370.67	40.970
371.03	39.582
371.39	40.044
371.75	42.344
372.11	41.298
372.47	41.642
372.83	42.158
373.19	41.369
373.55	41.661
373.91	40.677
374.27	43.444
374.63	43.360
374.99	42.553
375.35	43.872
375.71	44.196
376.07	43.750
376.42	43.401
376.78	44.765
377.14	45.633
377.50	43.958
377.86	43.909
378.22	44.544
378.58	45.128
378.94	43.415
379.30	45.103
379.66	46.144
380.02	45.616
380.38	44.248
380.74	45.003
381.09	46.380
381.45	45.138
381.81	45.898
382.17	46.447
382.53	47.283
382.89	47.520
383.25	48.849
383.61	48.415
383.97	47.619
384.32	47.280
384.68	47.430
385.04	46.936
385.40	47.915
385.76	49.497
386.12	48.060
386.48	49.681
386.83	48.256
387.19	48.718
387.55	49.875
387.91	49.389
388.27	48.718
388.62	50.787
388.98	49.355
389.34	50.156
389.70	51.523
390.06	50.220
390.42	49.870
390.77	50.621
391.13	51.072
391.49	51.940
391.85	51.072
392.20	50.596
392.56	49.968
392.92	51.850
393.28	50.295
393.64	50.150
393.99	52.853
394.35	51.233
394.71	52.554
395.07	51.163
395.42	51.548
395.78	51.987
396.14	51.324
396.50	52.695
396.85	51.771
397.21	51.253
397.57	52.539
397.92	51.768
398.28	52.701
398.64	51.265
399.00	52.032
399.35	52.032
399.71	51.694
400.07	51.874
400.42	51.591
400.78	52.970
401.14	52.087
401.49	52.829
401.85	52.102
402.21	51.446
402.57	53.000
402.92	52.572
403.28	51.754
403.63	53.783
403.99	52.296
404.35	53.217
404.70	50.893
405.06	51.998
405.42	52.828
405.77	51.075
406.13	52.445
406.49	51.983
406.84	52.262
407.20	53.402
407.55	51.384
407.91	51.671
408.27	51.880
408.62	51.631
408.98	52.002
409.34	52.540
409.69	51.938
410.05	51.786
410.40	50.741
410.76	51.387
411.11	52.188
411.47	53.320
411.83	50.596
412.18	53.218
412.54	51.498
412.89	52.032
413.25	52.166
413.60	52.795
413.96	51.534
414.31	51.585
414.67	52.790
415.03	51.465
415.38	51.893
415.74	52.052
416.09	52.123
416.45	51.722
416.80	52.545
417.16	53.177
417.51	52.032
417.87	51.369
418.22	54.016
418.58	53.311
418.93	54.107
419.29	51.985
419.64	54.115
420.00	55.353
420.35	53.493
420.71	53.402
421.06	53.775
421.42	53.546
421.77	54.451
422.12	54.540
422.48	53.492
422.83	54.176
423.19	54.007
423.54	53.616
423.90	53.534
424.25	54.305
424.61	54.100
424.96	54.065
425.31	55.864
425.67	54.167
426.02	54.770
426.38	55.354
426.73	55.266
427.09	55.823
427.44	55.588
427.79	54.979
428.15	56.129
428.50	56.208
428.85	53.563
429.21	55.348
429.56	56.712
429.92	57.370
430.27	55.639
430.62	55.672
430.98	56.476
431.33	56.362
431.68	55.521
432.04	55.841
432.39	56.018
432.74	55.382
433.10	56.839
433.45	56.452
433.80	57.226
434.16	57.452
434.51	56.828
434.86	57.666
435.22	57.431
435.57	58.952
435.92	57.904
436.28	56.291
436.63	57.558
436.98	56.779
437.34	58.076
437.69	59.511
438.04	58.348
438.39	56.628
438.75	59.259
439.10	58.517
439.45	61.047
439.81	59.450
440.16	61.045
440.51	58.388
440.86	61.450
441.22	58.824
441.57	60.927
441.92	60.178
442.27	60.588
442.63	59.315
442.98	60.770
443.33	59.878
443.68	60.053
444.03	61.500
444.39	60.994
444.74	62.430
445.09	61.526
445.44	61.994
445.79	62.197
446.15	61.123
446.50	60.677
446.85	62.806
447.20	61.992
447.55	61.384
447.91	61.647
448.26	62.038
448.61	62.119
448.96	62.536
449.31	62.197
449.66	61.266
450.02	62.122
450.37	62.715
450.72	62.314
451.07	64.114
451.42	62.172
451.77	61.603
452.12	61.842
452.47	63.104
452.83	61.896
453.18	62.682
453.53	63.401
453.88	63.509
454.23	62.569
454.58	62.657
454.93	62.500
455.28	61.968
455.63	62.740
455.98	61.996
456.34	62.452
456.69	63.342
457.04	63.705
457.39	63.548
457.74	62.273
458.09	62.566
458.44	63.253
458.79	62.129
459.14	63.043
459.49	63.761
459.84	62.493
460.19	64.320
460.54	63.509
460.89	63.807
461.24	63.975
461.59	63.420
461.94	63.836
462.29	63.028
462.64	63.987
462.99	63.846
463.34	63.630
463.69	63.835
464.04	62.893
464.39	63.190
464.74	62.209
465.09	64.566
465.44	63.762
465.79	62.075
466.14	64.367
466.49	63.830
466.84	62.760
467.19	63.517
467.54	63.729
467.89	63.613
468.24	62.591
468.59	62.730
468.94	62.159
469.29	63.869
469.64	63.363
469.99	64.121
470.34	62.935
470.68	65.399
471.03	64.190
471.38	63.909
471.73	63.936
472.08	62.958
472.43	64.832
472.78	62.234
473.13	63.673
473.48	64.365
473.83	63.014
474.17	64.896
474.52	63.178
474.87	64.788
475.22	63.270
475.57	62.338
475.92	63.412
476.27	63.562
476.61	65.046
476.96	62.688
477.31	63.169
477.66	63.876
478.01	64.570
478.36	63.126
478.70	64.981
479.05	64.011
479.40	64.123
479.75	63.347
480.10	63.799
480.45	63.550
480.79	65.710
481.14	64.191
481.49	63.350
481.84	64.382
482.19	64.780
482.53	65.372
482.88	64.200
483.23	62.764
483.58	63.396
483.92	63.069
484.27	62.033
484.62	62.662
484.97	62.562
485.31	64.342
485.66	64.643
486.01	65.233
486.36	65.048
486.70	65.297
487.05	64.284
487.40	64.116
487.75	63.521
488.09	63.103
488.44	62.999
488.79	63.728
489.13	63.381
489.48	64.087
489.83	63.318
490.17	63.281
490.52	64.018
490.87	61.870
491.22	63.754
491.56	63.093
491.91	61.329
492.26	64.317
492.60	63.580
492.95	63.797
493.30	62.091
493.64	63.310
493.99	64.541
494.34	63.447
494.68	63.619
495.03	62.482
495.37	64.132
495.72	63.655
496.07	63.707
496.41	63.349
496.76	63.335
497.11	64.136
497.45	62.673
497.80	64.531
498.14	62.444
498.49	62.671
498.84	63.273
499.18	63.855
499.53	63.641
499.87	62.840
500.22	64.194
500.56	64.044
500.91	62.851
501.26	62.877
501.60	63.355
501.95	62.688
502.29	63.680
502.64	62.790
502.98	62.210
503.33	63.785
503.67	63.181
504.02	63.490
504.36	63.731
504.71	62.828
505.06	62.355
505.40	63.046
505.75	63.763
506.09	62.443
506.44	64.887
506.78	64.235
507.13	63.185
507.47	63.133
507.82	62.553
508.16	63.708
508.51	64.533
508.85	63.213
509.19	62.959
509.54	64.290
509.88	63.107
510.23	64.658
510.57	62.106
510.92	62.473
511.26	63.775
511.61	63.861
511.95	64.110
512.30	63.027
512.64	62.660
512.98	62.942
513.33	64.633
513.67	63.900
514.02	63.902
514.36	63.943
514.70	64.510
515.05	63.807
515.39	63.813
515.74	63.593
516.08	64.196
516.42	64.429
516.77	63.136
517.11	64.510
517.46	64.333
517.80	62.872
518.14	64.666
518.49	62.200
518.83	63.852
519.17	63.250
519.52	62.345
519.86	63.986
520.20	63.183
520.55	62.539
520.89	63.237
521.23	63.141
521.58	63.785
521.92	62.436
522.26	64.021
522.61	63.182
522.95	66.093
523.29	64.041
523.64	64.104
523.98	63.448
524.32	62.693
524.66	63.508
525.01	63.636
525.35	63.966
525.69	64.040
526.04	64.021
526.38	65.045
526.72	62.067
527.06	62.970
527.41	64.116
527.75	62.735
528.09	62.724
528.43	65.024
528.78	63.234
529.12	63.290
529.46	63.288
529.80	62.571
530.15	64.620
530.49	64.579
530.83	65.390
531.17	63.868
531.51	64.432
531.86	63.358
532.20	63.535
532.54	62.900
532.88	62.628
533.22	64.113
533.57	62.910
533.91	64.034
534.25	64.583
534.59	62.091
534.93	62.681
535.27	63.071
535.62	63.059
535.96	63.992
536.30	62.599
536.64	64.369
536.98	62.927
537.32	64.936
537.66	65.498
538.01	63.077
538.35	63.800
538.69	63.715
539.03	62.543
539.37	64.536
539.71	63.872
540.05	63.815
540.39	63.504
540.73	62.483
541.07	64.434
541.42	64.046
541.76	64.556
542.10	64.143
542.44	62.891
542.78	63.042
543.12	61.264
543.46	63.491
543.80	64.053
544.14	62.016
544.48	62.891
544.82	63.841
545.16	63.388
545.50	62.684
545.84	63.881
546.18	63.830
546.52	62.365
546.86	63.336
547.20	63.805
547.54	64.028
547.88	64.742
548.22	62.262
548.56	62.995
548.90	64.488
549.24	63.154
549.58	62.976
549.92	62.044
550.26	62.564
550.60	64.535
550.94	63.928
551.28	64.297
551.62	64.615
551.96	62.556
552.30	62.865
552.64	63.681
552.98	64.346
553.32	63.053
553.66	64.804
554.00	64.307
554.34	64.402
554.68	63.643
555.02	63.988
555.36	64.099
555.69	63.736
556.03	63.526
556.37	63.345
556.71	65.560
557.05	64.280
557.39	62.825
557.73	64.993
558.07	64.630
558.41	63.706
558.75	65.705
559.08	63.593
559.42	65.238
559.76	64.371
560.10	64.450
560.44	62.695
560.78	63.916
561.12	65.162
561.45	65.355
561.79	64.356
562.13	65.366
562.47	63.165
562.81	64.481
563.15	64.175
563.48	64.851
563.82	64.447
564.16	65.947
564.50	64.730
564.84	64.592
565.17	64.990
565.51	66.189
565.85	66.461
566.19	65.385
566.52	65.550
566.86	65.167
567.20	63.948
567.54	67.336
567.88	67.018
568.21	66.120
568.55	66.359
568.89	67.300
569.23	65.575
569.56	66.594
569.90	67.763
570.24	66.059
570.57	67.564
570.91	67.201
571.25	66.327
571.59	66.085
571.92	65.837
572.26	66.244
572.60	66.016
572.93	64.700
573.27	65.423
573.61	65.603
573.95	66.166
574.28	65.651
574.62	65.243
574.96	65.445
575.29	65.598
575.63	64.214
575.97	64.381
576.30	65.448
576.64	65.086
576.98	66.435
577.31	66.896
577.65	66.628
577.98	66.314
578.32	66.069
578.66	65.377
578.99	64.109
579.33	65.026
579.67	65.127
580.00	66.025
580.34	65.398
580.67	64.664
581.01	65.610
581.35	66.774
581.68	66.995
582.02	66.214
582.35	65.998
582.69	67.004
583.02	66.140
583.36	65.791
583.70	65.758
584.03	67.223
584.37	66.206
584.70	66.731
585.04	65.233
585.37	66.265
585.71	66.477
586.04	66.641
586.38	66.578
586.72	66.141
587.05	67.447
587.39	67.431
587.72	69.081
588.06	66.787
588.39	66.306
588.73	67.247
589.06	67.482
589.40	65.814
589.73	67.506
590.07	67.485
590.40	66.757
590.73	69.152
591.07	66.455
591.40	66.385
591.74	67.738
592.07	68.646
592.41	66.917
592.74	67.304
593.08	66.364
593.41	67.479
593.75	67.190
594.08	66.152
594.41	67.322
594.75	67.672
595.08	67.575
595.42	67.869
595.75	68.719
596.09	67.866
596.42	67.838
596.75	68.028
597.09	66.469
597.42	67.254
597.75	67.293
598.09	65.369
598.42	66.516
598.76	66.409
599.09	67.428
599.42	65.669
599.76	66.554
600.09	65.950
600.42	67.020
600.76	65.788
601.09	66.298
601.42	66.784
601.76	65.899
602.09	67.038
602.42	68.113
602.76	66.808
603.09	68.023
603.42	68.520
603.76	67.661
604.09	67.517
604.42	67.428
604.76	67.913
605.09	66.453
605.42	66.411
605.75	66.856
606.09	67.346
606.42	66.430
606.75	66.970
607.09	66.549
607.42	66.814
607.75	67.096
608.08	65.993
608.42	66.286
608.75	67.518
609.08	67.115
609.41	66.497
609.75	65.877
610.08	66.450
610.41	66.715
610.74	66.894
611.07	67.804
611.41	68.293
611.74	66.791
612.07	68.897
612.40	67.615
612.73	68.192
613.07	65.861
613.40	66.904
613.73	67.487
614.06	66.388
614.39	66.949
614.72	66.499
615.06	67.933
615.39	66.485
615.72	66.308
616.05	67.039
616.38	65.014
616.71	66.850
617.05	67.078
617.38	67.882
617.71	67.987
618.04	67.048
618.37	67.528
618.70	66.733
619.03	66.319
619.36	64.761
619.69	69.295
620.03	67.714
620.36	67.811
620.69	66.952
621.02	67.049
621.35	67.303
621.68	66.412
622.01	66.667
622.34	67.678
622.67	67.429
623.00	66.998
623.33	67.683
623.66	67.240
623.99	65.129
624.32	67.681
624.65	66.541
624.99	67.946
625.32	66.717
625.65	67.007
625.98	68.171
626.31	67.082
626.64	67.764
626.97	67.190
627.30	67.338
627.63	66.551
627.96	67.116
628.29	66.790
628.62	68.535
628.95	64.729
629.28	68.246
629.61	67.996
629.94	66.373
630.26	64.822
630.59	69.615
630.92	67.692
631.25	66.256
631.58	68.392
631.91	66.996
632.24	66.170
632.57	66.364
632.90	68.802
633.23	66.588
633.56	69.647
633.89	67.448
634.22	68.025
634.55	67.853
634.88	67.561
635.20	67.179
635.53	68.667
635.86	66.580
636.19	67.270
636.52	67.985
636.85	67.370
637.18	65.786
637.51	64.151
637.83	65.440
638.16	67.940
638.49	64.850
638.82	67.237
639.15	65.943
639.48	67.675
639.81	67.364
640.13	68.975
640.46	66.327
640.79	66.421
641.12	66.470
641.45	68.769
641.77	65.481
642.10	68.404
642.43	67.524
642.76	66.997
643.09	67.205
643.41	65.858
643.74	67.381
644.07	65.353
644.40	65.372
644.73	65.324
645.05	65.604
645.38	66.138
645.71	65.780
646.04	67.684
646.36	66.667
646.69	67.626
647.02	68.620
647.35	69.216
647.67	64.534
648.00	68.284
648.33	65.870
648.66	67.288
648.98	67.002
649.31	69.752
649.64	66.562
649.96	66.451
650.29	64.395
650.62	65.641
650.94	67.407
651.27	65.736
651.60	64.505
651.92	66.434
652.25	65.542
652.58	69.000
652.90	69.983
653.23	66.387
653.56	63.790
653.88	63.918
654.21	65.499
654.54	64.856
654.86	68.591
655.19	66.667
655.52	71.130
655.84	71.162
656.17	79.664
656.49	100.000
656.82	100.000
657.15	92.852
657.47	60.898
657.80	45.441
658.13	44.043
658.45	68.053
658.78	66.674
659.10	64.169
659.43	64.231
659.75	64.874
660.08	64.345
660.41	65.781
660.73	64.917
661.06	66.031
661.38	65.362
661.71	64.066
662.03	69.099
662.36	67.033
662.68	65.708
663.01	64.847
663.33	67.053
663.66	66.279
663.98	67.442
664.31	65.032
664.63	64.055
664.96	64.130
665.28	65.784
665.61	66.667
665.93	66.522
666.26	66.161
666.58	68.456
666.91	66.353
667.23	65.330
667.56	68.246
667.88	65.707
668.21	65.155
668.53	65.721
668.86	66.981
669.18	61.085
669.50	66.828
669.83	62.326
670.15	65.967
670.48	67.225
670.80	66.820
671.13	63.087
671.45	64.840
671.77	66.309
672.10	67.327
672.42	65.169
672.75	65.897
673.07	68.336
673.39	66.789
673.72	63.511
674.04	65.208
674.37	68.008
674.69	64.454
675.01	65.111
675.34	64.865
675.66	65.509
675.98	68.071
676.31	67.431
676.63	67.221
676.95	64.318
677.28	69.647
677.60	70.120
677.92	65.596
678.25	65.427
678.57	69.481
678.89	65.966
679.22	71.141
679.54	63.253
679.86	64.414
680.18	67.961
680.51	67.614
680.83	63.221
681.15	64.800
681.48	68.238
681.80	69.215
682.12	65.121
682.44	63.808
682.77	69.536
683.09	67.506
683.41	63.182
683.73	67.281
684.06	65.929
684.38	64.946
684.70	71.460
685.02	64.523
685.34	67.391
685.67	68.856
685.99	67.089
686.31	67.965
686.63	66.419
686.96	63.498
687.28	64.242
687.60	64.068
687.92	69.899
688.24	65.726
688.56	68.341
688.89	66.071
689.21	63.556
689.53	68.445
689.85	67.209
690.17	63.616
690.49	67.376
690.82	66.505
691.14	66.667
691.46	65.888
691.78	68.243
692.10	67.742
692.42	63.853
692.74	63.889
693.06	65.766
693.39	66.968
693.71	65.158
694.03	65.820
694.35	67.991
694.67	64.899
694.99	67.885
695.31	62.402
695.63	68.000
695.95	64.141
696.27	63.990
696.59	69.167
696.91	63.866
697.23	64.267
697.56	67.079
697.88	69.032
698.20	66.059
698.52	65.176
698.84	62.679
699.16	66.750
699.48	67.419
699.80	66.253
700.12	64.420
700.44	67.787
700.76	63.372
701.08	67.273
701.40	64.759
701.72	72.531
702.04	66.997
702.36	71.906
702.68	67.267
703.00	69.091
703.32	66.276
703.64	61.017
703.96	60.870
704.28	69.325
704.60	68.889
704.91	66.562
705.23	65.449
705.55	69.258
705.87	69.675
706.19	62.963
706.51	62.887
706.83	67.203
707.15	62.305
707.47	71.148
707.79	66.146
708.11	65.000
708.43	66.000
708.74	68.992
709.06	72.958
709.38	71.254
709.70	64.497
710.02	62.102
710.34	65.325
710.66	61.218
710.98	62.583
711.29	67.213
711.61	70.169
711.93	67.427
712.25	71.821
712.57	69.963
712.89	67.164
713.20	66.090
713.52	66.202
713.84	65.870
714.16	69.759
714.48	62.581
714.80	68.590
715.11	67.477
715.43	66.144
715.75	64.667
716.07	64.452
716.39	66.443
716.70	67.897
717.02	61.450
717.34	64.372
717.66	68.142
717.97	69.565
718.29	65.690
718.61	70.079
718.93	63.178
719.24	69.202
719.56	69.076
719.88	70.103
720.20	66.667
720.51	63.218
720.83	68.726
721.15	74.790
721.46	66.935
721.78	66.008
722.10	62.825
722.42	65.975
722.73	67.755
723.05	68.571
723.37	72.881
723.68	76.126
724.00	72.222
724.32	65.778
724.63	68.636
724.95	66.376
725.27	70.968
725.58	66.525
725.90	63.095
726.22	64.865
726.53	67.458
726.85	66.667
727.16	71.321
727.48	65.587
727.80	63.968
728.11	71.610
728.43	58.039
728.74	65.726
729.06	61.600
729.38	72.180
729.69	64.940
730.01	63.846
730.32	69.776
730.64	61.484
730.96	73.962
731.27	63.667
731.59	68.136
731.90	67.516
732.22	68.139
732.53	68.771
732.85	71.631
733.16	69.697
733.48	63.669
733.80	73.551
734.11	65.763
734.43	71.134
734.74	66.970
735.06	67.752
735.37	66.163
735.69	68.350
736.00	65.854
736.32	68.792
736.63	67.606
736.95	65.529
737.26	67.972
737.58	64.765
737.89	68.864
738.21	65.789
738.52	67.901
738.83	68.559
739.15	64.192
739.46	70.472
739.78	63.004
740.09	64.379
740.41	63.768
740.72	64.961
741.04	63.158
741.35	63.404
741.66	64.929
741.98	69.898
742.29	64.851
742.61	69.634
742.92	62.559
743.23	61.574
743.55	66.063
743.86	64.115
744.18	62.201
744.49	59.574
744.80	70.652
745.12	67.914
745.43	67.317
745.74	69.271
746.06	64.390
746.37	69.634
746.68	69.668
747.00	72.872
747.31	72.139
747.62	62.136
747.94	65.072
748.25	69.307
748.56	74.317
748.88	57.592
749.19	71.277
749.50	68.966
749.82	63.679
750.13	67.890
750.44	68.045
750.75	70.522
751.07	78.467
751.38	67.050
751.69	66.667
752.01	66.667
752.32	70.518
752.63	66.008
752.94	65.948
753.26	66.946
753.57	67.421
753.88	71.681
754.19	69.167
754.51	67.355
754.82	68.421
755.13	73.333
755.44	69.758
755.75	70.312
756.07	68.872
756.38	61.132
756.69	68.966
757.00	61.667
757.31	66.013
757.63	64.939
757.94	64.167
758.25	64.110
758.56	63.032
758.87	62.890
759.18	62.928
759.50	66.545
759.81	69.231
760.12	65.161
760.43	66.667
760.74	70.679
761.05	68.923
761.36	66.761
761.67	68.485
761.99	70.068
762.30	64.000
762.61	65.613
762.92	65.158
763.23	63.514
763.54	70.561
763.85	65.254
764.16	62.656
764.47	58.871
764.78	59.707
765.10	64.646
765.41	68.139
765.72	67.937
766.03	65.038
766.34	61.314
766.65	68.127
766.96	70.707
767.27	67.021
767.58	60.345
767.89	70.213
768.20	55.114
768.51	70.330
768.82	62.562
769.13	66.359
769.44	67.811
769.75	64.384
770.06	61.638
770.37	66.827
770.68	69.036
770.99	66.516
771.30	74.510
771.61	69.683
771.92	72.845
772.23	70.443
772.54	63.441
772.85	69.136
773.16	67.416
773.47	79.085
773.78	70.588
774.09	61.078
774.39	67.333
774.70	64.331
775.01	71.724
775.32	67.857
775.63	67.769
775.94	57.252
776.25	65.354
776.56	58.333
776.87	69.231
777.18	62.393
777.48	63.793
777.79	58.261
778.10	66.667
778.41	54.955
778.72	73.016
779.03	63.158
779.34	69.504
779.65	67.808
779.95	69.863
780.26	65.517
780.57	56.911
780.88	62.205
781.19	56.897
781.50	74.419
781.80	63.905
782.11	60.377
782.42	73.846
782.73	68.345
783.04	68.889
783.34	61.806
783.65	59.829
783.96	65.574
784.27	69.655
784.57	61.789
784.88	64.844
785.19	74.000
785.50	76.000
785.81	57.759
786.11	66.379
786.42	62.136
786.73	66.364
787.04	63.265
787.34	65.179
787.65	52.381
787.96	59.292
788.26	64.545
788.57	65.812
788.88	60.156
789.19	65.079
789.49	63.478
789.80	71.429
790.11	76.768
790.41	48.182
790.72	71.739
791.03	67.045
791.33	76.250
791.64	73.750
791.95	58.140
792.25	62.766
792.56	49.438
792.87	72.603
793.17	56.522
793.48	56.000
793.79	71.250
794.09	86.250
794.40	66.981
794.70	60.194
795.01	56.098
795.32	61.538
795.62	54.286
795.93	75.490
796.23	62.264
796.54	68.750
796.85	70.588
797.15	59.155
797.46	50.000
797.76	74.242
798.07	60.465
798.37	46.053
798.68	60.606
798.99	66.667
799.29	68.571
799.60	68.116
799.90	64.000
800.21	60.656
800.51	69.231
800.82	84.746
801.12	66.667
801.43	80.328
801.73	63.492
802.04	78.000
802.34	58.209
802.65	53.846
802.95	53.571
803.26	61.538
803.56	58.824
803.87	56.522
804.17	53.333
804.48	77.778
804.78	46.296
805.09	56.522
805.39	64.444
805.70	72.222
806.00	45.614
806.30	78.873
806.61	60.000
806.91	56.944
807.22	72.368
807.52	69.333
807.83	69.091
808.13	56.944
808.43	58.824
808.74	46.269
809.04	72.881
809.35	65.385
809.65	56.250
809.95	54.054
810.26	75.000
810.56	42.466
810.86	45.238
811.17	44.000
811.47	63.265
811.77	50.000
812.08	81.818
812.38	58.491
812.69	55.000
812.99	51.515
813.29	50.000
813.59	37.143
813.90	61.364
814.20	51.282
814.50	75.000
814.81	81.132
815.11	48.936
815.41	57.627
815.72	52.381
816.02	58.824
816.32	62.500
816.62	56.098
816.93	37.838
817.23	68.571
817.53	70.833
817.84	30.435
818.14	48.077
818.44	50.000
818.74	65.217
819.04	40.000
819.35	48.649
819.65	67.647
819.95	38.889
820.25	47.619
820.56	67.500
820.86	72.414
821.16	90.000
821.46	53.191
821.76	82.500
822.07	65.116
822.37	40.541
822.67	53.125
822.97	85.714
823.27	50.000
823.57	40.000
823.88	44.444
824.18	57.143
824.48	58.824
824.78	83.871
825.08	52.174
825.38	33.333
825.69	29.167
825.99	52.632
826.29	63.889
826.59	146.667
826.89	38.095
827.19	54.348
827.49	42.500
827.79	68.571
828.09	57.143
828.39	90.909
828.70	72.973
829.00	50.000
829.30	61.905
829.60	66.667
829.90	68.750
830.20	36.842
830.50	25.926
830.80	47.826
831.10	45.455
831.40	72.727
831.70	87.097
832.00	61.905
832.30	23.810
832.60	-8.333
832.90	55.172
833.20	55.000
833.50	69.697
833.80	48.148
834.10	38.462
834.40	40.625
834.70	66.667
835.00	36.842
835.30	100.000
835.60	153.333
835.90	35.484
836.20	45.455
836.50	96.429
836.80	3.846
837.10	78.571
837.40	200.000
837.70	72.727
838.00	18.182
838.30	56.522
838.60	92.308
838.90	50.000
839.19	67.857
839.49	46.667
839.79	130.769
840.09	8.333
840.39	67.857
840.69	67.857
840.99	34.615
841.29	52.632
841.59	30.000
841.88	63.636
842.18	90.000
842.48	43.750
842.78	86.667
843.08	25.926
843.38	40.000
843.68	52.174
843.97	53.333
844.27	20.000
844.57	55.000
844.87	66.667
845.17	38.095
845.47	73.333
845.76	28.571
846.06	35.294
846.36	30.000
846.66	64.286
846.96	0.000
847.25	-50.000
847.55	121.429
847.85	75.000
848.15	22.727
848.44	-200.000
848.74	30.000
849.04	62.963
849.34	81.818
849.63	-16.667
849.93	-60.000
850.23	-5.556
850.53	110.000
850.82	76.923
851.12	0.000
851.42	13.333
851.71	46.154
852.01	57.143
852.31	25.000
852.61	27.273
852.90	55.000
853.20	68.421
853.50	0.000
853.79	56.522
854.09	66.667
854.39	42.105
854.68	37.500
854.98	48.387
855.28	50.000
855.57	110.000
855.87	83.333
856.17	74.074
856.46	71.429
856.76	40.000
857.05	177.778
857.35	56.000
857.65	33.333
857.94	92.308
858.24	86.207
858.53	38.889
858.83	48.148
859.13	63.636
859.42	69.565
859.72	-25.000
860.01	-200.000
860.31	56.000
860.60	57.143
860.90	-200.000
861.20	-20.000
861.49	-200.000
861.79	60.000
862.08	45.000
862.38	113.333
862.67	40.000
862.97	150.000
863.26	25.000
863.56	88.889
863.85	100.000
864.15	94.444
864.44	30.000
864.74	114.286
865.03	-50.000
865.33	-100.000
865.62	200.000
865.92	83.333
866.21	-50.000
866.51	62.500
866.80	27.273
867.10	-100.000
867.39	158.333
867.69	0.000
867.98	69.231
868.27	-66.667
868.57	6.667
868.86	44.444
869.16	107.692
869.45	13.333
869.75	0.000
870.04	0.000
870.33	0.000
870.63	38.095
870.92	233.333
871.22	-20.000
871.51	500.000
871.80	177.778
872.10	33.333
>>>>>End Processed Spectral Data<<<<<
