SpectraSuite Data File
++++++++++++++++++++++++++++++++++++
Date: Fri May 15 20:14:20 PDT 2015
User: schluterlab
Dark Spectrum Present: Yes
Reference Spectrum Present: Yes
Number of Sampled Component Spectra: 1
Spectrometers: USB2E3373
Integration Time (usec): 3000 (USB2E3373)
Spectra Averaged: 3 (USB2E3373)
Boxcar Smoothing: 0 (USB2E3373)
Correct for Electrical Dark: No (USB2E3373)
Strobe/Lamp Enabled: No (USB2E3373)
Correct for Detector Non-linearity: No (USB2E3373)
Correct for Stray Light: No (USB2E3373)
Number of Pixels in Processed Spectrum: 2048
>>>>>Begin Processed Spectral Data<<<<<
178.53	0.000
178.91	0.000
179.29	87.500
179.67	-50.000
180.04	157.143
180.42	-150.000
180.80	-600.000
181.18	-66.667
181.56	400.000
181.94	-50.000
182.31	400.000
182.69	-140.000
183.07	-166.667
183.45	-20.000
183.83	216.667
184.20	0.000
184.58	111.111
184.96	-25.000
185.34	-200.000
185.72	250.000
186.09	23.077
186.47	-1000.000
186.85	283.333
187.23	166.667
187.61	-200.000
187.98	66.667
188.36	-55.556
188.74	-300.000
189.12	11.765
189.49	44.444
189.87	0.000
190.25	78.571
190.63	-250.000
191.00	-66.667
191.38	36.842
191.76	450.000
192.14	-50.000
192.51	-200.000
192.89	-55.556
193.27	0.000
193.65	200.000
194.02	81.818
194.40	-30.000
194.78	-25.000
195.15	16.667
195.53	-100.000
195.91	150.000
196.29	-50.000
196.66	30.769
197.04	257.143
197.42	-33.333
197.79	-400.000
198.17	-92.308
198.55	700.000
198.92	-33.333
199.30	-500.000
199.68	160.000
200.05	-66.667
200.43	0.000
200.81	-266.667
201.18	-233.333
201.56	200.000
201.94	50.000
202.31	-33.333
202.69	-260.000
203.07	200.000
203.44	800.000
203.82	0.000
204.19	71.429
204.57	-166.667
204.95	75.000
205.32	20.000
205.70	71.429
206.08	-50.000
206.45	177.778
206.83	78.571
207.20	-114.286
207.58	-800.000
207.96	100.000
208.33	-80.000
208.71	50.000
209.08	-100.000
209.46	-400.000
209.84	220.000
210.21	0.000
210.59	128.571
210.96	-33.333
211.34	-200.000
211.71	100.000
212.09	-71.429
212.46	-1400.000
212.84	0.000
213.22	90.000
213.59	350.000
213.97	0.000
214.34	72.727
214.72	50.000
215.09	150.000
215.47	15.385
215.84	9.091
216.22	-66.667
216.59	25.000
216.97	200.000
217.34	150.000
217.72	-200.000
218.09	-25.000
218.47	112.500
218.84	200.000
219.22	22.222
219.59	-180.000
219.97	466.667
220.34	175.000
220.72	-57.143
221.09	75.000
221.47	500.000
221.84	-300.000
222.22	-400.000
222.59	0.000
222.97	91.667
223.34	66.667
223.72	-35.714
224.09	19.048
224.46	39.286
224.84	500.000
225.21	50.000
225.59	106.667
225.96	-50.000
226.34	200.000
226.71	-71.429
227.08	-33.333
227.46	75.000
227.83	-400.000
228.21	55.556
228.58	0.000
228.95	-12.500
229.33	110.000
229.70	31.250
230.08	-12.500
230.45	-28.571
230.82	142.857
231.20	26.667
231.57	57.143
231.95	-14.286
232.32	-80.000
232.69	21.429
233.07	233.333
233.44	-60.000
233.81	-40.000
234.19	33.333
234.56	-17.647
234.93	700.000
235.31	-100.000
235.68	-80.000
236.05	-92.308
236.43	10.000
236.80	17.647
237.17	15.625
237.55	-5.000
237.92	0.000
238.29	33.333
238.67	46.667
239.04	5.882
239.41	-36.585
239.79	3.333
240.16	7.317
240.53	0.000
240.91	2.174
241.28	12.698
241.65	8.929
242.02	20.548
242.40	1.667
242.77	20.339
243.14	-1.515
243.51	11.250
243.89	24.138
244.26	6.897
244.63	11.905
245.00	10.309
245.38	12.371
245.75	-1.124
246.12	9.483
246.49	17.355
246.87	9.615
247.24	3.361
247.61	-2.632
247.98	9.756
248.36	11.250
248.73	11.184
249.10	7.143
249.47	12.025
249.84	8.497
250.22	10.588
250.59	16.340
250.96	15.493
251.33	12.791
251.70	10.588
252.08	13.706
252.45	8.416
252.82	14.070
253.19	9.677
253.56	5.607
253.94	14.414
254.31	9.565
254.68	11.404
255.05	9.449
255.42	7.424
255.79	12.741
256.16	8.560
256.54	14.179
256.91	9.886
257.28	8.178
257.65	9.738
258.02	11.348
258.39	13.131
258.76	11.355
259.14	12.957
259.51	13.916
259.88	9.622
260.25	7.516
260.62	13.194
260.99	10.847
261.36	10.274
261.73	10.127
262.10	12.462
262.47	10.429
262.85	10.031
263.22	12.000
263.59	11.838
263.96	13.665
264.33	10.606
264.70	10.417
265.07	9.524
265.44	12.181
265.81	9.887
266.18	13.115
266.55	11.311
266.92	12.176
267.29	9.661
267.66	9.719
268.03	12.565
268.40	10.444
268.77	13.102
269.14	10.552
269.51	11.311
269.88	10.474
270.25	7.653
270.62	9.512
270.99	7.161
271.36	7.335
271.73	11.268
272.10	11.192
272.47	11.348
272.84	10.149
273.21	9.977
273.58	9.157
273.95	10.069
274.32	8.545
274.69	8.597
275.06	11.607
275.43	9.297
275.80	9.713
276.17	8.966
276.54	10.707
276.91	10.526
277.28	9.389
277.65	10.124
278.02	12.553
278.39	10.066
278.76	10.482
279.13	8.091
279.50	10.924
279.87	10.799
280.23	10.108
280.60	11.696
280.97	11.919
281.34	10.000
281.71	11.704
282.08	8.180
282.45	7.828
282.82	9.653
283.19	7.737
283.56	9.827
283.92	9.488
284.29	7.885
284.66	7.171
285.03	9.430
285.40	9.830
285.77	9.139
286.14	9.206
286.51	8.672
286.87	10.055
287.24	10.497
287.61	8.466
287.98	8.070
288.35	8.666
288.72	9.457
289.08	8.160
289.45	8.612
289.82	9.266
290.19	8.874
290.56	8.919
290.93	8.081
291.29	7.858
291.66	9.606
292.03	7.815
292.40	10.000
292.77	6.858
293.13	6.494
293.50	7.587
293.87	9.160
294.24	9.119
294.60	9.240
294.97	8.929
295.34	8.282
295.71	8.793
296.08	7.623
296.44	5.974
296.81	6.528
297.18	8.261
297.55	9.621
297.91	7.808
298.28	8.971
298.65	8.005
299.02	7.008
299.38	6.293
299.75	6.621
300.12	7.592
300.48	7.246
300.85	7.351
301.22	7.532
301.59	5.526
301.95	7.848
302.32	8.690
302.69	6.468
303.05	5.693
303.42	6.476
303.79	7.243
304.15	7.168
304.52	6.064
304.89	6.901
305.25	6.780
305.62	5.718
305.99	7.018
306.35	6.936
306.72	6.187
307.09	7.070
307.45	7.463
307.82	5.787
308.19	8.130
308.55	5.671
308.92	7.516
309.29	5.922
309.65	6.459
310.02	6.381
310.38	7.135
310.75	7.650
311.12	6.674
311.48	6.151
311.85	7.435
312.22	5.696
312.58	6.263
312.95	6.510
313.31	5.383
313.68	5.864
314.05	6.020
314.41	6.907
314.78	6.186
315.14	7.503
315.51	7.867
315.87	5.840
316.24	6.673
316.61	7.382
316.97	7.639
317.34	5.664
317.70	6.597
318.07	6.154
318.43	6.471
318.80	6.155
319.16	6.543
319.53	7.407
319.89	6.693
320.26	7.186
320.62	7.422
320.99	5.219
321.35	7.194
321.72	6.750
322.08	6.747
322.45	6.497
322.81	6.974
323.18	5.888
323.54	6.660
323.91	6.329
324.27	7.129
324.64	7.397
325.00	7.664
325.37	8.356
325.73	6.165
326.10	6.540
326.46	7.175
326.83	7.174
327.19	6.888
327.56	7.124
327.92	7.394
328.29	6.964
328.65	7.358
329.01	7.537
329.38	6.728
329.74	6.043
330.11	7.692
330.47	5.937
330.84	5.769
331.20	7.700
331.56	6.944
331.93	7.215
332.29	7.883
332.66	6.968
333.02	6.877
333.38	6.049
333.75	7.601
334.11	6.446
334.48	7.797
334.84	7.692
335.20	7.136
335.57	5.893
335.93	6.775
336.29	7.551
336.66	6.630
337.02	5.204
337.38	5.463
337.75	6.545
338.11	7.214
338.47	7.755
338.84	7.024
339.20	6.581
339.56	7.982
339.93	7.162
340.29	6.697
340.65	7.975
341.02	6.915
341.38	5.221
341.74	6.449
342.11	5.546
342.47	6.050
342.83	8.131
343.20	5.836
343.56	6.609
343.92	6.554
344.28	7.003
344.65	5.872
345.01	6.396
345.37	5.214
345.73	8.117
346.10	6.644
346.46	7.065
346.82	6.710
347.19	6.733
347.55	6.683
347.91	6.877
348.27	7.761
348.63	6.303
349.00	7.711
349.36	6.318
349.72	7.048
350.08	6.311
350.45	7.263
350.81	6.229
351.17	5.782
351.53	6.776
351.89	5.698
352.26	6.880
352.62	6.532
352.98	6.345
353.34	6.119
353.70	7.282
354.07	6.935
354.43	6.485
354.79	5.780
355.15	7.778
355.51	6.408
355.87	7.039
356.24	6.199
356.60	6.952
356.96	7.698
357.32	7.188
357.68	6.802
358.04	6.462
358.40	6.109
358.77	7.257
359.13	6.645
359.49	6.549
359.85	6.552
360.21	5.981
360.57	5.891
360.93	6.884
361.29	6.042
361.66	6.426
362.02	6.894
362.38	6.245
362.74	6.510
363.10	7.374
363.46	6.523
363.82	7.588
364.18	6.421
364.54	6.029
364.90	6.380
365.26	6.769
365.62	7.299
365.98	6.158
366.35	8.012
366.71	6.282
367.07	7.039
367.43	6.111
367.79	5.936
368.15	5.958
368.51	6.628
368.87	5.599
369.23	6.498
369.59	6.560
369.95	7.258
370.31	6.792
370.67	6.418
371.03	7.020
371.39	6.054
371.75	6.447
372.11	6.633
372.47	7.027
372.83	7.452
373.19	7.275
373.55	6.209
373.91	6.623
374.27	7.725
374.63	7.107
374.99	6.738
375.35	6.546
375.71	6.993
376.07	6.531
376.42	6.871
376.78	7.114
377.14	6.770
377.50	6.640
377.86	7.363
378.22	6.637
378.58	7.115
378.94	6.742
379.30	8.110
379.66	7.524
380.02	6.928
380.38	5.965
380.74	7.002
381.09	7.914
381.45	6.606
381.81	7.341
382.17	6.916
382.53	6.621
382.89	7.345
383.25	7.654
383.61	8.049
383.97	6.603
384.32	7.505
384.68	7.307
385.04	7.292
385.40	6.970
385.76	8.428
386.12	6.468
386.48	7.854
386.83	7.546
387.19	7.814
387.55	7.716
387.91	6.785
388.27	7.631
388.62	7.678
388.98	8.165
389.34	8.307
389.70	7.147
390.06	7.741
390.42	8.484
390.77	7.194
391.13	7.692
391.49	8.926
391.85	7.927
392.20	8.098
392.56	7.629
392.92	7.751
393.28	7.724
393.64	7.628
393.99	8.652
394.35	6.705
394.71	8.685
395.07	8.171
395.42	7.711
395.78	7.752
396.14	7.881
396.50	8.180
396.85	8.307
397.21	8.083
397.57	7.712
397.92	9.047
398.28	7.874
398.64	8.554
399.00	8.578
399.35	7.957
399.71	8.156
400.07	8.102
400.42	8.323
400.78	8.389
401.14	9.256
401.49	8.398
401.85	8.044
402.21	7.892
402.57	8.375
402.92	7.779
403.28	8.897
403.63	7.440
403.99	8.291
404.35	7.683
404.70	7.500
405.06	7.638
405.42	7.955
405.77	7.321
406.13	8.382
406.49	7.519
406.84	7.824
407.20	8.609
407.55	6.825
407.91	8.088
408.27	7.138
408.62	8.554
408.98	8.626
409.34	8.178
409.69	7.752
410.05	8.190
410.40	8.580
410.76	7.961
411.11	8.625
411.47	8.416
411.83	7.345
412.18	8.430
412.54	7.491
412.89	7.635
413.25	8.243
413.60	7.764
413.96	8.037
414.31	8.354
414.67	8.082
415.03	7.989
415.38	7.833
415.74	8.469
416.09	7.838
416.45	7.833
416.80	8.526
417.16	8.564
417.51	9.127
417.87	8.540
418.22	8.290
418.58	8.562
418.93	9.091
419.29	8.579
419.64	7.194
420.00	9.446
420.35	9.015
420.71	8.080
421.06	7.980
421.42	7.993
421.77	8.613
422.12	7.775
422.48	7.742
422.83	8.295
423.19	8.183
423.54	7.466
423.90	7.656
424.25	9.242
424.61	8.752
424.96	7.782
425.31	8.781
425.67	8.275
426.02	8.834
426.38	8.265
426.73	8.898
427.09	8.481
427.44	9.176
427.79	8.368
428.15	8.252
428.50	8.056
428.85	8.354
429.21	8.376
429.56	9.218
429.92	9.245
430.27	9.123
430.62	7.318
430.98	8.705
431.33	8.675
431.68	8.477
432.04	7.937
432.39	8.443
432.74	8.839
433.10	9.483
433.45	8.363
433.80	8.822
434.16	8.587
434.51	9.194
434.86	8.885
435.22	8.357
435.57	8.297
435.92	8.683
436.28	8.646
436.63	8.899
436.98	8.575
437.34	8.590
437.69	8.587
438.04	8.433
438.39	8.125
438.75	8.561
439.10	8.885
439.45	9.860
439.81	8.930
440.16	8.195
440.51	9.313
440.86	9.547
441.22	9.050
441.57	8.554
441.92	9.339
442.27	8.426
442.63	9.047
442.98	9.133
443.33	8.737
443.68	8.435
444.03	9.439
444.39	9.543
444.74	9.253
445.09	8.909
445.44	9.801
445.79	9.283
446.15	9.031
446.50	9.040
446.85	8.820
447.20	8.968
447.55	10.100
447.91	8.968
448.26	9.562
448.61	10.363
448.96	9.466
449.31	9.133
449.66	9.175
450.02	9.127
450.37	8.536
450.72	9.450
451.07	9.430
451.42	9.051
451.77	10.488
452.12	8.852
452.47	9.144
452.83	9.187
453.18	9.867
453.53	9.102
453.88	9.593
454.23	9.035
454.58	9.383
454.93	9.858
455.28	8.825
455.63	9.919
455.98	9.561
456.34	9.515
456.69	9.784
457.04	10.334
457.39	9.174
457.74	8.222
458.09	9.123
458.44	9.245
458.79	9.188
459.14	10.126
459.49	9.970
459.84	9.814
460.19	9.405
460.54	10.024
460.89	9.205
461.24	9.317
461.59	10.333
461.94	9.119
462.29	9.891
462.64	9.568
462.99	9.817
463.34	9.249
463.69	8.623
464.04	9.504
464.39	9.278
464.74	9.816
465.09	10.044
465.44	10.214
465.79	9.524
466.14	10.433
466.49	9.718
466.84	10.410
467.19	10.138
467.54	9.387
467.89	8.781
468.24	9.246
468.59	9.524
468.94	10.349
469.29	9.836
469.64	10.116
469.99	9.741
470.34	8.191
470.68	10.142
471.03	10.191
471.38	9.344
471.73	9.174
472.08	9.566
472.43	8.523
472.78	8.910
473.13	9.320
473.48	9.446
473.83	9.465
474.17	10.168
474.52	9.636
474.87	9.091
475.22	9.091
475.57	9.430
475.92	9.380
476.27	10.477
476.61	9.549
476.96	10.374
477.31	10.114
477.66	9.494
478.01	9.714
478.36	9.913
478.70	10.114
479.05	10.659
479.40	9.486
479.75	9.906
480.10	9.626
480.45	9.450
480.79	10.121
481.14	10.246
481.49	9.360
481.84	9.508
482.19	9.401
482.53	10.312
482.88	9.785
483.23	9.693
483.58	9.858
483.92	9.487
484.27	9.116
484.62	9.996
484.97	9.370
485.31	9.321
485.66	9.592
486.01	9.330
486.36	9.514
486.70	9.532
487.05	10.118
487.40	9.953
487.75	9.746
488.09	9.363
488.44	9.869
488.79	9.824
489.13	10.457
489.48	9.962
489.83	10.045
490.17	9.843
490.52	10.069
490.87	9.903
491.22	9.456
491.56	10.389
491.91	9.465
492.26	9.674
492.60	10.269
492.95	10.821
493.30	9.624
493.64	9.430
493.99	10.048
494.34	9.175
494.68	9.952
495.03	9.343
495.37	9.666
495.72	9.692
496.07	9.756
496.41	9.858
496.76	10.088
497.11	9.595
497.45	10.692
497.80	10.293
498.14	10.532
498.49	10.411
498.84	9.980
499.18	10.241
499.53	9.573
499.87	9.387
500.22	9.446
500.56	10.035
500.91	9.890
501.26	10.183
501.60	9.936
501.95	9.753
502.29	9.879
502.64	10.232
502.98	10.015
503.33	9.222
503.67	10.313
504.02	10.704
504.36	10.094
504.71	10.556
505.06	10.166
505.40	10.000
505.75	9.845
506.09	9.985
506.44	10.626
506.78	10.918
507.13	10.341
507.47	9.608
507.82	9.669
508.16	9.562
508.51	10.336
508.85	10.204
509.19	10.059
509.54	10.295
509.88	10.302
510.23	10.382
510.57	10.208
510.92	8.902
511.26	10.584
511.61	11.001
511.95	10.411
512.30	11.086
512.64	11.130
512.98	10.219
513.33	10.968
513.67	9.892
514.02	12.357
514.36	10.743
514.70	10.723
515.05	10.635
515.39	10.685
515.74	11.078
516.08	10.819
516.42	10.601
516.77	11.059
517.11	10.623
517.46	10.652
517.80	11.263
518.14	10.288
518.49	10.577
518.83	11.179
519.17	10.127
519.52	11.072
519.86	10.024
520.20	10.936
520.55	10.507
520.89	11.920
521.23	11.020
521.58	11.546
521.92	10.833
522.26	10.800
522.61	11.364
522.95	10.795
523.29	10.737
523.64	11.499
523.98	10.693
524.32	9.987
524.66	10.883
525.01	11.688
525.35	11.990
525.69	10.707
526.04	10.053
526.38	12.711
526.72	10.988
527.06	11.154
527.41	11.609
527.75	10.791
528.09	11.362
528.43	12.221
528.78	10.561
529.12	11.226
529.46	10.721
529.80	12.350
530.15	11.287
530.49	10.438
530.83	10.670
531.17	10.208
531.51	11.765
531.86	10.945
532.20	11.065
532.54	11.504
532.88	12.320
533.22	11.223
533.57	11.337
533.91	11.292
534.25	11.458
534.59	11.225
534.93	11.391
535.27	10.279
535.62	11.147
535.96	11.872
536.30	12.269
536.64	11.234
536.98	10.592
537.32	11.949
537.66	11.501
538.01	11.399
538.35	11.165
538.69	12.450
539.03	10.321
539.37	11.373
539.71	11.452
540.05	10.998
540.39	11.911
540.73	11.855
541.07	11.326
541.42	12.030
541.76	11.700
542.10	11.631
542.44	10.771
542.78	9.842
543.12	10.714
543.46	11.057
543.80	11.103
544.14	10.948
544.48	11.392
544.82	10.800
545.16	11.066
545.50	12.016
545.84	10.198
546.18	11.844
546.52	11.247
546.86	10.640
547.20	11.588
547.54	11.519
547.88	11.617
548.22	10.651
548.56	11.280
548.90	10.849
549.24	11.157
549.58	12.130
549.92	10.793
550.26	11.868
550.60	11.599
550.94	12.323
551.28	11.051
551.62	12.308
551.96	12.030
552.30	11.623
552.64	11.142
552.98	12.377
553.32	11.983
553.66	11.030
554.00	11.022
554.34	10.857
554.68	10.324
555.02	12.426
555.36	10.770
555.69	11.429
556.03	10.849
556.37	11.317
556.71	12.130
557.05	11.409
557.39	11.450
557.73	11.694
558.07	12.594
558.41	11.026
558.75	12.159
559.08	11.426
559.42	11.111
559.76	11.129
560.10	11.544
560.44	12.063
560.78	12.797
561.12	11.213
561.45	12.017
561.79	10.784
562.13	12.349
562.47	11.295
562.81	11.816
563.15	12.130
563.48	11.528
563.82	12.354
564.16	12.674
564.50	10.878
564.84	11.312
565.17	10.530
565.51	11.407
565.85	11.523
566.19	11.804
566.52	12.399
566.86	11.889
567.20	11.644
567.54	11.496
567.88	11.541
568.21	11.765
568.55	11.522
568.89	12.166
569.23	11.603
569.56	10.771
569.90	12.058
570.24	11.202
570.57	11.309
570.91	11.467
571.25	10.786
571.59	11.118
571.92	10.548
572.26	10.658
572.60	11.008
572.93	11.359
573.27	10.721
573.61	10.979
573.95	11.087
574.28	10.832
574.62	10.831
574.96	11.045
575.29	10.651
575.63	10.443
575.97	10.979
576.30	10.852
576.64	10.649
576.98	11.171
577.31	11.158
577.65	10.803
577.98	10.968
578.32	10.907
578.66	10.896
578.99	11.114
579.33	10.642
579.67	11.204
580.00	11.063
580.34	10.896
580.67	11.251
581.01	10.879
581.35	10.810
581.68	10.864
582.02	10.644
582.35	10.789
582.69	11.219
583.02	11.130
583.36	10.882
583.70	11.526
584.03	11.454
584.37	11.745
584.70	11.566
585.04	10.855
585.37	11.646
585.71	11.503
586.04	11.397
586.38	11.070
586.72	11.707
587.05	11.930
587.39	11.574
587.72	12.083
588.06	11.459
588.39	11.877
588.73	11.844
589.06	12.003
589.40	11.787
589.73	12.523
590.07	12.311
590.40	12.113
590.73	12.768
591.07	12.087
591.40	12.511
591.74	12.443
592.07	13.173
592.41	12.853
592.74	12.624
593.08	11.771
593.41	12.125
593.75	12.038
594.08	12.221
594.41	12.409
594.75	12.099
595.08	12.410
595.42	12.330
595.75	12.467
596.09	12.588
596.42	12.526
596.75	12.700
597.09	12.073
597.42	12.421
597.75	12.597
598.09	12.766
598.42	12.500
598.76	12.184
599.09	12.540
599.42	12.581
599.76	12.378
600.09	12.594
600.42	12.434
600.76	12.667
601.09	11.832
601.42	12.299
601.76	12.227
602.09	12.789
602.42	13.227
602.76	12.733
603.09	13.248
603.42	13.002
603.76	12.419
604.09	12.515
604.42	12.860
604.76	13.040
605.09	13.254
605.42	13.047
605.75	12.741
606.09	12.696
606.42	13.094
606.75	12.165
607.09	13.495
607.42	12.760
607.75	12.611
608.08	12.219
608.42	12.746
608.75	14.217
609.08	13.154
609.41	12.893
609.75	12.802
610.08	13.330
610.41	12.174
610.74	12.969
611.07	12.610
611.41	13.077
611.74	13.113
612.07	12.687
612.40	12.801
612.73	12.825
613.07	12.992
613.40	13.895
613.73	12.199
614.06	13.077
614.39	12.803
614.72	13.221
615.06	12.849
615.39	12.828
615.72	12.756
616.05	13.799
616.38	12.479
616.71	12.477
617.05	12.909
617.38	13.011
617.71	13.585
618.04	13.841
618.37	13.619
618.70	13.201
619.03	14.931
619.36	13.169
619.69	13.419
620.03	14.098
620.36	14.235
620.69	13.633
621.02	13.914
621.35	13.527
621.68	14.371
622.01	13.750
622.34	13.408
622.67	14.038
623.00	14.395
623.33	13.567
623.66	13.239
623.99	13.389
624.32	13.612
624.65	14.135
624.99	13.695
625.32	13.647
625.65	13.197
625.98	13.779
626.31	14.381
626.64	13.692
626.97	13.874
627.30	14.011
627.63	14.125
627.96	13.567
628.29	13.691
628.62	14.454
628.95	14.729
629.28	14.012
629.61	13.659
629.94	14.858
630.26	13.933
630.59	14.984
630.92	14.769
631.25	14.051
631.58	13.436
631.91	13.268
632.24	13.761
632.57	13.977
632.90	13.405
633.23	14.824
633.56	14.610
633.89	13.933
634.22	15.802
634.55	14.104
634.88	12.899
635.20	14.359
635.53	14.933
635.86	14.434
636.19	13.583
636.52	15.179
636.85	14.144
637.18	12.830
637.51	14.214
637.83	14.455
638.16	13.915
638.49	15.395
638.82	14.737
639.15	15.604
639.48	14.443
639.81	16.179
640.13	16.306
640.46	13.848
640.79	15.758
641.12	14.476
641.45	14.865
641.77	16.148
642.10	17.694
642.43	14.309
642.76	13.366
643.09	14.701
643.41	15.210
643.74	14.333
644.07	18.391
644.40	16.047
644.73	13.660
645.05	15.772
645.38	16.578
645.71	14.716
646.04	14.901
646.36	16.312
646.69	16.007
647.02	16.635
647.35	14.366
647.67	15.174
648.00	16.231
648.33	17.406
648.66	15.254
648.98	14.405
649.31	12.231
649.64	15.071
649.96	16.694
650.29	16.865
650.62	16.068
650.94	14.259
651.27	13.408
651.60	15.856
651.92	16.783
652.25	15.098
652.58	15.833
652.90	16.295
653.23	14.622
653.56	14.721
653.88	14.605
654.21	13.660
654.54	14.771
654.86	15.789
655.19	14.474
655.52	15.093
655.84	12.902
656.17	13.872
656.49	18.827
656.82	19.770
657.15	15.481
657.47	11.711
657.80	8.776
658.13	8.682
658.45	13.626
658.78	13.911
659.10	14.310
659.43	15.045
659.75	15.294
660.08	14.966
660.41	16.139
660.73	16.160
661.06	17.504
661.38	15.851
661.71	13.963
662.03	16.953
662.36	17.802
662.68	15.708
663.01	18.341
663.33	16.473
663.66	13.721
663.98	14.186
664.31	14.499
664.63	15.207
664.96	13.696
665.28	15.453
665.61	14.719
665.93	15.652
666.26	15.401
666.58	14.765
666.91	15.059
667.23	15.094
667.56	18.957
667.88	12.950
668.21	17.184
668.53	17.494
668.86	17.689
669.18	14.387
669.50	15.012
669.83	13.721
670.15	17.483
670.48	12.919
670.80	18.664
671.13	16.331
671.45	14.612
671.77	15.451
672.10	15.446
672.42	16.292
672.75	15.098
673.07	16.816
673.39	15.229
673.72	13.412
674.04	15.833
674.37	18.644
674.69	13.919
675.01	15.333
675.34	15.766
675.66	14.583
675.98	15.965
676.31	18.349
676.63	15.202
676.95	14.773
677.28	20.471
677.60	18.554
677.92	16.055
678.25	15.755
678.57	12.771
678.89	16.176
679.22	14.541
679.54	16.867
679.86	11.928
680.18	17.670
680.51	15.909
680.83	14.115
681.15	15.000
681.48	17.623
681.80	17.769
682.12	13.911
682.44	17.155
682.77	16.777
683.09	18.078
683.41	15.682
683.73	17.742
684.06	12.832
684.38	13.763
684.70	16.993
685.02	14.938
685.34	14.229
685.67	14.822
685.99	17.179
686.31	13.451
686.63	15.955
686.96	14.068
687.28	12.929
687.60	12.738
687.92	16.768
688.24	15.323
688.56	17.249
688.89	16.518
689.21	15.111
689.53	15.545
689.85	16.047
690.17	16.518
690.49	15.839
690.82	16.019
691.14	15.238
691.46	15.654
691.78	14.640
692.10	15.914
692.42	15.368
692.74	15.812
693.06	14.865
693.39	10.181
693.71	11.312
694.03	12.471
694.35	15.888
694.67	14.394
694.99	13.316
695.31	17.232
695.63	16.250
695.95	16.162
696.27	17.876
696.59	18.056
696.91	13.445
697.23	15.167
697.56	16.584
697.88	19.140
698.20	16.173
698.52	13.412
698.84	15.311
699.16	13.250
699.48	14.787
699.80	15.633
700.12	14.825
700.44	17.087
700.76	15.116
701.08	13.939
701.40	14.759
701.72	18.210
702.04	17.822
702.36	17.726
702.68	13.814
703.00	16.970
703.32	14.076
703.64	14.972
703.96	16.232
704.28	16.258
704.60	18.095
704.91	11.041
705.23	12.957
705.55	16.961
705.87	19.134
706.19	18.148
706.51	12.371
706.83	18.328
707.15	12.773
707.47	11.485
707.79	16.146
708.11	16.750
708.43	16.250
708.74	16.796
709.06	16.901
709.38	16.208
709.70	15.385
710.02	15.287
710.34	17.028
710.66	14.103
710.98	11.258
711.29	14.754
711.61	17.288
711.93	14.658
712.25	19.931
712.57	13.553
712.89	13.806
713.20	18.685
713.52	15.679
713.84	18.430
714.16	14.089
714.48	15.484
714.80	14.423
715.11	18.237
715.43	10.972
715.75	10.667
716.07	13.621
716.39	15.772
716.70	13.653
717.02	17.176
717.34	16.599
717.66	12.832
717.97	14.348
718.29	13.808
718.61	19.685
718.93	17.829
719.24	12.548
719.56	18.474
719.88	15.120
720.20	17.424
720.51	16.475
720.83	16.602
721.15	14.706
721.46	17.742
721.78	17.787
722.10	13.011
722.42	12.863
722.73	13.061
723.05	16.735
723.37	16.102
723.68	21.622
724.00	14.103
724.32	13.333
724.63	11.818
724.95	17.904
725.27	17.051
725.58	15.254
725.90	15.079
726.22	16.216
726.53	16.271
726.85	16.479
727.16	23.396
727.48	10.931
727.80	15.385
728.11	8.475
728.43	14.510
728.74	9.274
729.06	17.200
729.38	20.301
729.69	15.538
730.01	11.538
730.32	17.164
730.64	18.728
730.96	18.491
731.27	16.000
731.59	15.932
731.90	11.146
732.22	17.035
732.53	18.937
732.85	15.248
733.16	17.845
733.48	14.388
733.80	12.319
734.11	16.271
734.43	16.151
734.74	16.364
735.06	11.726
735.37	14.199
735.69	14.141
736.00	10.801
736.32	12.752
736.63	15.845
736.95	16.382
737.26	14.235
737.58	12.752
737.89	15.018
738.21	12.782
738.52	14.815
738.83	14.847
739.15	10.917
739.46	18.504
739.78	13.553
740.09	14.379
740.41	15.580
740.72	13.386
741.04	14.980
741.35	13.617
741.66	16.588
741.98	12.755
742.29	11.881
742.61	17.801
742.92	8.531
743.23	6.944
743.55	16.290
743.86	16.746
744.18	11.962
744.49	11.702
744.80	8.696
745.12	18.717
745.43	17.561
745.74	15.104
746.06	18.537
746.37	15.707
746.68	16.588
747.00	15.426
747.31	24.876
747.62	14.078
747.94	12.440
748.25	13.366
748.56	10.383
748.88	14.660
749.19	18.617
749.50	16.256
749.82	8.962
750.13	8.257
750.44	17.293
750.75	14.179
751.07	16.423
751.38	15.326
751.69	14.902
752.01	15.504
752.32	13.147
752.63	18.182
752.94	15.517
753.26	23.431
753.57	15.385
753.88	16.372
754.19	12.500
754.51	15.702
754.82	14.170
755.13	20.000
755.44	16.532
755.75	14.844
756.07	11.673
756.38	12.075
756.69	12.644
757.00	12.333
757.31	13.399
757.63	12.500
757.94	16.389
758.25	12.877
758.56	12.766
758.87	10.765
759.18	13.396
759.50	12.364
759.81	18.060
760.12	16.129
760.43	13.636
760.74	12.346
761.05	11.077
761.36	14.205
761.67	16.667
761.99	15.306
762.30	11.636
762.61	19.763
762.92	14.932
763.23	9.459
763.54	9.346
763.85	13.983
764.16	11.203
764.47	8.468
764.78	13.187
765.10	19.865
765.41	11.987
765.72	13.651
766.03	7.143
766.34	15.693
766.65	21.116
766.96	16.162
767.27	12.234
767.58	17.241
767.89	6.383
768.20	11.364
768.51	15.385
768.82	10.837
769.13	12.903
769.44	12.876
769.75	10.502
770.06	17.672
770.37	14.423
770.68	14.721
770.99	10.407
771.30	15.686
771.61	13.575
771.92	16.379
772.23	16.749
772.54	16.129
772.85	13.580
773.16	16.292
773.47	16.993
773.78	18.301
774.09	11.976
774.39	14.667
774.70	15.287
775.01	17.241
775.32	13.571
775.63	10.744
775.94	19.847
776.25	18.898
776.56	10.833
776.87	-2.885
777.18	12.821
777.48	12.069
777.79	15.652
778.10	-0.952
778.41	8.108
778.72	17.460
779.03	19.549
779.34	15.603
779.65	19.863
779.95	6.164
780.26	20.690
780.57	5.691
780.88	20.472
781.19	6.034
781.50	10.853
781.80	10.651
782.11	3.145
782.42	17.692
782.73	10.791
783.04	18.519
783.34	12.500
783.65	12.821
783.96	15.574
784.27	19.310
784.57	14.634
784.88	7.813
785.19	13.000
785.50	22.000
785.81	14.655
786.11	17.241
786.42	8.738
786.73	13.636
787.04	10.204
787.34	8.036
787.65	9.524
787.96	3.540
788.26	16.364
788.57	3.419
788.88	22.656
789.19	14.286
789.49	12.174
789.80	12.245
790.11	14.141
790.41	9.091
790.72	23.913
791.03	9.091
791.33	21.250
791.64	5.000
791.95	15.116
792.25	19.149
792.56	16.854
792.87	20.548
793.17	4.348
793.48	-1.333
793.79	8.750
794.09	15.000
794.40	6.604
794.70	5.825
795.01	11.382
795.32	14.530
795.62	18.095
795.93	13.725
796.23	18.868
796.54	17.708
796.85	27.941
797.15	16.901
797.46	19.444
797.76	27.273
798.07	11.628
798.37	3.947
798.68	18.182
798.99	11.111
799.29	17.143
799.60	20.290
799.90	12.000
800.21	16.393
800.51	12.308
800.82	15.254
801.12	4.348
801.43	8.197
801.73	19.048
802.04	12.000
802.34	11.940
802.65	9.615
802.95	-10.714
803.26	-7.692
803.56	17.647
803.87	-2.174
804.17	13.333
804.48	19.048
804.78	1.852
805.09	6.522
805.39	4.444
805.70	16.667
806.00	-7.018
806.30	12.676
806.61	1.429
806.91	2.778
807.22	18.421
807.52	25.333
807.83	0.000
808.13	15.278
808.43	19.118
808.74	11.940
809.04	11.864
809.35	3.846
809.65	4.687
809.95	-13.514
810.26	-9.091
810.56	10.959
810.86	23.810
811.17	-10.000
811.47	20.408
811.77	2.632
812.08	13.636
812.38	3.774
812.69	15.000
812.99	-15.152
813.29	23.684
813.59	0.000
813.90	18.182
814.20	-17.949
814.50	3.846
814.81	5.660
815.11	-12.766
815.41	30.508
815.72	21.429
816.02	21.569
816.32	14.583
816.62	0.000
816.93	0.000
817.23	-20.000
817.53	18.750
817.84	-6.522
818.14	21.154
818.44	7.895
818.74	28.261
819.04	-17.500
819.35	2.703
819.65	23.529
819.95	13.889
820.25	7.143
820.56	17.500
820.86	-48.276
821.16	25.000
821.46	10.638
821.76	-2.500
822.07	20.930
822.37	-16.216
822.67	3.125
822.97	28.571
823.27	-14.286
823.57	-8.000
823.88	14.815
824.18	17.857
824.48	-17.647
824.78	-6.452
825.08	56.522
825.38	33.333
825.69	-8.333
825.99	39.474
826.29	-11.111
826.59	13.333
826.89	-38.095
827.19	6.522
827.49	40.000
827.79	5.714
828.09	0.000
828.39	3.030
828.70	8.108
829.00	7.143
829.30	-4.762
829.60	16.667
829.90	31.250
830.20	2.632
830.50	14.815
830.80	-13.043
831.10	22.727
831.40	27.273
831.70	41.935
832.00	38.095
832.30	-61.905
832.60	-58.333
832.90	-3.448
833.20	-15.000
833.50	27.273
833.80	3.704
834.10	-38.462
834.40	15.625
834.70	-44.444
835.00	-63.158
835.30	96.154
835.60	73.333
835.90	19.355
836.20	36.364
836.50	67.857
836.80	-38.462
837.10	-7.143
837.40	-366.667
837.70	22.727
838.00	-36.364
838.30	13.043
838.60	-7.692
838.90	9.091
839.19	-7.143
839.49	36.667
839.79	0.000
840.09	-8.333
840.39	82.143
840.69	14.286
840.99	15.385
841.29	-21.053
841.59	-130.000
841.88	90.909
842.18	-80.000
842.48	50.000
842.78	-40.000
843.08	-7.407
843.38	-120.000
843.68	69.565
843.97	-60.000
844.27	-33.333
844.57	15.000
844.87	11.111
845.17	-28.571
845.47	6.667
845.76	-23.810
846.06	0.000
846.36	60.000
846.66	-7.143
846.96	0.000
847.25	-225.000
847.55	28.571
847.85	-37.500
848.15	13.636
848.44	-233.333
848.74	20.000
849.04	48.148
849.34	9.091
849.63	-150.000
849.93	-160.000
850.23	-38.889
850.53	70.000
850.82	15.385
851.12	-144.444
851.42	20.000
851.71	50.000
852.01	-28.571
852.31	-125.000
852.61	-27.273
852.90	10.000
853.20	31.579
853.50	-50.000
853.79	4.348
854.09	41.667
854.39	-15.789
854.68	12.500
854.98	-19.355
855.28	26.923
855.57	10.000
855.87	-11.111
856.17	51.852
856.46	-28.571
856.76	40.000
857.05	44.444
857.35	48.000
857.65	55.556
857.94	-69.231
858.24	34.483
858.53	61.111
858.83	22.222
859.13	36.364
859.42	26.087
859.72	0.000
860.01	-300.000
860.31	4.000
860.60	19.048
860.90	-166.667
861.20	-40.000
861.49	-750.000
861.79	6.667
862.08	15.000
862.38	66.667
862.67	0.000
862.97	-16.667
863.26	-25.000
863.56	11.111
863.85	-500.000
864.15	16.667
864.44	-20.000
864.74	100.000
865.03	275.000
865.33	-160.000
865.62	83.333
865.92	50.000
866.21	-233.333
866.51	-18.750
866.80	-72.727
867.10	0.000
867.39	25.000
867.69	0.000
867.98	-46.154
868.27	-200.000
868.57	73.333
868.86	44.444
869.16	-76.923
869.45	100.000
869.75	100.000
870.04	0.000
870.33	-85.714
870.63	4.762
870.92	666.667
871.22	-280.000
871.51	-400.000
871.80	88.889
872.10	633.333
>>>>>End Processed Spectral Data<<<<<
