SpectraSuite Data File
++++++++++++++++++++++++++++++++++++
Date: Fri May 15 17:29:55 PDT 2015
User: schluterlab
Dark Spectrum Present: Yes
Reference Spectrum Present: Yes
Number of Sampled Component Spectra: 1
Spectrometers: USB2E3373
Integration Time (usec): 3000 (USB2E3373)
Spectra Averaged: 3 (USB2E3373)
Boxcar Smoothing: 0 (USB2E3373)
Correct for Electrical Dark: No (USB2E3373)
Strobe/Lamp Enabled: No (USB2E3373)
Correct for Detector Non-linearity: No (USB2E3373)
Correct for Stray Light: No (USB2E3373)
Number of Pixels in Processed Spectrum: 2048
>>>>>Begin Processed Spectral Data<<<<<
178.53	0.000
178.91	0.000
179.29	112.500
179.67	-150.000
180.04	-14.286
180.42	150.000
180.80	900.000
181.18	166.667
181.56	200.000
181.94	-350.000
182.31	800.000
182.69	-160.000
183.07	33.333
183.45	-20.000
183.83	133.333
184.20	9.091
184.58	100.000
184.96	-75.000
185.34	-200.000
185.72	-150.000
186.09	69.231
186.47	100.000
186.85	183.333
187.23	133.333
187.61	-1100.000
187.98	233.333
188.36	122.222
188.74	166.667
189.12	58.824
189.49	33.333
189.87	0.000
190.25	107.143
190.63	100.000
191.00	-100.000
191.38	52.632
191.76	500.000
192.14	-0.000
192.51	550.000
192.89	11.111
193.27	-14.286
193.65	-33.333
194.02	72.727
194.40	30.000
194.78	-112.500
195.15	33.333
195.53	-25.000
195.91	175.000
196.29	75.000
196.66	69.231
197.04	-14.286
197.42	0.000
197.79	-266.667
198.17	-76.923
198.55	400.000
198.92	0.000
199.30	-500.000
199.68	-100.000
200.05	-33.333
200.43	0.000
200.81	0.000
201.18	-233.333
201.56	-200.000
201.94	50.000
202.31	-333.333
202.69	-120.000
203.07	275.000
203.44	1200.000
203.82	0.000
204.19	92.857
204.57	-333.333
204.95	37.500
205.32	-40.000
205.70	57.143
206.08	150.000
206.45	111.111
206.83	71.429
207.20	114.286
207.58	-200.000
207.96	0.000
208.33	-80.000
208.71	-250.000
209.08	-116.667
209.46	600.000
209.84	120.000
210.21	300.000
210.59	-42.857
210.96	66.667
211.34	75.000
211.71	80.000
212.09	14.286
212.46	-600.000
212.84	0.000
213.22	110.000
213.59	-450.000
213.97	30.769
214.34	36.364
214.72	133.333
215.09	150.000
215.47	0.000
215.84	27.273
216.22	100.000
216.59	50.000
216.97	50.000
217.34	250.000
217.72	0.000
218.09	75.000
218.47	137.500
218.84	-300.000
219.22	11.111
219.59	60.000
219.97	-33.333
220.34	125.000
220.72	114.286
221.09	75.000
221.47	50.000
221.84	-400.000
222.22	-350.000
222.59	54.545
222.97	75.000
223.34	33.333
223.72	35.714
224.09	14.286
224.46	25.000
224.84	200.000
225.21	40.000
225.59	26.667
225.96	-300.000
226.34	375.000
226.71	-142.857
227.08	-50.000
227.46	262.500
227.83	-250.000
228.21	66.667
228.58	9.091
228.95	-62.500
229.33	80.000
229.70	131.250
230.08	50.000
230.45	14.286
230.82	185.714
231.20	53.333
231.57	142.857
231.95	185.714
232.32	-100.000
232.69	64.286
233.07	366.667
233.44	40.000
233.81	10.000
234.19	66.667
234.56	82.353
234.93	-300.000
235.31	275.000
235.68	-40.000
236.05	7.692
236.43	35.000
236.80	76.471
237.17	50.000
237.55	60.000
237.92	66.667
238.29	55.556
238.67	30.000
239.04	26.471
239.41	31.707
239.79	26.667
240.16	43.902
240.53	89.474
240.91	34.783
241.28	53.968
241.65	53.571
242.02	60.274
242.40	68.333
242.77	52.542
243.14	56.061
243.51	47.500
243.89	59.770
244.26	50.575
244.63	47.619
245.00	47.423
245.38	60.825
245.75	47.191
246.12	48.276
246.49	51.240
246.87	61.538
247.24	48.739
247.61	58.772
247.98	59.350
248.36	45.625
248.73	50.658
249.10	47.403
249.47	50.633
249.84	55.556
250.22	49.412
250.59	52.941
250.96	54.930
251.33	58.140
251.70	54.118
252.08	55.838
252.45	48.020
252.82	47.739
253.19	54.378
253.56	50.935
253.94	52.703
254.31	56.522
254.68	53.070
255.05	51.969
255.42	56.332
255.79	54.054
256.16	48.638
256.54	54.478
256.91	56.654
257.28	50.186
257.65	51.685
258.02	51.064
258.39	55.556
258.76	58.974
259.14	51.827
259.51	51.780
259.88	57.732
260.25	50.654
260.62	60.764
260.99	52.542
261.36	50.685
261.73	54.114
262.10	55.927
262.47	57.055
262.85	51.724
263.22	56.000
263.59	52.960
263.96	56.211
264.33	53.636
264.70	59.821
265.07	54.762
265.44	52.408
265.81	53.390
266.18	50.820
266.55	49.614
266.92	52.073
267.29	54.830
267.66	52.685
268.03	57.330
268.40	50.392
268.77	59.091
269.14	51.079
269.51	52.442
269.88	54.613
270.25	52.551
270.62	52.683
270.99	53.197
271.36	52.323
271.73	51.174
272.10	48.175
272.47	50.827
272.84	52.228
273.21	49.420
273.58	53.735
273.95	49.886
274.32	51.039
274.69	49.321
275.06	51.563
275.43	48.980
275.80	52.318
276.17	53.103
276.54	49.036
276.91	50.000
277.28	49.345
277.65	49.380
278.02	49.574
278.39	52.954
278.76	50.105
279.13	45.851
279.50	53.571
279.87	50.756
280.23	49.462
280.60	50.682
280.97	50.101
281.34	44.038
281.71	51.951
282.08	48.671
282.45	46.771
282.82	46.139
283.19	49.516
283.56	50.482
283.92	47.249
284.29	46.538
284.66	45.736
285.03	46.955
285.40	48.015
285.77	45.167
286.14	44.404
286.51	49.262
286.87	45.521
287.24	48.066
287.61	47.266
287.98	43.860
288.35	45.754
288.72	42.732
289.08	45.312
289.45	45.167
289.82	41.958
290.19	41.809
290.56	42.024
290.93	43.098
291.29	40.370
291.66	40.787
292.03	40.032
292.40	43.226
292.77	39.872
293.13	39.773
293.50	40.516
293.87	40.000
294.24	38.485
294.60	36.960
294.97	38.542
295.34	36.503
295.71	36.662
296.08	37.519
296.44	33.428
296.81	35.694
297.18	37.246
297.55	36.992
297.91	35.068
298.28	36.280
298.65	33.107
299.02	34.097
299.38	32.421
299.75	33.103
300.12	34.031
300.48	33.465
300.85	33.967
301.22	33.247
301.59	33.553
301.95	35.696
302.32	33.463
302.69	32.463
303.05	32.426
303.42	32.752
303.79	31.542
304.15	32.736
304.52	30.678
304.89	31.228
305.25	30.751
305.62	29.522
305.99	30.643
306.35	31.329
306.72	30.821
307.09	30.787
307.45	31.114
307.82	31.944
308.19	33.682
308.55	30.425
308.92	31.481
309.29	30.391
309.65	31.001
310.02	31.133
310.38	31.065
310.75	32.131
311.12	31.755
311.48	31.071
311.85	30.576
312.22	30.063
312.58	30.467
312.95	31.483
313.31	29.296
313.68	31.728
314.05	29.184
314.41	31.340
314.78	32.268
315.14	32.580
315.51	32.091
315.87	30.430
316.24	31.244
316.61	31.004
316.97	32.341
317.34	31.543
317.70	31.836
318.07	32.404
318.43	32.647
318.80	31.723
319.16	33.398
319.53	32.574
319.89	33.957
320.26	33.502
320.62	34.804
320.99	33.090
321.35	35.149
321.72	34.579
322.08	34.542
322.45	34.112
322.81	33.301
323.18	33.759
323.54	34.363
323.91	34.859
324.27	34.570
324.64	37.547
325.00	37.682
325.37	39.302
325.73	36.355
326.10	37.784
326.46	39.193
326.83	39.633
327.19	38.884
327.56	40.052
327.92	41.285
328.29	39.732
328.65	41.226
329.01	41.544
329.38	41.382
329.74	41.549
330.11	43.373
330.47	41.744
330.84	43.846
331.20	46.388
331.56	41.759
331.93	43.196
332.29	44.271
332.66	43.891
333.02	42.937
333.38	43.446
333.75	45.055
334.11	42.614
334.48	44.968
334.84	44.963
335.20	44.007
335.57	43.427
335.93	44.986
336.29	46.317
336.66	45.050
337.02	44.703
337.38	44.074
337.75	45.727
338.11	44.274
338.47	45.529
338.84	47.227
339.20	44.881
339.56	45.229
339.93	44.136
340.29	43.853
340.65	45.699
341.02	45.301
341.38	43.805
341.74	43.640
342.11	43.934
342.47	46.441
342.83	44.896
343.20	44.251
343.56	45.130
343.92	45.350
344.28	45.602
344.65	44.646
345.01	44.944
345.37	44.743
345.73	45.439
346.10	46.160
346.46	44.575
346.82	44.763
347.19	45.636
347.55	45.530
347.91	45.146
348.27	44.786
348.63	45.997
349.00	45.283
349.36	44.638
349.72	46.186
350.08	45.082
350.45	45.251
350.81	45.515
351.17	43.322
351.53	45.959
351.89	44.426
352.26	44.960
352.62	45.887
352.98	45.622
353.34	43.237
353.70	46.521
354.07	45.081
354.43	44.916
354.79	44.756
355.15	46.032
355.51	45.728
355.87	46.521
356.24	44.861
356.60	44.705
356.96	46.508
357.32	45.607
357.68	44.566
358.04	46.850
358.40	45.177
358.77	47.448
359.13	47.078
359.49	45.763
359.85	46.256
360.21	45.774
360.57	45.754
360.93	45.915
361.29	45.921
361.66	47.571
362.02	47.348
362.38	46.687
362.74	48.372
363.10	47.856
363.46	47.368
363.82	47.934
364.18	47.970
364.54	46.765
364.90	47.097
365.26	47.453
365.62	48.613
365.98	49.340
366.35	48.653
366.71	48.854
367.07	49.057
367.43	48.239
367.79	48.975
368.15	47.882
368.51	50.036
368.87	48.457
369.23	47.365
369.59	49.854
369.95	49.120
370.31	50.434
370.67	49.552
371.03	49.066
371.39	49.380
371.75	51.209
372.11	49.501
372.47	51.331
372.83	50.177
373.19	51.284
373.55	49.242
373.91	50.612
374.27	51.028
374.63	50.826
374.99	50.780
375.35	51.811
375.71	52.308
376.07	53.090
376.42	52.109
376.78	52.148
377.14	51.726
377.50	53.187
377.86	53.079
378.22	52.074
378.58	53.910
378.94	53.245
379.30	52.527
379.66	54.044
380.02	53.771
380.38	54.413
380.74	52.902
381.09	54.110
381.45	54.434
381.81	54.781
382.17	53.871
382.53	54.716
382.89	56.623
383.25	55.258
383.61	56.524
383.97	55.175
384.32	53.909
384.68	56.037
385.04	55.208
385.40	54.263
385.76	57.799
386.12	57.439
386.48	57.535
386.83	56.119
387.19	57.326
387.55	57.842
387.91	57.335
388.27	56.716
388.62	58.150
388.98	57.029
389.34	57.714
389.70	58.297
390.06	56.702
390.42	58.549
390.77	58.797
391.13	58.638
391.49	59.832
391.85	59.519
392.20	59.573
392.56	59.758
392.92	59.836
393.28	59.906
393.64	58.378
393.99	61.317
394.35	60.089
394.71	60.536
395.07	58.580
395.42	59.077
395.78	59.805
396.14	59.710
396.50	60.621
396.85	60.399
397.21	60.088
397.57	59.373
397.92	60.755
398.28	60.115
398.64	59.699
399.00	60.384
399.35	60.214
399.71	58.587
400.07	60.218
400.42	59.976
400.78	60.502
401.14	59.226
401.49	60.095
401.85	60.207
402.21	59.940
402.57	61.625
402.92	59.724
403.28	59.962
403.63	62.547
403.99	61.480
404.35	60.837
404.70	60.655
405.06	59.812
405.42	59.664
405.77	59.094
406.13	60.768
406.49	60.332
406.84	60.636
407.20	60.325
407.55	60.528
407.91	60.094
408.27	60.931
408.62	59.631
408.98	59.335
409.34	60.471
409.69	59.367
410.05	59.236
410.40	59.877
410.76	60.253
411.11	59.500
411.47	61.473
411.83	59.573
412.18	60.103
412.54	60.237
412.89	59.052
413.25	61.071
413.60	59.938
413.96	59.387
414.31	59.512
414.67	58.371
415.03	59.787
415.38	58.159
415.74	59.674
416.09	60.026
416.45	60.297
416.80	60.212
417.16	60.497
417.51	60.826
417.87	58.996
418.22	61.010
418.58	59.666
418.93	60.251
419.29	59.347
419.64	60.985
420.00	61.083
420.35	59.881
420.71	60.267
421.06	60.835
421.42	60.817
421.77	61.387
422.12	61.237
422.48	61.018
422.83	60.615
423.19	60.384
423.54	59.494
423.90	59.246
424.25	60.218
424.61	60.404
424.96	60.976
425.31	62.392
425.67	61.385
426.02	61.013
426.38	61.803
426.73	61.320
427.09	61.772
427.44	61.412
427.79	61.285
428.15	61.408
428.50	62.023
428.85	61.609
429.21	60.724
429.56	64.420
429.92	60.914
430.27	61.404
430.62	61.213
430.98	62.102
431.33	61.041
431.68	59.969
432.04	60.593
432.39	59.783
432.74	60.192
433.10	61.667
433.45	61.649
433.80	62.449
434.16	63.823
434.51	62.527
434.86	61.905
435.22	61.862
435.57	62.383
435.92	62.635
436.28	61.240
436.63	63.377
436.98	60.545
437.34	61.464
437.69	62.433
438.04	61.083
438.39	60.171
438.75	62.963
439.10	60.668
439.45	62.751
439.81	61.101
440.16	63.005
440.51	62.209
440.86	62.659
441.22	61.878
441.57	62.693
441.92	63.694
442.27	62.749
442.63	63.223
442.98	62.263
443.33	61.603
443.68	62.281
444.03	63.885
444.39	60.994
444.74	63.880
445.09	61.860
445.44	62.735
445.79	64.002
446.15	61.509
446.50	62.230
446.85	62.274
447.20	62.565
447.55	62.556
447.91	63.113
448.26	61.753
448.61	62.003
448.96	64.257
449.31	62.370
449.66	61.963
450.02	62.693
450.37	62.952
450.72	60.653
451.07	62.911
451.42	62.235
451.77	62.025
452.12	60.467
452.47	60.786
452.83	61.602
453.18	62.366
453.53	61.188
453.88	61.809
454.23	61.709
454.58	62.972
454.93	62.242
455.28	60.889
455.63	62.120
455.98	61.395
456.34	60.600
456.69	61.944
457.04	62.004
457.39	61.118
457.74	61.064
458.09	60.859
458.44	60.796
458.79	61.457
459.14	62.128
459.49	61.254
459.84	61.929
460.19	60.922
460.54	60.880
460.89	60.511
461.24	60.062
461.59	61.936
461.94	59.874
462.29	61.279
462.64	60.731
462.99	60.596
463.34	60.779
463.69	59.266
464.04	59.383
464.39	60.218
464.74	60.123
465.09	60.262
465.44	60.127
465.79	59.467
466.14	61.174
466.49	61.185
466.84	59.726
467.19	59.011
467.54	59.259
467.89	59.760
468.24	58.881
468.59	59.111
468.94	58.159
469.29	59.148
469.64	59.398
469.99	60.547
470.34	58.703
470.68	58.464
471.03	60.297
471.38	59.201
471.73	58.543
472.08	57.123
472.43	58.926
472.78	57.642
473.13	59.660
473.48	59.218
473.83	58.344
474.17	58.938
474.52	58.073
474.87	59.091
475.22	59.793
475.57	58.837
475.92	59.682
476.27	58.033
476.61	59.491
476.96	57.111
477.31	57.707
477.66	56.629
478.01	57.720
478.36	58.170
478.70	59.924
479.05	58.022
479.40	58.665
479.75	57.299
480.10	57.450
480.45	57.550
480.79	59.416
481.14	59.068
481.49	57.488
481.84	59.073
482.19	57.951
482.53	58.129
482.88	57.518
483.23	55.998
483.58	57.264
483.92	56.970
484.27	56.153
484.62	56.611
484.97	57.214
485.31	59.068
485.66	60.935
486.01	62.836
486.36	62.076
486.70	60.937
487.05	60.107
487.40	59.100
487.75	57.831
488.09	55.995
488.44	55.536
488.79	55.398
489.13	55.729
489.48	56.691
489.83	55.919
490.17	55.865
490.52	55.520
490.87	56.317
491.22	55.540
491.56	55.693
491.91	55.545
492.26	56.393
492.60	55.566
492.95	56.321
493.30	55.838
493.64	55.796
493.99	55.072
494.34	55.825
494.68	55.762
495.03	54.988
495.37	56.232
495.72	56.083
496.07	56.244
496.41	55.283
496.76	56.011
497.11	54.914
497.45	55.370
497.80	56.155
498.14	54.247
498.49	54.952
498.84	54.192
499.18	54.669
499.53	55.357
499.87	54.329
500.22	56.083
500.56	54.665
500.91	55.221
501.26	54.177
501.60	55.239
501.95	53.906
502.29	55.012
502.64	56.757
502.98	55.649
503.33	54.227
503.67	55.036
504.02	54.203
504.36	55.369
504.71	54.242
505.06	54.353
505.40	53.350
505.75	55.825
506.09	54.739
506.44	55.339
506.78	55.204
507.13	55.016
507.47	53.577
507.82	53.846
508.16	53.777
508.51	53.725
508.85	54.317
509.19	54.337
509.54	54.370
509.88	53.236
510.23	54.653
510.57	54.356
510.92	53.678
511.26	54.446
511.61	54.070
511.95	54.740
512.30	53.049
512.64	53.478
512.98	52.723
513.33	54.113
513.67	53.837
514.02	53.375
514.36	54.686
514.70	55.186
515.05	53.878
515.39	53.070
515.74	53.892
516.08	53.437
516.42	54.005
516.77	53.072
517.11	53.175
517.46	53.860
517.80	53.218
518.14	53.705
518.49	52.704
518.83	53.463
519.17	53.002
519.52	51.865
519.86	52.581
520.20	53.341
520.55	52.783
520.89	53.199
521.23	53.008
521.58	54.132
521.92	51.538
522.26	53.936
522.61	52.208
522.95	53.709
523.29	52.033
523.64	54.130
523.98	53.143
524.32	52.835
524.66	53.585
525.01	52.143
525.35	52.430
525.69	51.919
526.04	51.257
526.38	53.372
526.72	51.799
527.06	51.946
527.41	52.243
527.75	52.279
528.09	52.824
528.43	53.545
528.78	52.541
529.12	51.935
529.46	52.177
529.80	51.742
530.15	52.739
530.49	53.468
530.83	54.309
531.17	52.451
531.51	52.736
531.86	53.433
532.20	52.331
532.54	52.621
532.88	54.141
533.22	52.621
533.57	52.752
533.91	53.916
534.25	55.013
534.59	53.560
534.93	52.423
535.27	52.728
535.62	53.532
535.96	53.359
536.30	54.354
536.64	54.514
536.98	52.753
537.32	53.129
537.66	53.927
538.01	54.406
538.35	52.427
538.69	52.264
539.03	52.632
539.37	54.980
539.71	52.829
540.05	53.564
540.39	52.839
540.73	53.278
541.07	53.453
541.42	53.360
541.76	54.439
542.10	52.650
542.44	53.857
542.78	53.407
543.12	53.022
543.46	53.755
543.80	53.990
544.14	53.138
544.48	53.764
544.82	53.452
545.16	54.167
545.50	53.471
545.84	54.603
546.18	53.972
546.52	51.911
546.86	52.408
547.20	54.363
547.54	51.802
547.88	53.601
548.22	52.926
548.56	52.704
548.90	53.571
549.24	51.584
549.58	53.103
549.92	52.395
550.26	52.234
550.60	53.829
550.94	51.830
551.28	52.782
551.62	53.923
551.96	53.985
552.30	53.436
552.64	53.103
552.98	52.813
553.32	52.568
553.66	53.919
554.00	52.774
554.34	52.806
554.68	52.950
555.02	53.125
555.36	51.982
555.69	52.308
556.03	51.820
556.37	52.598
556.71	53.935
557.05	53.244
557.39	52.565
557.73	52.999
558.07	51.810
558.41	52.680
558.75	53.001
559.08	52.955
559.42	54.127
559.76	53.323
560.10	53.287
560.44	53.090
560.78	52.587
561.12	54.654
561.45	55.095
561.79	54.342
562.13	53.726
562.47	53.957
562.81	54.611
563.15	53.526
563.48	55.658
563.82	55.045
564.16	54.944
564.50	54.122
564.84	54.016
565.17	53.186
565.51	55.669
565.85	54.595
566.19	56.300
566.52	55.429
566.86	55.141
567.20	55.666
567.54	56.265
567.88	57.411
568.21	57.466
568.55	56.630
568.89	57.238
569.23	59.364
569.56	59.632
569.90	60.089
570.24	59.881
570.57	60.109
570.91	60.091
571.25	60.112
571.59	58.954
571.92	58.489
572.26	59.692
572.60	57.612
572.93	57.829
573.27	59.185
573.61	59.994
573.95	59.667
574.28	59.825
574.62	59.751
574.96	60.135
575.29	59.793
575.63	57.580
575.97	58.173
576.30	59.657
576.64	58.278
576.98	59.614
577.31	60.949
577.65	61.032
577.98	61.391
578.32	61.022
578.66	59.531
578.99	59.312
579.33	58.781
579.67	58.213
580.00	59.949
580.34	59.701
580.67	59.149
581.01	60.735
581.35	60.293
581.68	61.641
582.02	62.085
582.35	61.764
582.69	61.063
583.02	60.115
583.36	59.617
583.70	60.306
584.03	60.467
584.37	59.910
584.70	59.176
585.04	58.342
585.37	60.369
585.71	60.874
586.04	60.313
586.38	59.723
586.72	60.459
587.05	60.803
587.39	60.526
587.72	60.826
588.06	61.223
588.39	60.239
588.73	60.012
589.06	59.002
589.40	58.140
589.73	58.415
590.07	59.403
590.40	59.868
590.73	60.626
591.07	59.796
591.40	59.127
591.74	58.416
592.07	59.740
592.41	59.055
592.74	60.295
593.08	59.937
593.41	60.692
593.75	61.629
594.08	59.629
594.41	59.170
594.75	60.191
595.08	60.235
595.42	61.207
595.75	60.796
596.09	60.086
596.42	60.149
596.75	58.082
597.09	57.403
597.42	58.988
597.75	60.421
598.09	57.085
598.42	58.258
598.76	59.674
599.09	60.417
599.42	60.174
599.76	61.174
600.09	61.199
600.42	60.500
600.76	58.618
601.09	60.344
601.42	60.321
601.76	60.540
602.09	58.828
602.42	61.626
602.76	59.465
603.09	60.756
603.42	61.706
603.76	60.766
604.09	60.470
604.42	60.871
604.76	59.947
605.09	60.375
605.42	59.729
605.75	59.939
606.09	60.425
606.42	60.634
606.75	60.087
607.09	60.879
607.42	59.814
607.75	60.657
608.08	58.176
608.42	57.241
608.75	60.386
609.08	60.040
609.41	59.289
609.75	59.375
610.08	60.210
610.41	59.469
610.74	59.727
611.07	60.103
611.41	59.730
611.74	60.501
612.07	58.994
612.40	60.175
612.73	59.831
613.07	59.730
613.40	58.807
613.73	59.709
614.06	58.709
614.39	60.632
614.72	58.375
615.06	59.050
615.39	58.188
615.72	58.827
616.05	59.441
616.38	56.581
616.71	58.838
617.05	59.790
617.38	59.459
617.71	59.057
618.04	61.206
618.37	60.025
618.70	58.614
619.03	58.264
619.36	57.164
619.69	58.605
620.03	60.190
620.36	58.155
620.69	58.173
621.02	57.722
621.35	58.838
621.68	58.333
622.01	58.000
622.34	58.180
622.67	58.281
623.00	58.193
623.33	60.137
623.66	58.340
623.99	58.321
624.32	58.783
624.65	59.699
624.99	60.421
625.32	57.468
625.65	58.916
625.98	58.904
626.31	58.520
626.64	57.972
626.97	58.639
627.30	57.443
627.63	57.712
627.96	58.401
628.29	57.909
628.62	56.834
628.95	57.315
629.28	56.653
629.61	56.730
629.94	58.456
630.26	56.917
630.59	57.960
630.92	56.821
631.25	54.564
631.58	57.379
631.91	56.031
632.24	56.307
632.57	57.045
632.90	54.804
633.23	53.765
633.56	55.919
633.89	54.747
634.22	57.160
634.55	57.814
634.88	55.300
635.20	53.205
635.53	55.600
635.86	55.007
636.19	55.757
636.52	56.888
636.85	54.218
637.18	54.591
637.51	54.717
637.83	54.796
638.16	56.617
638.49	53.406
638.82	55.526
639.15	55.495
639.48	54.470
639.81	55.091
640.13	54.257
640.46	54.810
640.79	54.786
641.12	53.176
641.45	52.703
641.77	52.741
642.10	55.292
642.43	55.145
642.76	55.611
643.09	53.150
643.41	51.780
643.74	53.213
644.07	55.829
644.40	54.730
644.73	55.692
645.05	54.530
645.38	56.437
645.71	54.078
646.04	54.937
646.36	53.191
646.69	53.777
647.02	53.686
647.35	52.985
647.67	52.834
648.00	56.903
648.33	53.584
648.66	57.458
648.98	54.439
649.31	57.851
649.64	54.474
649.96	54.619
650.29	56.729
650.62	52.308
650.94	54.815
651.27	53.631
651.60	52.793
651.92	55.769
652.25	56.306
652.58	56.000
652.90	58.148
653.23	56.303
653.56	54.146
653.88	54.467
654.21	54.291
654.54	52.801
654.86	57.385
655.19	57.018
655.52	65.480
655.84	72.625
656.17	82.892
656.49	100.000
656.82	100.000
657.15	94.522
657.47	59.194
657.80	43.516
658.13	42.079
658.45	62.204
658.78	58.941
659.10	57.155
659.43	55.624
659.75	56.142
660.08	53.655
660.41	55.465
660.73	54.696
661.06	53.033
661.38	53.033
661.71	49.897
662.03	55.150
662.36	52.747
662.68	53.982
663.01	52.620
663.33	54.524
663.66	55.116
663.98	53.023
664.31	51.599
664.63	53.456
664.96	52.391
665.28	53.642
665.61	56.061
665.93	56.522
666.26	58.351
666.58	55.034
666.91	55.529
667.23	56.604
667.56	53.791
667.88	52.758
668.21	55.370
668.53	55.556
668.86	53.066
669.18	50.708
669.50	53.511
669.83	52.093
670.15	53.613
670.48	54.306
670.80	55.300
671.13	50.336
671.45	52.511
671.77	55.794
672.10	53.465
672.42	56.367
672.75	60.391
673.07	58.855
673.39	57.431
673.72	54.241
674.04	52.917
674.37	54.025
674.69	53.961
675.01	57.111
675.34	52.477
675.66	54.167
675.98	54.324
676.31	57.569
676.63	54.869
676.95	56.136
677.28	58.118
677.60	55.181
677.92	56.422
678.25	56.455
678.57	56.926
678.89	56.092
679.22	58.613
679.54	55.823
679.86	56.461
680.18	58.835
680.51	57.386
680.83	57.256
681.15	58.000
681.48	61.270
681.80	58.264
682.12	55.242
682.44	57.322
682.77	57.837
683.09	56.293
683.41	53.864
683.73	53.687
684.06	56.858
684.38	54.839
684.70	62.527
685.02	59.751
685.34	55.929
685.67	57.598
685.99	58.590
686.31	60.354
686.63	58.442
686.96	57.224
687.28	55.758
687.60	58.555
687.92	61.212
688.24	58.065
688.56	59.825
688.89	57.589
689.21	57.333
689.53	56.381
689.85	59.070
690.17	57.589
690.49	57.447
690.82	58.495
691.14	54.524
691.46	59.112
691.78	55.180
692.10	60.215
692.42	59.524
692.74	53.419
693.06	60.586
693.39	55.882
693.71	57.692
694.03	59.122
694.35	57.243
694.67	58.081
694.99	55.352
695.31	57.441
695.63	55.750
695.95	57.071
696.27	56.995
696.59	57.500
696.91	54.902
697.23	56.812
697.56	60.644
697.88	61.505
698.20	61.959
698.52	62.118
698.84	56.699
699.16	59.000
699.48	58.897
699.80	57.072
700.12	57.951
700.44	55.742
700.76	53.198
701.08	54.242
701.40	52.711
701.72	58.642
702.04	61.056
702.36	60.201
702.68	57.357
703.00	60.303
703.32	57.478
703.64	52.825
703.96	55.652
704.28	58.589
704.60	57.143
704.91	58.360
705.23	53.488
705.55	57.244
705.87	54.513
706.19	55.926
706.51	53.265
706.83	56.913
707.15	56.698
707.47	64.146
707.79	59.896
708.11	59.500
708.43	57.500
708.74	58.915
709.06	60.282
709.38	61.162
709.70	57.692
710.02	51.592
710.34	54.489
710.66	55.128
710.98	55.629
711.29	60.328
711.61	60.678
711.93	57.980
712.25	60.137
712.57	56.410
712.89	51.866
713.20	54.671
713.52	55.749
713.84	57.679
714.16	59.107
714.48	58.065
714.80	62.500
715.11	58.359
715.43	60.502
715.75	58.333
716.07	59.136
716.39	56.711
716.70	58.672
717.02	53.817
717.34	57.490
717.66	55.752
717.97	55.652
718.29	54.812
718.61	59.055
718.93	54.651
719.24	58.935
719.56	57.028
719.88	54.639
720.20	65.530
720.51	55.556
720.83	58.687
721.15	60.084
721.46	56.452
721.78	56.126
722.10	59.480
722.42	57.676
722.73	60.408
723.05	62.449
723.37	63.983
723.68	64.865
724.00	54.274
724.32	60.889
724.63	53.182
724.95	59.389
725.27	58.986
725.58	61.017
725.90	58.730
726.22	60.618
726.53	57.627
726.85	61.049
727.16	62.642
727.48	58.300
727.80	59.919
728.11	61.017
728.43	55.686
728.74	56.048
729.06	56.800
729.38	64.286
729.69	60.159
730.01	56.923
730.32	63.433
730.64	58.304
730.96	62.642
731.27	59.333
731.59	65.085
731.90	62.739
732.22	64.984
732.53	64.784
732.85	67.376
733.16	61.953
733.48	60.432
733.80	60.507
734.11	64.068
734.43	62.199
734.74	63.333
735.06	65.147
735.37	63.142
735.69	60.606
736.00	65.157
736.32	59.060
736.63	65.141
736.95	63.823
737.26	58.719
737.58	60.403
737.89	61.905
738.21	62.030
738.52	63.374
738.83	61.572
739.15	58.515
739.46	66.142
739.78	64.835
740.09	60.131
740.41	62.681
740.72	62.205
741.04	57.895
741.35	62.553
741.66	61.611
741.98	57.143
742.29	60.396
742.61	68.063
742.92	49.763
743.23	51.389
743.55	59.729
743.86	59.330
744.18	55.502
744.49	57.979
744.80	57.065
745.12	66.310
745.43	57.073
745.74	64.583
746.06	56.098
746.37	69.634
746.68	59.716
747.00	56.915
747.31	67.662
747.62	62.136
747.94	61.244
748.25	60.891
748.56	66.667
748.88	64.398
749.19	63.830
749.50	63.054
749.82	57.547
750.13	69.266
750.44	68.045
750.75	66.418
751.07	68.613
751.38	62.069
751.69	60.392
752.01	61.628
752.32	61.355
752.63	64.032
752.94	61.207
753.26	66.946
753.57	59.729
753.88	62.389
754.19	59.167
754.51	62.397
754.82	64.777
755.13	64.583
755.44	62.903
755.75	64.844
756.07	62.257
756.38	63.019
756.69	66.284
757.00	59.667
757.31	65.686
757.63	64.024
757.94	66.667
758.25	60.822
758.56	63.564
758.87	61.473
759.18	62.305
759.50	64.364
759.81	66.221
760.12	65.806
760.43	62.424
760.74	66.358
761.05	66.154
761.36	63.068
761.67	67.273
761.99	68.367
762.30	59.273
762.61	62.846
762.92	60.181
763.23	65.766
763.54	62.617
763.85	71.186
764.16	65.145
764.47	62.903
764.78	61.905
765.10	69.697
765.41	66.562
765.72	65.397
766.03	61.654
766.34	63.869
766.65	60.956
766.96	62.626
767.27	56.383
767.58	52.299
767.89	63.830
768.20	63.636
768.51	58.791
768.82	63.547
769.13	60.829
769.44	63.519
769.75	63.014
770.06	59.483
770.37	59.615
770.68	63.959
770.99	62.443
771.30	72.059
771.61	66.968
771.92	64.224
772.23	67.488
772.54	61.290
772.85	64.198
773.16	56.180
773.47	74.510
773.78	68.627
774.09	56.287
774.39	62.000
774.70	52.866
775.01	63.448
775.32	60.000
775.63	63.636
775.94	54.198
776.25	58.268
776.56	57.500
776.87	52.885
777.18	52.991
777.48	53.448
777.79	45.217
778.10	54.286
778.41	55.856
778.72	59.524
779.03	61.654
779.34	58.156
779.65	74.658
779.95	56.164
780.26	57.241
780.57	51.220
780.88	54.331
781.19	55.172
781.50	65.116
781.80	59.172
782.11	58.491
782.42	75.385
782.73	69.784
783.04	60.000
783.34	52.778
783.65	53.846
783.96	57.377
784.27	55.172
784.57	57.724
784.88	61.719
785.19	66.000
785.50	55.000
785.81	67.241
786.11	61.207
786.42	62.136
786.73	63.636
787.04	64.286
787.34	54.464
787.65	63.810
787.96	55.752
788.26	68.182
788.57	71.795
788.88	66.406
789.19	69.048
789.49	72.174
789.80	56.122
790.11	60.606
790.41	46.364
790.72	61.957
791.03	53.409
791.33	60.000
791.64	56.250
791.95	61.628
792.25	45.745
792.56	47.191
792.87	64.384
793.17	55.072
793.48	40.000
793.79	48.750
794.09	52.500
794.40	67.925
794.70	65.049
795.01	51.220
795.32	58.974
795.62	61.905
795.93	77.451
796.23	57.547
796.54	54.167
796.85	55.882
797.15	57.746
797.46	58.333
797.76	68.182
798.07	52.326
798.37	61.842
798.68	53.030
798.99	50.617
799.29	55.714
799.60	57.971
799.90	54.667
800.21	50.820
800.51	58.462
800.82	72.881
801.12	55.072
801.43	55.738
801.73	57.143
802.04	62.000
802.34	41.791
802.65	69.231
802.95	35.714
803.26	55.769
803.56	49.020
803.87	32.609
804.17	38.667
804.48	71.429
804.78	48.148
805.09	60.870
805.39	48.889
805.70	53.704
806.00	47.368
806.30	50.704
806.61	68.571
806.91	52.778
807.22	56.579
807.52	69.333
807.83	63.636
808.13	52.778
808.43	54.412
808.74	46.269
809.04	49.153
809.35	57.692
809.65	50.000
809.95	24.324
810.26	56.818
810.56	21.918
810.86	52.381
811.17	38.000
811.47	61.224
811.77	52.632
812.08	47.727
812.38	54.717
812.69	32.500
812.99	51.515
813.29	50.000
813.59	34.286
813.90	50.000
814.20	48.718
814.50	55.769
814.81	67.925
815.11	55.319
815.41	59.322
815.72	52.381
816.02	52.941
816.32	33.333
816.62	73.171
816.93	13.514
817.23	40.000
817.53	52.083
817.84	21.739
818.14	48.077
818.44	42.105
818.74	60.870
819.04	42.500
819.35	54.054
819.65	52.941
819.95	30.556
820.25	33.333
820.56	65.000
820.86	-10.345
821.16	82.500
821.46	70.213
821.76	52.500
822.07	58.140
822.37	21.622
822.67	21.875
822.97	38.095
823.27	39.286
823.57	48.000
823.88	40.741
824.18	60.714
824.48	52.941
824.78	32.258
825.08	78.261
825.38	57.576
825.69	29.167
825.99	84.211
826.29	22.222
826.59	46.667
826.89	19.048
827.19	63.043
827.49	30.000
827.79	54.286
828.09	89.286
828.39	45.455
828.70	81.081
829.00	32.143
829.30	23.810
829.60	73.333
829.90	40.625
830.20	50.000
830.50	18.519
830.80	65.217
831.10	22.727
831.40	51.515
831.70	45.161
832.00	19.048
832.30	4.762
832.60	-16.667
832.90	27.586
833.20	20.000
833.50	24.242
833.80	44.444
834.10	30.769
834.40	65.625
834.70	-44.444
835.00	36.842
835.30	92.308
835.60	93.333
835.90	38.710
836.20	63.636
836.50	71.429
836.80	61.538
837.10	35.714
837.40	33.333
837.70	59.091
838.00	27.273
838.30	26.087
838.60	0.000
838.90	22.727
839.19	46.429
839.49	30.000
839.79	-38.462
840.09	8.333
840.39	92.857
840.69	57.143
840.99	11.538
841.29	-10.526
841.59	60.000
841.88	27.273
842.18	90.000
842.48	62.500
842.78	-13.333
843.08	14.815
843.38	-40.000
843.68	69.565
843.97	53.333
844.27	-20.000
844.57	15.000
844.87	61.111
845.17	-14.286
845.47	20.000
845.76	38.095
846.06	23.529
846.36	-20.000
846.66	21.429
846.96	66.667
847.25	37.500
847.55	85.714
847.85	-25.000
848.15	13.636
848.44	-166.667
848.74	25.000
849.04	22.222
849.34	27.273
849.63	33.333
849.93	-260.000
850.23	-22.222
850.53	110.000
850.82	-69.231
851.12	122.222
851.42	-60.000
851.71	11.538
852.01	35.714
852.31	-200.000
852.61	90.909
852.90	30.000
853.20	26.316
853.50	75.000
853.79	30.435
854.09	70.833
854.39	-21.053
854.68	83.333
854.98	74.194
855.28	57.692
855.57	110.000
855.87	55.556
856.17	62.963
856.46	100.000
856.76	13.333
857.05	88.889
857.35	8.000
857.65	5.556
857.94	53.846
858.24	58.621
858.53	61.111
858.83	48.148
859.13	36.364
859.42	65.217
859.72	150.000
860.01	-400.000
860.31	76.000
860.60	85.714
860.90	-133.333
861.20	-53.333
861.49	-550.000
861.79	73.333
862.08	-10.000
862.38	140.000
862.67	-80.000
862.97	100.000
863.26	-33.333
863.56	22.222
863.85	0.000
864.15	0.000
864.44	-10.000
864.74	171.429
865.03	225.000
865.33	-160.000
865.62	100.000
865.92	-8.333
866.21	-66.667
866.51	37.500
866.80	-18.182
867.10	-150.000
867.39	16.667
867.69	0.000
867.98	-15.385
868.27	-66.667
868.57	60.000
868.86	-5.556
869.16	-100.000
869.45	46.667
869.75	-1500.000
870.04	0.000
870.33	0.000
870.63	42.857
870.92	66.667
871.22	-200.000
871.51	700.000
871.80	77.778
872.10	266.667
>>>>>End Processed Spectral Data<<<<<
