SpectraSuite Data File
++++++++++++++++++++++++++++++++++++
Date: Fri May 15 17:14:08 PDT 2015
User: schluterlab
Dark Spectrum Present: Yes
Reference Spectrum Present: Yes
Number of Sampled Component Spectra: 1
Spectrometers: USB2E3373
Integration Time (usec): 3000 (USB2E3373)
Spectra Averaged: 3 (USB2E3373)
Boxcar Smoothing: 0 (USB2E3373)
Correct for Electrical Dark: No (USB2E3373)
Strobe/Lamp Enabled: No (USB2E3373)
Correct for Detector Non-linearity: No (USB2E3373)
Correct for Stray Light: No (USB2E3373)
Number of Pixels in Processed Spectrum: 2048
>>>>>Begin Processed Spectral Data<<<<<
178.53	0.000
178.91	0.000
179.29	100.000
179.67	50.000
180.04	-171.429
180.42	200.000
180.80	200.000
181.18	-66.667
181.56	50.000
181.94	350.000
182.31	300.000
182.69	-40.000
183.07	166.667
183.45	-200.000
183.83	33.333
184.20	18.182
184.58	44.444
184.96	-100.000
185.34	-33.333
185.72	-200.000
186.09	23.077
186.47	-800.000
186.85	-50.000
187.23	77.778
187.61	-100.000
187.98	-133.333
188.36	88.889
188.74	233.333
189.12	58.824
189.49	83.333
189.87	0.000
190.25	85.714
190.63	200.000
191.00	66.667
191.38	68.421
191.76	450.000
192.14	-125.000
192.51	700.000
192.89	44.444
193.27	-28.571
193.65	-66.667
194.02	118.182
194.40	30.000
194.78	12.500
195.15	25.000
195.53	37.500
195.91	175.000
196.29	75.000
196.66	76.923
197.04	-0.000
197.42	-22.222
197.79	-300.000
198.17	-53.846
198.55	600.000
198.92	-133.333
199.30	200.000
199.68	120.000
200.05	-133.333
200.43	0.000
200.81	33.333
201.18	133.333
201.56	200.000
201.94	350.000
202.31	-0.000
202.69	-80.000
203.07	-75.000
203.44	400.000
203.82	0.000
204.19	28.571
204.57	-533.333
204.95	100.000
205.32	120.000
205.70	71.429
206.08	75.000
206.45	155.556
206.83	92.857
207.20	-14.286
207.58	-700.000
207.96	-66.667
208.33	-40.000
208.71	-25.000
209.08	-166.667
209.46	300.000
209.84	-120.000
210.21	-200.000
210.59	28.571
210.96	133.333
211.34	-125.000
211.71	66.667
212.09	-71.429
212.46	-800.000
212.84	0.000
213.22	50.000
213.59	500.000
213.97	15.385
214.34	54.545
214.72	-66.667
215.09	250.000
215.47	7.692
215.84	-54.545
216.22	-233.333
216.59	25.000
216.97	250.000
217.34	100.000
217.72	-100.000
218.09	87.500
218.47	37.500
218.84	300.000
219.22	22.222
219.59	160.000
219.97	-0.000
220.34	100.000
220.72	-28.571
221.09	-100.000
221.47	150.000
221.84	-100.000
222.22	-500.000
222.59	72.727
222.97	108.333
223.34	166.667
223.72	-7.143
224.09	52.381
224.46	57.143
224.84	400.000
225.21	-70.000
225.59	6.667
225.96	100.000
226.34	275.000
226.71	28.571
227.08	100.000
227.46	0.000
227.83	-200.000
228.21	44.444
228.58	81.818
228.95	-50.000
229.33	70.000
229.70	25.000
230.08	-62.500
230.45	0.000
230.82	171.429
231.20	-20.000
231.57	57.143
231.95	14.286
232.32	0.000
232.69	71.429
233.07	100.000
233.44	-100.000
233.81	-20.000
234.19	155.556
234.56	17.647
234.93	-0.000
235.31	-50.000
235.68	-140.000
236.05	0.000
236.43	30.000
236.80	94.118
237.17	40.625
237.55	10.000
237.92	-3.704
238.29	8.333
238.67	30.000
239.04	5.882
239.41	7.317
239.79	13.333
240.16	24.390
240.53	31.579
240.91	15.217
241.28	25.397
241.65	39.286
242.02	30.137
242.40	26.667
242.77	27.119
243.14	3.030
243.51	28.750
243.89	42.529
244.26	11.494
244.63	25.000
245.00	29.897
245.38	27.835
245.75	25.843
246.12	17.241
246.49	24.793
246.87	25.962
247.24	18.487
247.61	13.158
247.98	18.699
248.36	16.875
248.73	17.105
249.10	22.727
249.47	15.823
249.84	17.647
250.22	17.059
250.59	23.529
250.96	25.352
251.33	10.465
251.70	22.353
252.08	21.827
252.45	18.812
252.82	15.578
253.19	18.433
253.56	16.355
253.94	19.820
254.31	18.696
254.68	23.684
255.05	22.835
255.42	26.201
255.79	18.919
256.16	22.568
256.54	22.015
256.91	20.532
257.28	21.561
257.65	21.723
258.02	20.922
258.39	22.222
258.76	20.879
259.14	23.588
259.51	19.094
259.88	18.213
260.25	21.242
260.62	22.222
260.99	16.949
261.36	16.438
261.73	18.354
262.10	19.453
262.47	18.712
262.85	18.495
263.22	19.385
263.59	16.511
263.96	21.429
264.33	21.212
264.70	20.833
265.07	18.155
265.44	20.963
265.81	20.904
266.18	18.579
266.55	21.080
266.92	20.984
267.29	20.627
267.66	19.437
268.03	21.466
268.40	18.277
268.77	24.064
269.14	19.185
269.51	21.337
269.88	19.451
270.25	18.112
270.62	17.317
270.99	18.414
271.36	16.626
271.73	17.840
272.10	18.005
272.47	19.858
272.84	21.040
273.21	20.650
273.58	21.928
273.95	19.680
274.32	18.938
274.69	16.968
275.06	20.759
275.43	18.594
275.80	18.322
276.17	18.851
276.54	19.914
276.91	19.298
277.28	18.122
277.65	18.182
278.02	21.702
278.39	19.694
278.76	19.916
279.13	15.768
279.50	18.908
279.87	19.222
280.23	18.925
280.60	19.103
280.97	20.808
281.34	18.269
281.71	19.507
282.08	18.405
282.45	17.808
282.82	17.761
283.19	19.536
283.56	17.919
283.92	17.078
284.29	18.269
284.66	15.698
285.03	17.878
285.40	17.391
285.77	19.156
286.14	17.509
286.51	19.557
286.87	16.819
287.24	16.759
287.61	18.342
287.98	18.596
288.35	15.425
288.72	17.163
289.08	17.535
289.45	19.859
289.82	15.734
290.19	15.700
290.56	16.638
290.93	18.182
291.29	15.871
291.66	16.850
292.03	16.108
292.40	14.839
292.77	15.630
293.13	14.286
293.50	13.505
293.87	16.641
294.24	15.301
294.60	14.903
294.97	15.923
295.34	14.724
295.71	14.754
296.08	15.396
296.44	12.945
296.81	15.694
297.18	15.217
297.55	16.667
297.91	15.342
298.28	16.095
298.65	13.297
299.02	14.286
299.38	12.722
299.75	14.207
300.12	14.398
300.48	13.043
300.85	14.829
301.22	14.026
301.59	15.000
301.95	14.304
302.32	14.916
302.69	12.811
303.05	13.738
303.42	13.076
303.79	14.603
304.15	13.501
304.52	13.436
304.89	12.515
305.25	13.438
305.62	12.252
305.99	12.398
306.35	13.757
306.72	12.148
307.09	13.113
307.45	12.400
307.82	12.847
308.19	13.937
308.55	12.868
308.92	13.290
309.29	13.743
309.65	12.379
310.02	12.541
310.38	13.282
310.75	12.350
311.12	13.671
311.48	13.362
311.85	13.089
312.22	12.447
312.58	12.845
312.95	12.807
313.31	12.319
313.68	12.775
314.05	12.347
314.41	13.711
314.78	13.505
315.14	13.875
315.51	13.768
315.87	12.193
316.24	15.268
316.61	14.173
316.97	13.492
317.34	14.355
317.70	13.671
318.07	13.654
318.43	12.745
318.80	12.973
319.16	14.063
319.53	15.575
319.89	13.583
320.26	13.765
320.62	15.446
320.99	14.823
321.35	13.566
321.72	15.369
322.08	15.609
322.45	15.228
322.81	15.422
323.18	15.996
323.54	15.830
323.91	14.800
324.27	15.527
324.64	14.794
325.00	16.332
325.37	15.060
325.73	15.413
326.10	16.076
326.46	17.220
326.83	16.710
327.19	15.519
327.56	17.289
327.92	16.461
328.29	15.714
328.65	16.698
329.01	17.004
329.38	17.051
329.74	15.486
330.11	16.682
330.47	15.863
330.84	16.731
331.20	19.011
331.56	16.389
331.93	16.164
332.29	17.782
332.66	16.290
333.02	17.007
333.38	16.132
333.75	17.766
334.11	15.936
334.48	17.044
334.84	16.392
335.20	16.651
335.57	16.410
335.93	17.796
336.29	17.956
336.66	16.712
337.02	16.450
337.38	15.833
337.75	16.364
338.11	17.583
338.47	16.788
338.84	17.098
339.20	17.002
339.56	17.523
339.93	16.831
340.29	17.064
340.65	16.935
341.02	16.312
341.38	17.080
341.74	16.254
342.11	16.205
342.47	16.815
342.83	17.474
343.20	15.592
343.56	16.087
343.92	16.563
344.28	16.567
344.65	16.494
345.01	15.817
345.37	17.157
345.73	16.987
346.10	17.601
346.46	16.400
346.82	17.021
347.19	15.544
347.55	15.288
347.91	17.152
348.27	16.896
348.63	16.610
349.00	16.161
349.36	15.877
349.72	16.335
350.08	17.459
350.45	16.520
350.81	15.532
351.17	14.577
351.53	16.408
351.89	15.194
352.26	15.680
352.62	17.339
352.98	15.502
353.34	16.023
353.70	16.424
354.07	16.371
354.43	17.054
354.79	15.607
355.15	17.937
355.51	16.377
355.87	16.748
356.24	15.334
356.60	16.249
356.96	16.508
357.32	15.655
357.68	16.497
358.04	15.024
358.40	16.077
358.77	16.746
359.13	15.853
359.49	16.487
359.85	16.381
360.21	16.029
360.57	15.532
360.93	17.776
361.29	16.163
361.66	15.361
362.02	16.288
362.38	17.289
362.74	16.427
363.10	16.102
363.46	16.531
363.82	15.702
364.18	16.015
364.54	16.912
364.90	16.344
365.26	15.793
365.62	17.226
365.98	17.229
366.35	17.116
366.71	15.447
367.07	16.618
367.43	16.822
367.79	16.184
368.15	16.583
368.51	16.679
368.87	15.865
369.23	17.112
369.59	16.035
369.95	17.742
370.31	16.113
370.67	16.269
371.03	16.505
371.39	16.484
371.75	15.971
372.11	15.906
372.47	16.346
372.83	17.317
373.19	17.618
373.55	16.318
373.91	16.703
374.27	17.434
374.63	16.870
374.99	16.667
375.35	17.340
375.71	17.483
376.07	16.924
376.42	17.551
376.78	17.785
377.14	16.249
377.50	16.866
377.86	17.671
378.22	16.784
378.58	16.667
378.94	16.005
379.30	17.654
379.66	17.680
380.02	16.738
380.38	16.799
380.74	16.936
381.09	17.423
381.45	16.820
381.81	18.384
382.17	17.957
382.53	17.364
382.89	17.451
383.25	17.299
383.61	17.988
383.97	17.079
384.32	17.949
384.68	18.142
385.04	17.402
385.40	17.237
385.76	18.679
386.12	19.082
386.48	18.582
386.83	18.326
387.19	18.620
387.55	18.005
387.91	17.298
388.27	18.010
388.62	18.880
388.98	18.416
389.34	18.114
389.70	17.961
390.06	17.306
390.42	18.264
390.77	17.397
391.13	18.285
391.49	17.594
391.85	18.583
392.20	18.644
392.56	17.864
392.92	18.967
393.28	18.868
393.64	17.477
393.99	19.185
394.35	18.027
394.71	19.029
395.07	18.165
395.42	18.033
395.78	18.436
396.14	18.916
396.50	18.199
396.85	18.158
397.21	18.734
397.57	18.809
397.92	18.574
398.28	19.310
398.64	18.976
399.00	18.792
399.35	17.664
399.71	18.955
400.07	18.501
400.42	19.094
400.78	19.473
401.14	18.996
401.49	19.655
401.85	18.647
402.21	18.614
402.57	19.250
402.92	18.130
403.28	18.985
403.63	18.096
403.99	18.814
404.35	18.738
404.70	18.452
405.06	18.273
405.42	18.459
405.77	16.734
406.13	18.277
406.49	18.946
406.84	18.949
407.20	18.904
407.55	18.094
407.91	18.316
408.27	18.674
408.62	19.508
408.98	18.977
409.34	19.950
409.69	19.703
410.05	18.165
410.40	19.259
410.76	19.361
411.11	18.938
411.47	19.790
411.83	17.891
412.18	19.434
412.54	18.789
412.89	18.103
413.25	18.953
413.60	18.820
413.96	19.080
414.31	19.634
414.67	19.243
415.03	19.308
415.38	18.799
415.74	19.218
416.09	19.464
416.45	18.704
416.80	18.837
417.16	20.097
417.51	20.120
417.87	19.166
418.22	19.624
418.58	19.398
418.93	20.439
419.29	18.438
419.64	19.702
420.00	19.836
420.35	19.164
420.71	19.016
421.06	19.828
421.42	19.471
421.77	19.480
422.12	18.388
422.48	19.166
422.83	19.664
423.19	20.147
423.54	18.871
423.90	19.552
424.25	19.403
424.61	20.808
424.96	19.744
425.31	20.451
425.67	20.423
426.02	20.495
426.38	20.601
426.73	20.521
427.09	20.127
427.44	20.882
427.79	20.507
428.15	20.570
428.50	19.867
428.85	20.270
429.21	19.751
429.56	20.054
429.92	21.058
430.27	20.551
430.62	19.394
430.98	20.701
431.33	20.505
431.68	20.147
432.04	20.235
432.39	20.650
432.74	20.144
433.10	22.069
433.45	21.147
433.80	20.197
434.16	19.778
434.51	20.860
434.86	21.080
435.22	21.200
435.57	20.274
435.92	21.377
436.28	20.572
436.63	21.164
436.98	20.857
437.34	20.750
437.69	20.930
438.04	21.481
438.39	20.220
438.75	21.797
439.10	20.600
439.45	21.059
439.81	21.040
440.16	21.378
440.51	21.791
440.86	22.840
441.22	20.928
441.57	20.309
441.92	21.196
442.27	21.619
442.63	22.752
442.98	22.343
443.33	21.870
443.68	21.698
444.03	22.057
444.39	21.299
444.74	21.962
445.09	22.661
445.44	21.880
445.79	22.073
446.15	21.641
446.50	21.464
446.85	22.210
447.20	21.481
447.55	23.103
447.91	22.561
448.26	23.221
448.61	22.625
448.96	22.146
449.31	22.832
449.66	22.416
450.02	22.989
450.37	21.636
450.72	22.222
451.07	23.418
451.42	23.034
451.77	22.725
452.12	22.548
452.47	22.344
452.83	22.733
453.18	23.403
453.53	22.882
453.88	22.040
454.23	23.479
454.58	23.804
454.93	23.518
455.28	21.905
455.63	22.877
455.98	22.730
456.34	22.478
456.69	24.269
457.04	23.819
457.39	22.418
457.74	22.793
458.09	22.778
458.44	22.352
458.79	22.465
459.14	23.513
459.49	23.940
459.84	23.012
460.19	22.694
460.54	24.083
460.89	23.636
461.24	23.416
461.59	23.634
461.94	22.201
462.29	24.186
462.64	24.651
462.99	24.306
463.34	23.366
463.69	23.552
464.04	24.153
464.39	23.105
464.74	23.252
465.09	24.392
465.44	23.889
465.79	22.959
466.14	24.059
466.49	23.807
466.84	23.736
467.19	24.155
467.54	23.499
467.89	23.752
468.24	23.358
468.59	24.698
468.94	23.111
469.29	25.639
469.64	24.880
469.99	25.158
470.34	23.072
470.68	25.802
471.03	25.336
471.38	24.322
471.73	24.860
472.08	24.016
472.43	24.564
472.78	24.812
473.13	24.762
473.48	25.016
473.83	24.346
474.17	25.712
474.52	24.314
474.87	25.091
475.22	24.710
475.57	24.958
475.92	25.288
476.27	25.146
476.61	24.711
476.96	24.373
477.31	24.662
477.66	25.618
478.01	25.379
478.36	24.183
478.70	24.470
479.05	25.110
479.40	24.377
479.75	23.879
480.10	24.782
480.45	24.200
480.79	25.227
481.14	24.795
481.49	24.335
481.84	25.579
482.19	24.836
482.53	25.420
482.88	24.630
483.23	24.376
483.58	25.472
483.92	24.395
484.27	23.929
484.62	25.190
484.97	24.585
485.31	24.169
485.66	22.757
486.01	22.785
486.36	22.267
486.70	22.829
487.05	23.275
487.40	23.785
487.75	24.338
488.09	24.444
488.44	25.069
488.79	25.290
489.13	25.801
489.48	25.310
489.83	25.830
490.17	25.303
490.52	25.450
490.87	24.711
491.22	25.883
491.56	24.336
491.91	25.335
492.26	25.571
492.60	26.392
492.95	27.201
493.30	25.403
493.64	25.589
493.99	26.473
494.34	26.068
494.68	26.238
495.03	25.255
495.37	25.957
495.72	26.300
496.07	26.293
496.41	26.321
496.76	25.887
497.11	25.710
497.45	27.064
497.80	27.195
498.14	26.677
498.49	26.714
498.84	26.547
499.18	26.857
499.53	27.381
499.87	26.216
500.22	26.360
500.56	26.525
500.91	27.309
501.26	26.199
501.60	26.267
501.95	27.511
502.29	27.506
502.64	27.510
502.98	26.887
503.33	26.705
503.67	27.518
504.02	28.690
504.36	27.264
504.71	27.020
505.06	26.875
505.40	27.310
505.75	28.041
506.09	27.471
506.44	28.337
506.78	27.806
507.13	28.594
507.47	27.520
507.82	27.671
508.16	27.839
508.51	27.702
508.85	27.630
509.19	28.260
509.54	27.346
509.88	27.940
510.23	27.757
510.57	27.686
510.92	27.345
511.26	27.878
511.61	27.613
511.95	28.000
512.30	28.160
512.64	28.381
512.98	28.186
513.33	28.651
513.67	28.596
514.02	30.034
514.36	30.343
514.70	30.303
515.05	29.495
515.39	29.811
515.74	30.120
516.08	28.213
516.42	30.271
516.77	29.432
517.11	29.496
517.46	30.042
517.80	29.678
518.14	30.006
518.49	29.327
518.83	29.465
519.17	29.776
519.52	29.663
519.86	30.012
520.20	29.951
520.55	30.457
520.89	30.803
521.23	30.399
521.58	30.852
521.92	31.218
522.26	30.579
522.61	31.494
522.95	31.391
523.29	31.639
523.64	30.750
523.98	31.043
524.32	30.348
524.66	31.370
525.01	31.234
525.35	31.432
525.69	30.572
526.04	30.423
526.38	32.166
526.72	30.020
527.06	30.350
527.41	30.805
527.75	30.697
528.09	30.698
528.43	31.398
528.78	30.891
529.12	30.968
529.46	31.189
529.80	30.082
530.15	30.627
530.49	31.246
530.83	32.216
531.17	31.162
531.51	32.695
531.86	30.795
532.20	31.454
532.54	32.335
532.88	30.869
533.22	31.048
533.57	30.931
533.91	31.136
534.25	31.641
534.59	31.174
534.93	30.208
535.27	29.949
535.62	30.590
535.96	30.985
536.30	32.388
536.64	32.667
536.98	31.150
537.32	31.863
537.66	31.627
538.01	32.028
538.35	30.444
538.69	30.360
539.03	31.511
539.37	31.494
539.71	30.948
540.05	30.007
540.39	32.133
540.73	32.566
541.07	31.906
541.42	30.847
541.76	31.796
542.10	30.902
542.44	31.897
542.78	30.007
543.12	31.525
543.46	31.711
543.80	31.506
544.14	30.774
544.48	31.845
544.82	31.032
545.16	31.352
545.50	31.375
545.84	32.649
546.18	32.979
546.52	31.651
546.86	31.632
547.20	32.976
547.54	31.590
547.88	31.861
548.22	31.821
548.56	30.805
548.90	31.739
549.24	32.094
549.58	32.158
549.92	31.308
550.26	32.894
550.60	32.342
550.94	33.010
551.28	31.685
551.62	32.923
551.96	31.880
552.30	31.506
552.64	31.805
552.98	31.857
553.32	32.026
553.66	32.221
554.00	33.212
554.34	33.456
554.68	32.596
555.02	33.705
555.36	32.012
555.69	31.355
556.03	31.335
556.37	31.388
556.71	32.780
557.05	32.886
557.39	32.565
557.73	32.759
558.07	33.258
558.41	33.078
558.75	33.905
559.08	34.121
559.42	32.698
559.76	32.986
560.10	33.333
560.44	31.943
560.78	32.657
561.12	32.158
561.45	32.045
561.79	32.353
562.13	31.725
562.47	31.942
562.81	34.510
563.15	33.286
563.48	33.380
563.82	32.739
564.16	32.312
564.50	31.959
564.84	33.066
565.17	32.059
565.51	33.743
565.85	33.128
566.19	32.361
566.52	33.311
566.86	32.969
567.20	31.880
567.54	31.630
567.88	32.513
568.21	30.939
568.55	30.217
568.89	31.109
569.23	30.091
569.56	30.079
569.90	29.517
570.24	28.024
570.57	28.364
570.91	29.104
571.25	27.754
571.59	27.811
571.92	27.733
572.26	28.050
572.60	28.434
572.93	28.051
573.27	28.276
573.61	27.745
573.95	27.089
574.28	27.172
574.62	26.341
574.96	26.876
575.29	27.436
575.63	26.509
575.97	27.135
576.30	27.495
576.64	27.258
576.98	27.825
577.31	27.230
577.65	26.766
577.98	26.754
578.32	26.423
578.66	26.026
578.99	26.650
579.33	26.430
579.67	26.697
580.00	27.367
580.34	26.791
580.67	27.151
581.01	27.185
581.35	26.766
581.68	26.196
582.02	26.409
582.35	26.481
582.69	26.295
583.02	26.896
583.36	27.656
583.70	27.908
584.03	28.162
584.37	28.571
584.70	27.802
585.04	27.176
585.37	27.617
585.71	27.154
586.04	26.954
586.38	27.341
586.72	27.547
587.05	28.047
587.39	27.677
587.72	28.403
588.06	27.429
588.39	27.998
588.73	28.632
589.06	29.159
589.40	28.897
589.73	29.609
590.07	29.985
590.40	29.257
590.73	30.560
591.07	29.220
591.40	29.875
591.74	30.271
592.07	30.659
592.41	30.521
592.74	29.470
593.08	28.292
593.41	28.567
593.75	28.132
594.08	28.768
594.41	29.476
594.75	28.588
595.08	29.209
595.42	29.223
595.75	29.516
596.09	29.867
596.42	30.260
596.75	30.240
597.09	30.569
597.42	30.081
597.75	31.150
598.09	29.516
598.42	30.054
598.76	28.872
599.09	29.527
599.42	28.344
599.76	29.157
600.09	28.658
600.42	28.734
600.76	28.418
601.09	29.046
601.42	28.946
601.76	29.655
602.09	29.950
602.42	30.202
602.76	29.924
603.09	29.360
603.42	30.268
603.76	29.516
604.09	30.134
604.42	30.118
604.76	31.064
605.09	29.982
605.42	31.061
605.75	29.378
606.09	30.573
606.42	29.274
606.75	30.130
607.09	30.154
607.42	29.774
607.75	30.062
608.08	29.829
608.42	29.922
608.75	31.422
609.08	30.992
609.41	31.015
609.75	30.998
610.08	30.754
610.41	29.952
610.74	31.009
611.07	31.318
611.41	30.981
611.74	32.249
612.07	31.103
612.40	31.455
612.73	32.147
613.07	30.709
613.40	31.674
613.73	31.281
614.06	31.219
614.39	31.698
614.72	30.980
615.06	32.291
615.39	31.332
615.72	30.301
616.05	31.453
616.38	30.769
616.71	32.171
617.05	32.366
617.38	33.312
617.71	32.956
618.04	33.397
618.37	32.976
618.70	32.871
619.03	33.750
619.36	33.647
619.69	34.117
620.03	34.112
620.36	33.548
620.69	32.905
621.02	34.404
621.35	34.855
621.68	35.204
622.01	34.667
622.34	35.116
622.67	35.331
623.00	34.074
623.33	33.994
623.66	32.984
623.99	33.888
624.32	34.829
624.65	35.639
624.99	34.537
625.32	34.647
625.65	35.192
625.98	34.891
626.31	34.913
626.64	37.088
626.97	36.126
627.30	36.778
627.63	37.522
627.96	37.287
628.29	36.725
628.62	36.775
628.95	37.375
629.28	38.206
629.61	37.587
629.94	37.537
630.26	36.561
630.59	38.085
630.92	38.769
631.25	36.718
631.58	39.207
631.91	37.390
632.24	38.761
632.57	39.545
632.90	38.790
633.23	39.529
633.56	40.680
633.89	40.814
634.22	40.370
634.55	39.644
634.88	40.102
635.20	40.769
635.53	41.733
635.86	39.532
636.19	41.138
636.52	40.434
636.85	40.447
637.18	39.497
637.51	40.000
637.83	40.867
638.16	42.701
638.49	40.054
638.82	40.921
639.15	40.977
639.48	40.303
639.81	40.586
640.13	42.136
640.46	39.359
640.79	42.563
641.12	41.211
641.45	43.694
641.77	43.407
642.10	41.390
642.43	42.444
642.76	44.389
643.09	42.165
643.41	41.424
643.74	42.834
644.07	44.663
644.40	44.257
644.73	44.658
645.05	44.631
645.38	44.974
645.71	42.553
646.04	45.242
646.36	42.553
646.69	46.942
647.02	46.314
647.35	42.910
647.67	44.424
648.00	46.642
648.33	42.491
648.66	41.525
648.98	41.374
649.31	41.157
649.64	41.758
649.96	40.032
650.29	44.463
650.62	44.444
650.94	43.704
651.27	44.693
651.60	45.405
651.92	44.755
652.25	43.162
652.58	40.333
652.90	44.082
653.23	40.168
653.56	39.763
653.88	42.955
654.21	40.455
654.54	41.087
654.86	43.294
655.19	38.304
655.52	32.585
655.84	25.943
656.17	28.715
656.49	39.120
656.82	41.738
657.15	32.393
657.47	24.436
657.80	18.567
658.13	18.716
658.45	29.481
658.78	30.376
659.10	30.612
659.43	32.333
659.75	34.978
660.08	35.931
660.41	38.713
660.73	39.779
661.06	41.594
661.38	44.618
661.71	43.737
662.03	48.927
662.36	47.033
662.68	43.584
663.01	44.323
663.33	44.084
663.66	43.023
663.98	43.953
664.31	44.989
664.63	43.548
664.96	42.174
665.28	43.929
665.61	46.753
665.93	44.783
666.26	46.638
666.58	41.834
666.91	47.059
667.23	49.057
667.56	49.289
667.88	46.763
668.21	48.926
668.53	46.809
668.86	47.170
669.18	44.575
669.50	45.521
669.83	42.558
670.15	43.124
670.48	47.847
670.80	44.931
671.13	45.190
671.45	44.292
671.77	48.498
672.10	42.970
672.42	43.633
672.75	44.405
673.07	42.397
673.39	43.670
673.72	41.815
674.04	45.000
674.37	45.763
674.69	43.897
675.01	47.333
675.34	43.018
675.66	44.444
675.98	43.902
676.31	47.706
676.63	42.280
676.95	44.318
677.28	47.765
677.60	48.675
677.92	44.495
678.25	45.514
678.57	40.043
678.89	42.437
679.22	43.848
679.54	42.771
679.86	41.352
680.18	43.883
680.51	43.182
680.83	41.551
681.15	44.200
681.48	42.828
681.80	45.868
682.12	45.565
682.44	42.469
682.77	42.163
683.09	45.080
683.41	45.909
683.73	43.088
684.06	44.248
684.38	43.656
684.70	45.534
685.02	40.041
685.34	40.316
685.67	39.962
685.99	39.783
686.31	43.717
686.63	42.486
686.96	39.734
687.28	38.182
687.60	38.403
687.92	41.212
688.24	40.121
688.56	43.886
688.89	43.527
689.21	44.000
689.53	42.923
689.85	44.884
690.17	42.634
690.49	43.499
690.82	42.718
691.14	41.190
691.46	44.393
691.78	42.793
692.10	44.516
692.42	40.476
692.74	40.598
693.06	41.441
693.39	38.914
693.71	41.629
694.03	39.261
694.35	40.654
694.67	46.465
694.99	42.298
695.31	45.953
695.63	45.500
695.95	42.172
696.27	44.301
696.59	50.000
696.91	45.378
697.23	40.874
697.56	40.842
697.88	41.505
698.20	44.875
698.52	40.471
698.84	43.301
699.16	41.750
699.48	47.870
699.80	46.402
700.12	40.970
700.44	45.938
700.76	42.442
701.08	47.879
701.40	45.482
701.72	50.309
702.04	48.515
702.36	47.157
702.68	45.345
703.00	46.667
703.32	45.161
703.64	41.525
703.96	41.159
704.28	47.546
704.60	46.349
704.91	41.009
705.23	48.505
705.55	52.297
705.87	49.819
706.19	47.778
706.51	49.828
706.83	46.624
707.15	43.302
707.47	45.938
707.79	41.406
708.11	42.750
708.43	44.750
708.74	42.894
709.06	43.099
709.38	45.260
709.70	46.154
710.02	42.994
710.34	45.511
710.66	44.872
710.98	43.709
711.29	45.574
711.61	45.424
711.93	43.974
712.25	47.423
712.57	47.619
712.89	46.642
713.20	45.675
713.52	43.902
713.84	39.590
714.16	42.612
714.48	45.806
714.80	44.872
715.11	44.681
715.43	39.185
715.75	47.000
716.07	44.850
716.39	45.638
716.70	47.970
717.02	44.656
717.34	51.012
717.66	53.097
717.97	47.391
718.29	48.954
718.61	41.732
718.93	44.961
719.24	46.008
719.56	45.382
719.88	44.674
720.20	47.348
720.51	44.061
720.83	44.788
721.15	43.277
721.46	44.355
721.78	44.269
722.10	40.892
722.42	43.568
722.73	46.531
723.05	53.878
723.37	53.390
723.68	50.450
724.00	42.735
724.32	47.556
724.63	43.636
724.95	45.852
725.27	49.770
725.58	43.644
725.90	44.048
726.22	41.699
726.53	40.678
726.85	47.940
727.16	47.547
727.48	42.510
727.80	44.534
728.11	46.186
728.43	43.922
728.74	42.339
729.06	43.600
729.38	51.128
729.69	45.418
730.01	41.923
730.32	42.537
730.64	44.170
730.96	43.396
731.27	39.667
731.59	42.712
731.90	41.401
732.22	40.379
732.53	45.183
732.85	40.780
733.16	48.822
733.48	39.928
733.80	40.580
734.11	42.034
734.43	42.955
734.74	44.545
735.06	37.134
735.37	40.785
735.69	44.108
736.00	40.418
736.32	41.611
736.63	39.437
736.95	43.345
737.26	39.146
737.58	39.933
737.89	41.392
738.21	46.241
738.52	46.091
738.83	47.162
739.15	41.485
739.46	45.276
739.78	36.264
740.09	39.542
740.41	41.667
740.72	37.402
741.04	46.154
741.35	44.255
741.66	45.972
741.98	50.510
742.29	44.059
742.61	51.309
742.92	41.706
743.23	39.815
743.55	40.271
743.86	45.933
744.18	46.411
744.49	48.404
744.80	49.457
745.12	48.663
745.43	47.317
745.74	51.042
746.06	44.878
746.37	49.215
746.68	50.237
747.00	40.426
747.31	54.229
747.62	44.175
747.94	43.062
748.25	47.030
748.56	48.087
748.88	51.832
749.19	52.128
749.50	44.828
749.82	45.755
750.13	45.872
750.44	43.609
750.75	42.537
751.07	45.620
751.38	44.828
751.69	40.784
752.01	41.860
752.32	42.629
752.63	41.107
752.94	44.828
753.26	45.607
753.57	45.701
753.88	43.805
754.19	45.000
754.51	41.736
754.82	40.486
755.13	46.250
755.44	47.177
755.75	48.437
756.07	36.965
756.38	34.340
756.69	39.080
757.00	41.333
757.31	41.503
757.63	38.415
757.94	38.056
758.25	37.260
758.56	36.968
758.87	35.127
759.18	38.318
759.50	39.636
759.81	40.134
760.12	40.645
760.43	36.061
760.74	44.753
761.05	40.923
761.36	35.795
761.67	40.909
761.99	42.517
762.30	39.636
762.61	45.850
762.92	42.081
763.23	41.892
763.54	42.991
763.85	41.525
764.16	39.004
764.47	39.919
764.78	40.659
765.10	38.384
765.41	35.962
765.72	39.048
766.03	41.353
766.34	46.715
766.65	41.833
766.96	43.939
767.27	44.681
767.58	39.080
767.89	52.482
768.20	38.636
768.51	40.659
768.82	42.857
769.13	34.101
769.44	43.777
769.75	39.269
770.06	44.828
770.37	45.192
770.68	43.655
770.99	41.176
771.30	43.627
771.61	42.081
771.92	46.983
772.23	42.857
772.54	45.699
772.85	50.617
773.16	47.191
773.47	52.941
773.78	51.634
774.09	43.713
774.39	40.000
774.70	49.045
775.01	50.345
775.32	45.714
775.63	44.628
775.94	46.565
776.25	39.370
776.56	52.500
776.87	52.885
777.18	52.991
777.48	48.276
777.79	38.261
778.10	55.238
778.41	54.054
778.72	46.032
779.03	54.135
779.34	46.809
779.65	41.781
779.95	36.301
780.26	42.759
780.57	40.650
780.88	40.157
781.19	39.655
781.50	43.411
781.80	37.278
782.11	37.736
782.42	47.692
782.73	33.813
783.04	46.667
783.34	38.889
783.65	34.188
783.96	46.721
784.27	51.034
784.57	49.593
784.88	40.625
785.19	54.000
785.50	57.000
785.81	39.655
786.11	43.103
786.42	43.689
786.73	49.091
787.04	45.918
787.34	39.286
787.65	52.381
787.96	40.708
788.26	45.455
788.57	46.154
788.88	43.750
789.19	35.714
789.49	44.348
789.80	42.857
790.11	49.495
790.41	32.727
790.72	44.565
791.03	51.136
791.33	57.500
791.64	55.000
791.95	48.837
792.25	45.745
792.56	59.551
792.87	50.685
793.17	57.971
793.48	40.000
793.79	40.000
794.09	62.500
794.40	35.849
794.70	55.340
795.01	39.024
795.32	45.299
795.62	41.905
795.93	40.196
796.23	44.340
796.54	41.667
796.85	50.000
797.15	46.479
797.46	52.778
797.76	60.606
798.07	43.023
798.37	38.158
798.68	46.970
798.99	50.617
799.29	58.571
799.60	34.783
799.90	57.333
800.21	55.738
800.51	46.154
800.82	49.153
801.12	55.072
801.43	42.623
801.73	57.143
802.04	62.000
802.34	37.313
802.65	67.308
802.95	30.357
803.26	51.923
803.56	49.020
803.87	32.609
804.17	50.667
804.48	60.317
804.78	37.037
805.09	60.870
805.39	57.778
805.70	72.222
806.00	12.281
806.30	46.479
806.61	44.286
806.91	40.278
807.22	51.316
807.52	65.333
807.83	47.273
808.13	43.056
808.43	50.000
808.74	49.254
809.04	52.542
809.35	65.385
809.65	42.187
809.95	45.946
810.26	34.091
810.56	42.466
810.86	35.714
811.17	48.000
811.47	57.143
811.77	63.158
812.08	43.182
812.38	45.283
812.69	57.500
812.99	30.303
813.29	71.053
813.59	11.429
813.90	59.091
814.20	23.077
814.50	51.923
814.81	58.491
815.11	48.936
815.41	45.763
815.72	40.476
816.02	49.020
816.32	64.583
816.62	58.537
816.93	8.108
817.23	22.857
817.53	50.000
817.84	19.565
818.14	42.308
818.44	52.632
818.74	78.261
819.04	25.000
819.35	86.486
819.65	23.529
819.95	44.444
820.25	26.190
820.56	62.500
820.86	20.690
821.16	90.000
821.46	44.681
821.76	72.500
822.07	51.163
822.37	59.459
822.67	25.000
822.97	45.238
823.27	42.857
823.57	56.000
823.88	44.444
824.18	50.000
824.48	67.647
824.78	45.161
825.08	47.826
825.38	54.545
825.69	50.000
825.99	34.211
826.29	52.778
826.59	126.667
826.89	42.857
827.19	69.565
827.49	47.500
827.79	45.714
828.09	53.571
828.39	72.727
828.70	59.459
829.00	42.857
829.30	28.571
829.60	56.667
829.90	56.250
830.20	44.737
830.50	70.370
830.80	78.261
831.10	40.909
831.40	66.667
831.70	64.516
832.00	104.762
832.30	76.190
832.60	33.333
832.90	31.034
833.20	15.000
833.50	30.303
833.80	11.111
834.10	61.538
834.40	87.500
834.70	111.111
835.00	68.421
835.30	103.846
835.60	126.667
835.90	61.290
836.20	81.818
836.50	85.714
836.80	15.385
837.10	100.000
837.40	333.333
837.70	59.091
838.00	90.909
838.30	56.522
838.60	76.923
838.90	100.000
839.19	35.714
839.49	50.000
839.79	92.308
840.09	0.000
840.39	85.714
840.69	57.143
840.99	65.385
841.29	21.053
841.59	110.000
841.88	181.818
842.18	150.000
842.48	62.500
842.78	60.000
843.08	74.074
843.38	0.000
843.68	117.391
843.97	66.667
844.27	73.333
844.57	100.000
844.87	50.000
845.17	9.524
845.47	80.000
845.76	0.000
846.06	94.118
846.36	130.000
846.66	78.571
846.96	126.667
847.25	-100.000
847.55	50.000
847.85	112.500
848.15	95.455
848.44	200.000
848.74	90.000
849.04	85.185
849.34	90.909
849.63	-33.333
849.93	-20.000
850.23	-33.333
850.53	230.000
850.82	69.231
851.12	-44.444
851.42	153.333
851.71	38.462
852.01	78.571
852.31	50.000
852.61	63.636
852.90	5.000
853.20	131.579
853.50	83.333
853.79	65.217
854.09	58.333
854.39	63.158
854.68	-12.500
854.98	58.065
855.28	61.538
855.57	125.000
855.87	72.222
856.17	55.556
856.46	57.143
856.76	60.000
857.05	44.444
857.35	108.000
857.65	66.667
857.94	7.692
858.24	89.655
858.53	66.667
858.83	85.185
859.13	59.091
859.42	0.000
859.72	175.000
860.01	-66.667
860.31	72.000
860.60	61.905
860.90	-66.667
861.20	13.333
861.49	200.000
861.79	46.667
862.08	60.000
862.38	160.000
862.67	20.000
862.97	200.000
863.26	-41.667
863.56	66.667
863.85	-233.333
864.15	50.000
864.44	40.000
864.74	78.571
865.03	25.000
865.33	-60.000
865.62	100.000
865.92	83.333
866.21	-133.333
866.51	100.000
866.80	0.000
867.10	100.000
867.39	50.000
867.69	0.000
867.98	7.692
868.27	100.000
868.57	20.000
868.86	61.111
869.16	0.000
869.45	60.000
869.75	-700.000
870.04	0.000
870.33	-28.571
870.63	57.143
870.92	-33.333
871.22	-60.000
871.51	-400.000
871.80	177.778
872.10	266.667
>>>>>End Processed Spectral Data<<<<<
