SpectraSuite Data File
++++++++++++++++++++++++++++++++++++
Date: Fri May 15 17:25:38 PDT 2015
User: schluterlab
Dark Spectrum Present: Yes
Reference Spectrum Present: Yes
Number of Sampled Component Spectra: 1
Spectrometers: USB2E3373
Integration Time (usec): 3000 (USB2E3373)
Spectra Averaged: 3 (USB2E3373)
Boxcar Smoothing: 0 (USB2E3373)
Correct for Electrical Dark: No (USB2E3373)
Strobe/Lamp Enabled: No (USB2E3373)
Correct for Detector Non-linearity: No (USB2E3373)
Correct for Stray Light: No (USB2E3373)
Number of Pixels in Processed Spectrum: 2048
>>>>>Begin Processed Spectral Data<<<<<
178.53	0.000
178.91	0.000
179.29	62.500
179.67	-350.000
180.04	-100.000
180.42	250.000
180.80	400.000
181.18	-0.000
181.56	150.000
181.94	250.000
182.31	500.000
182.69	20.000
183.07	0.000
183.45	-200.000
183.83	250.000
184.20	9.091
184.58	-0.000
184.96	-25.000
185.34	-233.333
185.72	150.000
186.09	-7.692
186.47	-300.000
186.85	16.667
187.23	22.222
187.61	-500.000
187.98	366.667
188.36	166.667
188.74	-33.333
189.12	70.588
189.49	105.556
189.87	0.000
190.25	-50.000
190.63	150.000
191.00	-66.667
191.38	68.421
191.76	650.000
192.14	75.000
192.51	550.000
192.89	66.667
193.27	14.286
193.65	166.667
194.02	63.636
194.40	90.000
194.78	-12.500
195.15	75.000
195.53	-137.500
195.91	100.000
196.29	100.000
196.66	38.462
197.04	85.714
197.42	11.111
197.79	-266.667
198.17	-76.923
198.55	1500.000
198.92	-400.000
199.30	1000.000
199.68	-20.000
200.05	-166.667
200.43	0.000
200.81	266.667
201.18	-33.333
201.56	1400.000
201.94	550.000
202.31	-300.000
202.69	-140.000
203.07	200.000
203.44	400.000
203.82	0.000
204.19	107.143
204.57	-133.333
204.95	-50.000
205.32	30.000
205.70	0.000
206.08	150.000
206.45	200.000
206.83	71.429
207.20	-14.286
207.58	-200.000
207.96	-200.000
208.33	-80.000
208.71	-150.000
209.08	-100.000
209.46	200.000
209.84	80.000
210.21	-600.000
210.59	142.857
210.96	166.667
211.34	50.000
211.71	66.667
212.09	-28.571
212.46	-1200.000
212.84	0.000
213.22	160.000
213.59	-550.000
213.97	123.077
214.34	90.909
214.72	66.667
215.09	350.000
215.47	30.769
215.84	-63.636
216.22	66.667
216.59	87.500
216.97	300.000
217.34	-250.000
217.72	-80.000
218.09	225.000
218.47	-12.500
218.84	100.000
219.22	22.222
219.59	-40.000
219.97	200.000
220.34	-25.000
220.72	-28.571
221.09	-50.000
221.47	200.000
221.84	-450.000
222.22	100.000
222.59	45.455
222.97	108.333
223.34	300.000
223.72	-21.429
224.09	9.524
224.46	57.143
224.84	166.667
225.21	60.000
225.59	66.667
225.96	-50.000
226.34	-25.000
226.71	-185.714
227.08	50.000
227.46	87.500
227.83	-50.000
228.21	0.000
228.58	9.091
228.95	75.000
229.33	80.000
229.70	68.750
230.08	-100.000
230.45	-14.286
230.82	157.143
231.20	20.000
231.57	114.286
231.95	200.000
232.32	-80.000
232.69	100.000
233.07	66.667
233.44	-20.000
233.81	-70.000
234.19	55.556
234.56	52.941
234.93	-0.000
235.31	300.000
235.68	-20.000
236.05	-7.692
236.43	20.000
236.80	47.059
237.17	12.500
237.55	0.000
237.92	18.519
238.29	22.222
238.67	53.333
239.04	35.294
239.41	2.439
239.79	0.000
240.16	41.463
240.53	55.263
240.91	34.783
241.28	26.984
241.65	46.429
242.02	38.356
242.40	26.667
242.77	30.508
243.14	34.848
243.51	36.250
243.89	43.678
244.26	36.782
244.63	36.905
245.00	29.897
245.38	36.082
245.75	32.584
246.12	39.655
246.49	40.496
246.87	40.385
247.24	31.092
247.61	24.561
247.98	30.894
248.36	36.250
248.73	37.500
249.10	27.273
249.47	38.608
249.84	30.719
250.22	34.706
250.59	46.405
250.96	35.211
251.33	36.628
251.70	41.176
252.08	28.934
252.45	30.693
252.82	40.704
253.19	35.945
253.56	34.579
253.94	32.432
254.31	36.087
254.68	41.228
255.05	31.890
255.42	35.371
255.79	35.135
256.16	36.576
256.54	36.940
256.91	31.939
257.28	33.457
257.65	34.082
258.02	30.496
258.39	36.364
258.76	37.729
259.14	32.890
259.51	33.657
259.88	36.082
260.25	34.314
260.62	37.500
260.99	32.203
261.36	33.904
261.73	31.329
262.10	34.347
262.47	33.129
262.85	36.050
263.22	36.308
263.59	37.072
263.96	35.714
264.33	34.545
264.70	36.012
265.07	35.417
265.44	35.411
265.81	38.418
266.18	34.426
266.55	34.704
266.92	36.269
267.29	34.465
267.66	36.317
268.03	35.602
268.40	32.115
268.77	34.759
269.14	33.573
269.51	33.933
269.88	34.165
270.25	31.888
270.62	35.122
270.99	33.760
271.36	33.252
271.73	33.568
272.10	35.036
272.47	34.279
272.84	33.663
273.21	35.731
273.58	33.494
273.95	32.952
274.32	33.025
274.69	30.995
275.06	36.161
275.43	32.426
275.80	32.892
276.17	36.092
276.54	31.692
276.91	35.088
277.28	32.751
277.65	33.058
278.02	32.340
278.39	35.230
278.76	33.962
279.13	31.950
279.50	34.454
279.87	34.125
280.23	32.473
280.60	32.359
280.97	34.747
281.34	30.962
281.71	35.729
282.08	32.311
282.45	31.115
282.82	31.467
283.19	34.429
283.56	31.792
283.92	30.740
284.29	29.615
284.66	31.589
285.03	31.827
285.40	30.813
285.77	31.107
286.14	31.227
286.51	33.026
286.87	30.530
287.24	31.123
287.61	31.041
287.98	32.807
288.35	30.503
288.72	30.123
289.08	28.646
289.45	30.228
289.82	29.545
290.19	27.986
290.56	26.758
290.93	27.104
291.29	26.810
291.66	27.717
292.03	29.187
292.40	30.000
292.77	26.794
293.13	25.325
293.50	27.769
293.87	27.176
294.24	24.730
294.60	25.633
294.97	26.786
295.34	27.607
295.71	26.677
296.08	26.756
296.44	22.902
296.81	26.806
297.18	25.507
297.55	23.984
297.91	24.110
298.28	24.802
298.65	25.102
299.02	23.315
299.38	21.751
299.75	24.552
300.12	23.298
300.48	23.979
300.85	22.940
301.22	22.338
301.59	23.816
301.95	25.063
302.32	26.719
302.69	23.632
303.05	22.030
303.42	23.412
303.79	23.014
304.15	24.373
304.52	20.690
304.89	22.924
305.25	23.729
305.62	21.820
305.99	23.860
306.35	22.775
306.72	21.597
307.09	24.743
307.45	21.125
307.82	21.528
308.19	23.926
308.55	21.810
308.92	24.619
309.29	21.341
309.65	21.421
310.02	22.112
310.38	23.052
310.75	24.918
311.12	23.897
311.48	22.269
311.85	23.141
312.22	23.207
312.58	22.399
312.95	23.266
313.31	22.774
313.68	23.455
314.05	23.878
314.41	24.124
314.78	23.918
315.14	23.433
315.51	24.638
315.87	24.283
316.24	25.784
316.61	25.197
316.97	25.694
317.34	25.586
317.70	26.386
318.07	25.577
318.43	26.373
318.80	26.705
319.16	28.027
319.53	28.680
319.89	28.150
320.26	27.530
320.62	28.385
320.99	27.766
321.35	28.983
321.72	30.218
322.08	30.111
322.45	30.761
322.81	31.238
323.18	30.226
323.54	30.598
323.91	31.256
324.27	33.203
324.64	33.052
325.00	32.208
325.37	36.088
325.73	34.089
326.10	35.332
326.46	37.578
326.83	36.570
327.19	37.053
327.56	37.793
327.92	38.644
328.29	37.054
328.65	40.943
329.01	39.430
329.38	40.000
329.74	40.510
330.11	40.593
330.47	41.837
330.84	41.635
331.20	44.106
331.56	44.167
331.93	44.018
332.29	44.363
332.66	44.977
333.02	44.052
333.38	43.263
333.75	45.055
334.11	44.494
334.48	45.784
334.84	45.971
335.20	45.837
335.57	45.512
335.93	46.612
336.29	46.041
336.66	45.504
337.02	46.375
337.38	45.648
337.75	47.000
338.11	48.061
338.47	47.719
338.84	47.782
339.20	47.806
339.56	47.615
339.93	46.911
340.29	47.064
340.65	48.297
341.02	47.252
341.38	46.726
341.74	46.996
342.11	46.880
342.47	47.865
342.83	46.886
343.20	46.429
343.56	48.696
343.92	48.273
344.28	47.737
344.65	47.668
345.01	47.882
345.37	46.678
345.73	46.778
346.10	48.059
346.46	47.855
346.82	46.236
347.19	46.717
347.55	47.619
347.91	47.249
348.27	46.968
348.63	48.637
349.00	48.154
349.36	49.377
349.72	50.580
350.08	47.295
350.45	47.007
350.81	47.093
351.17	46.987
351.53	48.327
351.89	47.647
352.26	47.520
352.62	47.581
352.98	47.631
353.34	47.343
353.70	48.220
354.07	48.226
354.43	47.798
354.79	47.812
355.15	48.492
355.51	47.864
355.87	48.382
356.24	48.124
356.60	48.828
356.96	48.413
357.32	47.524
357.68	49.257
358.04	48.869
358.40	48.955
358.77	49.203
359.13	49.720
359.49	48.921
359.85	49.142
360.21	48.963
360.57	48.738
360.93	49.244
361.29	49.924
361.66	50.392
362.02	49.545
362.38	48.896
362.74	49.886
363.10	51.768
363.46	49.963
363.82	51.315
364.18	49.373
364.54	49.485
364.90	51.183
365.26	51.528
365.62	51.460
365.98	51.246
366.35	52.731
366.71	52.402
367.07	51.597
367.43	51.761
367.79	51.025
368.15	52.261
368.51	52.221
368.87	51.902
369.23	50.614
369.59	52.697
369.95	51.540
370.31	51.156
370.67	52.463
371.03	52.726
371.39	52.443
371.75	52.894
372.11	52.853
372.47	53.180
372.83	52.165
373.19	52.211
373.55	51.986
373.91	52.340
374.27	53.792
374.63	54.343
374.99	53.617
375.35	53.064
375.71	54.965
376.07	53.722
376.42	53.878
376.78	54.765
377.14	56.127
377.50	55.378
377.86	54.351
378.22	55.520
378.58	54.615
378.94	54.442
379.30	54.897
379.66	56.238
380.02	55.365
380.38	55.447
380.74	54.937
381.09	55.890
381.45	55.413
381.81	55.891
382.17	56.853
382.53	56.215
382.89	58.004
383.25	57.561
383.61	57.195
383.97	57.778
384.32	56.223
384.68	58.019
385.04	55.515
385.40	56.254
385.76	59.182
386.12	59.250
386.48	60.153
386.83	58.022
387.19	58.791
387.55	59.034
387.91	58.068
388.27	57.753
388.62	59.408
388.98	57.581
389.34	58.713
389.70	58.981
390.06	57.835
390.42	60.039
390.77	59.124
391.13	58.512
391.49	60.608
391.85	59.129
392.20	59.196
392.56	59.504
392.92	59.483
393.28	59.139
393.64	58.979
393.99	60.251
394.35	59.646
394.71	61.367
395.07	59.899
395.42	59.077
395.78	60.065
396.14	61.917
396.50	61.002
396.85	60.399
397.21	59.398
397.57	61.003
397.92	59.976
398.28	61.207
398.64	59.398
399.00	61.287
399.35	59.876
399.71	59.104
400.07	61.548
400.42	59.792
400.78	61.911
401.14	60.436
401.49	60.929
401.85	60.451
402.21	59.699
402.57	61.750
402.92	60.100
403.28	61.654
403.63	62.295
403.99	60.906
404.35	62.086
404.70	60.952
405.06	60.165
405.42	61.529
405.77	61.476
406.13	61.525
406.49	60.154
406.84	61.491
407.20	61.108
407.55	60.528
407.91	60.896
408.27	61.249
408.62	60.492
408.98	60.074
409.34	61.400
409.69	60.465
410.05	60.591
410.40	61.173
410.76	60.917
411.11	62.250
411.47	61.999
411.83	61.080
412.18	62.741
412.54	60.986
412.89	59.113
413.25	62.455
413.60	62.174
413.96	60.491
414.31	60.915
414.67	61.257
415.03	60.519
415.38	60.379
415.74	63.257
416.09	62.247
416.45	60.702
416.80	59.881
417.16	62.086
417.51	62.092
417.87	60.495
418.22	62.953
418.58	62.609
418.93	64.389
419.29	62.100
419.64	63.124
420.00	63.161
420.35	62.328
420.71	63.062
421.06	62.124
421.42	63.462
421.77	62.139
422.12	61.691
422.48	62.859
422.83	62.819
423.19	63.036
423.54	62.199
423.90	61.661
424.25	63.662
424.61	64.443
424.96	63.647
425.31	64.414
425.67	64.261
426.02	64.605
426.38	64.245
426.73	65.738
427.09	65.000
427.44	65.824
427.79	64.526
428.15	65.959
428.50	66.263
428.85	64.496
429.21	66.723
429.56	66.092
429.92	65.742
430.27	64.862
430.62	65.238
430.98	65.287
431.33	65.773
431.68	63.632
432.04	66.629
432.39	65.716
432.74	66.025
433.10	66.437
433.45	64.934
433.80	66.454
434.16	65.374
434.51	65.161
434.86	68.467
435.22	66.461
435.57	66.438
435.92	67.126
436.28	66.786
436.63	67.427
436.98	65.585
437.34	66.909
437.69	66.965
438.04	66.040
438.39	67.624
438.75	68.427
439.10	67.572
439.45	68.777
439.81	67.951
440.16	70.012
440.51	68.239
440.86	70.393
441.22	67.421
441.57	68.543
441.92	69.727
442.27	68.625
442.63	68.148
442.98	67.949
443.33	68.336
443.68	69.072
444.03	70.343
444.39	69.405
444.74	71.349
445.09	70.212
445.44	69.117
445.79	71.635
446.15	68.778
446.50	68.719
446.85	70.032
447.20	69.656
447.55	69.643
447.91	70.671
448.26	69.493
448.61	70.351
448.96	71.199
449.31	71.676
449.66	69.686
450.02	71.021
450.37	72.199
450.72	70.160
451.07	70.316
451.42	70.412
451.77	71.670
452.12	69.318
452.47	70.380
452.83	70.318
453.18	70.082
453.53	71.113
453.88	71.342
454.23	70.867
454.58	71.788
454.93	70.876
455.28	71.048
455.63	71.606
455.98	70.415
456.34	70.690
456.69	71.792
457.04	71.330
457.39	71.203
457.74	72.128
458.09	68.923
458.44	70.802
458.79	70.532
459.14	70.195
459.49	71.284
459.84	69.374
460.19	72.694
460.54	71.944
460.89	72.159
461.24	70.807
461.59	70.903
461.94	71.258
462.29	71.472
462.64	72.558
462.99	71.699
463.34	72.045
463.69	71.429
464.04	72.760
464.39	71.377
464.74	72.086
465.09	70.805
465.44	72.533
465.79	70.351
466.14	70.525
466.49	70.098
466.84	70.791
467.19	72.904
467.54	71.073
467.89	73.089
468.24	72.141
468.59	73.270
468.94	70.476
469.29	73.836
469.64	72.522
469.99	73.861
470.34	71.877
470.68	73.751
471.03	74.947
471.38	73.609
471.73	72.969
472.08	73.881
472.43	73.893
472.78	72.653
473.13	73.401
473.48	72.313
473.83	71.918
474.17	73.057
474.52	73.644
474.87	72.970
475.22	71.690
475.57	73.010
475.92	73.176
476.27	71.828
476.61	72.743
476.96	71.389
477.31	72.850
477.66	73.202
478.01	72.993
478.36	71.786
478.70	74.334
479.05	72.692
479.40	73.503
479.75	71.168
480.10	72.606
480.45	72.150
480.79	73.565
481.14	73.309
481.49	72.217
481.84	73.359
482.19	72.264
482.53	73.429
482.88	71.885
483.23	71.833
483.58	72.075
483.92	72.072
484.27	70.875
484.62	71.806
484.97	71.352
485.31	70.520
485.66	69.076
486.01	68.709
486.36	68.519
486.70	68.252
487.05	69.332
487.40	70.010
487.75	69.803
488.09	69.530
488.44	70.117
488.79	71.349
489.13	72.957
489.48	71.911
489.83	71.928
490.17	72.449
490.52	72.887
490.87	71.680
491.22	73.448
491.56	72.343
491.91	71.224
492.26	73.456
492.60	72.745
492.95	74.422
493.30	72.252
493.64	73.674
493.99	72.802
494.34	74.029
494.68	73.286
495.03	72.652
495.37	73.896
495.72	72.943
496.07	74.049
496.41	73.726
496.76	73.008
497.11	72.566
497.45	73.126
497.80	75.177
498.14	72.777
498.49	73.997
498.84	72.106
499.18	73.494
499.53	73.859
499.87	73.492
500.22	73.096
500.56	74.534
500.91	74.096
501.26	73.604
501.60	74.078
501.95	72.635
502.29	73.656
502.64	74.903
502.98	75.333
503.33	74.352
503.67	72.964
504.02	74.096
504.36	74.320
504.71	73.939
505.06	73.830
505.40	73.553
505.75	75.567
506.09	73.999
506.44	76.129
506.78	75.153
507.13	73.992
507.47	75.091
507.82	73.130
508.16	74.221
508.51	75.813
508.85	75.196
509.19	75.412
509.54	74.960
509.88	73.840
510.23	75.040
510.57	74.826
510.92	73.561
511.26	75.941
511.61	76.128
511.95	75.178
512.30	75.554
512.64	74.457
512.98	76.362
513.33	75.993
513.67	75.952
514.02	76.487
514.36	78.286
514.70	77.681
515.05	78.731
515.39	77.509
515.74	79.042
516.08	79.079
516.42	77.739
516.77	78.642
517.11	80.000
517.46	79.533
517.80	77.950
518.14	78.077
518.49	77.404
518.83	80.437
519.17	77.805
519.52	77.324
519.86	78.752
520.20	78.919
520.55	78.111
520.89	79.109
521.23	79.987
521.58	79.180
521.92	80.385
522.26	79.571
522.61	80.065
522.95	79.669
523.29	79.860
523.64	80.559
523.98	81.854
524.32	79.575
524.66	80.282
525.01	80.649
525.35	80.233
525.69	81.751
526.04	80.556
526.38	81.777
526.72	78.025
527.06	79.572
527.41	81.332
527.75	81.635
528.09	78.738
528.43	82.309
528.78	82.046
529.12	79.935
529.46	79.142
529.80	78.657
530.15	79.802
530.49	80.269
530.83	81.464
531.17	79.516
531.51	81.737
531.86	79.878
532.20	80.097
532.54	80.395
532.88	81.040
533.22	79.637
533.57	79.882
533.91	79.896
534.25	80.469
534.59	79.153
534.93	78.162
535.27	77.919
535.62	79.715
535.96	79.387
536.30	79.222
536.64	80.496
536.98	80.139
537.32	80.583
537.66	81.697
538.01	81.189
538.35	78.849
538.69	77.563
539.03	78.811
539.37	80.148
539.71	78.800
540.05	80.109
540.39	79.155
540.73	79.358
541.07	81.354
541.42	78.629
541.76	78.802
542.10	79.560
542.44	78.735
542.78	78.665
543.12	79.396
543.46	79.277
543.80	78.973
544.14	77.637
544.48	77.682
544.82	81.340
545.16	81.011
545.50	78.838
545.84	81.586
546.18	81.277
546.52	80.461
546.86	81.955
547.20	80.186
547.54	79.576
547.88	80.095
548.22	77.975
548.56	79.090
548.90	80.458
549.24	78.788
549.58	78.984
549.92	79.414
550.26	80.806
550.60	79.331
550.94	82.524
551.28	82.303
551.62	81.154
551.96	81.955
552.30	80.556
552.64	81.664
552.98	79.677
553.32	80.956
553.66	81.567
554.00	82.117
554.34	80.281
554.68	78.982
555.02	82.515
555.36	81.301
555.69	82.564
556.03	79.729
556.37	79.715
556.71	80.000
557.05	81.133
557.39	80.595
557.73	81.409
558.07	83.710
558.41	84.074
558.75	81.450
559.08	82.033
559.42	84.127
559.76	82.786
560.10	81.957
560.44	81.385
560.78	80.839
561.12	81.030
561.45	83.064
561.79	79.972
562.13	82.044
562.47	80.432
562.81	80.836
563.15	79.760
563.48	80.622
563.82	81.537
564.16	81.407
564.50	80.541
564.84	80.054
565.17	80.080
565.51	82.445
565.85	82.990
566.19	81.631
566.52	80.563
566.86	82.391
567.20	81.133
567.54	81.326
567.88	79.438
568.21	79.468
568.55	80.163
568.89	79.517
569.23	77.756
569.56	77.014
569.90	77.913
570.24	74.619
570.57	75.309
570.91	74.556
571.25	74.383
571.59	73.248
571.92	72.296
572.26	72.947
572.60	72.186
572.93	72.451
573.27	72.978
573.61	73.300
573.95	72.283
574.28	71.822
574.62	71.269
574.96	71.254
575.29	72.337
575.63	70.536
575.97	71.971
576.30	71.774
576.64	71.974
576.98	72.535
577.31	72.377
577.65	71.950
577.98	71.534
578.32	70.949
578.66	70.342
578.99	70.824
579.33	69.898
579.67	70.704
580.00	71.063
580.34	70.721
580.67	71.266
581.01	71.734
581.35	71.167
581.68	71.541
582.02	70.747
582.35	70.994
582.69	71.095
583.02	71.245
583.36	71.564
583.70	73.494
584.03	72.922
584.37	74.280
584.70	72.967
585.04	70.829
585.37	71.106
585.71	72.155
586.04	72.239
586.38	72.846
586.72	73.802
587.05	74.321
587.39	73.889
587.72	74.002
588.06	72.793
588.39	73.882
588.73	74.512
589.06	75.538
589.40	74.386
589.73	74.516
590.07	76.095
590.40	75.193
590.73	76.524
591.07	77.014
591.40	76.313
591.74	76.290
592.07	77.922
592.41	76.546
592.74	75.070
593.08	73.489
593.41	73.937
593.75	73.667
594.08	73.601
594.41	74.127
594.75	75.573
595.08	75.936
595.42	75.488
595.75	77.319
596.09	76.114
596.42	75.734
596.75	75.755
597.09	76.856
597.42	76.874
597.75	77.004
598.09	75.509
598.42	75.587
598.76	75.504
599.09	75.962
599.42	74.384
599.76	74.981
600.09	76.056
600.42	75.436
600.76	75.223
601.09	75.573
601.42	74.618
601.76	75.943
602.09	74.917
602.42	77.338
602.76	77.250
603.09	76.412
603.42	78.428
603.76	76.331
604.09	76.914
604.42	77.411
604.76	78.861
605.09	76.554
605.42	76.795
605.75	76.532
606.09	75.924
606.42	74.604
606.75	75.455
607.09	75.385
607.42	75.277
607.75	75.311
608.08	74.978
608.42	74.692
608.75	78.072
609.08	79.123
609.41	78.426
609.75	77.369
610.08	78.283
610.41	77.633
610.74	77.523
611.07	80.000
611.41	78.256
611.74	79.531
612.07	79.069
612.40	80.033
612.73	80.960
613.07	79.246
613.40	78.063
613.73	78.847
614.06	79.688
614.39	78.906
614.72	78.039
615.06	79.106
615.39	77.948
615.72	77.126
616.05	79.218
616.38	77.151
616.71	79.511
617.05	79.741
617.38	79.321
617.71	81.950
618.04	81.968
618.37	82.156
618.70	81.848
619.03	81.597
619.36	82.706
619.69	84.306
620.03	83.346
620.36	84.764
620.69	81.085
621.02	82.645
621.35	87.220
621.68	86.565
622.01	86.833
622.34	83.719
622.67	84.464
623.00	83.078
623.33	84.146
623.66	82.947
623.99	82.224
624.32	84.791
624.65	83.684
624.99	86.080
625.32	84.155
625.65	84.760
625.98	85.818
626.31	85.037
626.64	88.388
626.97	86.126
627.30	88.091
627.63	87.348
627.96	87.601
628.29	86.957
628.62	91.445
628.95	88.076
629.28	90.524
629.61	89.432
629.94	88.954
630.26	88.340
630.59	92.508
630.92	89.026
631.25	88.000
631.58	91.740
631.91	89.912
632.24	92.890
632.57	93.523
632.90	95.492
633.23	90.118
633.56	98.741
633.89	93.342
634.22	94.444
634.55	95.680
634.88	94.891
635.20	94.487
635.53	95.467
635.86	93.888
636.19	95.602
636.52	93.112
636.85	93.176
637.18	93.711
637.51	92.453
637.83	94.875
638.16	96.317
638.49	94.414
638.82	95.263
639.15	93.894
639.48	98.349
639.81	94.700
640.13	97.980
640.46	97.959
640.79	95.287
641.12	94.682
641.45	98.498
641.77	96.444
642.10	100.790
642.43	100.161
642.76	101.320
643.09	98.546
643.41	96.764
643.74	100.824
644.07	101.149
644.40	101.351
644.73	102.102
645.05	98.322
645.38	101.411
645.71	101.596
646.04	103.591
646.36	100.355
646.69	103.058
647.02	103.970
647.35	104.478
647.67	99.817
648.00	103.358
648.33	96.416
648.66	98.475
648.98	98.827
649.31	101.653
649.64	94.505
649.96	98.055
650.29	95.400
650.62	98.462
650.94	102.037
651.27	102.235
651.60	100.360
651.92	96.329
652.25	99.290
652.58	96.333
652.90	98.113
653.23	97.143
653.56	100.338
653.88	98.454
654.21	95.271
654.54	94.397
654.86	95.756
655.19	95.029
655.52	85.759
655.84	73.872
656.17	80.133
656.49	100.000
656.82	100.000
657.15	97.461
657.47	64.126
657.80	48.492
658.13	48.057
658.45	74.836
658.78	75.685
659.10	74.832
659.43	76.311
659.75	80.710
660.08	81.241
660.41	88.151
660.73	89.088
661.06	97.400
661.38	100.783
661.71	98.973
662.03	106.438
662.36	101.099
662.68	102.655
663.01	105.895
663.33	105.568
663.66	103.488
663.98	106.279
664.31	101.493
664.63	102.535
664.96	98.913
665.28	101.104
665.61	103.896
665.93	102.174
666.26	100.434
666.58	106.264
666.91	105.176
667.23	107.547
667.56	108.294
667.88	105.995
668.21	104.057
668.53	108.274
668.86	106.368
669.18	104.481
669.50	105.085
669.83	103.953
670.15	105.128
670.48	104.306
670.80	102.765
671.13	99.105
671.45	100.685
671.77	101.502
672.10	97.624
672.42	95.506
672.75	94.139
673.07	95.707
673.39	93.028
673.72	94.280
674.04	101.250
674.37	100.636
674.69	99.786
675.01	100.000
675.34	103.829
675.66	103.472
675.98	103.769
676.31	102.752
676.63	106.413
676.95	100.682
677.28	108.000
677.60	109.157
677.92	101.147
678.25	99.344
678.57	100.433
678.89	99.580
679.22	103.579
679.54	97.390
679.86	98.608
680.18	99.417
680.51	97.727
680.83	98.211
681.15	98.800
681.48	99.795
681.80	101.033
682.12	99.798
682.44	97.280
682.77	101.325
683.09	102.517
683.41	97.045
683.73	98.848
684.06	102.876
684.38	97.419
684.70	101.961
685.02	98.548
685.34	96.640
685.67	96.811
685.99	95.841
686.31	93.982
686.63	93.878
686.96	96.578
687.28	96.566
687.60	95.817
687.92	98.384
688.24	96.774
688.56	99.345
688.89	100.893
689.21	98.222
689.53	100.464
689.85	99.767
690.17	101.786
690.49	100.236
690.82	100.485
691.14	97.619
691.46	101.168
691.78	102.027
692.10	98.495
692.42	97.186
692.74	92.521
693.06	103.153
693.39	94.796
693.71	94.796
694.03	101.155
694.35	102.103
694.67	100.253
694.99	98.172
695.31	98.695
695.63	101.750
695.95	99.747
696.27	102.332
696.59	103.333
696.91	105.882
697.23	98.715
697.56	101.485
697.88	93.548
698.20	96.128
698.52	99.294
698.84	96.890
699.16	96.250
699.48	100.501
699.80	99.007
700.12	100.270
700.44	101.120
700.76	105.233
701.08	96.667
701.40	100.602
701.72	107.407
702.04	108.251
702.36	112.709
702.68	103.303
703.00	106.667
703.32	103.519
703.64	97.175
703.96	100.870
704.28	107.055
704.60	110.476
704.91	104.416
705.23	104.983
705.55	112.721
705.87	112.274
706.19	111.852
706.51	102.062
706.83	105.788
707.15	102.804
707.47	100.280
707.79	96.354
708.11	95.750
708.43	97.750
708.74	91.731
709.06	100.845
709.38	102.752
709.70	102.367
710.02	101.274
710.34	102.167
710.66	100.641
710.98	105.298
711.29	106.885
711.61	104.746
711.93	102.606
712.25	111.340
712.57	107.692
712.89	108.582
713.20	103.114
713.52	97.561
713.84	103.413
714.16	112.027
714.48	103.871
714.80	103.526
715.11	101.824
715.43	100.000
715.75	100.333
716.07	103.654
716.39	99.329
716.70	102.214
717.02	103.817
717.34	108.907
717.66	113.717
717.97	106.957
718.29	115.063
718.61	103.937
718.93	99.612
719.24	106.844
719.56	109.639
719.88	97.251
720.20	105.682
720.51	105.364
720.83	102.703
721.15	109.244
721.46	103.629
721.78	103.953
722.10	97.398
722.42	100.830
722.73	101.224
723.05	105.306
723.37	104.661
723.68	113.964
724.00	105.128
724.32	103.111
724.63	111.364
724.95	107.860
725.27	111.521
725.58	107.627
725.90	97.222
726.22	102.317
726.53	94.915
726.85	98.127
727.16	102.264
727.48	104.858
727.80	105.668
728.11	105.932
728.43	100.000
728.74	96.371
729.06	102.000
729.38	106.391
729.69	105.976
730.01	98.077
730.32	102.239
730.64	95.406
730.96	107.925
731.27	93.333
731.59	102.373
731.90	93.631
732.22	97.161
732.53	101.329
732.85	104.610
733.16	97.643
733.48	100.000
733.80	98.188
734.11	94.237
734.43	98.282
734.74	98.485
735.06	97.068
735.37	92.447
735.69	98.316
736.00	97.909
736.32	98.658
736.63	97.183
736.95	96.246
737.26	98.577
737.58	89.933
737.89	101.465
738.21	100.752
738.52	101.235
738.83	109.170
739.15	97.380
739.46	97.244
739.78	96.703
740.09	90.850
740.41	95.652
740.72	99.213
741.04	103.644
741.35	100.000
741.66	104.739
741.98	112.245
742.29	102.970
742.61	106.283
742.92	96.682
743.23	95.833
743.55	101.357
743.86	100.000
744.18	107.656
744.49	103.723
744.80	117.935
745.12	111.230
745.43	105.366
745.74	109.896
746.06	101.951
746.37	106.283
746.68	105.213
747.00	109.574
747.31	108.458
747.62	109.223
747.94	102.871
748.25	98.020
748.56	114.754
748.88	106.283
749.19	110.106
749.50	103.448
749.82	101.887
750.13	105.046
750.44	99.248
750.75	101.119
751.07	97.445
751.38	103.065
751.69	93.725
752.01	97.674
752.32	102.390
752.63	101.976
752.94	106.034
753.26	107.113
753.57	104.525
753.88	103.097
754.19	99.167
754.51	107.025
754.82	97.976
755.13	103.750
755.44	106.855
755.75	99.609
756.07	105.447
756.38	93.962
756.69	99.234
757.00	86.667
757.31	92.157
757.63	93.902
757.94	89.444
758.25	90.959
758.56	85.638
758.87	86.969
759.18	86.293
759.50	90.909
759.81	94.983
760.12	98.710
760.43	88.485
760.74	96.296
761.05	95.077
761.36	86.648
761.67	93.333
761.99	92.177
762.30	93.091
762.61	96.047
762.92	99.548
763.23	96.847
763.54	100.000
763.85	95.339
764.16	98.340
764.47	91.935
764.78	90.476
765.10	92.256
765.41	91.798
765.72	88.571
766.03	95.489
766.34	95.985
766.65	88.048
766.96	102.020
767.27	101.064
767.58	95.977
767.89	111.348
768.20	102.273
768.51	100.000
768.82	92.118
769.13	100.000
769.44	91.416
769.75	96.347
770.06	90.086
770.37	92.788
770.68	96.447
770.99	92.308
771.30	106.863
771.61	95.928
771.92	93.534
772.23	101.970
772.54	94.086
772.85	111.111
773.16	100.562
773.47	116.993
773.78	108.497
774.09	95.808
774.39	99.333
774.70	94.268
775.01	100.000
775.32	100.000
775.63	108.264
775.94	98.473
776.25	106.299
776.56	105.000
776.87	110.577
777.18	107.692
777.48	100.862
777.79	100.000
778.10	97.143
778.41	98.198
778.72	101.587
779.03	100.000
779.34	102.837
779.65	106.164
779.95	100.000
780.26	98.621
780.57	96.748
780.88	92.913
781.19	100.862
781.50	113.178
781.80	90.533
782.11	89.937
782.42	106.154
782.73	107.194
783.04	102.963
783.34	90.972
783.65	108.547
783.96	100.000
784.27	91.724
784.57	91.870
784.88	82.031
785.19	108.000
785.50	104.000
785.81	100.862
786.11	98.276
786.42	101.942
786.73	96.364
787.04	106.122
787.34	91.964
787.65	93.333
787.96	91.150
788.26	94.545
788.57	84.615
788.88	96.875
789.19	87.302
789.49	100.000
789.80	102.041
790.11	94.949
790.41	86.364
790.72	115.217
791.03	102.273
791.33	113.750
791.64	100.000
791.95	93.023
792.25	91.489
792.56	103.371
792.87	105.479
793.17	108.696
793.48	86.667
793.79	101.250
794.09	117.500
794.40	86.792
794.70	102.913
795.01	82.114
795.32	77.778
795.62	89.524
795.93	96.078
796.23	98.113
796.54	88.542
796.85	110.294
797.15	102.817
797.46	102.778
797.76	122.727
798.07	87.209
798.37	85.526
798.68	92.424
798.99	88.889
799.29	108.571
799.60	104.348
799.90	89.333
800.21	108.197
800.51	96.923
800.82	122.034
801.12	92.754
801.43	106.557
801.73	120.635
802.04	124.000
802.34	82.090
802.65	96.154
802.95	78.571
803.26	101.923
803.56	119.608
803.87	86.957
804.17	89.333
804.48	79.365
804.78	87.037
805.09	91.304
805.39	124.444
805.70	103.704
806.00	68.421
806.30	83.099
806.61	110.000
806.91	73.611
807.22	93.421
807.52	74.667
807.83	110.909
808.13	95.833
808.43	104.412
808.74	94.030
809.04	91.525
809.35	76.923
809.65	89.062
809.95	105.405
810.26	113.636
810.56	83.562
810.86	121.429
811.17	96.000
811.47	106.122
811.77	102.632
812.08	88.636
812.38	84.906
812.69	112.500
812.99	133.333
813.29	118.421
813.59	108.571
813.90	106.818
814.20	97.436
814.50	119.231
814.81	94.340
815.11	89.362
815.41	103.390
815.72	107.143
816.02	94.118
816.32	97.917
816.62	102.439
816.93	102.703
817.23	80.000
817.53	93.750
817.84	84.783
818.14	88.462
818.44	107.895
818.74	97.826
819.04	42.500
819.35	116.216
819.65	94.118
819.95	105.556
820.25	95.238
820.56	120.000
820.86	44.828
821.16	85.000
821.46	82.979
821.76	87.500
822.07	74.419
822.37	75.676
822.67	112.500
822.97	78.571
823.27	121.429
823.57	108.000
823.88	70.370
824.18	146.429
824.48	120.588
824.78	119.355
825.08	152.174
825.38	112.121
825.69	95.833
825.99	86.842
826.29	105.556
826.59	180.000
826.89	133.333
827.19	80.435
827.49	60.000
827.79	154.286
828.09	139.286
828.39	90.909
828.70	129.730
829.00	125.000
829.30	90.476
829.60	73.333
829.90	112.500
830.20	68.421
830.50	103.704
830.80	104.348
831.10	131.818
831.40	93.939
831.70	116.129
832.00	142.857
832.30	71.429
832.60	183.333
832.90	86.207
833.20	75.000
833.50	84.848
833.80	100.000
834.10	103.846
834.40	84.375
834.70	255.556
835.00	89.474
835.30	134.615
835.60	206.667
835.90	87.097
836.20	118.182
836.50	121.429
836.80	50.000
837.10	67.857
837.40	266.667
837.70	77.273
838.00	136.364
838.30	82.609
838.60	53.846
838.90	118.182
839.19	64.286
839.49	106.667
839.79	146.154
840.09	100.000
840.39	103.571
840.69	92.857
840.99	73.077
841.29	84.211
841.59	230.000
841.88	163.636
842.18	40.000
842.48	81.250
842.78	160.000
843.08	7.407
843.38	140.000
843.68	60.870
843.97	160.000
844.27	80.000
844.57	100.000
844.87	44.444
845.17	85.714
845.47	120.000
845.76	80.952
846.06	88.235
846.36	140.000
846.66	78.571
846.96	93.333
847.25	0.000
847.55	64.286
847.85	162.500
848.15	45.455
848.44	-133.333
848.74	40.000
849.04	29.630
849.34	81.818
849.63	116.667
849.93	-20.000
850.23	44.444
850.53	80.000
850.82	84.615
851.12	111.111
851.42	120.000
851.71	42.308
852.01	85.714
852.31	175.000
852.61	45.455
852.90	85.000
853.20	100.000
853.50	58.333
853.79	39.130
854.09	108.333
854.39	126.316
854.68	95.833
854.98	67.742
855.28	130.769
855.57	40.000
855.87	144.444
856.17	103.704
856.46	164.286
856.76	13.333
857.05	133.333
857.35	64.000
857.65	116.667
857.94	84.615
858.24	75.862
858.53	105.556
858.83	96.296
859.13	36.364
859.42	69.565
859.72	275.000
860.01	333.333
860.31	92.000
860.60	80.952
860.90	-66.667
861.20	60.000
861.49	50.000
861.79	46.667
862.08	110.000
862.38	153.333
862.67	60.000
862.97	183.333
863.26	-8.333
863.56	44.444
863.85	-266.667
864.15	111.111
864.44	60.000
864.74	121.429
865.03	-175.000
865.33	60.000
865.62	216.667
865.92	83.333
866.21	133.333
866.51	68.750
866.80	27.273
867.10	250.000
867.39	191.667
867.69	0.000
867.98	53.846
868.27	-66.667
868.57	93.333
868.86	66.667
869.16	69.231
869.45	100.000
869.75	-700.000
870.04	0.000
870.33	-28.571
870.63	71.429
870.92	33.333
871.22	20.000
871.51	400.000
871.80	155.556
872.10	-133.333
>>>>>End Processed Spectral Data<<<<<
