SpectraSuite Data File
++++++++++++++++++++++++++++++++++++
Date: Fri May 15 20:10:31 PDT 2015
User: schluterlab
Dark Spectrum Present: Yes
Reference Spectrum Present: Yes
Number of Sampled Component Spectra: 1
Spectrometers: USB2E3373
Integration Time (usec): 3000 (USB2E3373)
Spectra Averaged: 3 (USB2E3373)
Boxcar Smoothing: 0 (USB2E3373)
Correct for Electrical Dark: No (USB2E3373)
Strobe/Lamp Enabled: No (USB2E3373)
Correct for Detector Non-linearity: No (USB2E3373)
Correct for Stray Light: No (USB2E3373)
Number of Pixels in Processed Spectrum: 2048
>>>>>Begin Processed Spectral Data<<<<<
178.53	0.000
178.91	0.000
179.29	-87.500
179.67	-400.000
180.04	-28.571
180.42	-100.000
180.80	-100.000
181.18	166.667
181.56	-100.000
181.94	300.000
182.31	-200.000
182.69	40.000
183.07	100.000
183.45	0.000
183.83	16.667
184.20	72.727
184.58	122.222
184.96	-100.000
185.34	133.333
185.72	-150.000
186.09	61.538
186.47	-900.000
186.85	233.333
187.23	111.111
187.61	-600.000
187.98	133.333
188.36	11.111
188.74	-33.333
189.12	64.706
189.49	55.556
189.87	0.000
190.25	78.571
190.63	300.000
191.00	166.667
191.38	52.632
191.76	350.000
192.14	-0.000
192.51	-250.000
192.89	-44.444
193.27	42.857
193.65	50.000
194.02	118.182
194.40	70.000
194.78	0.000
195.15	75.000
195.53	50.000
195.91	75.000
196.29	25.000
196.66	69.231
197.04	57.143
197.42	66.667
197.79	-300.000
198.17	-53.846
198.55	-100.000
198.92	-266.667
199.30	400.000
199.68	60.000
200.05	266.667
200.43	0.000
200.81	566.667
201.18	-33.333
201.56	900.000
201.94	-200.000
202.31	-400.000
202.69	20.000
203.07	75.000
203.44	100.000
203.82	0.000
204.19	14.286
204.57	-200.000
204.95	100.000
205.32	30.000
205.70	28.571
206.08	275.000
206.45	222.222
206.83	85.714
207.20	-57.143
207.58	-0.000
207.96	66.667
208.33	-90.000
208.71	175.000
209.08	-266.667
209.46	-600.000
209.84	-100.000
210.21	-300.000
210.59	171.429
210.96	16.667
211.34	150.000
211.71	40.000
212.09	85.714
212.46	-1100.000
212.84	0.000
213.22	110.000
213.59	-50.000
213.97	92.308
214.34	72.727
214.72	150.000
215.09	275.000
215.47	53.846
215.84	9.091
216.22	-200.000
216.59	12.500
216.97	150.000
217.34	150.000
217.72	60.000
218.09	87.500
218.47	50.000
218.84	-700.000
219.22	-22.222
219.59	-40.000
219.97	300.000
220.34	150.000
220.72	171.429
221.09	100.000
221.47	400.000
221.84	-250.000
222.22	-350.000
222.59	109.091
222.97	75.000
223.34	166.667
223.72	0.000
224.09	47.619
224.46	21.429
224.84	166.667
225.21	80.000
225.59	40.000
225.96	-50.000
226.34	25.000
226.71	71.429
227.08	0.000
227.46	0.000
227.83	150.000
228.21	11.111
228.58	63.636
228.95	125.000
229.33	10.000
229.70	6.250
230.08	62.500
230.45	171.429
230.82	171.429
231.20	60.000
231.57	100.000
231.95	142.857
232.32	-10.000
232.69	42.857
233.07	366.667
233.44	20.000
233.81	0.000
234.19	66.667
234.56	76.471
234.93	-650.000
235.31	125.000
235.68	-40.000
236.05	61.538
236.43	45.000
236.80	141.176
237.17	100.000
237.55	75.000
237.92	59.259
238.29	61.111
238.67	76.667
239.04	91.176
239.41	68.293
239.79	123.333
240.16	65.854
240.53	102.632
240.91	56.522
241.28	79.365
241.65	82.143
242.02	71.233
242.40	90.000
242.77	89.831
243.14	89.394
243.51	86.250
243.89	87.356
244.26	85.057
244.63	75.000
245.00	79.381
245.38	91.753
245.75	73.034
246.12	78.448
246.49	89.256
246.87	92.308
247.24	82.353
247.61	88.596
247.98	90.244
248.36	85.000
248.73	84.211
249.10	79.870
249.47	87.975
249.84	78.431
250.22	84.118
250.59	83.660
250.96	77.934
251.33	81.977
251.70	92.353
252.08	82.234
252.45	84.158
252.82	82.412
253.19	78.802
253.56	80.374
253.94	81.081
254.31	84.783
254.68	87.719
255.05	83.465
255.42	84.279
255.79	86.486
256.16	82.101
256.54	80.597
256.91	83.650
257.28	81.784
257.65	78.277
258.02	81.206
258.39	81.481
258.76	84.982
259.14	83.721
259.51	77.994
259.88	85.567
260.25	81.046
260.62	86.458
260.99	80.339
261.36	82.877
261.73	81.329
262.10	81.155
262.47	80.368
262.85	82.759
263.22	84.308
263.59	85.047
263.96	84.783
264.33	80.303
264.70	84.226
265.07	82.143
265.44	83.569
265.81	80.226
266.18	85.519
266.55	76.607
266.92	80.570
267.29	79.112
267.66	80.818
268.03	81.152
268.40	79.112
268.77	83.957
269.14	76.499
269.51	80.977
269.88	80.299
270.25	77.296
270.62	79.756
270.99	81.330
271.36	77.995
271.73	80.751
272.10	81.752
272.47	77.778
272.84	79.455
273.21	76.334
273.58	81.446
273.95	75.973
274.32	72.517
274.69	76.697
275.06	77.455
275.43	77.551
275.80	77.704
276.17	80.000
276.54	72.805
276.91	78.289
277.28	75.983
277.65	73.967
278.02	71.702
278.39	74.836
278.76	77.778
279.13	70.332
279.50	76.050
279.87	76.890
280.23	74.409
280.60	74.074
280.97	75.960
281.34	72.500
281.71	76.181
282.08	74.847
282.45	71.624
282.82	74.324
283.19	72.147
283.56	75.723
283.92	72.106
284.29	70.962
284.66	72.674
285.03	70.923
285.40	68.431
285.77	68.893
286.14	68.773
286.51	74.723
286.87	68.921
287.24	70.902
287.61	68.607
287.98	70.351
288.35	69.497
288.72	68.126
289.08	67.535
289.45	66.960
289.82	66.608
290.19	66.382
290.56	67.581
290.93	65.488
291.29	60.247
291.66	65.197
292.03	64.753
292.40	64.355
292.77	62.201
293.13	60.714
293.50	60.091
293.87	60.916
294.24	59.351
294.60	59.165
294.97	61.458
295.34	59.509
295.71	58.569
296.08	59.492
296.44	56.472
296.81	58.194
297.18	58.986
297.55	56.911
297.91	57.123
298.28	55.673
298.65	56.309
299.02	56.199
299.38	54.036
299.75	56.138
300.12	54.712
300.48	54.677
300.85	53.105
301.22	54.545
301.59	54.868
301.95	54.177
302.32	53.437
302.69	54.353
303.05	54.950
303.42	53.300
303.79	53.505
304.15	54.600
304.52	51.724
304.89	51.228
305.25	52.906
305.62	51.575
305.99	52.047
306.35	54.220
306.72	51.519
307.09	52.680
307.45	52.583
307.82	52.083
308.19	53.078
308.55	52.890
308.92	53.377
309.29	51.620
309.65	51.668
310.02	54.015
310.38	52.799
310.75	55.082
311.12	54.575
311.48	51.962
311.85	51.518
312.22	52.532
312.58	51.168
312.95	52.295
313.31	53.313
313.68	54.660
314.05	54.388
314.41	56.082
314.78	52.268
315.14	56.732
315.51	54.762
315.87	54.201
316.24	55.612
316.61	54.823
316.97	55.258
317.34	54.102
317.70	54.398
318.07	54.808
318.43	57.451
318.80	54.261
319.16	58.105
319.53	55.935
319.89	56.201
320.26	57.591
320.62	58.576
320.99	56.472
321.35	58.479
321.72	58.982
322.08	57.805
322.45	58.680
322.81	59.627
323.18	59.176
323.54	60.714
323.91	60.175
324.27	63.574
324.64	61.985
325.00	62.682
325.37	63.177
325.73	63.554
326.10	63.488
326.46	64.126
326.83	65.529
327.19	66.696
327.56	68.028
327.92	67.606
328.29	68.661
328.65	70.000
329.01	70.037
329.38	71.152
329.74	72.993
330.11	73.031
330.47	72.171
330.84	72.404
331.20	77.091
331.56	73.519
331.93	75.799
332.29	75.252
332.66	76.290
333.02	74.907
333.38	76.352
333.75	77.564
334.11	74.575
334.48	78.513
334.84	77.564
335.20	77.676
335.57	74.343
335.93	77.687
336.29	78.913
336.66	77.293
337.02	78.625
337.38	77.222
337.75	78.909
338.11	79.351
338.47	79.380
338.84	80.684
339.20	78.428
339.56	79.817
339.93	78.335
340.29	79.633
340.65	79.480
341.02	79.876
341.38	79.558
341.74	78.357
342.11	77.210
342.47	81.139
342.83	81.055
343.20	79.181
343.56	81.130
343.92	79.185
344.28	81.213
344.65	78.497
345.01	80.294
345.37	77.712
345.73	80.586
346.10	81.018
346.46	78.301
346.82	79.542
347.19	78.803
347.55	80.368
347.91	80.421
348.27	79.628
348.63	80.835
349.00	80.722
349.36	82.377
349.72	81.177
350.08	80.738
350.45	80.128
350.81	80.399
351.17	79.153
351.53	80.571
351.89	79.026
352.26	79.360
352.62	81.532
352.98	78.956
353.34	79.871
353.70	81.149
354.07	79.677
354.43	77.342
354.79	81.338
355.15	79.048
355.51	78.718
355.87	79.773
356.24	80.098
356.60	81.407
356.96	81.349
357.32	81.310
357.68	81.704
358.04	81.664
358.40	79.743
358.77	81.659
359.13	81.665
359.49	79.892
359.85	81.513
360.21	80.542
360.57	78.730
360.93	81.165
361.29	79.230
361.66	82.524
362.02	82.348
362.38	82.559
362.74	81.605
363.10	82.995
363.46	84.433
363.82	83.696
364.18	81.476
364.54	82.647
364.90	82.796
365.26	82.460
365.62	84.161
365.98	84.311
366.35	84.268
366.71	83.888
367.07	81.930
367.43	83.825
367.79	84.523
368.15	83.274
368.51	83.758
368.87	82.627
369.23	82.455
369.59	84.840
369.95	83.431
370.31	85.116
370.67	85.597
371.03	85.437
371.39	82.713
371.75	85.568
372.11	83.666
372.47	86.538
372.83	85.664
373.19	84.665
373.55	83.899
373.91	84.305
374.27	86.676
374.63	84.494
374.99	86.383
375.35	85.515
375.71	87.343
376.07	87.149
376.42	87.619
376.78	88.054
377.14	86.324
377.50	87.716
377.86	88.019
378.22	86.599
378.58	87.949
378.94	88.154
379.30	88.334
379.66	88.715
380.02	87.492
380.38	87.766
380.74	88.330
381.09	89.202
381.45	87.829
381.81	89.019
382.17	90.609
382.53	88.944
382.89	91.525
383.25	90.853
383.61	90.793
383.97	90.730
384.32	90.494
384.68	90.155
385.04	89.216
385.40	91.039
385.76	92.390
386.12	92.820
386.48	93.934
386.83	92.898
387.19	92.308
387.55	93.852
387.91	92.604
388.27	93.162
388.62	94.525
388.98	92.634
389.34	93.129
389.70	95.339
390.06	90.938
390.42	92.811
390.77	95.814
391.13	93.190
391.49	94.955
391.85	95.906
392.20	94.852
392.56	94.851
392.92	94.422
393.28	95.342
393.64	92.913
393.99	96.928
394.35	97.217
394.71	96.424
395.07	94.783
395.42	93.443
395.78	97.003
396.14	94.641
396.50	96.703
396.85	96.716
397.21	95.301
397.57	97.367
397.92	95.267
398.28	97.529
398.64	93.976
399.00	96.388
399.35	96.953
399.71	93.682
400.07	98.247
400.42	94.737
400.78	96.265
401.14	95.402
401.49	97.260
401.85	97.319
402.21	95.361
402.57	97.000
402.92	93.977
403.28	98.496
403.63	97.982
403.99	96.811
404.35	98.376
404.70	95.536
405.06	96.533
405.42	95.649
405.77	96.572
406.13	98.428
406.49	96.566
406.84	97.738
407.20	97.953
407.55	97.102
407.91	98.128
408.27	98.853
408.62	97.908
408.98	96.488
409.34	97.274
409.69	97.868
410.05	96.182
410.40	98.025
410.76	95.899
411.11	96.375
411.47	97.239
411.83	97.615
412.18	100.257
412.54	94.819
412.89	95.567
413.25	97.112
413.60	98.820
413.96	94.233
414.31	97.500
414.67	96.344
415.03	96.738
415.38	95.692
415.74	96.352
416.09	96.799
416.45	98.987
416.80	96.233
417.16	98.964
417.51	97.402
417.87	96.349
418.22	98.769
418.58	98.595
418.93	99.122
419.29	96.287
419.64	99.093
420.00	99.748
420.35	97.672
420.71	98.663
421.06	99.448
421.42	98.858
421.77	100.578
422.12	97.730
422.48	98.105
422.83	100.000
423.19	99.097
423.54	99.295
423.90	98.351
424.25	98.967
424.61	99.266
424.96	97.619
425.31	97.920
425.67	98.944
426.02	100.589
426.38	100.313
426.73	99.637
427.09	100.696
427.44	99.412
427.79	98.763
428.15	99.454
428.50	99.334
428.85	98.157
429.21	100.226
429.56	101.078
429.92	97.946
430.27	98.546
430.62	99.320
430.98	98.567
431.33	98.791
431.68	99.686
432.04	98.547
432.39	98.859
432.74	97.174
433.10	99.080
433.45	100.538
433.80	98.955
434.16	98.947
434.51	99.086
434.86	100.581
435.22	98.934
435.57	101.123
435.92	99.341
436.28	98.569
436.63	99.144
436.98	100.174
437.34	100.544
437.69	100.358
438.04	97.835
438.39	99.389
438.75	101.457
439.10	98.812
439.45	101.400
439.81	99.144
440.16	101.010
440.51	99.284
440.86	100.906
441.22	99.378
441.57	100.993
441.92	101.731
442.27	102.494
442.63	100.696
442.98	101.321
443.33	99.444
443.68	100.849
444.03	98.957
444.39	100.049
444.74	102.007
445.09	100.724
445.44	101.937
445.79	102.114
446.15	98.733
446.50	98.724
446.85	100.797
447.20	99.583
447.55	99.777
447.91	100.790
448.26	99.032
448.61	98.676
448.96	100.115
449.31	101.387
449.66	100.639
450.02	99.943
450.37	102.786
450.72	99.370
451.07	100.316
451.42	100.375
451.77	99.397
452.12	97.847
452.47	99.485
452.83	99.293
453.18	98.861
453.53	98.925
453.88	100.243
454.23	99.939
454.58	100.756
454.93	99.742
455.28	96.254
455.63	100.124
455.98	99.399
456.34	99.617
456.69	100.127
457.04	99.559
457.39	101.883
457.74	101.209
458.09	96.645
458.44	100.234
458.79	99.888
459.14	100.400
459.49	99.522
459.84	99.662
460.19	99.150
460.54	101.161
460.89	99.716
461.24	101.615
461.59	98.456
461.94	98.679
462.29	98.733
462.64	98.140
462.99	98.443
463.34	98.679
463.69	99.550
464.04	98.245
464.39	99.454
464.74	97.546
465.09	99.501
465.44	100.058
465.79	97.166
466.14	99.658
466.49	98.332
466.84	98.394
467.19	98.123
467.54	96.679
467.89	99.621
468.24	97.263
468.59	98.222
468.94	97.587
469.29	99.148
469.64	97.813
469.99	101.472
470.34	98.635
470.68	99.627
471.03	97.594
471.38	99.001
471.73	98.459
472.08	97.693
472.43	98.725
472.78	98.561
473.13	100.204
473.48	97.590
473.83	97.136
474.17	100.130
474.52	98.724
474.87	99.030
475.22	99.268
475.57	98.363
475.92	99.067
476.27	99.069
476.61	100.116
476.96	96.207
477.31	98.053
477.66	98.483
478.01	98.316
478.36	97.331
478.70	100.272
479.05	99.011
479.40	99.205
479.75	96.246
480.10	97.286
480.45	99.400
480.79	100.906
481.14	100.000
481.49	97.833
481.84	99.662
482.19	97.007
482.53	99.568
482.88	97.184
483.23	97.505
483.58	97.028
483.92	96.709
484.27	96.718
484.62	97.848
484.97	97.803
485.31	98.121
485.66	97.716
486.01	100.314
486.36	100.067
486.70	99.063
487.05	99.017
487.40	97.880
487.75	97.070
488.09	95.241
488.44	95.014
488.79	96.003
489.13	95.713
489.48	95.682
489.83	95.695
490.17	94.831
490.52	96.351
490.87	94.817
491.22	97.708
491.56	95.731
491.91	94.790
492.26	97.083
492.60	94.674
492.95	98.082
493.30	95.115
493.64	96.906
493.99	95.652
494.34	96.942
494.68	95.619
495.03	95.231
495.37	96.124
495.72	97.375
496.07	96.878
496.41	96.557
496.76	96.914
497.11	96.320
497.45	95.895
497.80	97.175
498.14	94.685
498.49	95.582
498.84	94.860
499.18	95.683
499.53	96.280
499.87	94.018
500.22	96.785
500.56	97.428
500.91	95.030
501.26	94.810
501.60	95.524
501.95	96.070
502.29	95.593
502.64	96.815
502.98	96.744
503.33	95.197
503.67	94.795
504.02	96.530
504.36	96.388
504.71	95.404
505.06	93.357
505.40	96.548
505.75	96.546
506.09	94.678
506.44	95.380
506.78	97.500
507.13	95.708
507.47	93.838
507.82	95.459
508.16	93.819
508.51	95.750
508.85	94.662
509.19	94.838
509.54	95.979
509.88	94.444
510.23	95.858
510.57	96.419
510.92	93.017
511.26	97.109
511.61	96.425
511.95	94.301
512.30	95.122
512.64	93.100
512.98	95.677
513.33	94.460
513.67	94.827
514.02	97.197
514.36	95.086
514.70	96.911
515.05	96.651
515.39	94.982
515.74	97.605
516.08	96.653
516.42	98.410
516.77	95.377
517.11	97.685
517.46	97.187
517.80	94.815
518.14	95.652
518.49	95.252
518.83	95.565
519.17	94.239
519.52	94.553
519.86	95.618
520.20	95.322
520.55	95.497
520.89	95.232
521.23	94.680
521.58	94.953
521.92	96.474
522.26	96.226
522.61	95.974
522.95	96.821
523.29	95.616
523.64	95.553
523.98	96.565
524.32	95.683
524.66	95.839
525.01	97.013
525.35	94.102
525.69	96.768
526.04	94.841
526.38	96.174
526.72	94.441
527.06	95.071
527.41	94.591
527.75	93.767
528.09	94.286
528.43	97.569
528.78	95.776
529.12	95.677
529.46	97.336
529.80	94.617
530.15	96.634
530.49	96.633
530.83	97.538
531.17	94.896
531.51	96.717
531.86	96.057
532.20	95.546
532.54	95.303
532.88	96.167
533.22	94.825
533.57	95.806
533.91	97.781
534.25	98.698
534.59	98.012
534.93	94.902
535.27	95.558
535.62	95.982
535.96	96.477
536.30	97.757
536.64	96.278
536.98	95.540
537.32	97.653
537.66	96.213
538.01	96.573
538.35	96.394
538.69	95.340
539.03	97.266
539.37	96.635
539.71	96.728
540.05	95.791
540.39	96.953
540.73	97.141
541.07	95.787
541.42	96.237
541.76	98.073
542.10	96.146
542.44	98.680
542.78	94.425
543.12	96.841
543.46	95.202
543.80	97.641
544.14	95.127
544.48	96.469
544.82	97.266
545.16	97.541
545.50	96.395
545.84	98.371
546.18	97.518
546.52	95.386
546.86	95.758
547.20	97.353
547.54	96.396
547.88	97.418
548.22	95.726
548.56	96.834
548.90	97.574
549.24	95.248
549.58	96.121
549.92	94.067
550.26	94.725
550.60	96.877
550.94	94.772
551.28	94.590
551.62	99.231
551.96	97.669
552.30	98.319
552.64	95.134
552.98	96.273
553.32	95.720
553.66	97.823
554.00	98.029
554.34	94.978
554.68	96.386
555.02	97.024
555.36	97.457
555.69	94.652
556.03	96.003
556.37	95.658
556.71	98.195
557.05	96.943
557.39	94.498
557.73	97.676
558.07	96.154
558.41	97.167
558.75	96.960
559.08	96.612
559.42	96.190
559.76	97.278
560.10	97.324
560.44	96.128
560.78	96.434
561.12	98.025
561.45	98.454
561.79	98.459
562.13	97.658
562.47	98.273
562.81	95.893
563.15	94.640
563.48	97.313
563.82	97.941
564.16	97.911
564.50	97.297
564.84	97.590
565.17	96.110
565.51	99.932
565.85	100.343
566.19	98.674
566.52	98.324
566.86	98.136
567.20	97.821
567.54	100.669
567.88	100.820
568.21	99.152
568.55	100.707
568.89	100.975
569.23	101.011
569.56	101.270
569.90	102.680
570.24	100.186
570.57	102.400
570.91	100.837
571.25	100.164
571.59	100.062
571.92	97.719
572.26	99.306
572.60	99.132
572.93	98.745
573.27	99.561
573.61	99.851
573.95	101.092
574.28	100.185
574.62	99.568
574.96	99.177
575.29	99.596
575.63	96.657
575.97	96.991
576.30	99.691
576.64	98.543
576.98	99.794
577.31	100.197
577.65	99.839
577.98	100.359
578.32	99.312
578.66	97.765
578.99	98.971
579.33	97.452
579.67	97.300
580.00	98.430
580.34	99.129
580.67	96.909
581.01	99.111
581.35	98.966
581.68	99.547
582.02	100.642
582.35	99.740
582.69	99.844
583.02	99.167
583.36	97.918
583.70	98.910
584.03	99.472
584.37	100.339
584.70	99.093
585.04	97.642
585.37	98.452
585.71	99.284
586.04	98.865
586.38	98.906
586.72	99.627
587.05	101.300
587.39	100.811
587.72	101.039
588.06	100.581
588.39	98.747
588.73	98.810
589.06	99.641
589.40	98.652
589.73	98.065
590.07	99.471
590.40	98.336
590.73	99.547
591.07	96.692
591.40	99.955
591.74	98.688
592.07	99.304
592.41	99.956
592.74	99.920
593.08	98.952
593.41	99.671
593.75	101.178
594.08	98.387
594.41	98.617
594.75	98.053
595.08	99.243
595.42	99.485
595.75	101.502
596.09	101.212
596.42	99.049
596.75	99.378
597.09	98.314
597.42	98.148
597.75	99.679
598.09	95.020
598.42	96.977
598.76	99.828
599.09	98.758
599.42	98.674
599.76	98.269
600.09	97.624
600.42	99.090
600.76	97.957
601.09	100.267
601.42	97.532
601.76	99.206
602.09	99.134
602.42	99.916
602.76	100.042
603.09	98.796
603.42	101.798
603.76	99.476
604.09	99.311
604.42	99.239
604.76	99.822
605.09	99.406
605.42	97.156
605.75	100.000
606.09	99.915
606.42	98.499
606.75	98.312
607.09	98.198
607.42	98.449
607.75	99.067
608.08	97.350
608.42	95.295
608.75	100.819
609.08	100.399
609.41	98.934
609.75	98.841
610.08	100.349
610.41	98.164
610.74	99.415
611.07	99.897
611.41	99.481
611.74	99.947
612.07	99.518
612.40	99.070
612.73	100.395
613.07	98.706
613.40	97.538
613.73	99.328
614.06	98.664
614.39	100.338
614.72	97.311
615.06	99.106
615.39	97.380
615.72	97.578
616.05	98.715
616.38	97.037
616.71	97.492
617.05	97.591
617.38	99.120
617.71	99.748
618.04	100.317
618.37	98.676
618.70	99.934
619.03	99.375
619.36	99.711
619.69	100.076
620.03	99.854
620.36	99.428
620.69	98.787
621.02	97.783
621.35	100.000
621.68	99.575
622.01	100.167
622.34	98.085
622.67	97.161
623.00	98.086
623.33	101.905
623.66	98.728
623.99	99.924
624.32	100.989
624.65	98.722
624.99	100.527
625.32	99.697
625.65	100.786
625.98	100.000
626.31	97.672
626.64	102.253
626.97	98.778
627.30	98.599
627.63	97.747
627.96	100.809
628.29	100.278
628.62	97.542
628.95	98.998
629.28	100.806
629.61	100.499
629.94	100.880
630.26	99.308
630.59	102.081
630.92	99.282
631.25	96.615
631.58	100.110
631.91	100.329
632.24	99.541
632.57	100.114
632.90	98.221
633.23	97.412
633.56	100.882
633.89	100.247
634.22	101.358
634.55	101.144
634.88	98.340
635.20	96.410
635.53	102.133
635.86	98.960
636.19	101.423
636.52	101.148
636.85	100.372
637.18	98.239
637.51	99.119
637.83	96.978
638.16	100.819
638.49	98.365
638.82	100.132
639.15	99.186
639.48	99.037
639.81	98.466
640.13	99.134
640.46	101.458
640.79	100.295
641.12	99.409
641.45	99.099
641.77	97.185
642.10	103.002
642.43	100.643
642.76	99.670
643.09	98.223
643.41	97.735
643.74	99.341
644.07	101.478
644.40	104.899
644.73	101.401
645.05	98.490
645.38	100.882
645.71	102.660
646.04	98.923
646.36	101.418
646.69	103.597
647.02	101.512
647.35	99.440
647.67	98.537
648.00	100.746
648.33	96.587
648.66	101.356
648.98	103.015
649.31	101.653
649.64	101.727
649.96	99.028
650.29	102.215
650.62	98.291
650.94	102.222
651.27	101.490
651.60	101.261
651.92	99.650
652.25	100.888
652.58	100.667
652.90	102.916
653.23	101.681
653.56	95.939
653.88	98.969
654.21	100.525
654.54	95.586
654.86	101.528
655.19	98.392
655.52	108.437
655.84	108.976
656.17	100.000
656.49	100.000
656.82	100.000
657.15	100.000
657.47	100.000
657.80	100.000
658.13	99.377
658.45	97.434
658.78	95.286
659.10	91.919
659.43	90.127
659.75	91.613
660.08	90.345
660.41	92.339
660.73	90.331
661.06	97.400
661.38	94.521
661.71	95.277
662.03	98.498
662.36	99.121
662.68	95.796
663.01	100.000
663.33	98.608
663.66	99.070
663.98	98.372
664.31	96.375
664.63	99.309
664.96	95.652
665.28	100.221
665.61	101.082
665.93	101.087
666.26	101.952
666.58	97.092
666.91	102.118
667.23	101.887
667.56	100.000
667.88	100.719
668.21	100.955
668.53	101.418
668.86	98.821
669.18	100.708
669.50	97.337
669.83	96.047
670.15	100.000
670.48	101.196
670.80	100.000
671.13	94.183
671.45	94.064
671.77	96.352
672.10	99.604
672.42	96.067
672.75	99.822
673.07	101.431
673.39	98.899
673.72	97.830
674.04	97.292
674.37	102.542
674.69	98.929
675.01	100.444
675.34	102.928
675.66	98.380
675.98	100.222
676.31	99.083
676.63	97.625
676.95	95.227
677.28	101.176
677.60	103.133
677.92	101.147
678.25	101.094
678.57	105.844
678.89	102.101
679.22	103.579
679.54	100.602
679.86	97.217
680.18	99.806
680.51	97.727
680.83	100.398
681.15	100.000
681.48	101.025
681.80	101.446
682.12	96.774
682.44	98.326
682.77	101.545
683.09	102.059
683.41	99.773
683.73	95.853
684.06	98.451
684.38	95.054
684.70	105.229
685.02	100.830
685.34	97.628
685.67	100.750
685.99	99.458
686.31	102.832
686.63	98.145
686.96	99.240
687.28	101.818
687.60	98.859
687.92	104.040
688.24	99.798
688.56	100.437
688.89	100.670
689.21	98.667
689.53	100.464
689.85	102.558
690.17	98.438
690.49	100.946
690.82	100.971
691.14	100.952
691.46	100.467
691.78	104.279
692.10	103.011
692.42	100.433
692.74	98.932
693.06	98.649
693.39	97.511
693.71	99.774
694.03	101.848
694.35	100.467
694.67	101.010
694.99	98.956
695.31	102.350
695.63	102.000
695.95	98.232
696.27	97.150
696.59	101.667
696.91	100.840
697.23	99.486
697.56	104.950
697.88	101.290
698.20	102.733
698.52	102.824
698.84	97.847
699.16	102.000
699.48	102.005
699.80	98.511
700.12	101.617
700.44	103.641
700.76	100.291
701.08	100.909
701.40	102.108
701.72	107.407
702.04	106.271
702.36	110.033
702.68	100.000
703.00	101.515
703.32	102.639
703.64	93.503
703.96	97.681
704.28	101.227
704.60	100.317
704.91	99.685
705.23	101.661
705.55	108.127
705.87	106.498
706.19	106.667
706.51	95.876
706.83	98.071
707.15	97.819
707.47	104.482
707.79	102.083
708.11	102.000
708.43	99.500
708.74	98.966
709.06	106.197
709.38	107.034
709.70	100.592
710.02	100.000
710.34	98.142
710.66	96.474
710.98	102.980
711.29	105.246
711.61	109.831
711.93	100.326
712.25	104.467
712.57	105.861
712.89	101.493
713.20	97.578
713.52	103.484
713.84	98.294
714.16	105.842
714.48	103.226
714.80	108.974
715.11	100.000
715.43	98.119
715.75	104.000
716.07	99.668
716.39	101.007
716.70	100.369
717.02	101.145
717.34	104.049
717.66	108.407
717.97	99.565
718.29	101.255
718.61	102.756
718.93	98.837
719.24	101.141
719.56	104.819
719.88	96.907
720.20	105.303
720.51	95.785
720.83	102.317
721.15	111.765
721.46	107.258
721.78	102.372
722.10	96.654
722.42	103.734
722.73	104.898
723.05	104.082
723.37	104.661
723.68	105.405
724.00	103.419
724.32	105.333
724.63	103.182
724.95	97.817
725.27	109.217
725.58	104.661
725.90	96.429
726.22	99.614
726.53	96.610
726.85	100.749
727.16	103.774
727.48	106.883
727.80	102.024
728.11	103.814
728.43	97.255
728.74	101.613
729.06	104.000
729.38	104.887
729.69	98.406
730.01	100.385
730.32	108.955
730.64	98.587
730.96	112.453
731.27	104.333
731.59	108.136
731.90	103.185
732.22	102.208
732.53	101.329
732.85	102.128
733.16	100.337
733.48	101.079
733.80	105.435
734.11	102.712
734.43	109.966
734.74	106.667
735.06	106.515
735.37	101.208
735.69	109.091
736.00	106.272
736.32	101.007
736.63	106.690
736.95	101.024
737.26	102.847
737.58	96.309
737.89	100.733
738.21	103.759
738.52	107.819
738.83	106.114
739.15	100.437
739.46	109.055
739.78	104.762
740.09	97.059
740.41	111.594
740.72	101.181
741.04	104.453
741.35	96.170
741.66	109.953
741.98	108.163
742.29	96.535
742.61	106.806
742.92	100.948
743.23	95.833
743.55	102.715
743.86	109.091
744.18	101.435
744.49	109.043
744.80	106.522
745.12	109.626
745.43	98.537
745.74	106.250
746.06	97.073
746.37	106.806
746.68	101.896
747.00	109.043
747.31	107.960
747.62	105.825
747.94	107.177
748.25	106.931
748.56	113.115
748.88	104.188
749.19	105.851
749.50	108.374
749.82	103.774
750.13	103.670
750.44	100.000
750.75	108.955
751.07	109.854
751.38	105.364
751.69	104.314
752.01	104.651
752.32	108.367
752.63	100.791
752.94	106.034
753.26	102.092
753.57	103.167
753.88	110.619
754.19	112.083
754.51	107.025
754.82	102.024
755.13	107.500
755.44	102.823
755.75	108.594
756.07	108.560
756.38	108.679
756.69	105.747
757.00	105.000
757.31	101.634
757.63	100.610
757.94	103.889
758.25	98.082
758.56	100.000
758.87	99.717
759.18	97.196
759.50	104.000
759.81	102.676
760.12	107.419
760.43	104.545
760.74	104.630
761.05	109.846
761.36	101.705
761.67	103.939
761.99	109.184
762.30	100.000
762.61	101.581
762.92	104.525
763.23	101.351
763.54	110.748
763.85	106.780
764.16	101.245
764.47	102.419
764.78	101.832
765.10	105.724
765.41	107.256
765.72	106.349
766.03	106.767
766.34	102.555
766.65	107.968
766.96	109.596
767.27	100.000
767.58	93.678
767.89	112.057
768.20	94.318
768.51	93.407
768.82	100.985
769.13	103.226
769.44	99.571
769.75	101.826
770.06	93.966
770.37	105.769
770.68	112.183
770.99	98.190
771.30	118.137
771.61	108.597
771.92	100.431
772.23	112.315
772.54	107.527
772.85	107.407
773.16	100.562
773.47	127.451
773.78	113.072
774.09	93.413
774.39	100.667
774.70	100.000
775.01	108.966
775.32	93.571
775.63	109.091
775.94	104.580
776.25	98.425
776.56	94.167
776.87	120.192
777.18	104.274
777.48	105.172
777.79	90.435
778.10	100.000
778.41	100.000
778.72	103.968
779.03	104.511
779.34	107.092
779.65	97.260
779.95	98.630
780.26	97.241
780.57	93.496
780.88	104.724
781.19	101.724
781.50	109.302
781.80	104.142
782.11	97.484
782.42	122.308
782.73	102.158
783.04	105.185
783.34	86.806
783.65	94.017
783.96	109.836
784.27	101.379
784.57	105.691
784.88	89.844
785.19	113.000
785.50	106.000
785.81	95.690
786.11	106.897
786.42	94.175
786.73	110.000
787.04	107.143
787.34	83.929
787.65	96.190
787.96	103.540
788.26	114.545
788.57	103.419
788.88	103.125
789.19	97.619
789.49	101.739
789.80	113.265
790.11	97.980
790.41	98.182
790.72	103.261
791.03	100.000
791.33	115.000
791.64	91.250
791.95	94.186
792.25	102.128
792.56	110.112
792.87	108.219
793.17	114.493
793.48	104.000
793.79	88.750
794.09	111.250
794.40	108.491
794.70	114.563
795.01	100.000
795.32	95.726
795.62	102.857
795.93	105.882
796.23	99.057
796.54	84.375
796.85	102.941
797.15	91.549
797.46	94.444
797.76	83.333
798.07	79.070
798.37	98.684
798.68	112.121
798.99	85.185
799.29	111.429
799.60	95.652
799.90	114.667
800.21	98.361
800.51	86.154
800.82	88.136
801.12	97.101
801.43	104.918
801.73	88.889
802.04	106.000
802.34	73.134
802.65	98.077
802.95	91.071
803.26	94.231
803.56	121.569
803.87	115.217
804.17	94.667
804.48	98.413
804.78	74.074
805.09	86.957
805.39	120.000
805.70	114.815
806.00	87.719
806.30	91.549
806.61	84.286
806.91	90.278
807.22	100.000
807.52	81.333
807.83	81.818
808.13	87.500
808.43	89.706
808.74	92.537
809.04	83.051
809.35	98.077
809.65	92.188
809.95	108.108
810.26	122.727
810.56	71.233
810.86	95.238
811.17	88.000
811.47	100.000
811.77	115.789
812.08	104.545
812.38	84.906
812.69	97.500
812.99	90.909
813.29	105.263
813.59	97.143
813.90	86.364
814.20	92.308
814.50	115.385
814.81	122.642
815.11	70.213
815.41	86.441
815.72	111.905
816.02	84.314
816.32	83.333
816.62	82.927
816.93	110.811
817.23	71.429
817.53	102.083
817.84	91.304
818.14	94.231
818.44	84.211
818.74	93.478
819.04	42.500
819.35	86.486
819.65	100.000
819.95	66.667
820.25	80.952
820.56	130.000
820.86	62.069
821.16	120.000
821.46	93.617
821.76	110.000
822.07	86.047
822.37	70.270
822.67	71.875
822.97	107.143
823.27	100.000
823.57	84.000
823.88	81.481
824.18	128.571
824.48	70.588
824.78	83.871
825.08	91.304
825.38	72.727
825.69	75.000
825.99	68.421
826.29	88.889
826.59	213.333
826.89	119.048
827.19	86.957
827.49	67.500
827.79	80.000
828.09	121.429
828.39	109.091
828.70	97.297
829.00	100.000
829.30	114.286
829.60	83.333
829.90	37.500
830.20	92.105
830.50	59.259
830.80	108.696
831.10	122.727
831.40	84.848
831.70	100.000
832.00	109.524
832.30	52.381
832.60	100.000
832.90	79.310
833.20	65.000
833.50	54.545
833.80	77.778
834.10	123.077
834.40	71.875
834.70	77.778
835.00	73.684
835.30	157.692
835.60	173.333
835.90	93.548
836.20	95.455
836.50	128.571
836.80	76.923
837.10	67.857
837.40	400.000
837.70	72.727
838.00	72.727
838.30	65.217
838.60	61.538
838.90	81.818
839.19	32.143
839.49	43.333
839.79	161.538
840.09	116.667
840.39	53.571
840.69	39.286
840.99	46.154
841.29	84.211
841.59	40.000
841.88	136.364
842.18	80.000
842.48	143.750
842.78	140.000
843.08	59.259
843.38	-20.000
843.68	82.609
843.97	33.333
844.27	26.667
844.57	85.000
844.87	22.222
845.17	61.905
845.47	60.000
845.76	76.190
846.06	82.353
846.36	80.000
846.66	50.000
846.96	66.667
847.25	12.500
847.55	57.143
847.85	62.500
848.15	18.182
848.44	200.000
848.74	85.000
849.04	85.185
849.34	90.909
849.63	50.000
849.93	20.000
850.23	33.333
850.53	110.000
850.82	84.615
851.12	66.667
851.42	93.333
851.71	30.769
852.01	92.857
852.31	50.000
852.61	45.455
852.90	60.000
853.20	31.579
853.50	41.667
853.79	69.565
854.09	116.667
854.39	63.158
854.68	45.833
854.98	54.839
855.28	123.077
855.57	95.000
855.87	150.000
856.17	62.963
856.46	92.857
856.76	133.333
857.05	244.444
857.35	56.000
857.65	105.556
857.94	69.231
858.24	100.000
858.53	44.444
858.83	74.074
859.13	77.273
859.42	34.783
859.72	450.000
860.01	-133.333
860.31	92.000
860.60	90.476
860.90	-100.000
861.20	26.667
861.49	-150.000
861.79	40.000
862.08	80.000
862.38	140.000
862.67	0.000
862.97	100.000
863.26	58.333
863.56	44.444
863.85	-66.667
864.15	11.111
864.44	130.000
864.74	128.571
865.03	150.000
865.33	200.000
865.62	183.333
865.92	75.000
866.21	16.667
866.51	87.500
866.80	9.091
867.10	150.000
867.39	58.333
867.69	0.000
867.98	69.231
868.27	-33.333
868.57	106.667
868.86	50.000
869.16	15.385
869.45	60.000
869.75	-100.000
870.04	0.000
870.33	28.571
870.63	28.571
870.92	33.333
871.22	20.000
871.51	100.000
871.80	77.778
872.10	300.000
>>>>>End Processed Spectral Data<<<<<
