SpectraSuite Data File
++++++++++++++++++++++++++++++++++++
Date: Fri May 15 20:14:52 PDT 2015
User: schluterlab
Dark Spectrum Present: Yes
Reference Spectrum Present: Yes
Number of Sampled Component Spectra: 1
Spectrometers: USB2E3373
Integration Time (usec): 3000 (USB2E3373)
Spectra Averaged: 3 (USB2E3373)
Boxcar Smoothing: 0 (USB2E3373)
Correct for Electrical Dark: No (USB2E3373)
Strobe/Lamp Enabled: No (USB2E3373)
Correct for Detector Non-linearity: No (USB2E3373)
Correct for Stray Light: No (USB2E3373)
Number of Pixels in Processed Spectrum: 2048
>>>>>Begin Processed Spectral Data<<<<<
178.53	0.000
178.91	0.000
179.29	62.500
179.67	-50.000
180.04	42.857
180.42	75.000
180.80	-600.000
181.18	33.333
181.56	500.000
181.94	-250.000
182.31	800.000
182.69	-120.000
183.07	-133.333
183.45	-20.000
183.83	116.667
184.20	-18.182
184.58	133.333
184.96	100.000
185.34	66.667
185.72	0.000
186.09	84.615
186.47	-500.000
186.85	-0.000
187.23	77.778
187.61	600.000
187.98	-266.667
188.36	66.667
188.74	-33.333
189.12	0.000
189.49	50.000
189.87	0.000
190.25	64.286
190.63	300.000
191.00	-100.000
191.38	47.368
191.76	400.000
192.14	75.000
192.51	-50.000
192.89	66.667
193.27	-57.143
193.65	216.667
194.02	127.273
194.40	100.000
194.78	12.500
195.15	-25.000
195.53	37.500
195.91	-50.000
196.29	-275.000
196.66	100.000
197.04	-14.286
197.42	-66.667
197.79	-333.333
198.17	15.385
198.55	800.000
198.92	-166.667
199.30	300.000
199.68	0.000
200.05	-100.000
200.43	0.000
200.81	-100.000
201.18	-66.667
201.56	-100.000
201.94	-200.000
202.31	-233.333
202.69	-200.000
203.07	175.000
203.44	700.000
203.82	0.000
204.19	-42.857
204.57	-400.000
204.95	112.500
205.32	60.000
205.70	-142.857
206.08	-100.000
206.45	166.667
206.83	128.571
207.20	-214.286
207.58	-100.000
207.96	-133.333
208.33	-20.000
208.71	-100.000
209.08	-200.000
209.46	-400.000
209.84	-40.000
210.21	300.000
210.59	42.857
210.96	83.333
211.34	75.000
211.71	46.667
212.09	-100.000
212.46	-1200.000
212.84	0.000
213.22	130.000
213.59	-150.000
213.97	46.154
214.34	81.818
214.72	-100.000
215.09	-0.000
215.47	-15.385
215.84	-72.727
216.22	0.000
216.59	125.000
216.97	300.000
217.34	-150.000
217.72	20.000
218.09	12.500
218.47	100.000
218.84	100.000
219.22	55.556
219.59	80.000
219.97	66.667
220.34	325.000
220.72	-42.857
221.09	-50.000
221.47	450.000
221.84	-400.000
222.22	-550.000
222.59	-9.091
222.97	58.333
223.34	133.333
223.72	0.000
224.09	38.095
224.46	32.143
224.84	166.667
225.21	0.000
225.59	40.000
225.96	100.000
226.34	225.000
226.71	85.714
227.08	-33.333
227.46	-37.500
227.83	-500.000
228.21	0.000
228.58	154.545
228.95	-50.000
229.33	10.000
229.70	81.250
230.08	-12.500
230.45	-14.286
230.82	0.000
231.20	0.000
231.57	107.143
231.95	128.571
232.32	10.000
232.69	114.286
233.07	-133.333
233.44	60.000
233.81	20.000
234.19	-11.111
234.56	5.882
234.93	100.000
235.31	-75.000
235.68	-240.000
236.05	46.154
236.43	20.000
236.80	23.529
237.17	46.875
237.55	50.000
237.92	29.630
238.29	22.222
238.67	43.333
239.04	35.294
239.41	0.000
239.79	33.333
240.16	43.902
240.53	31.579
240.91	10.870
241.28	39.683
241.65	41.071
242.02	42.466
242.40	53.333
242.77	59.322
243.14	25.758
243.51	42.500
243.89	48.276
244.26	32.184
244.63	40.476
245.00	36.082
245.38	53.608
245.75	39.326
246.12	33.621
246.49	44.628
246.87	41.346
247.24	30.252
247.61	38.596
247.98	31.707
248.36	40.625
248.73	35.526
249.10	48.701
249.47	50.000
249.84	34.641
250.22	37.647
250.59	41.830
250.96	42.723
251.33	43.605
251.70	46.471
252.08	44.162
252.45	38.614
252.82	45.226
253.19	46.083
253.56	45.794
253.94	45.045
254.31	46.957
254.68	40.351
255.05	41.732
255.42	42.358
255.79	44.015
256.16	43.191
256.54	44.030
256.91	39.163
257.28	41.636
257.65	44.569
258.02	44.681
258.39	42.424
258.76	48.718
259.14	41.528
259.51	41.100
259.88	45.361
260.25	42.157
260.62	46.181
260.99	40.339
261.36	42.123
261.73	42.089
262.10	43.161
262.47	44.479
262.85	42.633
263.22	44.308
263.59	43.302
263.96	48.447
264.33	43.333
264.70	45.238
265.07	43.750
265.44	46.459
265.81	45.763
266.18	41.803
266.55	46.787
266.92	47.409
267.29	43.081
267.66	42.711
268.03	44.764
268.40	44.125
268.77	45.722
269.14	45.084
269.51	42.674
269.88	39.152
270.25	40.306
270.62	40.000
270.99	41.432
271.36	41.320
271.73	43.897
272.10	45.499
272.47	45.626
272.84	44.554
273.21	46.404
273.58	45.542
273.95	43.478
274.32	44.573
274.69	41.629
275.06	48.661
275.43	41.497
275.80	41.943
276.17	43.218
276.54	41.542
276.91	43.202
277.28	41.048
277.65	41.116
278.02	42.128
278.39	42.888
278.76	41.719
279.13	37.137
279.50	43.067
279.87	42.333
280.23	41.290
280.60	41.715
280.97	43.636
281.34	38.846
281.71	43.121
282.08	40.695
282.45	40.509
282.82	39.961
283.19	42.553
283.56	41.233
283.92	41.556
284.29	38.654
284.66	39.341
285.03	39.096
285.40	40.643
285.77	36.380
286.14	39.531
286.51	41.697
286.87	37.660
287.24	38.306
287.61	40.035
287.98	39.298
288.35	38.128
288.72	39.930
289.08	38.889
289.45	39.016
289.82	35.490
290.19	36.177
290.56	37.564
290.93	37.879
291.29	34.823
291.66	37.165
292.03	36.523
292.40	35.968
292.77	35.726
293.13	31.818
293.50	34.598
293.87	34.198
294.24	34.312
294.60	34.277
294.97	33.780
295.34	33.589
295.71	34.128
296.08	32.138
296.44	31.294
296.81	31.250
297.18	31.304
297.55	34.282
297.91	32.329
298.28	32.850
298.65	31.886
299.02	30.728
299.38	31.053
299.75	28.828
300.12	29.581
300.48	31.489
300.85	30.165
301.22	30.649
301.59	30.000
301.95	30.380
302.32	31.388
302.69	29.975
303.05	31.064
303.42	30.635
303.79	29.322
304.15	31.302
304.52	29.608
304.89	29.942
305.25	29.903
305.62	30.922
305.99	28.187
306.35	29.711
306.72	29.134
307.09	28.962
307.45	30.310
307.82	29.977
308.19	30.314
308.55	29.989
308.92	31.808
309.29	29.274
309.65	30.032
310.02	30.363
310.38	29.748
310.75	30.601
311.12	31.109
311.48	30.223
311.85	30.995
312.22	30.274
312.58	30.892
312.95	29.776
313.31	30.745
313.68	30.995
314.05	30.714
314.41	31.443
314.78	31.237
315.14	32.785
315.51	32.091
315.87	33.299
316.24	32.154
316.61	32.382
316.97	32.440
317.34	31.445
317.70	31.262
318.07	32.500
318.43	32.941
318.80	32.386
319.16	35.156
319.53	32.479
319.89	34.350
320.26	34.717
320.62	36.209
320.99	35.491
321.35	34.532
321.72	34.372
322.08	34.642
322.45	35.736
322.81	35.953
323.18	37.782
323.54	37.645
323.91	36.417
324.27	37.695
324.64	38.202
325.00	40.146
325.37	40.129
325.73	40.163
326.10	39.328
326.46	41.973
326.83	42.695
327.19	41.500
327.56	43.267
327.92	44.014
328.29	43.393
328.65	42.642
329.01	44.393
329.38	45.438
329.74	44.948
330.11	45.505
330.47	45.826
330.84	45.481
331.20	47.148
331.56	45.370
331.93	46.210
332.29	46.746
332.66	46.606
333.02	46.097
333.38	46.379
333.75	46.245
334.11	44.315
334.48	48.141
334.84	46.612
335.20	47.667
335.57	45.694
335.93	46.161
336.29	47.698
336.66	48.138
337.02	46.561
337.38	47.315
337.75	46.455
338.11	46.799
338.47	47.993
338.84	47.874
339.20	47.349
339.56	47.339
339.93	46.016
340.29	47.248
340.65	46.774
341.02	45.656
341.38	46.283
341.74	46.025
342.11	46.880
342.47	46.797
342.83	46.194
343.20	46.690
343.56	47.043
343.92	46.147
344.28	46.712
344.65	46.287
345.01	44.166
345.37	46.089
345.73	45.774
346.10	47.023
346.46	46.005
346.82	45.090
347.19	45.636
347.55	46.617
347.91	47.735
348.27	46.322
348.63	46.337
349.00	45.529
349.36	46.052
349.72	46.932
350.08	47.131
350.45	44.852
350.81	46.595
351.17	44.870
351.53	45.959
351.89	45.582
352.26	45.280
352.62	46.210
352.98	44.337
353.34	45.572
353.70	46.117
354.07	45.565
354.43	45.637
354.79	45.912
355.15	47.460
355.51	45.095
355.87	45.712
356.24	45.024
356.60	44.947
356.96	46.508
357.32	45.607
357.68	45.739
358.04	45.234
358.40	45.177
358.77	46.970
359.13	44.836
359.49	45.686
359.85	44.774
360.21	46.172
360.57	44.759
360.93	45.386
361.29	44.411
361.66	47.257
362.02	45.909
362.38	46.535
362.74	47.086
363.10	46.877
363.46	45.515
363.82	46.657
364.18	45.387
364.54	45.662
364.90	46.523
365.26	45.560
365.62	46.204
365.98	45.821
366.35	47.196
366.71	46.637
367.07	46.807
367.43	46.801
367.79	45.583
368.15	46.949
368.51	46.905
368.87	47.595
369.23	46.570
369.59	46.939
369.95	48.607
370.31	47.038
370.67	45.970
371.03	47.423
371.39	46.827
371.75	47.473
372.11	47.076
372.47	48.817
372.83	47.410
373.19	46.790
373.55	47.653
373.91	47.444
374.27	49.327
374.63	48.528
374.99	47.092
375.35	49.234
375.71	48.951
376.07	49.298
376.42	48.367
376.78	50.000
377.14	48.341
377.50	50.531
377.86	49.398
378.22	49.713
378.58	48.013
378.94	48.330
379.30	49.407
379.66	49.592
380.02	49.050
380.38	49.665
380.74	49.192
381.09	50.307
381.45	49.786
381.81	50.339
382.17	49.619
382.53	51.405
382.89	50.282
383.25	51.773
383.61	51.890
383.97	50.794
384.32	50.969
384.68	51.641
385.04	49.755
385.40	50.404
385.76	53.145
386.12	53.040
386.48	52.746
386.83	52.315
387.19	52.137
387.55	51.694
387.91	51.834
388.27	51.587
388.62	53.556
388.98	50.767
389.34	53.092
389.70	53.201
390.06	51.038
390.42	52.591
390.77	52.453
391.13	51.828
391.49	53.169
391.85	53.801
392.20	53.107
392.56	52.956
392.92	52.613
393.28	52.594
393.64	52.072
393.99	53.229
394.35	52.815
394.71	53.768
395.07	52.986
395.42	53.066
395.78	52.573
396.14	53.405
396.50	54.978
396.85	52.930
397.21	52.632
397.57	52.665
397.92	52.726
398.28	53.391
398.64	51.566
399.00	53.330
399.35	52.314
399.71	52.269
400.07	55.018
400.42	53.121
400.78	53.521
401.14	53.539
401.49	53.722
401.85	53.565
402.21	53.193
402.57	54.813
402.92	52.258
403.28	53.446
403.63	54.729
403.99	53.635
404.35	53.217
404.70	52.083
405.06	53.173
405.42	51.896
405.77	52.760
406.13	53.085
406.49	52.220
406.84	53.178
407.20	53.703
407.55	53.187
407.91	52.874
408.27	52.709
408.62	52.431
408.98	52.865
409.34	53.408
409.69	53.165
410.05	53.017
410.40	53.580
410.76	53.378
411.11	53.500
411.47	54.372
411.83	53.107
412.18	53.797
412.54	52.996
412.89	52.463
413.25	52.768
413.60	52.547
413.96	52.147
414.31	53.598
414.67	52.277
415.03	52.064
415.38	53.329
415.74	53.094
416.09	52.972
416.45	53.005
416.80	52.941
417.16	54.144
417.51	54.164
417.87	52.738
418.22	53.692
418.58	52.575
418.93	54.044
419.29	52.881
419.64	53.921
420.00	54.786
420.35	53.373
420.71	53.949
421.06	53.775
421.42	54.087
421.77	53.931
422.12	53.859
422.48	53.979
422.83	53.132
423.19	53.950
423.54	54.203
423.90	53.710
424.25	54.420
424.61	55.508
424.96	53.717
425.31	56.210
425.67	55.047
426.02	54.535
426.38	56.669
426.73	55.811
427.09	56.203
427.44	54.765
427.79	55.569
428.15	55.218
428.50	55.118
428.85	53.317
429.21	54.612
429.56	56.442
429.92	55.265
430.27	55.238
430.62	55.044
430.98	54.777
431.33	55.205
431.68	54.893
432.04	55.785
432.39	55.048
432.74	55.502
433.10	57.644
433.45	56.452
433.80	56.587
434.16	56.898
434.51	56.828
434.86	56.852
435.22	56.310
435.57	56.519
435.92	56.946
436.28	55.397
436.63	56.189
436.98	56.141
437.34	56.261
437.69	55.993
438.04	55.442
438.39	56.323
438.75	57.984
439.10	56.027
439.45	57.760
439.81	56.881
440.16	57.720
440.51	57.433
440.86	59.698
441.22	56.787
441.57	58.830
441.92	58.604
442.27	57.262
442.63	57.388
442.98	57.898
443.33	57.318
443.68	58.355
444.03	58.371
444.39	57.206
444.74	58.919
445.09	58.575
445.44	58.519
445.79	60.340
446.15	57.269
446.50	56.184
446.85	59.139
447.20	57.456
447.55	59.096
447.91	59.052
448.26	58.338
448.61	58.837
448.96	59.610
449.31	58.266
449.66	59.001
450.02	58.642
450.37	59.751
450.72	59.278
451.07	58.734
451.42	57.491
451.77	58.770
452.12	58.134
452.47	59.305
452.83	59.953
453.18	58.507
453.53	58.913
453.88	59.866
454.23	58.943
454.58	60.768
454.93	60.116
455.28	60.000
455.63	58.586
455.98	58.930
456.34	58.301
456.69	59.657
457.04	59.735
457.39	59.538
457.74	58.646
458.09	58.152
458.44	59.860
458.79	59.664
459.14	60.183
459.49	59.881
459.84	58.827
460.19	60.376
460.54	58.863
460.89	60.511
461.24	60.559
461.59	59.501
461.94	59.245
462.29	62.304
462.64	59.734
462.99	61.205
463.34	60.848
463.69	59.459
464.04	59.988
464.39	59.430
464.74	59.755
465.09	60.636
465.44	60.762
465.79	59.921
466.14	59.578
466.49	59.344
466.84	60.262
467.19	60.638
467.54	59.451
467.89	59.886
468.24	59.854
468.59	61.143
468.94	60.698
469.29	60.525
469.64	59.604
469.99	62.228
470.34	60.068
470.68	62.416
471.03	60.368
471.38	62.553
471.73	61.695
472.08	59.294
472.43	60.738
472.78	60.521
473.13	61.156
473.48	59.479
473.83	60.399
474.17	62.306
474.52	60.370
474.87	60.848
475.22	60.647
475.57	60.926
475.92	61.602
476.27	60.536
476.61	61.806
476.96	59.732
477.31	60.141
477.66	61.236
478.01	60.584
478.36	59.858
478.70	62.262
479.05	61.868
479.40	60.731
479.75	58.707
480.10	60.369
480.45	60.950
480.79	61.480
481.14	62.295
481.49	61.182
481.84	61.921
482.19	60.477
482.53	61.055
482.88	59.809
483.23	60.365
483.58	59.811
483.92	60.842
484.27	60.164
484.62	59.839
484.97	60.282
485.31	59.140
485.66	59.108
486.01	57.985
486.36	57.753
486.70	58.234
487.05	58.700
487.40	58.945
487.75	58.000
488.09	57.973
488.44	58.769
488.79	59.208
489.13	60.697
489.48	60.111
489.83	60.448
490.17	60.360
490.52	61.155
490.87	60.296
491.22	61.175
491.56	60.531
491.91	60.516
492.26	61.789
492.60	59.645
492.95	62.764
493.30	60.332
493.64	62.033
493.99	62.174
494.34	62.136
494.68	61.190
495.03	60.779
495.37	62.905
495.72	61.282
496.07	62.098
496.41	61.085
496.76	62.552
497.11	59.898
497.45	61.527
497.80	62.210
498.14	60.457
498.49	62.367
498.84	61.128
499.18	61.345
499.53	62.450
499.87	61.187
500.22	61.177
500.56	62.582
500.91	60.743
501.26	61.641
501.60	62.322
501.95	62.057
502.29	61.695
502.64	61.680
502.98	62.161
503.33	61.287
503.67	61.205
504.02	60.557
504.36	62.642
504.71	61.364
505.06	61.651
505.40	62.995
505.75	62.887
506.09	60.720
506.44	63.347
506.78	61.888
507.13	63.030
507.47	62.193
507.82	62.714
508.16	61.754
508.51	62.172
508.85	62.428
509.19	61.629
509.54	61.984
509.88	62.891
510.23	62.937
510.57	63.121
510.92	61.354
511.26	62.848
511.61	64.191
511.95	61.973
512.30	62.860
512.64	63.662
512.98	62.942
513.33	63.346
513.67	63.331
514.02	64.703
514.36	65.886
514.70	64.977
515.05	65.805
515.39	64.345
515.74	65.150
516.08	65.392
516.42	64.488
516.77	65.009
517.11	65.757
517.46	64.093
517.80	64.899
518.14	64.972
518.49	64.483
518.83	66.221
519.17	63.190
519.52	63.884
519.86	65.066
520.20	64.520
520.55	64.916
520.89	64.743
521.23	66.054
521.58	67.256
521.92	65.897
522.26	66.493
522.61	66.364
522.95	66.490
523.29	66.201
523.64	66.391
523.98	67.077
524.32	65.786
524.66	66.389
525.01	65.519
525.35	65.716
525.69	67.475
526.04	66.733
526.38	67.639
526.72	65.206
527.06	65.175
527.41	66.623
527.75	66.622
528.09	65.980
528.43	67.252
528.78	67.195
529.12	66.581
529.46	65.367
529.80	64.345
530.15	67.261
530.49	66.263
530.83	66.689
531.17	65.480
531.51	66.758
531.86	66.145
532.20	66.667
532.54	65.895
532.88	66.598
533.22	65.927
533.57	65.400
533.91	67.298
534.25	66.602
534.59	65.747
534.93	65.387
535.27	64.277
535.62	65.651
535.96	65.558
536.30	65.172
536.64	67.471
536.98	65.993
537.32	68.706
537.66	68.093
538.01	66.294
538.35	66.574
538.69	64.581
539.03	63.773
539.37	66.420
539.71	65.985
540.05	66.531
540.39	66.620
540.73	66.039
541.07	66.851
541.42	66.263
541.76	66.827
542.10	65.795
542.44	67.477
542.78	63.868
543.12	64.835
543.46	65.994
543.80	66.759
544.14	63.952
544.48	65.823
544.82	66.781
545.16	67.828
545.50	63.952
545.84	66.714
546.18	66.454
546.52	65.177
546.86	66.930
547.20	66.881
547.54	64.382
547.88	66.916
548.22	64.563
548.56	65.237
548.90	65.094
549.24	62.879
549.58	66.220
549.92	65.833
550.26	65.641
550.60	67.138
550.94	66.243
551.28	67.465
551.62	67.846
551.96	66.767
552.30	66.374
552.64	65.515
552.98	66.667
553.32	65.407
553.66	67.199
554.00	68.613
554.34	69.276
554.68	66.150
555.02	66.592
555.36	65.744
555.69	66.740
556.03	65.810
556.37	66.548
556.71	67.653
557.05	66.592
557.39	67.361
557.73	66.342
558.07	67.345
558.41	67.611
558.75	69.758
559.08	69.110
559.42	67.540
559.76	67.814
560.10	66.820
560.44	67.312
560.78	65.664
561.12	68.336
561.45	67.604
561.79	68.277
562.13	66.785
562.47	66.619
562.81	67.075
563.15	66.291
563.48	66.973
563.82	66.781
564.16	67.409
564.50	65.270
564.84	66.801
565.17	66.130
565.51	68.716
565.85	67.078
566.19	67.971
566.52	66.890
566.86	66.452
567.20	65.193
567.54	67.214
567.88	66.491
568.21	66.007
568.55	65.543
568.89	64.887
569.23	63.987
569.56	63.441
569.90	64.555
570.24	62.449
570.57	62.473
570.91	63.541
571.25	62.052
571.59	60.137
571.92	60.119
572.26	60.447
572.60	60.310
572.93	60.496
573.27	60.627
573.61	60.084
573.95	60.022
574.28	60.064
574.62	59.700
574.96	59.112
575.29	59.970
575.63	58.849
575.97	59.203
576.30	59.292
576.64	58.728
576.98	60.129
577.31	59.990
577.65	59.794
577.98	59.489
578.32	58.582
578.66	57.855
578.99	58.751
579.33	59.006
579.67	58.769
580.00	59.316
580.34	59.030
580.67	59.199
581.01	59.798
581.35	58.958
581.68	58.847
582.02	58.671
582.35	58.979
582.69	58.921
583.02	58.470
583.36	59.286
583.70	59.917
584.03	60.384
584.37	60.757
584.70	60.275
585.04	59.171
585.37	58.600
585.71	59.195
586.04	59.581
586.38	59.563
586.72	60.230
587.05	60.572
587.39	60.917
587.72	60.908
588.06	59.618
588.39	60.695
588.73	60.440
589.06	61.807
589.40	61.078
589.73	61.519
590.07	62.085
590.40	62.423
590.73	63.138
591.07	62.765
591.40	63.134
591.74	63.258
592.07	63.126
592.41	63.472
592.74	61.450
593.08	61.264
593.41	61.285
593.75	61.269
594.08	60.179
594.41	61.354
594.75	61.298
595.08	61.824
595.42	62.900
595.75	61.960
596.09	61.259
596.42	62.257
596.75	62.611
597.09	62.460
597.42	62.918
597.75	63.399
598.09	62.517
598.42	62.635
598.76	62.076
599.09	61.939
599.42	61.425
599.76	60.609
600.09	60.445
600.42	60.879
600.76	61.107
601.09	61.298
601.42	60.635
601.76	61.294
602.09	62.748
602.42	63.058
602.76	62.479
603.09	63.829
603.42	64.381
603.76	61.734
604.09	62.090
604.42	63.536
604.76	63.062
605.09	62.751
605.42	61.986
605.75	62.347
606.09	62.335
606.42	61.885
606.75	62.121
607.09	62.286
607.42	62.517
607.75	62.700
608.08	61.770
608.42	61.307
608.75	63.711
609.08	63.976
609.41	63.401
609.75	63.558
610.08	64.553
610.41	62.802
610.74	63.920
611.07	64.910
611.41	64.089
611.74	64.979
612.07	63.223
612.40	64.442
612.73	65.763
613.07	63.723
613.40	64.333
613.73	64.298
614.06	63.996
614.39	64.354
614.72	64.986
615.06	65.028
615.39	64.301
615.72	63.832
616.05	63.966
616.38	62.564
616.71	64.771
617.05	65.040
617.38	65.493
617.71	65.723
618.04	67.111
618.37	66.961
618.70	65.281
619.03	67.153
619.36	67.511
619.69	68.992
620.03	68.079
620.36	68.312
620.69	67.024
621.02	68.807
621.35	68.797
621.68	71.429
622.01	68.833
622.34	68.715
622.67	67.271
623.00	68.147
623.33	68.598
623.66	67.091
623.99	66.566
624.32	68.289
624.65	66.767
624.99	67.871
625.32	67.703
625.65	69.207
625.98	68.896
626.31	69.077
626.64	70.364
626.97	69.197
627.30	69.177
627.63	70.971
627.96	69.093
628.29	70.583
628.62	72.370
628.95	72.144
629.28	71.673
629.61	71.087
629.94	71.457
630.26	71.838
630.59	73.985
630.92	73.128
631.25	71.795
631.58	74.670
631.91	73.904
632.24	76.032
632.57	73.750
632.90	73.903
633.23	74.706
633.56	77.330
633.89	75.832
634.22	76.543
634.55	77.128
634.88	75.990
635.20	77.051
635.53	78.000
635.86	76.593
636.19	76.714
636.52	75.893
636.85	73.697
637.18	73.333
637.51	74.088
637.83	76.478
638.16	77.217
638.49	75.613
638.82	75.921
639.15	73.813
639.48	74.966
639.81	77.406
640.13	78.644
640.46	76.968
640.79	77.761
641.12	77.696
641.45	77.778
641.77	77.037
642.10	80.095
642.43	78.778
642.76	80.858
643.09	77.221
643.41	75.566
643.74	78.254
644.07	79.967
644.40	80.068
644.73	81.086
645.05	76.678
645.38	79.189
645.71	79.078
646.04	81.508
646.36	79.433
646.69	82.194
647.02	85.633
647.35	80.970
647.67	80.987
648.00	81.343
648.33	79.352
648.66	77.288
648.98	78.224
649.31	80.000
649.64	73.469
649.96	75.041
650.29	79.216
650.62	77.607
650.94	79.630
651.27	80.633
651.60	80.901
651.92	79.371
652.25	79.396
652.58	78.167
652.90	80.617
653.23	75.966
653.56	78.173
653.88	75.086
654.21	75.657
654.54	78.608
654.86	78.268
655.19	74.854
655.52	72.059
655.84	62.679
656.17	67.215
656.49	89.103
656.82	89.830
657.15	68.535
657.47	51.682
657.80	38.335
658.13	37.854
658.45	58.206
658.78	58.895
659.10	57.716
659.43	60.181
659.75	61.519
660.08	63.034
660.41	67.620
660.73	70.442
661.06	74.177
661.38	78.082
661.71	74.333
662.03	81.974
662.36	81.099
662.68	79.204
663.01	82.969
663.33	83.759
663.66	80.000
663.98	81.628
664.31	79.104
664.63	82.028
664.96	74.348
665.28	80.795
665.61	82.468
665.93	79.130
666.26	79.826
666.58	82.550
666.91	80.941
667.23	82.075
667.56	85.545
667.88	82.014
668.21	83.055
668.53	84.161
668.86	81.132
669.18	79.009
669.50	81.114
669.83	82.326
670.15	79.487
670.48	81.818
670.80	81.797
671.13	80.313
671.45	77.397
671.77	81.545
672.10	76.634
672.42	75.281
672.75	77.442
673.07	76.923
673.39	76.881
673.72	76.134
674.04	78.958
674.37	80.508
674.69	75.161
675.01	80.444
675.34	79.505
675.66	81.944
675.98	78.936
676.31	78.670
676.63	77.672
676.95	78.409
677.28	80.235
677.60	81.446
677.92	79.587
678.25	75.492
678.57	75.758
678.89	78.151
679.22	82.550
679.54	72.892
679.86	72.962
680.18	75.922
680.51	76.515
680.83	72.962
681.15	79.000
681.48	76.639
681.80	77.479
682.12	72.984
682.44	76.360
682.77	78.146
683.09	76.888
683.41	75.682
683.73	75.806
684.06	76.770
684.38	74.624
684.70	78.867
685.02	77.386
685.34	72.332
685.67	74.484
685.99	73.056
686.31	71.858
686.63	74.026
686.96	74.525
687.28	72.323
687.60	72.433
687.92	77.374
688.24	73.992
688.56	77.293
688.89	77.679
689.21	78.222
689.53	76.102
689.85	78.605
690.17	77.679
690.49	75.887
690.82	77.913
691.14	74.524
691.46	78.738
691.78	75.676
692.10	75.484
692.42	73.810
692.74	72.650
693.06	74.775
693.39	70.814
693.71	74.661
694.03	75.982
694.35	73.364
694.67	79.798
694.99	74.674
695.31	79.373
695.63	73.000
695.95	73.990
696.27	80.311
696.59	83.889
696.91	75.350
697.23	73.265
697.56	79.703
697.88	77.849
698.20	72.893
698.52	77.176
698.84	72.010
699.16	75.250
699.48	78.195
699.80	72.208
700.12	76.550
700.44	78.151
700.76	77.616
701.08	76.970
701.40	81.928
701.72	82.099
702.04	84.158
702.36	83.612
702.68	78.378
703.00	83.030
703.32	78.006
703.64	71.186
703.96	80.000
704.28	80.675
704.60	75.873
704.91	78.233
705.23	78.405
705.55	81.625
705.87	83.394
706.19	82.222
706.51	78.007
706.83	81.672
707.15	76.636
707.47	78.431
707.79	76.562
708.11	74.000
708.43	74.250
708.74	75.452
709.06	78.592
709.38	79.511
709.70	73.964
710.02	76.752
710.34	75.232
710.66	70.192
710.98	79.470
711.29	80.656
711.61	82.034
711.93	78.502
712.25	84.192
712.57	86.813
712.89	77.612
713.20	79.239
713.52	76.307
713.84	73.379
714.16	79.725
714.48	76.452
714.80	78.846
715.11	72.948
715.43	69.906
715.75	75.667
716.07	76.412
716.39	75.503
716.70	76.384
717.02	80.153
717.34	77.328
717.66	77.434
717.97	80.870
718.29	78.661
718.61	81.496
718.93	78.682
719.24	78.327
719.56	75.904
719.88	70.790
720.20	76.515
720.51	72.797
720.83	80.309
721.15	84.454
721.46	77.016
721.78	74.704
722.10	71.375
722.42	75.934
722.73	74.694
723.05	84.082
723.37	81.780
723.68	84.234
724.00	82.479
724.32	72.444
724.63	77.273
724.95	79.913
725.27	81.106
725.58	75.847
725.90	72.222
726.22	74.903
726.53	75.254
726.85	74.157
727.16	79.245
727.48	76.113
727.80	71.660
728.11	82.203
728.43	65.882
728.74	71.371
729.06	76.000
729.38	77.820
729.69	74.104
730.01	71.923
730.32	76.493
730.64	71.025
730.96	75.472
731.27	67.333
731.59	71.525
731.90	71.656
732.22	72.871
732.53	77.409
732.85	70.213
733.16	74.074
733.48	73.022
733.80	72.464
734.11	68.814
734.43	71.821
734.74	66.364
735.06	69.707
735.37	67.069
735.69	70.034
736.00	68.990
736.32	69.463
736.63	69.718
736.95	70.648
737.26	69.039
737.58	71.477
737.89	71.429
738.21	74.060
738.52	76.955
738.83	79.476
739.15	70.742
739.46	71.654
739.78	73.993
740.09	68.954
740.41	72.464
740.72	64.173
741.04	70.445
741.35	77.021
741.66	75.355
741.98	72.959
742.29	77.723
742.61	81.675
742.92	69.668
743.23	73.148
743.55	72.398
743.86	73.684
744.18	76.077
744.49	75.532
744.80	76.087
745.12	87.166
745.43	69.268
745.74	80.729
746.06	78.537
746.37	82.723
746.68	73.934
747.00	73.404
747.31	81.095
747.62	78.641
747.94	80.383
748.25	70.297
748.56	87.978
748.88	72.775
749.19	78.191
749.50	80.296
749.82	75.472
750.13	79.358
750.44	73.684
750.75	69.403
751.07	72.263
751.38	73.563
751.69	68.235
752.01	71.318
752.32	76.892
752.63	66.403
752.94	75.431
753.26	73.222
753.57	76.018
753.88	77.876
754.19	75.833
754.51	71.074
754.82	74.899
755.13	77.083
755.44	73.790
755.75	72.266
756.07	71.206
756.38	70.943
756.69	68.199
757.00	68.667
757.31	66.013
757.63	61.890
757.94	65.000
758.25	60.274
758.56	62.500
758.87	58.640
759.18	61.994
759.50	67.636
759.81	67.224
760.12	69.355
760.43	62.424
760.74	71.914
761.05	66.769
761.36	66.477
761.67	67.576
761.99	69.048
762.30	67.273
762.61	63.636
762.92	72.398
763.23	67.117
763.54	71.963
763.85	67.797
764.16	64.315
764.47	66.532
764.78	70.696
765.10	72.727
765.41	63.091
765.72	64.444
766.03	66.541
766.34	63.869
766.65	67.729
766.96	73.232
767.27	69.681
767.58	60.920
767.89	78.014
768.20	66.477
768.51	63.187
768.82	65.517
769.13	64.977
769.44	60.086
769.75	69.406
770.06	65.948
770.37	70.192
770.68	71.574
770.99	65.611
771.30	70.098
771.61	62.896
771.92	68.103
772.23	71.429
772.54	70.968
772.85	73.457
773.16	67.978
773.47	83.007
773.78	74.510
774.09	64.671
774.39	70.667
774.70	68.153
775.01	77.931
775.32	71.429
775.63	71.074
775.94	70.992
776.25	66.929
776.56	68.333
776.87	90.385
777.18	66.667
777.48	78.448
777.79	72.174
778.10	71.429
778.41	73.874
778.72	65.079
779.03	66.917
779.34	71.631
779.65	68.493
779.95	62.329
780.26	66.897
780.57	64.228
780.88	59.055
781.19	76.724
781.50	70.543
781.80	66.272
782.11	61.006
782.42	71.538
782.73	64.748
783.04	65.926
783.34	67.361
783.65	60.684
783.96	68.033
784.27	64.138
784.57	73.984
784.88	67.188
785.19	74.000
785.50	85.000
785.81	62.931
786.11	64.655
786.42	72.816
786.73	76.364
787.04	68.367
787.34	64.286
787.65	70.476
787.96	61.947
788.26	69.091
788.57	63.248
788.88	66.406
789.19	64.286
789.49	62.609
789.80	80.612
790.11	64.646
790.41	64.545
790.72	72.826
791.03	78.409
791.33	85.000
791.64	60.000
791.95	63.953
792.25	59.574
792.56	64.045
792.87	65.753
793.17	69.565
793.48	69.333
793.79	77.500
794.09	70.000
794.40	69.811
794.70	73.786
795.01	60.976
795.32	60.684
795.62	69.524
795.93	61.765
796.23	59.434
796.54	65.625
796.85	67.647
797.15	59.155
797.46	73.611
797.76	86.364
798.07	54.651
798.37	48.684
798.68	63.636
798.99	56.790
799.29	77.143
799.60	66.667
799.90	69.333
800.21	78.689
800.51	63.077
800.82	74.576
801.12	57.971
801.43	63.934
801.73	76.190
802.04	88.000
802.34	55.224
802.65	80.769
802.95	58.929
803.26	61.538
803.56	100.000
803.87	52.174
804.17	66.667
804.48	69.841
804.78	62.963
805.09	54.348
805.39	53.333
805.70	51.852
806.00	52.632
806.30	63.380
806.61	68.571
806.91	45.833
807.22	65.789
807.52	54.667
807.83	52.727
808.13	69.444
808.43	70.588
808.74	52.239
809.04	64.407
809.35	65.385
809.65	67.188
809.95	67.568
810.26	47.727
810.56	50.685
810.86	78.571
811.17	76.000
811.47	65.306
811.77	68.421
812.08	59.091
812.38	37.736
812.69	62.500
812.99	78.788
813.29	65.789
813.59	65.714
813.90	102.273
814.20	74.359
814.50	63.462
814.81	56.604
815.11	59.574
815.41	67.797
815.72	78.571
816.02	84.314
816.32	64.583
816.62	39.024
816.93	45.946
817.23	25.714
817.53	70.833
817.84	60.870
818.14	42.308
818.44	55.263
818.74	56.522
819.04	15.000
819.35	43.243
819.65	50.000
819.95	27.778
820.25	57.143
820.56	82.500
820.86	24.138
821.16	97.500
821.46	57.447
821.76	87.500
822.07	51.163
822.37	18.919
822.67	75.000
822.97	59.524
823.27	92.857
823.57	76.000
823.88	22.222
824.18	82.143
824.48	64.706
824.78	61.290
825.08	91.304
825.38	60.606
825.69	50.000
825.99	52.632
826.29	75.000
826.59	93.333
826.89	42.857
827.19	65.217
827.49	52.500
827.79	65.714
828.09	92.857
828.39	93.939
828.70	97.297
829.00	46.429
829.30	38.095
829.60	63.333
829.90	65.625
830.20	47.368
830.50	66.667
830.80	69.565
831.10	59.091
831.40	54.545
831.70	64.516
832.00	71.429
832.30	28.571
832.60	108.333
832.90	51.724
833.20	75.000
833.50	54.545
833.80	44.444
834.10	57.692
834.40	112.500
834.70	177.778
835.00	63.158
835.30	126.923
835.60	146.667
835.90	48.387
836.20	40.909
836.50	57.143
836.80	7.692
837.10	32.143
837.40	200.000
837.70	54.545
838.00	45.455
838.30	65.217
838.60	-23.077
838.90	72.727
839.19	42.857
839.49	63.333
839.79	84.615
840.09	83.333
840.39	60.714
840.69	46.429
840.99	30.769
841.29	15.789
841.59	10.000
841.88	0.000
842.18	140.000
842.48	137.500
842.78	40.000
843.08	22.222
843.38	-20.000
843.68	73.913
843.97	60.000
844.27	33.333
844.57	75.000
844.87	94.444
845.17	80.952
845.47	86.667
845.76	19.048
846.06	70.588
846.36	120.000
846.66	35.714
846.96	93.333
847.25	-112.500
847.55	64.286
847.85	12.500
848.15	27.273
848.44	-66.667
848.74	60.000
849.04	70.370
849.34	0.000
849.63	66.667
849.93	100.000
850.23	50.000
850.53	20.000
850.82	76.923
851.12	-11.111
851.42	40.000
851.71	53.846
852.01	50.000
852.31	125.000
852.61	36.364
852.90	50.000
853.20	15.789
853.50	25.000
853.79	34.783
854.09	66.667
854.39	42.105
854.68	41.667
854.98	61.290
855.28	61.538
855.57	90.000
855.87	133.333
856.17	44.444
856.46	57.143
856.76	80.000
857.05	66.667
857.35	16.000
857.65	33.333
857.94	61.538
858.24	82.759
858.53	55.556
858.83	92.593
859.13	0.000
859.42	8.696
859.72	175.000
860.01	-33.333
860.31	32.000
860.60	76.190
860.90	233.333
861.20	-6.667
861.49	-500.000
861.79	40.000
862.08	35.000
862.38	73.333
862.67	-100.000
862.97	200.000
863.26	-58.333
863.56	72.222
863.85	-33.333
864.15	11.111
864.44	20.000
864.74	64.286
865.03	-25.000
865.33	-120.000
865.62	0.000
865.92	16.667
866.21	50.000
866.51	50.000
866.80	-18.182
867.10	250.000
867.39	66.667
867.69	0.000
867.98	38.462
868.27	33.333
868.57	26.667
868.86	61.111
869.16	-15.385
869.45	86.667
869.75	-700.000
870.04	0.000
870.33	-14.286
870.63	80.952
870.92	-100.000
871.22	60.000
871.51	-200.000
871.80	77.778
872.10	233.333
>>>>>End Processed Spectral Data<<<<<
