SpectraSuite Data File
++++++++++++++++++++++++++++++++++++
Date: Fri May 15 20:16:53 PDT 2015
User: schluterlab
Dark Spectrum Present: Yes
Reference Spectrum Present: Yes
Number of Sampled Component Spectra: 1
Spectrometers: USB2E3373
Integration Time (usec): 3000 (USB2E3373)
Spectra Averaged: 3 (USB2E3373)
Boxcar Smoothing: 0 (USB2E3373)
Correct for Electrical Dark: No (USB2E3373)
Strobe/Lamp Enabled: No (USB2E3373)
Correct for Detector Non-linearity: No (USB2E3373)
Correct for Stray Light: No (USB2E3373)
Number of Pixels in Processed Spectrum: 2048
>>>>>Begin Processed Spectral Data<<<<<
178.53	0.000
178.91	0.000
179.29	-25.000
179.67	-150.000
180.04	-57.143
180.42	50.000
180.80	100.000
181.18	300.000
181.56	400.000
181.94	-500.000
182.31	800.000
182.69	0.000
183.07	-100.000
183.45	-240.000
183.83	133.333
184.20	45.455
184.58	33.333
184.96	-200.000
185.34	-33.333
185.72	-250.000
186.09	115.385
186.47	-500.000
186.85	-66.667
187.23	100.000
187.61	900.000
187.98	-366.667
188.36	-100.000
188.74	-133.333
189.12	5.882
189.49	5.556
189.87	0.000
190.25	85.714
190.63	250.000
191.00	-266.667
191.38	36.842
191.76	50.000
192.14	125.000
192.51	200.000
192.89	-11.111
193.27	-100.000
193.65	233.333
194.02	172.727
194.40	-10.000
194.78	-187.500
195.15	41.667
195.53	-187.500
195.91	175.000
196.29	-125.000
196.66	100.000
197.04	171.429
197.42	44.444
197.79	-500.000
198.17	-107.692
198.55	1100.000
198.92	-166.667
199.30	500.000
199.68	-140.000
200.05	-66.667
200.43	0.000
200.81	-200.000
201.18	-33.333
201.56	600.000
201.94	-350.000
202.31	-233.333
202.69	-240.000
203.07	125.000
203.44	-300.000
203.82	0.000
204.19	28.571
204.57	-666.667
204.95	125.000
205.32	-10.000
205.70	-157.143
206.08	150.000
206.45	266.667
206.83	-57.143
207.20	-71.429
207.58	-100.000
207.96	-366.667
208.33	-60.000
208.71	-125.000
209.08	-116.667
209.46	-300.000
209.84	-120.000
210.21	-400.000
210.59	42.857
210.96	-150.000
211.34	25.000
211.71	20.000
212.09	-171.429
212.46	-1400.000
212.84	0.000
213.22	30.000
213.59	550.000
213.97	23.077
214.34	45.455
214.72	-83.333
215.09	375.000
215.47	38.462
215.84	-36.364
216.22	-100.000
216.59	-12.500
216.97	-300.000
217.34	25.000
217.72	-60.000
218.09	0.000
218.47	50.000
218.84	-900.000
219.22	-144.444
219.59	-80.000
219.97	266.667
220.34	225.000
220.72	85.714
221.09	-275.000
221.47	-200.000
221.84	-550.000
222.22	-350.000
222.59	0.000
222.97	-8.333
223.34	0.000
223.72	-35.714
224.09	-14.286
224.46	25.000
224.84	600.000
225.21	0.000
225.59	26.667
225.96	0.000
226.34	300.000
226.71	-128.571
227.08	-100.000
227.46	-25.000
227.83	-600.000
228.21	11.111
228.58	27.273
228.95	-100.000
229.33	40.000
229.70	-6.250
230.08	-150.000
230.45	-14.286
230.82	100.000
231.20	-40.000
231.57	28.571
231.95	-57.143
232.32	-70.000
232.69	114.286
233.07	-166.667
233.44	60.000
233.81	-60.000
234.19	33.333
234.56	-23.529
234.93	200.000
235.31	150.000
235.68	0.000
236.05	-7.692
236.43	30.000
236.80	11.765
237.17	18.750
237.55	10.000
237.92	40.741
238.29	30.556
238.67	33.333
239.04	32.353
239.41	7.317
239.79	40.000
240.16	29.268
240.53	28.947
240.91	23.913
241.28	22.222
241.65	50.000
242.02	49.315
242.40	30.000
242.77	42.373
243.14	28.788
243.51	48.750
243.89	51.724
244.26	43.678
244.63	42.857
245.00	37.113
245.38	44.330
245.75	39.326
246.12	35.345
246.49	47.934
246.87	41.346
247.24	31.933
247.61	27.193
247.98	43.902
248.36	37.500
248.73	43.421
249.10	43.506
249.47	42.405
249.84	41.830
250.22	36.471
250.59	49.020
250.96	38.028
251.33	37.791
251.70	47.059
252.08	38.579
252.45	43.069
252.82	44.221
253.19	44.700
253.56	38.785
253.94	42.342
254.31	43.913
254.68	46.930
255.05	38.583
255.42	45.852
255.79	49.421
256.16	44.358
256.54	43.284
256.91	39.544
257.28	40.892
257.65	39.326
258.02	40.426
258.39	39.057
258.76	49.451
259.14	42.525
259.51	41.424
259.88	44.674
260.25	41.830
260.62	46.181
260.99	37.627
261.36	44.178
261.73	41.456
262.10	41.641
262.47	42.025
262.85	42.947
263.22	41.846
263.59	41.745
263.96	40.683
264.33	40.909
264.70	42.857
265.07	42.560
265.44	49.858
265.81	42.373
266.18	43.716
266.55	41.131
266.92	46.632
267.29	44.125
267.66	40.409
268.03	44.764
268.40	38.903
268.77	48.396
269.14	40.767
269.51	46.787
269.88	40.150
270.25	39.286
270.62	41.707
270.99	40.153
271.36	39.609
271.73	41.080
272.10	44.526
272.47	43.735
272.84	40.347
273.21	43.387
273.58	43.133
273.95	43.707
274.32	42.032
274.69	39.367
275.06	40.848
275.43	39.909
275.80	40.839
276.17	40.690
276.54	39.615
276.91	41.228
277.28	37.991
277.65	38.843
278.02	39.149
278.39	41.575
278.76	42.138
279.13	37.552
279.50	42.437
279.87	41.685
280.23	37.634
280.60	40.546
280.97	42.424
281.34	39.423
281.71	39.425
282.08	36.196
282.45	36.986
282.82	38.224
283.19	38.491
283.56	39.884
283.92	38.899
284.29	40.000
284.66	36.047
285.03	38.703
285.40	39.509
285.77	37.434
286.14	36.823
286.51	37.454
286.87	36.929
287.24	36.832
287.61	39.683
287.98	36.491
288.35	32.582
288.72	37.128
289.08	36.806
289.45	35.852
289.82	33.916
290.19	34.812
290.56	34.134
290.93	35.185
291.29	33.436
291.66	32.598
292.03	33.652
292.40	31.774
292.77	30.781
293.13	29.058
293.50	30.046
293.87	32.672
294.24	31.221
294.60	30.999
294.97	30.357
295.34	31.748
295.71	30.104
296.08	30.344
296.44	27.454
296.81	29.444
297.18	28.551
297.55	30.894
297.91	30.411
298.28	30.343
298.65	27.815
299.02	28.302
299.38	26.402
299.75	28.276
300.12	26.832
300.48	27.141
300.85	27.883
301.22	26.883
301.59	26.316
301.95	27.722
302.32	29.183
302.69	27.736
303.05	25.619
303.42	27.024
303.79	25.818
304.15	27.479
304.52	25.327
304.89	25.029
305.25	25.061
305.62	24.971
305.99	23.626
306.35	26.243
306.72	22.835
307.09	24.743
307.45	24.914
307.82	24.421
308.19	24.739
308.55	26.172
308.92	26.253
309.29	24.916
309.65	25.188
310.02	24.422
310.38	23.381
310.75	26.885
311.12	24.004
311.48	24.178
311.85	24.293
312.22	24.578
312.58	23.036
312.95	22.625
313.31	23.188
313.68	23.560
314.05	23.571
314.41	23.814
314.78	25.258
315.14	25.180
315.51	23.085
315.87	24.590
316.24	24.368
316.61	24.606
316.97	23.413
317.34	24.512
317.70	22.945
318.07	23.269
318.43	24.902
318.80	23.201
319.16	24.414
319.53	24.122
319.89	22.539
320.26	24.494
320.62	24.273
320.99	22.651
321.35	22.508
321.72	23.988
322.08	22.961
322.45	21.015
322.81	22.692
323.18	22.669
323.54	22.587
323.91	23.174
324.27	23.438
324.64	22.191
325.00	22.172
325.37	23.416
325.73	23.663
326.10	24.614
326.46	23.677
326.83	23.797
327.19	24.412
327.56	22.155
327.92	23.063
328.29	22.143
328.65	21.981
329.01	22.978
329.38	23.226
329.74	21.813
330.11	23.170
330.47	21.985
330.84	20.962
331.20	23.479
331.56	22.222
331.93	22.192
332.29	22.731
332.66	22.262
333.02	22.770
333.38	21.907
333.75	22.894
334.11	21.397
334.48	22.575
334.84	22.344
335.20	22.598
335.57	22.121
335.93	22.313
336.29	22.468
336.66	22.252
337.02	21.375
337.38	21.481
337.75	22.091
338.11	22.092
338.47	22.993
338.84	22.366
339.20	22.303
339.56	21.835
339.93	22.471
340.29	22.018
340.65	22.401
341.02	21.720
341.38	21.239
341.74	21.555
342.11	20.711
342.47	22.331
342.83	21.367
343.20	20.732
343.56	21.217
343.92	22.232
344.28	22.032
344.65	21.848
345.01	20.138
345.37	21.362
345.73	21.506
346.10	20.966
346.46	21.615
346.82	21.522
347.19	21.031
347.55	20.969
347.91	20.550
348.27	20.129
348.63	21.976
349.00	21.083
349.36	20.698
349.72	21.891
350.08	20.902
350.45	19.473
350.81	20.266
351.17	19.625
351.53	21.224
351.89	18.662
352.26	19.920
352.62	20.323
352.98	20.482
353.34	19.646
353.70	20.631
354.07	20.081
354.43	20.256
354.79	20.231
355.15	20.238
355.51	20.332
355.87	20.388
356.24	19.494
356.60	20.291
356.96	20.317
357.32	19.728
357.68	19.390
358.04	20.517
358.40	20.016
358.77	19.617
359.13	19.696
359.49	19.800
359.85	18.019
360.21	19.458
360.57	19.204
360.93	20.121
361.29	18.882
361.66	19.357
362.02	19.545
362.38	18.964
362.74	18.849
363.10	20.391
363.46	18.903
363.82	20.060
364.18	20.295
364.54	18.971
364.90	18.710
365.26	19.141
365.62	20.584
365.98	19.062
366.35	19.155
366.71	19.660
367.07	19.521
367.43	18.188
367.79	19.364
368.15	19.526
368.51	19.228
368.87	19.239
369.23	18.339
369.59	19.096
369.95	19.868
370.31	18.858
370.67	18.582
371.03	19.492
371.39	18.089
371.75	19.341
372.11	19.686
372.47	18.935
372.83	18.808
373.19	18.046
373.55	17.978
373.91	18.934
374.27	19.206
374.63	18.090
374.99	18.865
375.35	18.872
375.71	18.112
376.07	18.820
376.42	19.252
376.78	18.792
377.14	18.619
377.50	19.190
377.86	19.143
378.22	19.592
378.58	18.141
378.94	18.336
379.30	18.029
379.66	18.934
380.02	18.210
380.38	18.016
380.74	18.671
381.09	20.000
381.45	18.960
381.81	17.890
382.17	18.591
382.53	18.863
382.89	19.523
383.25	18.731
383.61	18.537
383.97	18.603
384.32	18.949
384.68	18.700
385.04	18.444
385.40	17.859
385.76	19.937
386.12	19.082
386.48	19.540
386.83	18.706
387.19	19.170
387.55	19.260
387.91	19.132
388.27	18.437
388.62	18.439
388.98	18.969
389.34	18.926
389.70	19.453
390.06	18.250
390.42	17.811
390.77	18.443
391.13	18.537
391.49	18.564
391.85	17.804
392.20	19.146
392.56	18.309
392.92	18.614
393.28	19.281
393.64	18.679
393.99	19.185
394.35	18.153
394.71	19.157
395.07	18.542
395.42	18.761
395.78	18.567
396.14	18.474
396.50	19.341
396.85	18.995
397.21	18.546
397.57	19.436
397.92	18.933
398.28	18.506
398.64	19.036
399.00	18.454
399.35	18.341
399.71	19.012
400.07	18.501
400.42	18.727
400.78	19.473
401.14	19.782
401.49	19.893
401.85	17.733
402.21	18.373
402.57	18.250
402.92	18.005
403.28	18.609
403.63	18.789
403.99	18.431
404.35	19.863
404.70	18.929
405.06	18.331
405.42	19.826
405.77	18.652
406.13	18.685
406.49	18.295
406.84	18.643
407.20	18.964
407.55	18.545
407.91	18.048
408.27	18.611
408.62	19.385
408.98	18.484
409.34	19.827
409.69	18.411
410.05	18.411
410.40	18.395
410.76	18.637
411.11	19.250
411.47	18.672
411.83	17.954
412.18	18.468
412.54	19.351
412.89	18.904
413.25	19.675
413.60	18.882
413.96	18.282
414.31	19.573
414.67	17.704
415.03	18.642
415.38	18.930
415.74	19.609
416.09	19.334
416.45	18.974
416.80	18.572
417.16	19.061
417.51	19.387
417.87	17.797
418.22	19.301
418.58	18.863
418.93	19.310
419.29	18.054
419.64	18.665
420.00	19.710
420.35	18.627
420.71	18.894
421.06	18.969
421.42	19.111
421.77	19.653
422.12	18.729
422.48	19.653
422.83	18.852
423.19	18.962
423.54	18.166
423.90	18.257
424.25	17.910
424.61	18.849
424.96	19.338
425.31	18.718
425.67	18.545
426.02	19.140
426.38	18.848
426.73	19.613
427.09	19.114
427.44	18.529
427.79	18.739
428.15	19.964
428.50	18.898
428.85	18.673
429.21	18.959
429.56	18.922
429.92	19.620
430.27	19.098
430.62	18.610
430.98	18.896
431.33	19.453
431.68	18.472
432.04	18.726
432.39	19.338
432.74	17.919
433.10	19.023
433.45	18.280
433.80	18.572
434.16	18.393
434.51	18.871
434.86	19.396
435.22	18.901
435.57	18.902
435.92	18.862
436.28	17.710
436.63	18.996
436.98	19.119
437.34	18.814
437.69	18.664
438.04	18.860
438.39	18.448
438.75	18.276
439.10	18.619
439.45	19.963
439.81	18.899
440.16	18.527
440.51	19.284
440.86	20.363
441.22	19.344
441.57	19.205
441.92	19.780
442.27	19.457
442.63	20.021
442.98	20.046
443.33	19.254
443.68	18.886
444.03	19.275
444.39	19.134
444.74	19.955
445.09	19.822
445.44	18.860
445.79	19.804
446.15	18.062
446.50	17.970
446.85	19.075
447.20	18.040
447.55	20.145
447.91	19.177
448.26	19.579
448.61	19.344
448.96	19.449
449.31	18.671
449.66	18.990
450.02	18.597
450.37	18.969
450.72	19.301
451.07	18.861
451.42	19.039
451.77	18.686
452.12	18.780
452.47	19.060
452.83	19.376
453.18	18.659
453.53	18.774
453.88	18.822
454.23	18.254
454.58	19.207
454.93	18.943
455.28	17.905
455.63	20.397
455.98	18.942
456.34	18.774
456.69	18.742
457.04	19.597
457.39	18.104
457.74	18.622
458.09	18.011
458.44	18.198
458.79	18.599
459.14	19.222
459.49	19.821
459.84	19.233
460.19	18.689
460.54	18.399
460.89	18.011
461.24	19.068
461.59	19.240
461.94	18.113
462.29	18.396
462.64	18.007
462.99	19.499
463.34	18.567
463.69	18.468
464.04	19.249
464.39	18.375
464.74	18.282
465.09	19.027
465.44	19.100
465.79	18.764
466.14	18.871
466.49	18.976
466.84	18.917
467.19	17.960
467.54	18.455
467.89	18.509
468.24	18.613
468.59	18.921
468.94	17.905
469.29	18.426
469.64	18.660
469.99	19.622
470.34	17.338
470.68	18.494
471.03	18.330
471.38	18.188
471.73	17.787
472.08	17.910
472.43	18.523
472.78	17.341
473.13	18.299
473.48	18.306
473.83	18.618
474.17	19.689
474.52	18.251
474.87	18.182
475.22	18.487
475.57	18.690
475.92	19.089
476.27	17.986
476.61	18.576
476.96	17.066
477.31	18.334
477.66	17.640
478.01	18.417
478.36	18.246
478.70	18.380
479.05	19.560
479.40	17.965
479.75	17.987
480.10	18.484
480.45	18.400
480.79	18.882
481.14	18.443
481.49	17.685
481.84	18.485
482.19	18.849
482.53	18.801
482.88	19.045
483.23	17.994
483.58	18.160
483.92	17.764
484.27	17.821
484.62	18.333
484.97	17.662
485.31	18.136
485.66	19.694
486.01	20.644
486.36	20.598
486.70	20.288
487.05	19.723
487.40	18.692
487.75	18.394
488.09	17.460
488.44	17.847
488.79	17.445
489.13	17.628
489.48	17.572
489.83	17.489
490.17	17.393
490.52	17.691
490.87	17.446
491.22	17.765
491.56	17.030
491.91	17.447
492.26	17.258
492.60	17.898
492.95	17.511
493.30	17.489
493.64	17.976
493.99	17.633
494.34	17.524
494.68	17.524
495.03	16.983
495.37	17.713
495.72	17.113
496.07	17.707
496.41	17.877
496.76	18.056
497.11	17.513
497.45	17.757
497.80	17.255
498.14	17.139
498.49	17.776
498.84	17.365
499.18	17.871
499.53	17.361
499.87	17.169
500.22	17.013
500.56	17.902
500.91	17.570
501.26	17.350
501.60	17.216
501.95	18.195
502.29	17.385
502.64	17.326
502.98	17.218
503.33	16.811
503.67	17.301
504.02	17.400
504.36	18.060
504.71	16.869
505.06	17.011
505.40	16.904
505.75	17.680
506.09	17.131
506.44	17.556
506.78	17.806
507.13	17.580
507.47	16.449
507.82	16.667
508.16	17.010
508.51	17.576
508.85	16.797
509.19	16.764
509.54	18.016
509.88	16.613
510.23	16.837
510.57	17.157
510.92	15.778
511.26	17.130
511.61	17.162
511.95	16.438
512.30	16.463
512.64	16.861
512.98	16.283
513.33	16.732
513.67	16.487
514.02	16.991
514.36	17.600
514.70	16.725
515.05	16.627
515.39	16.234
515.74	17.006
516.08	17.035
516.42	17.256
516.77	17.320
517.11	17.092
517.46	16.816
517.80	17.044
518.14	16.350
518.49	16.647
518.83	16.343
519.17	15.888
519.52	16.933
519.86	16.687
520.20	16.039
520.55	16.323
520.89	16.123
521.23	15.706
521.58	16.909
521.92	16.859
522.26	16.526
522.61	16.104
522.95	16.556
523.29	16.074
523.64	16.137
523.98	16.526
524.32	15.657
524.66	16.005
525.01	16.364
525.35	16.332
525.69	16.229
526.04	15.278
526.38	16.148
526.72	15.370
527.06	16.148
527.41	15.765
527.75	15.214
528.09	15.349
528.43	17.286
528.78	14.983
529.12	17.677
529.46	15.660
529.80	16.149
530.15	16.436
530.49	15.421
530.83	15.937
531.17	16.118
531.51	16.553
531.86	15.704
532.20	15.310
532.54	15.180
532.88	16.427
533.22	16.129
533.57	17.169
533.91	15.274
534.25	16.667
534.59	15.779
534.93	16.111
535.27	16.180
535.62	16.073
535.96	16.243
536.30	16.359
536.64	17.367
536.98	15.331
537.32	17.354
537.66	17.041
538.01	16.154
538.35	16.644
538.69	16.312
539.03	15.789
539.37	16.420
539.71	16.360
540.05	16.565
540.39	15.859
540.73	16.736
541.07	16.367
541.42	17.137
541.76	16.862
542.10	16.311
542.44	16.053
542.78	14.522
543.12	15.865
543.46	15.994
543.80	17.210
544.14	16.021
544.48	16.722
544.82	17.020
545.16	17.555
545.50	16.822
545.84	16.572
546.18	16.525
546.52	16.799
546.86	17.038
547.20	15.951
547.54	16.325
547.88	17.595
548.22	16.963
548.56	17.612
548.90	16.981
549.24	16.598
549.58	16.291
549.92	16.154
550.26	15.824
550.60	16.134
550.94	16.654
551.28	15.379
551.62	15.615
551.96	16.241
552.30	16.447
552.64	16.432
552.98	16.807
553.32	16.049
553.66	15.239
554.00	16.569
554.34	16.322
554.68	15.413
555.02	16.369
555.36	15.557
555.69	15.751
556.03	15.989
556.37	15.587
556.71	16.173
557.05	15.735
557.39	15.688
557.73	15.967
558.07	16.742
558.41	16.080
558.75	16.056
559.08	15.997
559.42	15.635
559.76	15.212
560.10	15.367
560.44	15.413
560.78	16.364
561.12	16.855
561.45	17.990
561.79	16.737
562.13	15.969
562.47	15.612
562.81	17.003
563.15	15.938
563.48	17.256
563.82	17.296
564.16	16.086
564.50	17.297
564.84	17.537
565.17	16.499
565.51	17.486
565.85	16.804
566.19	17.241
566.52	16.488
566.86	16.838
567.20	16.314
567.54	17.032
567.88	17.633
568.21	18.100
568.55	17.446
568.89	17.659
569.23	18.440
569.56	17.863
569.90	19.407
570.24	18.720
570.57	19.600
570.91	19.658
571.25	19.138
571.59	18.530
571.92	19.378
572.26	19.143
572.60	19.039
572.93	18.513
573.27	18.370
573.61	19.570
573.95	20.044
574.28	19.147
574.62	19.197
574.96	19.746
575.29	18.501
575.63	18.917
575.97	18.569
576.30	18.892
576.64	18.755
576.98	19.073
577.31	19.563
577.65	19.839
577.98	19.717
578.32	19.791
578.66	19.063
578.99	18.484
579.33	18.736
579.67	18.824
580.00	18.911
580.34	19.080
580.67	18.769
581.01	19.332
581.35	19.509
581.68	19.937
582.02	19.875
582.35	20.074
582.69	19.731
583.02	19.419
583.36	19.163
583.70	19.133
584.03	18.515
584.37	19.029
584.70	19.203
585.04	18.679
585.37	18.919
585.71	19.156
586.04	18.810
586.38	18.805
586.72	18.881
587.05	19.440
587.39	19.821
587.72	19.710
588.06	18.987
588.39	18.912
588.73	19.353
589.06	18.819
589.40	18.424
589.73	18.547
590.07	18.429
590.40	18.769
590.73	18.616
591.07	18.236
591.40	18.121
591.74	18.235
592.07	18.646
592.41	18.242
592.74	18.439
593.08	18.896
593.41	19.539
593.75	19.267
594.08	19.224
594.41	19.032
594.75	18.168
595.08	18.653
595.42	18.071
595.75	18.551
596.09	18.413
596.42	18.189
596.75	18.517
597.09	18.360
597.42	18.564
597.75	17.957
598.09	18.198
598.42	17.735
598.76	18.147
599.09	18.950
599.42	18.947
599.76	19.300
600.09	18.477
600.42	18.423
600.76	18.611
601.09	18.588
601.42	17.979
601.76	18.380
602.09	18.894
602.42	19.082
602.76	18.379
603.09	18.522
603.42	19.273
603.76	18.387
604.09	18.226
604.42	18.359
604.76	18.692
605.09	17.870
605.42	18.059
605.75	18.126
606.09	17.749
606.42	18.307
606.75	18.701
607.09	18.286
607.42	18.121
607.75	17.940
608.08	17.655
608.42	17.588
608.75	17.735
609.08	17.987
609.41	17.513
609.75	17.843
610.08	18.422
610.41	17.585
610.74	18.186
611.07	17.778
611.41	18.267
611.74	18.923
612.07	17.773
612.40	17.177
612.73	18.249
613.07	17.435
613.40	17.068
613.73	17.068
614.06	18.698
614.39	17.936
614.72	17.591
615.06	17.821
615.39	18.068
615.72	17.492
616.05	18.045
616.38	16.980
616.71	16.820
617.05	17.295
617.38	17.536
617.71	17.358
618.04	17.206
618.37	17.907
618.70	17.426
619.03	17.847
619.36	15.774
619.69	17.589
620.03	17.969
620.36	17.239
620.69	17.273
621.02	16.514
621.35	14.772
621.68	16.071
622.01	16.000
622.34	17.797
622.67	15.300
623.00	17.228
623.33	16.921
623.66	17.053
623.99	16.490
624.32	17.719
624.65	16.090
624.99	17.081
625.32	16.300
625.65	16.654
625.98	17.969
626.31	15.711
626.64	16.984
626.97	16.667
627.30	16.462
627.63	17.071
627.96	16.352
628.29	15.634
628.62	16.814
628.95	16.733
629.28	15.323
629.61	15.155
629.94	16.618
630.26	15.119
630.59	16.233
630.92	15.692
631.25	14.154
631.58	16.079
631.91	14.474
632.24	14.220
632.57	15.114
632.90	14.235
633.23	13.882
633.56	14.610
633.89	14.920
634.22	15.926
634.55	15.375
634.88	14.687
635.20	12.692
635.53	13.600
635.86	12.484
636.19	17.464
636.52	15.306
636.85	13.524
637.18	13.836
637.51	15.094
637.83	13.798
638.16	16.780
638.49	12.807
638.82	14.868
639.15	14.383
639.48	13.343
639.81	14.644
640.13	13.131
640.46	14.577
640.79	12.960
641.12	12.999
641.45	14.264
641.77	14.667
642.10	15.482
642.43	12.058
642.76	14.191
643.09	15.670
643.41	13.916
643.74	12.685
644.07	14.286
644.40	15.034
644.73	13.660
645.05	14.430
645.38	15.168
645.71	13.298
646.04	13.824
646.36	13.475
646.69	14.928
647.02	13.989
647.35	11.754
647.67	12.614
648.00	15.858
648.33	14.676
648.66	15.763
648.98	14.238
649.31	13.884
649.64	15.385
649.96	13.614
650.29	14.310
650.62	14.530
650.94	12.407
651.27	12.291
651.60	13.514
651.92	12.937
652.25	12.966
652.58	15.167
652.90	17.324
653.23	13.613
653.56	12.352
653.88	14.433
654.21	12.960
654.54	10.866
654.86	15.620
655.19	15.351
655.52	20.511
655.84	22.433
656.17	25.888
656.49	34.379
656.82	33.441
657.15	24.427
657.47	17.435
657.80	12.491
658.13	11.777
658.45	17.605
658.78	16.140
659.10	14.983
659.43	14.322
659.75	14.060
660.08	13.241
660.41	13.381
660.73	13.536
661.06	13.692
661.38	11.350
661.71	11.704
662.03	12.446
662.36	13.846
662.68	12.168
663.01	15.721
663.33	13.921
663.66	9.070
663.98	11.163
664.31	12.367
664.63	11.290
664.96	12.174
665.28	11.921
665.61	14.069
665.93	12.174
666.26	14.100
666.58	12.081
666.91	10.824
667.23	11.321
667.56	14.218
667.88	13.189
668.21	12.411
668.53	11.584
668.86	15.330
669.18	14.151
669.50	14.286
669.83	11.395
670.15	14.219
670.48	10.048
670.80	10.599
671.13	12.304
671.45	13.242
671.77	14.807
672.10	12.277
672.42	14.232
672.75	17.407
673.07	16.458
673.39	14.862
673.72	12.229
674.04	14.583
674.37	12.924
674.69	14.347
675.01	15.778
675.34	12.162
675.66	17.593
675.98	15.078
676.31	13.303
676.63	13.777
676.95	14.091
677.28	14.353
677.60	15.904
677.92	14.220
678.25	13.786
678.57	12.987
678.89	15.336
679.22	14.094
679.54	12.851
679.86	13.718
680.18	16.117
680.51	13.447
680.83	13.121
681.15	15.800
681.48	16.598
681.80	15.909
682.12	15.323
682.44	13.808
682.77	12.804
683.09	14.645
683.41	10.455
683.73	12.673
684.06	15.708
684.38	12.688
684.70	17.211
685.02	14.523
685.34	15.020
685.67	16.886
685.99	15.371
686.31	14.513
686.63	13.358
686.96	13.498
687.28	14.343
687.60	12.548
687.92	15.758
688.24	13.105
688.56	14.410
688.89	14.955
689.21	16.889
689.53	13.225
689.85	15.349
690.17	14.955
690.49	11.348
690.82	11.408
691.14	10.476
691.46	13.551
691.78	15.315
692.10	16.774
692.42	14.502
692.74	14.103
693.06	14.865
693.39	12.443
693.71	14.480
694.03	12.933
694.35	13.551
694.67	12.374
694.99	9.922
695.31	14.099
695.63	12.000
695.95	14.394
696.27	12.694
696.59	14.444
696.91	11.485
697.23	11.054
697.56	13.614
697.88	15.484
698.20	14.806
698.52	14.118
698.84	13.158
699.16	13.500
699.48	16.040
699.80	15.136
700.12	12.938
700.44	14.566
700.76	10.174
701.08	11.818
701.40	9.337
701.72	17.901
702.04	14.521
702.36	12.040
702.68	15.015
703.00	9.394
703.32	12.903
703.64	9.605
703.96	13.333
704.28	13.497
704.60	11.111
704.91	10.726
705.23	12.292
705.55	14.488
705.87	14.801
706.19	9.630
706.51	12.027
706.83	15.434
707.15	11.526
707.47	15.686
707.79	10.417
708.11	14.750
708.43	13.750
708.74	15.245
709.06	18.028
709.38	13.456
709.70	13.609
710.02	14.968
710.34	16.718
710.66	9.936
710.98	12.583
711.29	15.738
711.61	12.542
711.93	11.075
712.25	15.808
712.57	10.989
712.89	5.597
713.20	15.917
713.52	11.847
713.84	15.700
714.16	9.966
714.48	10.645
714.80	12.500
715.11	15.805
715.43	12.539
715.75	10.333
716.07	13.621
716.39	10.738
716.70	8.487
717.02	9.542
717.34	12.955
717.66	9.292
717.97	11.304
718.29	13.808
718.61	11.417
718.93	11.628
719.24	11.787
719.56	9.237
719.88	16.838
720.20	15.152
720.51	13.793
720.83	10.811
721.15	13.445
721.46	8.468
721.78	13.834
722.10	9.665
722.42	9.129
722.73	13.061
723.05	20.408
723.37	16.102
723.68	17.117
724.00	14.530
724.32	12.444
724.63	4.545
724.95	14.410
725.27	13.825
725.58	13.136
725.90	11.111
726.22	16.216
726.53	18.305
726.85	13.109
727.16	21.509
727.48	9.717
727.80	16.194
728.11	13.136
728.43	14.902
728.74	9.274
729.06	10.000
729.38	18.045
729.69	9.163
730.01	9.615
730.32	19.403
730.64	15.901
730.96	14.717
731.27	16.000
731.59	17.627
731.90	16.561
732.22	17.035
732.53	19.269
732.85	14.894
733.16	21.212
733.48	10.432
733.80	15.217
734.11	13.898
734.43	17.526
734.74	15.455
735.06	10.423
735.37	15.710
735.69	14.141
736.00	12.892
736.32	11.409
736.63	16.901
736.95	11.604
737.26	12.100
737.58	15.101
737.89	17.582
738.21	13.534
738.52	15.638
738.83	15.721
739.15	12.664
739.46	17.323
739.78	10.256
740.09	18.627
740.41	11.232
740.72	11.417
741.04	12.955
741.35	10.213
741.66	10.427
741.98	14.286
742.29	13.366
742.61	12.565
742.92	7.109
743.23	6.481
743.55	11.765
743.86	10.526
744.18	5.742
744.49	10.638
744.80	4.348
745.12	18.182
745.43	10.732
745.74	13.021
746.06	13.659
746.37	13.613
746.68	13.270
747.00	13.830
747.31	12.438
747.62	10.680
747.94	18.182
748.25	13.861
748.56	13.115
748.88	9.948
749.19	13.298
749.50	12.315
749.82	5.189
750.13	8.716
750.44	17.293
750.75	19.403
751.07	20.438
751.38	15.709
751.69	9.412
752.01	17.054
752.32	11.554
752.63	9.881
752.94	10.345
753.26	21.339
753.57	14.932
753.88	14.602
754.19	14.167
754.51	11.157
754.82	14.170
755.13	18.750
755.44	13.306
755.75	12.891
756.07	16.342
756.38	15.849
756.69	11.877
757.00	17.000
757.31	17.647
757.63	15.549
757.94	13.889
758.25	15.616
758.56	15.160
758.87	13.314
759.18	13.396
759.50	15.273
759.81	15.385
760.12	16.452
760.43	15.152
760.74	15.741
761.05	15.692
761.36	15.625
761.67	16.364
761.99	13.265
762.30	12.727
762.61	17.391
762.92	14.932
763.23	13.063
763.54	9.813
763.85	20.339
764.16	14.523
764.47	17.339
764.78	14.286
765.10	19.865
765.41	16.719
765.72	17.143
766.03	12.406
766.34	11.314
766.65	18.327
766.96	13.131
767.27	11.170
767.58	5.172
767.89	10.638
768.20	15.341
768.51	12.088
768.82	12.315
769.13	12.903
769.44	13.734
769.75	10.502
770.06	16.379
770.37	18.750
770.68	8.629
770.99	21.267
771.30	17.157
771.61	15.385
771.92	19.828
772.23	15.271
772.54	15.054
772.85	13.580
773.16	11.236
773.47	16.993
773.78	18.301
774.09	10.180
774.39	10.667
774.70	19.745
775.01	22.069
775.32	13.571
775.63	6.612
775.94	7.634
776.25	6.299
776.56	10.000
776.87	6.731
777.18	7.692
777.48	12.069
777.79	13.043
778.10	-1.905
778.41	10.811
778.72	14.286
779.03	15.789
779.34	20.567
779.65	10.274
779.95	24.658
780.26	8.966
780.57	-2.439
780.88	13.386
781.19	6.897
781.50	17.054
781.80	15.976
782.11	9.434
782.42	13.846
782.73	12.230
783.04	13.333
783.34	11.111
783.65	8.547
783.96	6.557
784.27	18.621
784.57	17.886
784.88	9.375
785.19	14.000
785.50	17.000
785.81	21.552
786.11	8.621
786.42	11.650
786.73	20.000
787.04	11.224
787.34	15.179
787.65	13.333
787.96	11.504
788.26	3.636
788.57	11.111
788.88	19.531
789.19	3.968
789.49	9.565
789.80	1.020
790.11	8.081
790.41	8.182
790.72	15.217
791.03	18.182
791.33	17.500
791.64	7.500
791.95	18.605
792.25	13.830
792.56	2.247
792.87	1.370
793.17	10.145
793.48	0.000
793.79	-10.000
794.09	12.500
794.40	21.698
794.70	16.505
795.01	11.382
795.32	13.675
795.62	7.619
795.93	9.804
796.23	16.981
796.54	20.833
796.85	0.000
797.15	0.000
797.46	16.667
797.76	0.000
798.07	17.442
798.37	13.158
798.68	-4.545
798.99	6.173
799.29	18.571
799.60	20.290
799.90	10.667
800.21	9.836
800.51	6.154
800.82	8.475
801.12	21.739
801.43	9.836
801.73	22.222
802.04	4.000
802.34	4.478
802.65	19.231
802.95	-7.143
803.26	1.923
803.56	17.647
803.87	-4.348
804.17	30.667
804.48	17.460
804.78	-14.815
805.09	-17.391
805.39	-20.000
805.70	-3.704
806.00	-3.509
806.30	12.676
806.61	17.143
806.91	8.333
807.22	18.421
807.52	26.667
807.83	-3.636
808.13	22.222
808.43	11.765
808.74	13.433
809.04	-5.085
809.35	3.846
809.65	9.375
809.95	-16.216
810.26	2.273
810.56	27.397
810.86	14.286
811.17	4.000
811.47	-6.122
811.77	-5.263
812.08	-6.818
812.38	0.000
812.69	-2.500
812.99	6.061
813.29	15.789
813.59	-8.571
813.90	0.000
814.20	-5.128
814.50	1.923
814.81	13.208
815.11	0.000
815.41	22.034
815.72	0.000
816.02	19.608
816.32	0.000
816.62	-2.439
816.93	-5.405
817.23	-14.286
817.53	20.833
817.84	4.348
818.14	21.154
818.44	-23.684
818.74	21.739
819.04	-15.000
819.35	18.919
819.65	-17.647
819.95	0.000
820.25	2.381
820.56	25.000
820.86	-68.966
821.16	27.500
821.46	12.766
821.76	22.500
822.07	18.605
822.37	-2.703
822.67	-25.000
822.97	38.095
823.27	-10.714
823.57	-44.000
823.88	-25.926
824.18	0.000
824.48	-14.706
824.78	9.677
825.08	4.348
825.38	6.061
825.69	-33.333
825.99	-31.579
826.29	8.333
826.59	0.000
826.89	0.000
827.19	6.522
827.49	-7.500
827.79	8.571
828.09	10.714
828.39	-9.091
828.70	48.649
829.00	-3.571
829.30	-52.381
829.60	-26.667
829.90	15.625
830.20	-5.263
830.50	-11.111
830.80	-39.130
831.10	0.000
831.40	27.273
831.70	29.032
832.00	19.048
832.30	-33.333
832.60	-41.667
832.90	-17.241
833.20	-50.000
833.50	-9.091
833.80	-48.148
834.10	19.231
834.40	6.250
834.70	-44.444
835.00	-15.789
835.30	3.846
835.60	53.333
835.90	6.452
836.20	9.091
836.50	0.000
836.80	-46.154
837.10	-3.571
837.40	-333.333
837.70	22.727
838.00	-136.364
838.30	21.739
838.60	0.000
838.90	-27.273
839.19	14.286
839.49	20.000
839.79	-69.231
840.09	-83.333
840.39	10.714
840.69	-25.000
840.99	-7.692
841.29	-57.895
841.59	-70.000
841.88	27.273
842.18	-50.000
842.48	-43.750
842.78	-46.667
843.08	14.815
843.38	-140.000
843.68	-8.696
843.97	-53.333
844.27	-40.000
844.57	10.000
844.87	-44.444
845.17	-33.333
845.47	33.333
845.76	19.048
846.06	-17.647
846.36	-20.000
846.66	-64.286
846.96	-20.000
847.25	-162.500
847.55	42.857
847.85	0.000
848.15	-45.455
848.44	-300.000
848.74	-10.000
849.04	0.000
849.34	27.273
849.63	-183.333
849.93	-160.000
850.23	-27.778
850.53	30.000
850.82	-15.385
851.12	-22.222
851.42	-6.667
851.71	-34.615
852.01	7.143
852.31	-300.000
852.61	-27.273
852.90	25.000
853.20	5.263
853.50	-83.333
853.79	4.348
854.09	8.333
854.39	21.053
854.68	-33.333
854.98	3.226
855.28	26.923
855.57	-15.000
855.87	44.444
856.17	33.333
856.46	7.143
856.76	-33.333
857.05	-33.333
857.35	36.000
857.65	-38.889
857.94	-15.385
858.24	6.897
858.53	16.667
858.83	3.704
859.13	-18.182
859.42	-21.739
859.72	-50.000
860.01	-433.333
860.31	16.000
860.60	-9.524
860.90	-566.667
861.20	-46.667
861.49	-400.000
861.79	-113.333
862.08	15.000
862.38	53.333
862.67	-220.000
862.97	100.000
863.26	-83.333
863.56	0.000
863.85	-666.667
864.15	-5.556
864.44	-120.000
864.74	42.857
865.03	350.000
865.33	40.000
865.62	-66.667
865.92	-75.000
866.21	-133.333
866.51	31.250
866.80	0.000
867.10	-350.000
867.39	75.000
867.69	0.000
867.98	46.154
868.27	-300.000
868.57	-113.333
868.86	0.000
869.16	7.692
869.45	20.000
869.75	-1600.000
870.04	0.000
870.33	-28.571
870.63	-19.048
870.92	500.000
871.22	-160.000
871.51	-700.000
871.80	77.778
872.10	133.333
>>>>>End Processed Spectral Data<<<<<
