SpectraSuite Data File
++++++++++++++++++++++++++++++++++++
Date: Fri May 15 20:11:47 PDT 2015
User: schluterlab
Dark Spectrum Present: Yes
Reference Spectrum Present: Yes
Number of Sampled Component Spectra: 1
Spectrometers: USB2E3373
Integration Time (usec): 3000 (USB2E3373)
Spectra Averaged: 3 (USB2E3373)
Boxcar Smoothing: 0 (USB2E3373)
Correct for Electrical Dark: No (USB2E3373)
Strobe/Lamp Enabled: No (USB2E3373)
Correct for Detector Non-linearity: No (USB2E3373)
Correct for Stray Light: No (USB2E3373)
Number of Pixels in Processed Spectrum: 2048
>>>>>Begin Processed Spectral Data<<<<<
178.53	0.000
178.91	0.000
179.29	112.500
179.67	-300.000
180.04	-57.143
180.42	175.000
180.80	-200.000
181.18	66.667
181.56	50.000
181.94	250.000
182.31	800.000
182.69	-40.000
183.07	-200.000
183.45	-60.000
183.83	-0.000
184.20	0.000
184.58	77.778
184.96	-125.000
185.34	-33.333
185.72	-300.000
186.09	76.923
186.47	-600.000
186.85	66.667
187.23	122.222
187.61	-400.000
187.98	-66.667
188.36	88.889
188.74	-100.000
189.12	23.529
189.49	16.667
189.87	0.000
190.25	85.714
190.63	300.000
191.00	200.000
191.38	-10.526
191.76	500.000
192.14	125.000
192.51	200.000
192.89	33.333
193.27	14.286
193.65	116.667
194.02	90.909
194.40	50.000
194.78	-12.500
195.15	0.000
195.53	0.000
195.91	275.000
196.29	-75.000
196.66	7.692
197.04	114.286
197.42	55.556
197.79	-200.000
198.17	-130.769
198.55	700.000
198.92	0.000
199.30	800.000
199.68	20.000
200.05	-466.667
200.43	0.000
200.81	-166.667
201.18	33.333
201.56	1300.000
201.94	-300.000
202.31	-33.333
202.69	0.000
203.07	175.000
203.44	0.000
203.82	0.000
204.19	50.000
204.57	-500.000
204.95	62.500
205.32	70.000
205.70	85.714
206.08	100.000
206.45	244.444
206.83	107.143
207.20	-157.143
207.58	400.000
207.96	33.333
208.33	-80.000
208.71	-75.000
209.08	-16.667
209.46	-1000.000
209.84	-100.000
210.21	-400.000
210.59	114.286
210.96	-50.000
211.34	100.000
211.71	73.333
212.09	157.143
212.46	-700.000
212.84	0.000
213.22	50.000
213.59	400.000
213.97	61.538
214.34	72.727
214.72	33.333
215.09	350.000
215.47	15.385
215.84	54.545
216.22	-266.667
216.59	112.500
216.97	200.000
217.34	-175.000
217.72	-360.000
218.09	100.000
218.47	25.000
218.84	100.000
219.22	44.444
219.59	80.000
219.97	266.667
220.34	225.000
220.72	-42.857
221.09	-50.000
221.47	0.000
221.84	-450.000
222.22	-650.000
222.59	0.000
222.97	58.333
223.34	66.667
223.72	7.143
224.09	23.810
224.46	21.429
224.84	400.000
225.21	-20.000
225.59	6.667
225.96	550.000
226.34	425.000
226.71	-42.857
227.08	-83.333
227.46	-112.500
227.83	200.000
228.21	55.556
228.58	0.000
228.95	37.500
229.33	40.000
229.70	6.250
230.08	-12.500
230.45	-57.143
230.82	200.000
231.20	6.667
231.57	28.571
231.95	14.286
232.32	-120.000
232.69	42.857
233.07	166.667
233.44	-80.000
233.81	-60.000
234.19	-55.556
234.56	0.000
234.93	150.000
235.31	-125.000
235.68	-180.000
236.05	-15.385
236.43	-30.000
236.80	0.000
237.17	46.875
237.55	-5.000
237.92	-22.222
238.29	25.000
238.67	40.000
239.04	5.882
239.41	17.073
239.79	-3.333
240.16	14.634
240.53	7.895
240.91	10.870
241.28	4.762
241.65	0.000
242.02	19.178
242.40	10.000
242.77	1.695
243.14	12.121
243.51	2.500
243.89	18.391
244.26	3.448
244.63	4.762
245.00	5.155
245.38	8.247
245.75	0.000
246.12	6.034
246.49	5.785
246.87	4.808
247.24	5.882
247.61	7.018
247.98	2.439
248.36	10.625
248.73	9.211
249.10	8.442
249.47	9.494
249.84	7.190
250.22	5.294
250.59	9.150
250.96	17.840
251.33	8.140
251.70	11.765
252.08	7.107
252.45	10.396
252.82	14.573
253.19	8.295
253.56	6.542
253.94	9.009
254.31	6.957
254.68	6.579
255.05	4.724
255.42	6.987
255.79	12.355
256.16	7.782
256.54	10.448
256.91	9.506
257.28	7.063
257.65	10.487
258.02	6.383
258.39	14.141
258.76	11.355
259.14	9.635
259.51	10.680
259.88	6.186
260.25	11.438
260.62	9.375
260.99	8.475
261.36	5.822
261.73	10.127
262.10	10.942
262.47	4.601
262.85	10.345
263.22	8.308
263.59	7.477
263.96	11.491
264.33	12.121
264.70	7.738
265.07	6.548
265.44	7.649
265.81	7.910
266.18	8.743
266.55	9.254
266.92	7.254
267.29	8.355
267.66	9.207
268.03	6.545
268.40	7.311
268.77	11.765
269.14	9.353
269.51	7.198
269.88	7.481
270.25	6.378
270.62	6.341
270.99	5.627
271.36	7.824
271.73	7.512
272.10	6.569
272.47	5.674
272.84	7.426
273.21	8.817
273.58	7.229
273.95	6.865
274.32	7.159
274.69	5.204
275.06	9.375
275.43	7.256
275.80	10.155
276.17	7.816
276.54	7.923
276.91	6.798
277.28	7.205
277.65	8.884
278.02	7.660
278.39	8.534
278.76	9.644
279.13	4.357
279.50	10.084
279.87	8.639
280.23	7.097
280.60	9.747
280.97	8.687
281.34	6.538
281.71	9.446
282.08	6.748
282.45	6.849
282.82	5.405
283.19	8.897
283.56	7.514
283.92	6.641
284.29	6.154
284.66	5.814
285.03	7.269
285.40	5.860
285.77	7.909
286.14	7.040
286.51	10.148
286.87	9.324
287.24	8.103
287.61	6.349
287.98	8.070
288.35	8.319
288.72	8.406
289.08	6.771
289.45	7.909
289.82	8.392
290.19	6.997
290.56	4.974
290.93	6.061
291.29	6.934
291.66	8.504
292.03	6.061
292.40	7.097
292.77	7.337
293.13	4.221
293.50	4.856
293.87	5.954
294.24	6.337
294.60	8.048
294.97	6.548
295.34	4.908
295.71	6.408
296.08	5.531
296.44	4.410
296.81	5.833
297.18	5.507
297.55	7.453
297.91	7.671
298.28	7.652
298.65	5.156
299.02	6.469
299.38	4.104
299.75	5.655
300.12	4.974
300.48	4.611
300.85	6.591
301.22	6.753
301.59	5.263
301.95	5.443
302.32	6.744
302.69	5.597
303.05	6.436
303.42	5.230
303.79	5.491
304.15	6.571
304.52	5.351
304.89	5.263
305.25	6.416
305.62	4.667
305.99	4.912
306.35	4.624
306.72	5.287
307.09	5.815
307.45	5.970
307.82	4.977
308.19	5.691
308.55	5.562
308.92	6.536
309.29	4.469
309.65	5.059
310.02	5.061
310.38	4.720
310.75	4.918
311.12	6.028
311.48	5.408
311.85	6.073
312.22	3.903
312.58	4.777
312.95	5.016
313.31	4.762
313.68	4.817
314.05	4.694
314.41	4.845
314.78	5.258
315.14	5.858
315.51	5.797
315.87	4.201
316.24	6.168
316.61	6.004
316.97	6.151
317.34	5.762
317.70	6.119
318.07	5.288
318.43	6.078
318.80	6.439
319.16	5.957
319.53	6.363
319.89	5.413
320.26	6.579
320.62	7.723
320.99	5.010
321.35	5.447
321.72	7.373
322.08	6.848
322.45	7.310
322.81	7.269
323.18	7.360
323.54	7.819
323.91	6.913
324.27	8.789
324.64	8.333
325.00	8.303
325.37	9.826
325.73	8.160
326.10	9.446
326.46	9.507
326.83	10.149
327.19	8.980
327.56	10.947
327.92	10.827
328.29	10.446
328.65	10.755
329.01	11.581
329.38	11.336
329.74	10.670
330.11	11.121
330.47	11.317
330.84	10.962
331.20	12.548
331.56	11.852
331.93	12.329
332.29	13.016
332.66	12.036
333.02	13.662
333.38	12.191
333.75	12.912
334.11	11.907
334.48	13.871
334.84	13.736
335.20	13.632
335.57	13.327
335.93	14.092
336.29	13.812
336.66	13.715
337.02	13.197
337.38	13.426
337.75	14.000
338.11	15.329
338.47	14.507
338.84	14.787
339.20	13.620
339.56	14.771
339.93	14.324
340.29	15.229
340.65	13.799
341.02	13.830
341.38	14.336
341.74	13.428
342.11	13.085
342.47	13.167
342.83	14.792
343.20	13.850
343.56	13.652
343.92	13.552
344.28	15.371
344.65	14.508
345.01	13.742
345.37	13.373
345.73	14.142
346.10	14.754
346.46	14.130
346.82	13.748
347.19	12.968
347.55	14.620
347.91	14.563
348.27	14.228
348.63	14.651
349.00	13.536
349.36	15.544
349.72	14.842
350.08	14.180
350.45	14.445
350.81	14.369
351.17	14.007
351.53	15.020
351.89	13.625
352.26	13.840
352.62	14.274
352.98	14.297
353.34	14.251
353.70	15.210
354.07	14.677
354.43	14.412
354.79	14.121
355.15	15.159
355.51	14.399
355.87	13.997
356.24	13.703
356.60	15.198
356.96	15.238
357.32	15.256
357.68	14.386
358.04	14.136
358.40	14.630
358.77	14.514
359.13	14.892
359.49	14.407
359.85	15.133
360.21	14.514
360.57	15.532
360.93	14.826
361.29	13.595
361.66	15.674
362.02	15.379
362.38	15.004
362.74	15.064
363.10	15.500
363.46	15.122
363.82	15.477
364.18	15.867
364.54	15.221
364.90	14.767
365.26	14.629
365.62	16.204
365.98	15.982
366.35	16.315
366.71	15.299
367.07	16.255
367.43	16.247
367.79	15.830
368.15	16.009
368.51	15.878
368.87	15.937
369.23	15.812
369.59	17.055
369.95	16.276
370.31	16.691
370.67	15.970
371.03	16.878
371.39	15.317
371.75	16.337
372.11	16.690
372.47	15.680
372.83	16.466
373.19	16.262
373.55	18.051
373.91	16.487
374.27	16.230
374.63	17.373
374.99	16.667
375.35	17.270
375.71	18.252
376.07	16.292
376.42	17.075
376.78	17.584
377.14	17.739
377.50	17.264
377.86	17.336
378.22	18.443
378.58	18.205
378.94	18.084
379.30	18.528
379.66	18.683
380.02	17.719
380.38	17.164
380.74	17.834
381.09	18.650
381.45	17.615
381.81	18.754
382.17	19.480
382.53	19.176
382.89	18.393
383.25	18.606
383.61	19.268
383.97	19.238
384.32	18.637
384.68	19.257
385.04	18.505
385.40	19.166
385.76	20.126
386.12	20.310
386.48	20.051
386.83	20.101
387.19	19.231
387.55	20.452
387.91	20.293
388.27	19.841
388.62	20.768
388.98	20.626
389.34	20.300
389.70	21.131
390.06	20.327
390.42	21.179
390.77	20.471
391.13	20.303
391.49	20.763
391.85	20.923
392.20	20.841
392.56	20.979
392.92	20.552
393.28	21.698
393.64	21.502
393.99	21.881
394.35	20.430
394.71	21.648
395.07	21.056
395.42	20.522
395.78	22.410
396.14	21.122
396.50	21.623
396.85	21.185
397.21	21.805
397.57	21.944
397.92	20.971
398.28	21.609
398.64	20.301
399.00	21.896
399.35	20.880
399.71	21.424
400.07	22.249
400.42	22.277
400.78	22.413
401.14	22.202
401.49	22.394
401.85	21.511
402.21	21.988
402.57	21.812
402.92	21.393
403.28	21.742
403.63	22.005
403.99	21.939
404.35	21.861
404.70	21.310
405.06	22.209
405.42	21.753
405.77	21.267
406.13	21.944
406.49	22.025
406.84	21.577
407.20	22.155
407.55	21.700
407.91	20.922
408.27	21.670
408.62	22.831
408.98	22.304
409.34	22.986
409.69	21.253
410.05	21.798
410.40	22.160
410.76	21.834
411.11	21.500
411.47	22.485
411.83	21.720
412.18	21.815
412.54	21.536
412.89	21.367
413.25	22.443
413.60	22.609
413.96	21.411
414.31	22.500
414.67	22.001
415.03	21.638
415.38	21.736
415.74	22.345
416.09	22.208
416.45	22.147
416.80	21.811
417.16	22.859
417.51	22.985
417.87	21.904
418.22	22.668
418.58	22.809
418.93	22.821
419.29	21.831
419.64	22.553
420.00	22.859
420.35	21.910
420.71	22.783
421.06	21.915
421.42	23.257
421.77	22.890
422.12	22.815
422.48	22.902
422.83	22.796
423.19	22.856
423.54	23.398
423.90	22.733
424.25	23.249
424.61	24.419
424.96	23.345
425.31	23.339
425.67	22.594
426.02	24.264
426.38	23.982
426.73	23.729
427.09	23.291
427.44	23.294
427.79	23.807
428.15	23.847
428.50	23.864
428.85	23.280
429.21	23.995
429.56	25.121
429.92	22.804
430.27	23.258
430.62	23.105
430.98	23.779
431.33	24.658
431.68	23.653
432.04	24.595
432.39	23.446
432.74	24.354
433.10	24.828
433.45	24.074
433.80	24.202
434.16	23.601
434.51	24.892
434.86	24.739
435.22	23.836
435.57	25.203
435.92	24.970
436.28	24.031
436.63	24.187
436.98	25.029
437.34	24.682
437.69	25.164
438.04	24.900
438.39	24.557
438.75	25.076
439.10	24.788
439.45	25.198
439.81	24.648
440.16	26.069
440.51	24.836
440.86	25.801
441.22	25.509
441.57	25.276
441.92	26.128
442.27	25.166
442.63	26.124
442.98	25.847
443.33	25.320
443.68	26.101
444.03	25.782
444.39	25.529
444.74	26.700
445.09	25.111
445.44	26.496
445.79	26.147
446.15	25.661
446.50	24.404
446.85	25.399
447.20	25.860
447.55	26.004
447.91	26.622
448.26	26.466
448.61	26.540
448.96	25.932
449.31	26.705
449.66	27.003
450.02	26.127
450.37	25.963
450.72	26.346
451.07	26.709
451.42	25.780
451.77	25.859
452.12	25.718
452.47	26.529
452.83	27.150
453.18	25.490
453.53	25.790
453.88	25.987
454.23	26.429
454.58	26.134
454.93	26.353
455.28	24.698
455.63	27.402
455.98	27.060
456.34	27.522
456.69	27.573
457.04	26.654
457.39	26.853
457.74	26.904
458.09	26.192
458.44	26.448
458.79	26.218
459.14	27.174
459.49	25.493
459.84	26.904
460.19	26.820
460.54	27.689
460.89	26.591
461.24	26.460
461.59	26.544
461.94	26.164
462.29	27.201
462.64	26.777
462.99	27.150
463.34	25.452
463.69	26.448
464.04	26.998
464.39	27.047
464.74	27.178
465.09	26.513
465.44	26.082
465.79	26.304
466.14	27.594
466.49	27.372
466.84	27.127
467.19	27.347
467.54	28.097
467.89	27.353
468.24	27.007
468.59	27.492
468.94	27.111
469.29	26.951
469.64	27.820
469.99	28.101
470.34	26.212
470.68	27.517
471.03	26.893
471.38	27.746
471.73	28.221
472.08	27.205
472.43	26.980
472.78	25.840
473.13	27.551
473.48	27.752
473.83	27.895
474.17	28.497
474.52	27.250
474.87	26.364
475.22	27.395
475.57	26.652
475.92	27.921
476.27	27.765
476.61	27.315
476.96	27.217
477.31	27.853
477.66	27.303
478.01	26.839
478.36	27.179
478.70	27.243
479.05	27.692
479.40	27.239
479.75	26.173
480.10	27.291
480.45	26.950
480.79	28.147
481.14	27.357
481.49	26.502
481.84	27.461
482.19	27.268
482.53	27.962
482.88	27.637
483.23	27.255
483.58	27.689
483.92	26.573
484.27	27.119
484.62	27.028
484.97	27.114
485.31	27.276
485.66	26.330
486.01	26.753
486.36	26.456
486.70	26.919
487.05	27.072
487.40	26.861
487.75	26.930
488.09	27.379
488.44	27.442
488.79	28.465
489.13	27.324
489.48	27.405
489.83	28.206
490.17	26.921
490.52	26.882
490.87	26.839
491.22	28.223
491.56	27.562
491.91	27.294
492.26	28.245
492.60	27.303
492.95	28.628
493.30	27.308
493.64	27.849
493.99	27.488
494.34	27.136
494.68	27.333
495.03	27.153
495.37	27.282
495.72	27.865
496.07	28.537
496.41	27.170
496.76	27.959
497.11	27.387
497.45	27.399
497.80	28.052
498.14	27.670
498.49	27.933
498.84	27.745
499.18	27.861
499.53	28.075
499.87	27.237
500.22	27.745
500.56	28.240
500.91	27.460
501.26	27.731
501.60	27.791
501.95	28.530
502.29	28.523
502.64	28.571
502.98	28.022
503.33	27.329
503.67	27.566
504.02	28.592
504.36	28.204
504.71	27.626
505.06	28.384
505.40	28.274
505.75	28.041
506.09	28.535
506.44	28.953
506.78	28.469
507.13	28.697
507.47	28.251
507.82	28.045
508.16	28.737
508.51	28.646
508.85	29.670
509.19	27.621
509.54	28.150
509.88	28.533
510.23	28.994
510.57	29.503
510.92	28.038
511.26	28.205
511.61	29.098
511.95	28.822
512.30	28.271
512.64	29.048
512.98	28.636
513.33	29.379
513.67	28.539
514.02	29.634
514.36	29.143
514.70	30.420
515.05	30.494
515.39	28.453
515.74	31.497
516.08	29.767
516.42	30.448
516.77	29.608
517.11	29.911
517.46	30.281
517.80	30.393
518.14	29.639
518.49	29.267
518.83	29.465
519.17	29.412
519.52	29.189
519.86	29.172
520.20	29.830
520.55	29.956
520.89	30.301
521.23	29.702
521.58	30.221
521.92	29.615
522.26	30.124
522.61	30.325
522.95	31.192
523.29	30.877
523.64	30.241
523.98	30.266
524.32	28.866
524.66	30.154
525.01	31.104
525.35	30.266
525.69	29.966
526.04	29.299
526.38	31.323
526.72	29.039
527.06	30.545
527.41	29.617
527.75	29.960
528.09	30.100
528.43	31.668
528.78	29.241
529.12	30.323
529.46	29.630
529.80	30.399
530.15	31.551
530.49	31.044
530.83	31.464
531.17	30.222
531.51	31.053
531.86	30.048
532.20	30.063
532.54	31.110
532.88	31.006
533.22	31.452
533.57	30.079
533.91	30.548
534.25	31.445
534.59	30.404
534.93	29.641
535.27	29.124
535.62	30.136
535.96	30.137
536.30	30.475
536.64	31.771
536.98	31.289
537.32	31.152
537.66	31.417
538.01	31.399
538.35	30.444
538.69	31.491
539.03	30.144
539.37	30.013
539.71	31.152
540.05	30.754
540.39	32.202
540.73	31.869
541.07	31.768
541.42	30.981
541.76	31.590
542.10	31.315
542.44	31.411
542.78	29.938
543.12	30.014
543.46	31.572
543.80	31.367
544.14	31.108
544.48	31.113
544.82	32.126
545.16	31.011
545.50	32.109
545.84	31.586
546.18	32.128
546.52	31.074
546.86	30.554
547.20	31.259
547.54	29.965
547.88	30.095
548.22	29.389
548.56	29.485
548.90	32.075
549.24	30.854
549.58	31.664
549.92	31.094
550.26	32.015
550.60	31.673
550.94	31.217
551.28	32.767
551.62	31.769
551.96	30.752
552.30	30.556
552.64	31.312
552.98	31.575
553.32	31.384
553.66	31.495
554.00	31.606
554.34	31.832
554.68	31.563
555.02	32.068
555.36	31.713
555.69	31.136
556.03	31.406
556.37	30.534
556.71	31.841
557.05	32.886
557.39	29.814
557.73	32.309
558.07	33.333
558.41	30.934
558.75	31.021
559.08	32.151
559.42	30.556
559.76	32.826
560.10	32.034
560.44	31.050
560.78	31.818
561.12	32.299
561.45	32.396
561.79	32.353
562.13	31.725
562.47	31.655
562.81	31.772
563.15	32.299
563.48	31.895
563.82	31.709
564.16	32.173
564.50	32.027
564.84	32.865
565.17	31.120
565.51	31.694
565.85	32.305
566.19	31.432
566.52	31.702
566.86	32.905
567.20	31.009
567.54	32.178
567.88	32.572
568.21	31.900
568.55	31.522
568.89	31.520
569.23	31.343
569.56	31.217
569.90	31.263
570.24	31.001
570.57	31.200
570.91	30.986
571.25	30.286
571.59	30.209
571.92	29.719
572.26	29.982
572.60	30.233
572.93	30.656
573.27	30.219
573.61	30.459
573.95	30.120
574.28	30.350
574.62	30.003
574.96	29.943
575.29	29.430
575.63	28.919
575.97	29.818
576.30	29.688
576.64	30.040
576.98	30.399
577.31	30.769
577.65	30.092
577.98	30.325
578.32	29.718
578.66	29.723
578.99	29.621
579.33	30.052
579.67	29.624
580.00	30.000
580.34	29.925
580.67	29.773
581.01	30.379
581.35	30.362
581.68	29.935
582.02	29.877
582.35	29.712
582.69	30.308
583.02	30.100
583.36	30.565
583.70	30.815
584.03	30.942
584.37	31.084
584.70	30.577
585.04	30.415
585.37	30.786
585.71	29.943
586.04	30.736
586.38	30.595
586.72	30.473
587.05	30.589
587.39	31.004
587.72	30.782
588.06	30.667
588.39	30.504
588.73	31.013
589.06	31.833
589.40	31.766
589.73	31.325
590.07	31.986
590.40	31.269
590.73	32.084
591.07	31.340
591.40	31.790
591.74	31.403
592.07	31.586
592.41	32.553
592.74	31.820
593.08	31.191
593.41	31.137
593.75	30.422
594.08	30.724
594.41	30.313
594.75	31.069
595.08	31.442
595.42	31.579
595.75	31.281
596.09	31.353
596.42	31.707
596.75	32.060
597.09	32.118
597.42	31.120
597.75	32.524
598.09	31.462
598.42	31.859
598.76	30.974
599.09	31.210
599.42	30.731
599.76	32.017
600.09	31.259
600.42	30.857
600.76	30.163
601.09	31.183
601.42	31.375
601.76	31.441
602.09	31.848
602.42	31.887
602.76	31.579
603.09	32.309
603.42	33.110
603.76	31.855
604.09	31.227
604.42	31.895
604.76	32.221
605.09	32.267
605.42	31.828
605.75	32.093
606.09	31.338
606.42	32.110
606.75	31.645
607.09	31.780
607.42	31.546
607.75	31.261
608.08	31.581
608.42	31.704
608.75	32.482
609.08	32.985
609.41	32.081
609.75	32.560
610.08	32.801
610.41	31.787
610.74	32.277
611.07	32.248
611.41	31.967
611.74	33.582
612.07	32.762
612.40	31.510
612.73	32.373
613.07	32.340
613.40	32.987
613.73	31.617
614.06	32.276
614.39	33.841
614.72	31.877
615.06	32.123
615.39	32.697
615.72	31.755
616.05	33.575
616.38	31.567
616.71	32.477
617.05	32.551
617.38	33.061
617.71	32.390
618.04	33.206
618.37	33.228
618.70	33.531
619.03	34.514
619.36	32.779
619.69	34.799
620.03	34.770
620.36	34.192
620.69	33.762
621.02	34.174
621.35	35.519
621.68	34.694
622.01	33.833
622.34	34.717
622.67	34.858
623.00	33.461
623.33	34.223
623.66	33.508
623.99	33.737
624.32	33.840
624.65	34.060
624.99	34.236
625.32	32.980
625.65	34.878
625.98	34.569
626.31	32.918
626.64	34.142
626.97	33.159
627.30	34.413
627.63	34.055
627.96	34.412
628.29	34.690
628.62	34.612
628.95	35.471
629.28	34.879
629.61	34.895
629.94	36.168
630.26	34.585
630.59	35.588
630.92	36.821
631.25	36.308
631.58	35.793
631.91	33.333
632.24	36.583
632.57	36.250
632.90	37.129
633.23	36.588
633.56	36.524
633.89	35.388
634.22	34.938
634.55	37.484
634.88	35.760
635.20	36.410
635.53	36.267
635.86	34.980
636.19	39.198
636.52	36.097
636.85	35.980
637.18	34.088
637.51	36.226
637.83	35.611
638.16	36.698
638.49	36.104
638.82	37.237
639.15	35.685
639.48	36.864
639.81	36.541
640.13	37.807
640.46	36.297
640.79	36.082
641.12	36.632
641.45	37.087
641.77	36.741
642.10	38.547
642.43	36.174
642.76	37.459
643.09	37.803
643.41	36.570
643.74	37.397
644.07	38.424
644.40	38.007
644.73	37.828
645.05	36.242
645.38	38.095
645.71	36.702
646.04	38.779
646.36	38.298
646.69	40.108
647.02	39.319
647.35	36.940
647.67	37.112
648.00	39.925
648.33	38.225
648.66	35.085
648.98	34.506
649.31	36.694
649.64	37.834
649.96	35.494
650.29	39.864
650.62	40.000
650.94	37.407
651.27	38.175
651.60	38.559
651.92	36.888
652.25	36.590
652.58	37.500
652.90	36.192
653.23	36.639
653.56	37.563
653.88	37.285
654.21	36.602
654.54	36.842
654.86	37.861
655.19	35.234
655.52	35.217
655.84	30.916
656.17	34.284
656.49	46.427
656.82	48.296
657.15	37.591
657.47	28.056
657.80	20.927
658.13	20.722
658.45	32.047
658.78	33.047
659.10	32.407
659.43	33.852
659.75	33.991
660.08	34.552
660.41	37.794
660.73	35.497
661.06	37.782
661.38	37.182
661.71	38.398
662.03	41.845
662.36	38.462
662.68	35.177
663.01	39.520
663.33	35.963
663.66	38.140
663.98	38.140
664.31	36.461
664.63	38.710
664.96	38.043
665.28	35.982
665.61	37.229
665.93	40.870
666.26	38.395
666.58	36.913
666.91	38.588
667.23	40.566
667.56	40.047
667.88	40.048
668.21	37.709
668.53	39.007
668.86	37.972
669.18	36.085
669.50	38.015
669.83	38.372
670.15	37.296
670.48	37.321
670.80	35.945
671.13	36.242
671.45	36.301
671.77	38.627
672.10	36.040
672.42	37.266
672.75	36.767
673.07	37.209
673.39	38.532
673.72	35.108
674.04	36.458
674.37	37.712
674.69	39.829
675.01	39.556
675.34	39.189
675.66	41.204
675.98	38.581
676.31	36.468
676.63	38.480
676.95	38.182
677.28	39.529
677.60	39.518
677.92	36.697
678.25	38.950
678.57	35.065
678.89	37.815
679.22	40.940
679.54	36.546
679.86	36.382
680.18	37.476
680.51	35.795
680.83	34.791
681.15	38.000
681.48	40.984
681.80	39.669
682.12	37.903
682.44	37.029
682.77	39.294
683.09	38.902
683.41	38.182
683.73	38.710
684.06	36.062
684.38	38.065
684.70	38.126
685.02	36.307
685.34	34.783
685.67	35.647
685.99	36.528
686.31	37.876
686.63	35.993
686.96	36.502
687.28	33.131
687.60	35.551
687.92	36.566
688.24	37.298
688.56	37.773
688.89	34.821
689.21	38.000
689.53	36.427
689.85	39.535
690.17	37.277
690.49	38.771
690.82	37.621
691.14	35.476
691.46	35.280
691.78	38.514
692.10	37.849
692.42	38.095
692.74	34.829
693.06	36.937
693.39	35.294
693.71	36.199
694.03	35.566
694.35	36.916
694.67	37.374
694.99	36.815
695.31	39.164
695.63	38.500
695.95	37.121
696.27	38.601
696.59	38.333
696.91	36.975
697.23	34.704
697.56	40.842
697.88	36.559
698.20	37.358
698.52	36.941
698.84	35.167
699.16	34.250
699.48	39.850
699.80	36.725
700.12	37.197
700.44	38.095
700.76	35.465
701.08	36.364
701.40	40.663
701.72	39.198
702.04	37.954
702.36	41.472
702.68	36.336
703.00	38.485
703.32	36.657
703.64	35.311
703.96	35.942
704.28	39.877
704.60	40.000
704.91	34.700
705.23	35.880
705.55	40.989
705.87	40.072
706.19	41.481
706.51	40.206
706.83	38.585
707.15	32.399
707.47	41.457
707.79	38.021
708.11	37.000
708.43	37.000
708.74	36.693
709.06	41.408
709.38	41.284
709.70	39.053
710.02	38.854
710.34	37.461
710.66	37.500
710.98	36.755
711.29	40.984
711.61	40.000
711.93	42.345
712.25	40.550
712.57	40.659
712.89	39.552
713.20	40.138
713.52	35.889
713.84	40.614
714.16	37.457
714.48	36.774
714.80	37.821
715.11	36.778
715.43	33.229
715.75	33.333
716.07	30.897
716.39	37.248
716.70	36.900
717.02	34.351
717.34	43.320
717.66	41.593
717.97	36.522
718.29	40.167
718.61	38.189
718.93	33.333
719.24	41.825
719.56	36.948
719.88	37.801
720.20	34.091
720.51	34.866
720.83	39.768
721.15	36.134
721.46	41.935
721.78	35.178
722.10	38.290
722.42	35.685
722.73	37.143
723.05	40.000
723.37	39.831
723.68	41.441
724.00	38.462
724.32	40.000
724.63	38.182
724.95	37.555
725.27	40.553
725.58	35.169
725.90	32.540
726.22	35.521
726.53	38.644
726.85	44.569
727.16	40.755
727.48	38.057
727.80	41.296
728.11	37.712
728.43	37.255
728.74	37.500
729.06	36.400
729.38	42.857
729.69	35.458
730.01	33.462
730.32	41.418
730.64	38.516
730.96	37.358
731.27	34.333
731.59	37.288
731.90	36.306
732.22	37.539
732.53	41.528
732.85	39.007
733.16	37.710
733.48	34.532
733.80	33.696
734.11	37.627
734.43	38.488
734.74	37.273
735.06	36.156
735.37	38.973
735.69	38.721
736.00	34.843
736.32	36.913
736.63	37.676
736.95	36.519
737.26	35.231
737.58	34.228
737.89	34.066
738.21	38.722
738.52	39.918
738.83	43.668
739.15	37.991
739.46	40.551
739.78	31.868
740.09	34.314
740.41	38.768
740.72	35.433
741.04	41.296
741.35	37.021
741.66	39.810
741.98	39.796
742.29	38.614
742.61	41.361
742.92	32.227
743.23	36.111
743.55	37.557
743.86	36.842
744.18	35.407
744.49	43.085
744.80	38.043
745.12	41.176
745.43	34.634
745.74	43.750
746.06	41.951
746.37	37.696
746.68	41.706
747.00	32.979
747.31	41.294
747.62	39.806
747.94	41.627
748.25	41.089
748.56	37.158
748.88	43.979
749.19	44.149
749.50	42.857
749.82	39.151
750.13	40.367
750.44	36.090
750.75	42.910
751.07	40.876
751.38	38.314
751.69	36.863
752.01	40.310
752.32	41.833
752.63	34.783
752.94	34.052
753.26	40.586
753.57	39.367
753.88	37.168
754.19	33.750
754.51	33.884
754.82	36.437
755.13	40.417
755.44	41.129
755.75	39.453
756.07	39.300
756.38	33.585
756.69	37.931
757.00	35.333
757.31	35.621
757.63	34.451
757.94	36.111
758.25	34.247
758.56	33.777
758.87	37.677
759.18	34.268
759.50	37.091
759.81	37.124
760.12	35.806
760.43	34.848
760.74	40.123
761.05	35.385
761.36	34.943
761.67	34.545
761.99	37.415
762.30	36.364
762.61	39.130
762.92	40.271
763.23	36.937
763.54	40.187
763.85	41.525
764.16	39.004
764.47	39.516
764.78	34.066
765.10	41.414
765.41	34.069
765.72	37.460
766.03	33.459
766.34	33.942
766.65	36.255
766.96	39.899
767.27	37.766
767.58	33.908
767.89	35.461
768.20	36.364
768.51	40.110
768.82	37.931
769.13	30.415
769.44	34.764
769.75	37.443
770.06	37.069
770.37	32.692
770.68	39.086
770.99	33.937
771.30	40.196
771.61	39.819
771.92	34.052
772.23	38.916
772.54	35.484
772.85	43.827
773.16	37.640
773.47	43.137
773.78	42.484
774.09	32.934
774.39	42.000
774.70	36.306
775.01	46.207
775.32	44.286
775.63	47.107
775.94	32.061
776.25	43.307
776.56	37.500
776.87	46.154
777.18	47.863
777.48	42.241
777.79	33.913
778.10	25.714
778.41	36.937
778.72	36.508
779.03	37.594
779.34	46.099
779.65	45.890
779.95	34.247
780.26	35.862
780.57	32.520
780.88	35.433
781.19	42.241
781.50	32.558
781.80	34.320
782.11	33.962
782.42	39.231
782.73	35.252
783.04	41.481
783.34	36.111
783.65	26.496
783.96	34.426
784.27	40.690
784.57	39.024
784.88	46.094
785.19	46.000
785.50	40.000
785.81	38.793
786.11	34.483
786.42	30.097
786.73	37.273
787.04	43.878
787.34	33.929
787.65	39.048
787.96	42.478
788.26	38.182
788.57	32.479
788.88	48.437
789.19	38.889
789.49	37.391
789.80	37.755
790.11	35.354
790.41	37.273
790.72	43.478
791.03	34.091
791.33	32.500
791.64	40.000
791.95	45.349
792.25	40.426
792.56	40.449
792.87	36.986
793.17	40.580
793.48	26.667
793.79	35.000
794.09	37.500
794.40	36.792
794.70	41.748
795.01	37.398
795.32	31.624
795.62	32.381
795.93	32.353
796.23	34.906
796.54	40.625
796.85	48.529
797.15	50.704
797.46	36.111
797.76	54.545
798.07	26.744
798.37	40.789
798.68	30.303
798.99	34.568
799.29	48.571
799.60	27.536
799.90	46.667
800.21	49.180
800.51	53.846
800.82	32.203
801.12	50.725
801.43	36.066
801.73	47.619
802.04	32.000
802.34	29.851
802.65	46.154
802.95	32.143
803.26	40.385
803.56	37.255
803.87	36.957
804.17	32.000
804.48	41.270
804.78	27.778
805.09	32.609
805.39	35.556
805.70	31.481
806.00	5.263
806.30	29.577
806.61	52.857
806.91	22.222
807.22	36.842
807.52	48.000
807.83	27.273
808.13	40.278
808.43	50.000
808.74	23.881
809.04	42.373
809.35	48.077
809.65	28.125
809.95	2.703
810.26	29.545
810.56	31.507
810.86	50.000
811.17	48.000
811.47	30.612
811.77	7.895
812.08	56.818
812.38	39.623
812.69	57.500
812.99	36.364
813.29	63.158
813.59	11.429
813.90	45.455
814.20	17.949
814.50	34.615
814.81	35.849
815.11	8.511
815.41	38.983
815.72	52.381
816.02	23.529
816.32	47.917
816.62	39.024
816.93	35.135
817.23	42.857
817.53	37.500
817.84	34.783
818.14	36.538
818.44	13.158
818.74	28.261
819.04	0.000
819.35	40.541
819.65	38.235
819.95	-5.556
820.25	47.619
820.56	35.000
820.86	-13.793
821.16	62.500
821.46	38.298
821.76	62.500
822.07	48.837
822.37	0.000
822.67	31.250
822.97	64.286
823.27	28.571
823.57	44.000
823.88	40.741
824.18	60.714
824.48	58.824
824.78	61.290
825.08	21.739
825.38	33.333
825.69	-16.667
825.99	42.105
826.29	-2.778
826.59	93.333
826.89	-28.571
827.19	36.957
827.49	50.000
827.79	54.286
828.09	64.286
828.39	66.667
828.70	78.378
829.00	10.714
829.30	61.905
829.60	23.333
829.90	37.500
830.20	31.579
830.50	40.741
830.80	39.130
831.10	22.727
831.40	54.545
831.70	45.161
832.00	80.952
832.30	14.286
832.60	16.667
832.90	51.724
833.20	25.000
833.50	36.364
833.80	3.704
834.10	-3.846
834.40	71.875
834.70	-44.444
835.00	42.105
835.30	80.769
835.60	73.333
835.90	48.387
836.20	50.000
836.50	39.286
836.80	-11.538
837.10	10.714
837.40	366.667
837.70	18.182
838.00	45.455
838.30	65.217
838.60	-7.692
838.90	68.182
839.19	32.143
839.49	36.667
839.79	76.923
840.09	-41.667
840.39	60.714
840.69	35.714
840.99	50.000
841.29	-5.263
841.59	-70.000
841.88	72.727
842.18	70.000
842.48	-25.000
842.78	73.333
843.08	33.333
843.38	-30.000
843.68	56.522
843.97	86.667
844.27	-53.333
844.57	45.000
844.87	44.444
845.17	0.000
845.47	66.667
845.76	0.000
846.06	58.824
846.36	30.000
846.66	21.429
846.96	46.667
847.25	-12.500
847.55	78.571
847.85	112.500
848.15	0.000
848.44	0.000
848.74	40.000
849.04	88.889
849.34	18.182
849.63	33.333
849.93	-80.000
850.23	-5.556
850.53	50.000
850.82	-84.615
851.12	44.444
851.42	66.667
851.71	0.000
852.01	50.000
852.31	75.000
852.61	-54.545
852.90	-20.000
853.20	57.895
853.50	16.667
853.79	34.783
854.09	33.333
854.39	0.000
854.68	45.833
854.98	35.484
855.28	80.769
855.57	0.000
855.87	77.778
856.17	59.259
856.46	57.143
856.76	6.667
857.05	144.444
857.35	28.000
857.65	105.556
857.94	61.538
858.24	89.655
858.53	16.667
858.83	37.037
859.13	31.818
859.42	8.696
859.72	50.000
860.01	-533.333
860.31	44.000
860.60	33.333
860.90	-300.000
861.20	-6.667
861.49	-150.000
861.79	20.000
862.08	5.000
862.38	113.333
862.67	-20.000
862.97	16.667
863.26	8.333
863.56	83.333
863.85	-300.000
864.15	61.111
864.44	10.000
864.74	64.286
865.03	25.000
865.33	40.000
865.62	-16.667
865.92	41.667
866.21	-66.667
866.51	62.500
866.80	27.273
867.10	0.000
867.39	133.333
867.69	0.000
867.98	38.462
868.27	166.667
868.57	-26.667
868.86	88.889
869.16	0.000
869.45	53.333
869.75	0.000
870.04	0.000
870.33	-57.143
870.63	52.381
870.92	166.667
871.22	-140.000
871.51	-600.000
871.80	122.222
872.10	100.000
>>>>>End Processed Spectral Data<<<<<
