SpectraSuite Data File
++++++++++++++++++++++++++++++++++++
Date: Fri May 15 20:00:24 PDT 2015
User: schluterlab
Dark Spectrum Present: Yes
Reference Spectrum Present: Yes
Number of Sampled Component Spectra: 1
Spectrometers: USB2E3373
Integration Time (usec): 3000 (USB2E3373)
Spectra Averaged: 3 (USB2E3373)
Boxcar Smoothing: 0 (USB2E3373)
Correct for Electrical Dark: No (USB2E3373)
Strobe/Lamp Enabled: No (USB2E3373)
Correct for Detector Non-linearity: No (USB2E3373)
Correct for Stray Light: No (USB2E3373)
Number of Pixels in Processed Spectrum: 2048
>>>>>Begin Processed Spectral Data<<<<<
178.53	0.000
178.91	0.000
179.29	250.000
179.67	-50.000
180.04	-0.000
180.42	250.000
180.80	0.000
181.18	-0.000
181.56	-100.000
181.94	0.000
182.31	-400.000
182.69	40.000
183.07	-33.333
183.45	-180.000
183.83	50.000
184.20	-72.727
184.58	144.444
184.96	-75.000
185.34	33.333
185.72	-400.000
186.09	23.077
186.47	-700.000
186.85	50.000
187.23	33.333
187.61	-600.000
187.98	100.000
188.36	0.000
188.74	100.000
189.12	29.412
189.49	33.333
189.87	0.000
190.25	57.143
190.63	450.000
191.00	-33.333
191.38	47.368
191.76	200.000
192.14	-75.000
192.51	250.000
192.89	33.333
193.27	-42.857
193.65	16.667
194.02	154.545
194.40	70.000
194.78	0.000
195.15	91.667
195.53	12.500
195.91	-75.000
196.29	25.000
196.66	107.692
197.04	28.571
197.42	-55.556
197.79	-400.000
198.17	-38.462
198.55	400.000
198.92	-233.333
199.30	0.000
199.68	0.000
200.05	-333.333
200.43	0.000
200.81	100.000
201.18	266.667
201.56	1100.000
201.94	200.000
202.31	-66.667
202.69	-80.000
203.07	125.000
203.44	900.000
203.82	0.000
204.19	71.429
204.57	-33.333
204.95	37.500
205.32	10.000
205.70	-14.286
206.08	0.000
206.45	244.444
206.83	85.714
207.20	71.429
207.58	1000.000
207.96	-33.333
208.33	-130.000
208.71	-75.000
209.08	-83.333
209.46	-800.000
209.84	20.000
210.21	100.000
210.59	185.714
210.96	16.667
211.34	75.000
211.71	60.000
212.09	-157.143
212.46	-1300.000
212.84	0.000
213.22	50.000
213.59	-300.000
213.97	30.769
214.34	72.727
214.72	66.667
215.09	425.000
215.47	0.000
215.84	-9.091
216.22	33.333
216.59	-12.500
216.97	-150.000
217.34	50.000
217.72	-160.000
218.09	50.000
218.47	175.000
218.84	-300.000
219.22	-11.111
219.59	-40.000
219.97	133.333
220.34	300.000
220.72	85.714
221.09	25.000
221.47	-300.000
221.84	-350.000
222.22	-200.000
222.59	81.818
222.97	91.667
223.34	-66.667
223.72	-21.429
224.09	42.857
224.46	53.571
224.84	-66.667
225.21	120.000
225.59	33.333
225.96	-350.000
226.34	50.000
226.71	-28.571
227.08	-16.667
227.46	37.500
227.83	-250.000
228.21	-11.111
228.58	81.818
228.95	100.000
229.33	120.000
229.70	12.500
230.08	-125.000
230.45	-28.571
230.82	42.857
231.20	40.000
231.57	-21.429
231.95	100.000
232.32	-40.000
232.69	50.000
233.07	33.333
233.44	-20.000
233.81	-110.000
234.19	100.000
234.56	-35.294
234.93	300.000
235.31	75.000
235.68	-260.000
236.05	-84.615
236.43	-40.000
236.80	17.647
237.17	46.875
237.55	-25.000
237.92	22.222
238.29	22.222
238.67	3.333
239.04	2.941
239.41	-24.390
239.79	6.667
240.16	12.195
240.53	-31.579
240.91	10.870
241.28	4.762
241.65	8.929
242.02	32.877
242.40	6.667
242.77	-1.695
243.14	-6.061
243.51	-2.500
243.89	13.793
244.26	0.000
244.63	13.095
245.00	6.186
245.38	-2.062
245.75	-4.494
246.12	-3.448
246.49	7.438
246.87	9.615
247.24	0.000
247.61	-8.772
247.98	1.626
248.36	1.250
248.73	3.947
249.10	1.948
249.47	5.063
249.84	1.307
250.22	11.176
250.59	0.654
250.96	11.268
251.33	-0.581
251.70	0.000
252.08	4.569
252.45	2.970
252.82	4.020
253.19	7.373
253.56	0.935
253.94	5.405
254.31	4.348
254.68	10.088
255.05	-1.181
255.42	5.240
255.79	3.089
256.16	7.004
256.54	5.224
256.91	6.844
257.28	6.320
257.65	3.371
258.02	2.837
258.39	6.734
258.76	2.930
259.14	5.648
259.51	7.120
259.88	-1.718
260.25	5.229
260.62	2.778
260.99	2.373
261.36	2.055
261.73	6.013
262.10	4.255
262.47	3.067
262.85	1.881
263.22	3.692
263.59	4.050
263.96	1.863
264.33	1.212
264.70	5.655
265.07	-1.786
265.44	3.683
265.81	4.237
266.18	4.645
266.55	4.113
266.92	4.922
267.29	4.700
267.66	4.348
268.03	2.356
268.40	1.305
268.77	5.615
269.14	3.118
269.51	7.198
269.88	4.489
270.25	1.020
270.62	2.683
270.99	-2.302
271.36	1.222
271.73	4.460
272.10	4.623
272.47	4.255
272.84	2.723
273.21	6.032
273.58	5.060
273.95	5.492
274.32	3.926
274.69	4.977
275.06	3.571
275.43	3.175
275.80	3.532
276.17	0.230
276.54	2.355
276.91	5.921
277.28	3.057
277.65	5.992
278.02	3.830
278.39	2.845
278.76	1.048
279.13	2.075
279.50	2.941
279.87	1.080
280.23	1.505
280.60	6.628
280.97	2.424
281.34	1.346
281.71	3.901
282.08	1.227
282.45	-0.391
282.82	2.896
283.19	3.482
283.56	2.890
283.92	0.759
284.29	0.962
284.66	2.132
285.03	1.375
285.40	3.592
285.77	1.757
286.14	4.874
286.51	3.875
286.87	3.108
287.24	2.762
287.61	2.116
287.98	2.807
288.35	3.466
288.72	4.028
289.08	2.431
289.45	2.988
289.82	3.147
290.19	1.706
290.56	2.573
290.93	1.515
291.29	3.082
291.66	1.732
292.03	1.754
292.40	1.613
292.77	1.435
293.13	2.597
293.50	2.276
293.87	2.748
294.24	2.164
294.60	2.683
294.97	4.613
295.34	1.994
295.71	2.385
296.08	3.438
296.44	1.565
296.81	0.833
297.18	2.464
297.55	4.065
297.91	1.233
298.28	3.958
298.65	2.714
299.02	1.617
299.38	-0.958
299.75	1.517
300.12	0.916
300.48	1.318
300.85	2.155
301.22	1.948
301.59	0.526
301.95	2.911
302.32	2.464
302.69	2.363
303.05	1.980
303.42	2.117
303.79	3.271
304.15	3.106
304.52	0.238
304.89	0.351
305.25	1.816
305.62	2.217
305.99	1.404
306.35	1.850
306.72	1.012
307.09	0.912
307.45	2.296
307.82	1.157
308.19	2.787
308.55	1.854
308.92	3.268
309.29	0.894
309.65	1.830
310.02	2.200
310.38	1.976
310.75	2.077
311.12	1.938
311.48	2.439
311.85	1.780
312.22	0.422
312.58	2.442
312.95	0.747
313.31	1.656
313.68	1.571
314.05	1.531
314.41	1.959
314.78	1.443
315.14	2.569
315.51	2.174
315.87	2.049
316.24	3.236
316.61	2.559
316.97	1.885
317.34	1.758
317.70	2.486
318.07	1.731
318.43	2.255
318.80	2.746
319.16	0.879
319.53	2.279
319.89	2.264
320.26	2.530
320.62	4.313
320.99	1.983
321.35	1.747
321.72	3.323
322.08	2.618
322.45	2.640
322.81	1.670
323.18	2.846
323.54	2.317
323.91	2.726
324.27	2.734
324.64	2.996
325.00	3.376
325.37	4.316
325.73	2.720
326.10	3.906
326.46	4.215
326.83	3.587
327.19	4.446
327.56	4.083
327.92	4.665
328.29	3.929
328.65	3.962
329.01	5.882
329.38	4.516
329.74	3.211
330.11	4.541
330.47	4.267
330.84	4.135
331.20	5.703
331.56	4.444
331.93	6.027
332.29	5.225
332.66	5.792
333.02	5.576
333.38	4.308
333.75	6.044
334.11	5.551
334.48	6.437
334.84	6.685
335.20	5.489
335.57	5.440
335.93	5.781
336.29	5.709
336.66	5.359
337.02	5.112
337.38	5.000
337.75	5.364
338.11	5.681
338.47	6.296
338.84	6.007
339.20	5.941
339.56	7.248
339.93	5.998
340.29	5.780
340.65	5.914
341.02	5.319
341.38	5.575
341.74	5.565
342.11	6.326
342.47	5.872
342.83	6.401
343.20	5.662
343.56	5.913
343.92	5.314
344.28	7.600
344.65	4.750
345.01	5.099
345.37	6.308
345.73	6.778
346.10	7.161
346.46	6.897
346.82	5.810
347.19	5.403
347.55	6.099
347.91	6.634
348.27	6.144
348.63	6.133
349.00	5.742
349.36	6.068
349.72	6.302
350.08	5.902
350.45	7.582
350.81	5.233
351.17	5.130
351.53	6.612
351.89	5.615
352.26	5.680
352.62	6.210
352.98	6.265
353.34	6.119
353.70	6.553
354.07	6.452
354.43	6.725
354.79	6.028
355.15	7.540
355.51	6.646
355.87	6.068
356.24	5.791
356.60	5.901
356.96	6.190
357.32	6.150
357.68	6.411
358.04	6.543
358.40	6.270
358.77	6.699
359.13	5.524
359.49	6.857
359.85	6.942
360.21	6.061
360.57	5.356
360.93	6.505
361.29	5.665
361.66	5.878
362.02	7.348
362.38	5.941
362.74	5.375
363.10	6.622
363.46	6.153
363.82	6.461
364.18	6.199
364.54	6.985
364.90	5.305
365.26	6.041
365.62	7.664
365.98	5.572
366.35	7.647
366.71	5.839
367.07	6.749
367.43	6.183
367.79	6.502
368.15	5.384
368.51	6.264
368.87	5.887
369.23	5.271
369.59	5.831
369.95	7.111
370.31	6.358
370.67	5.448
371.03	7.095
371.39	6.054
371.75	6.300
372.11	6.491
372.47	6.139
372.83	6.955
373.19	6.919
373.55	6.137
373.91	6.335
374.27	6.662
374.63	6.676
374.99	6.170
375.35	6.685
375.71	6.434
376.07	7.444
376.42	6.939
376.78	7.315
377.14	6.567
377.50	6.839
377.86	6.627
378.22	6.382
378.58	6.731
378.94	6.553
379.30	6.987
379.66	7.022
380.02	7.296
380.38	6.695
380.74	7.181
381.09	7.301
381.45	6.667
381.81	6.909
382.17	6.789
382.53	6.871
382.89	7.094
383.25	7.156
383.61	6.585
383.97	6.857
384.32	7.129
384.68	6.502
385.04	6.618
385.40	5.912
385.76	6.478
386.12	6.468
386.48	7.791
386.83	7.039
387.19	7.204
387.55	7.340
387.91	5.990
388.27	6.899
388.62	6.860
388.98	6.691
389.34	7.121
389.70	7.396
390.06	6.545
390.42	6.606
390.77	5.886
391.13	6.873
391.49	7.439
391.85	6.498
392.20	6.591
392.56	7.565
392.92	7.516
393.28	7.017
393.64	7.147
393.99	7.461
394.35	6.705
394.71	7.471
395.07	6.788
395.42	6.922
395.78	6.319
396.14	6.557
396.50	6.975
396.85	6.825
397.21	7.331
397.57	7.774
397.92	7.609
398.28	7.069
398.64	5.843
399.00	7.506
399.35	6.716
399.71	7.926
400.07	7.437
400.42	7.283
400.78	6.859
401.14	8.106
401.49	7.504
401.85	6.155
402.21	7.108
402.57	7.125
402.92	6.587
403.28	7.206
403.63	6.747
403.99	6.952
404.35	7.245
404.70	7.381
405.06	7.168
405.42	7.147
405.77	6.101
406.13	6.403
406.49	6.690
406.84	6.724
407.20	7.044
407.55	6.504
407.91	6.751
408.27	6.119
408.62	7.569
408.98	7.086
409.34	7.001
409.69	6.589
410.05	7.697
410.40	6.481
410.76	6.876
411.11	6.813
411.47	6.903
411.83	6.277
412.18	6.564
412.54	6.492
412.89	6.589
413.25	7.100
413.60	6.335
413.96	7.055
414.31	7.561
414.67	6.094
415.03	6.525
415.38	6.527
415.74	7.362
416.09	6.793
416.45	6.955
416.80	6.742
417.16	6.008
417.51	7.395
417.87	6.193
418.22	6.736
418.58	7.090
418.93	7.461
419.29	6.146
419.64	6.157
420.00	6.927
420.35	6.806
420.71	6.865
421.06	7.060
421.42	7.031
421.77	6.474
422.12	6.981
422.48	7.038
422.83	6.961
423.19	7.449
423.54	6.937
423.90	6.596
424.25	6.487
424.61	6.977
424.96	7.840
425.31	7.972
425.67	7.218
426.02	7.479
426.38	7.076
426.73	6.780
427.09	7.089
427.44	7.647
427.79	7.543
428.15	7.160
428.50	6.965
428.85	6.634
429.21	7.470
429.56	7.601
429.92	7.601
430.27	8.421
430.62	7.005
430.98	7.696
431.33	7.466
431.68	7.169
432.04	7.658
432.39	7.416
432.74	7.336
433.10	8.161
433.45	7.228
433.80	7.893
434.16	7.313
434.51	7.903
434.86	7.143
435.22	8.188
435.57	7.486
435.92	7.784
436.28	7.752
436.63	7.986
436.98	7.242
437.34	7.562
437.69	8.169
438.04	7.521
438.39	7.147
438.75	6.740
439.10	7.697
439.45	7.730
439.81	7.890
440.16	7.304
440.51	8.119
440.86	7.915
441.22	7.749
441.57	7.781
441.92	7.922
442.27	7.151
442.63	7.602
442.98	8.386
443.33	7.346
443.68	7.427
444.03	7.998
444.39	7.772
444.74	8.082
445.09	7.238
445.44	7.749
445.79	8.200
446.15	7.434
446.50	7.432
446.85	7.864
447.20	7.299
447.55	7.924
447.91	7.671
448.26	8.367
448.61	8.060
448.96	7.516
449.31	8.439
449.66	8.362
450.02	8.157
450.37	8.062
450.72	7.331
451.07	8.418
451.42	7.928
451.77	8.258
452.12	7.895
452.47	7.663
452.83	7.362
453.18	7.211
453.53	7.775
453.88	7.650
454.23	7.683
454.58	8.123
454.93	8.119
455.28	7.175
455.63	8.184
455.98	8.358
456.34	8.301
456.69	7.687
457.04	8.192
457.39	6.987
457.74	7.134
458.09	7.475
458.44	7.022
458.79	7.843
459.14	8.352
459.49	8.358
459.84	8.460
460.19	7.888
460.54	8.557
460.89	7.727
461.24	7.950
461.59	9.086
461.94	7.107
462.29	8.022
462.64	8.571
462.99	8.395
463.34	7.928
463.69	7.593
464.04	8.777
464.39	7.520
464.74	7.791
465.09	8.172
465.44	7.559
465.79	8.220
466.14	8.723
466.49	7.648
466.84	8.269
467.19	8.260
467.54	8.493
467.89	7.770
468.24	8.273
468.59	7.619
468.94	8.190
469.29	8.131
469.64	7.861
469.99	8.409
470.34	6.758
470.68	8.203
471.03	8.280
471.38	7.347
471.73	7.283
472.08	7.327
472.43	6.913
472.78	7.676
473.13	7.279
473.48	8.013
473.83	8.095
474.17	8.161
474.52	8.105
474.87	8.303
475.22	8.115
475.57	7.397
475.92	8.502
476.27	8.847
476.61	8.160
476.96	8.143
477.31	8.004
477.66	7.191
478.01	7.075
478.36	7.680
478.70	7.993
479.05	9.011
479.40	8.214
479.75	7.716
480.10	7.834
480.45	8.200
480.79	8.459
481.14	7.941
481.49	7.980
481.84	7.770
482.19	7.905
482.53	8.058
482.88	8.258
483.23	8.061
483.58	7.689
483.92	7.744
484.27	7.703
484.62	7.665
484.97	7.919
485.31	8.454
485.66	9.054
486.01	9.487
486.36	8.963
486.70	9.117
487.05	8.711
487.40	8.247
487.75	8.394
488.09	7.787
488.44	7.634
488.79	7.882
489.13	8.454
489.48	8.080
489.83	7.937
490.17	8.180
490.52	7.852
490.87	8.283
491.22	8.166
491.56	8.302
491.91	7.218
492.26	8.021
492.60	7.821
492.95	8.362
493.30	7.230
493.64	7.466
493.99	8.502
494.34	7.427
494.68	7.286
495.03	7.251
495.37	7.605
495.72	7.420
496.07	7.659
496.41	7.925
496.76	7.923
497.11	7.639
497.45	8.449
497.80	7.619
498.14	7.799
498.49	7.517
498.84	7.485
499.18	7.229
499.53	7.589
499.87	6.907
500.22	7.468
500.56	7.211
500.91	7.781
501.26	7.118
501.60	7.821
501.95	7.424
502.29	7.361
502.64	7.819
502.98	6.956
503.33	6.340
503.67	6.988
504.02	7.967
504.36	7.521
504.71	6.414
505.06	7.398
505.40	7.259
505.75	7.010
506.09	7.146
506.44	7.649
506.78	7.245
507.13	6.618
507.47	6.423
507.82	6.571
508.16	6.973
508.51	6.716
508.85	7.221
509.19	7.131
509.54	6.971
509.88	6.742
510.23	6.993
510.57	7.590
510.92	6.770
511.26	6.765
511.61	7.096
511.95	6.740
512.30	6.984
512.64	7.401
512.98	6.794
513.33	7.107
513.67	6.652
514.02	7.323
514.36	7.086
514.70	7.809
515.05	7.286
515.39	7.025
515.74	7.725
516.08	7.113
516.42	7.420
516.77	7.256
517.11	5.994
517.46	6.643
517.80	7.509
518.14	6.859
518.49	6.250
518.83	6.075
519.17	6.307
519.52	6.513
519.86	6.242
520.20	6.622
520.55	6.191
520.89	6.650
521.23	6.396
521.58	6.877
521.92	7.179
522.26	6.636
522.61	6.558
522.95	7.086
523.29	6.480
523.64	7.370
523.98	7.129
524.32	5.735
524.66	6.530
525.01	7.273
525.35	7.129
525.69	5.589
526.04	5.489
526.38	7.393
526.72	5.298
527.06	5.966
527.41	6.596
527.75	5.630
528.09	6.246
528.43	7.427
528.78	5.941
529.12	6.581
529.46	6.303
529.80	7.093
530.15	7.195
530.49	5.589
530.83	6.498
531.17	6.246
531.51	6.635
531.86	6.254
532.20	5.776
532.54	7.352
532.88	6.160
533.22	6.788
533.57	7.339
533.91	6.266
534.25	7.031
534.59	6.735
534.93	7.048
535.27	6.726
535.62	6.610
535.96	7.828
536.30	7.322
536.64	6.478
536.98	5.575
537.32	6.472
537.66	7.013
538.01	7.343
538.35	6.380
538.69	7.989
539.03	7.040
539.37	7.335
539.71	7.021
540.05	7.264
540.39	7.341
540.73	7.322
541.07	8.356
541.42	8.737
541.76	8.465
542.10	9.498
542.44	10.424
542.78	8.809
543.12	9.890
543.46	10.292
543.80	11.034
544.14	10.614
544.48	9.793
544.82	9.979
545.16	10.861
545.50	11.348
545.84	10.836
546.18	10.284
546.52	11.175
546.86	10.280
547.20	9.800
547.54	8.198
547.88	9.307
548.22	8.810
548.56	8.641
548.90	8.693
549.24	7.920
549.58	8.956
549.92	6.648
550.26	8.059
550.60	7.584
550.94	7.170
551.28	7.419
551.62	6.923
551.96	7.293
552.30	6.871
552.64	6.700
552.98	7.876
553.32	7.632
553.66	6.749
554.00	7.153
554.34	6.869
554.68	6.785
555.02	7.143
555.36	6.507
555.69	7.399
556.03	6.709
556.37	6.904
556.71	6.859
557.05	6.711
557.39	6.394
557.73	6.972
558.07	7.466
558.41	6.508
558.75	6.469
559.08	5.516
559.42	5.714
559.76	6.085
560.10	5.963
560.44	6.329
560.78	6.923
561.12	7.757
561.45	7.309
561.79	6.513
562.13	7.026
562.47	6.259
562.81	6.340
563.15	7.193
563.48	5.941
563.82	7.344
564.16	5.919
564.50	6.554
564.84	6.894
565.17	5.902
565.51	6.899
565.85	6.310
566.19	6.233
566.52	6.501
566.86	7.712
567.20	6.476
567.54	6.326
567.88	7.323
568.21	7.410
568.55	6.957
568.89	7.803
569.23	7.463
569.56	7.662
569.90	8.242
570.24	8.188
570.57	7.636
570.91	8.400
571.25	8.057
571.59	7.973
571.92	8.533
572.26	7.941
572.60	7.721
572.93	8.284
573.27	7.900
573.61	7.816
573.95	8.301
574.28	7.839
574.62	8.009
574.96	8.252
575.29	8.077
575.63	8.111
575.97	7.861
576.30	7.844
576.64	7.682
576.98	8.031
577.31	8.233
577.65	8.555
577.98	9.150
578.32	8.446
578.66	8.274
578.99	8.329
579.33	8.044
579.67	8.277
580.00	8.127
580.34	8.109
580.67	8.309
581.01	8.285
581.35	8.419
581.68	8.384
582.02	8.717
582.35	8.561
582.69	8.200
583.02	8.203
583.36	8.091
583.70	8.515
584.03	8.340
584.37	8.216
584.70	8.352
585.04	8.083
585.37	8.526
585.71	8.467
586.04	8.195
586.38	8.376
586.72	8.551
587.05	8.637
587.39	8.359
587.72	9.103
588.06	8.497
588.39	8.516
588.73	8.028
589.06	8.774
589.40	8.261
589.73	8.470
590.07	8.233
590.40	8.398
590.73	8.484
591.07	8.482
591.40	8.370
591.74	7.964
592.07	8.534
592.41	8.657
592.74	8.005
593.08	8.453
593.41	8.699
593.75	8.570
594.08	8.136
594.41	8.879
594.75	8.168
595.08	8.135
595.42	7.913
595.75	8.186
596.09	8.249
596.42	7.772
596.75	8.082
597.09	8.018
597.42	7.633
597.75	7.467
598.09	7.877
598.42	7.626
598.76	8.022
599.09	8.574
599.42	8.526
599.76	8.164
600.09	8.333
600.42	8.681
600.76	8.061
601.09	8.092
601.42	7.716
601.76	8.575
602.09	7.384
602.42	8.214
602.76	7.640
603.09	7.849
603.42	8.528
603.76	7.581
604.09	7.695
604.42	8.333
604.76	8.055
605.09	7.952
605.42	8.442
605.75	7.487
606.09	7.516
606.42	8.132
606.75	7.792
607.09	9.099
607.42	7.975
607.75	7.726
608.08	7.323
608.42	8.040
608.75	8.193
609.08	7.524
609.41	7.970
609.75	7.964
610.08	7.988
610.41	7.729
610.74	8.727
611.07	9.302
611.41	9.912
611.74	10.768
612.07	10.760
612.40	10.996
612.73	10.056
613.07	9.618
613.40	9.573
613.73	8.674
614.06	9.961
614.39	8.855
614.72	8.796
615.06	8.939
615.39	8.024
615.72	8.396
616.05	9.050
616.38	7.749
616.71	7.645
617.05	7.968
617.38	7.857
617.71	7.862
618.04	8.000
618.37	8.512
618.70	7.657
619.03	7.917
619.36	7.742
619.69	7.354
620.03	8.108
620.36	7.797
620.69	8.208
621.02	8.180
621.35	7.054
621.68	8.163
622.01	7.917
622.34	7.821
622.67	7.729
623.00	8.270
623.33	8.079
623.66	7.554
623.99	8.775
624.32	7.681
624.65	6.992
624.99	7.675
625.32	6.368
625.65	8.484
625.98	7.413
626.31	6.318
626.64	8.059
626.97	7.679
627.30	7.180
627.63	7.886
627.96	6.110
628.29	7.123
628.62	7.473
628.95	5.411
629.28	6.351
629.61	5.484
629.94	7.331
630.26	7.411
630.59	8.325
630.92	7.692
631.25	6.462
631.58	7.379
631.91	5.811
632.24	6.766
632.57	7.045
632.90	5.457
633.23	7.412
633.56	6.423
633.89	6.165
634.22	5.802
634.55	6.353
634.88	6.897
635.20	4.359
635.53	6.800
635.86	5.072
636.19	5.951
636.52	7.143
636.85	5.459
637.18	6.289
637.51	5.409
637.83	6.307
638.16	6.412
638.49	4.632
638.82	7.895
639.15	4.071
639.48	3.989
639.81	6.834
640.13	6.494
640.46	5.539
640.79	4.713
641.12	5.022
641.45	6.306
641.77	5.926
642.10	5.845
642.43	5.305
642.76	6.601
643.09	5.977
643.41	4.693
643.74	3.460
644.07	5.090
644.40	7.601
644.73	4.729
645.05	4.698
645.38	4.409
645.71	6.028
646.04	6.463
646.36	5.142
646.69	5.216
647.02	5.293
647.35	3.731
647.67	3.839
648.00	6.157
648.33	8.020
648.66	7.119
648.98	3.685
649.31	3.636
649.64	5.808
649.96	5.673
650.29	5.281
650.62	4.444
650.94	3.704
651.27	4.655
651.60	5.586
651.92	5.245
652.25	5.506
652.58	6.167
652.90	6.346
653.23	6.555
653.56	4.738
653.88	7.045
654.21	3.152
654.54	6.282
654.86	4.584
655.19	7.456
655.52	8.824
655.84	9.946
656.17	11.351
656.49	15.263
656.82	14.855
657.15	10.590
657.47	7.606
657.80	5.513
658.13	5.175
658.45	7.281
658.78	6.804
659.10	6.538
659.43	6.401
659.75	6.463
660.08	6.207
660.41	6.333
660.73	6.906
661.06	7.972
661.38	4.305
661.71	2.875
662.03	5.150
662.36	3.516
662.68	4.425
663.01	5.240
663.33	4.408
663.66	3.256
663.98	2.326
664.31	7.463
664.63	1.613
664.96	3.478
665.28	3.753
665.61	5.628
665.93	6.087
666.26	7.158
666.58	2.685
666.91	4.000
667.23	5.660
667.56	4.739
667.88	5.516
668.21	4.296
668.53	7.092
668.86	6.840
669.18	5.425
669.50	3.632
669.83	4.419
670.15	6.993
670.48	1.914
670.80	5.530
671.13	6.488
671.45	2.740
671.77	7.296
672.10	7.921
672.42	4.682
672.75	7.815
673.07	9.302
673.39	7.156
673.72	3.748
674.04	3.125
674.37	4.661
674.69	2.141
675.01	6.222
675.34	4.505
675.66	7.407
675.98	7.095
676.31	4.587
676.63	4.038
676.95	5.000
677.28	6.824
677.60	6.988
677.92	3.670
678.25	6.565
678.57	3.247
678.89	6.092
679.22	6.711
679.54	5.422
679.86	4.374
680.18	6.214
680.51	6.061
680.83	3.380
681.15	7.600
681.48	9.016
681.80	8.264
682.12	8.065
682.44	5.021
682.77	7.285
683.09	4.805
683.41	6.591
683.73	4.839
684.06	7.743
684.38	2.581
684.70	5.664
685.02	4.772
685.34	5.929
685.67	6.379
685.99	8.137
686.31	7.965
686.63	5.009
686.96	5.133
687.28	3.232
687.60	4.753
687.92	8.889
688.24	6.653
688.56	3.493
688.89	7.143
689.21	7.778
689.53	5.568
689.85	6.279
690.17	6.696
690.49	7.092
690.82	7.524
691.14	5.952
691.46	5.841
691.78	4.955
692.10	7.957
692.42	5.628
692.74	7.906
693.06	4.730
693.39	3.846
693.71	3.394
694.03	5.312
694.35	7.243
694.67	5.051
694.99	4.439
695.31	8.877
695.63	6.250
695.95	3.788
696.27	4.922
696.59	7.222
696.91	3.081
697.23	6.941
697.56	4.703
697.88	9.032
698.20	5.695
698.52	8.706
698.84	4.306
699.16	4.750
699.48	5.263
699.80	5.211
700.12	5.391
700.44	4.762
700.76	5.814
701.08	3.333
701.40	9.639
701.72	8.025
702.04	7.591
702.36	3.344
702.68	5.706
703.00	5.758
703.32	1.466
703.64	6.215
703.96	5.507
704.28	0.613
704.60	6.349
704.91	5.047
705.23	4.983
705.55	8.127
705.87	6.498
706.19	6.296
706.51	7.560
706.83	9.325
707.15	3.115
707.47	10.364
707.79	6.250
708.11	7.250
708.43	7.500
708.74	6.718
709.06	8.451
709.38	3.364
709.70	10.947
710.02	4.777
710.34	8.359
710.66	5.128
710.98	5.629
711.29	3.934
711.61	5.424
711.93	8.469
712.25	9.278
712.57	5.861
712.89	6.343
713.20	8.304
713.52	8.711
713.84	6.143
714.16	4.124
714.48	3.226
714.80	8.974
715.11	6.079
715.43	3.762
715.75	4.667
716.07	6.312
716.39	4.698
716.70	2.583
717.02	4.198
717.34	7.692
717.66	1.327
717.97	3.913
718.29	3.766
718.61	6.299
718.93	5.814
719.24	9.506
719.56	1.205
719.88	11.684
720.20	4.924
720.51	4.215
720.83	6.950
721.15	4.202
721.46	4.435
721.78	3.557
722.10	5.576
722.42	0.415
722.73	7.755
723.05	9.388
723.37	9.746
723.68	7.207
724.00	6.838
724.32	3.111
724.63	2.727
724.95	3.057
725.27	6.452
725.58	4.661
725.90	-1.190
726.22	6.564
726.53	13.220
726.85	8.614
727.16	7.547
727.48	-0.810
727.80	6.478
728.11	5.508
728.43	8.235
728.74	2.419
729.06	6.800
729.38	9.398
729.69	3.187
730.01	2.692
730.32	9.328
730.64	9.187
730.96	7.925
731.27	7.333
731.59	4.746
731.90	4.140
732.22	13.249
732.53	8.970
732.85	5.674
733.16	10.774
733.48	5.036
733.80	2.899
734.11	5.085
734.43	6.529
734.74	8.485
735.06	7.166
735.37	10.272
735.69	10.774
736.00	3.136
736.32	5.705
736.63	7.042
736.95	9.215
737.26	6.406
737.58	5.705
737.89	6.960
738.21	8.647
738.52	4.527
738.83	10.044
739.15	-0.437
739.46	9.449
739.78	6.593
740.09	7.516
740.41	9.058
740.72	1.575
741.04	10.121
741.35	2.128
741.66	5.687
741.98	6.633
742.29	5.941
742.61	2.094
742.92	2.370
743.23	3.704
743.55	9.050
743.86	4.306
744.18	7.177
744.49	4.255
744.80	5.978
745.12	6.952
745.43	4.878
745.74	3.646
746.06	4.878
746.37	2.618
746.68	8.531
747.00	5.319
747.31	8.955
747.62	3.883
747.94	9.091
748.25	9.406
748.56	2.186
748.88	2.094
749.19	8.511
749.50	7.882
749.82	1.887
750.13	2.294
750.44	8.647
750.75	5.597
751.07	9.854
751.38	7.280
751.69	5.882
752.01	10.465
752.32	6.773
752.63	3.162
752.94	0.431
753.26	12.971
753.57	3.167
753.88	5.310
754.19	2.500
754.51	2.893
754.82	1.619
755.13	12.917
755.44	9.677
755.75	5.469
756.07	6.615
756.38	5.660
756.69	2.299
757.00	5.000
757.31	8.170
757.63	5.793
757.94	6.667
758.25	5.205
758.56	6.649
758.87	3.966
759.18	9.969
759.50	5.455
759.81	5.686
760.12	7.742
760.43	6.970
760.74	6.790
761.05	8.615
761.36	6.818
761.67	10.909
761.99	9.864
762.30	7.273
762.61	11.067
762.92	7.240
763.23	4.054
763.54	2.336
763.85	9.746
764.16	4.979
764.47	6.452
764.78	8.791
765.10	11.111
765.41	6.309
765.72	12.063
766.03	6.767
766.34	5.839
766.65	9.163
766.96	4.040
767.27	6.915
767.58	0.000
767.89	1.418
768.20	6.250
768.51	2.747
768.82	6.404
769.13	3.687
769.44	6.438
769.75	0.457
770.06	6.034
770.37	9.135
770.68	5.076
770.99	9.955
771.30	6.863
771.61	8.597
771.92	5.603
772.23	6.404
772.54	10.215
772.85	9.877
773.16	3.933
773.47	9.804
773.78	10.458
774.09	4.192
774.39	2.667
774.70	9.554
775.01	16.552
775.32	10.714
775.63	5.785
775.94	0.000
776.25	6.299
776.56	8.333
776.87	6.731
777.18	2.564
777.48	-3.448
777.79	7.826
778.10	-0.952
778.41	-4.505
778.72	8.730
779.03	1.504
779.34	5.674
779.65	8.219
779.95	6.849
780.26	6.207
780.57	3.252
780.88	0.787
781.19	3.448
781.50	0.000
781.80	7.692
782.11	4.403
782.42	8.462
782.73	5.036
783.04	7.407
783.34	6.944
783.65	-6.838
783.96	4.098
784.27	17.241
784.57	3.252
784.88	12.500
785.19	2.000
785.50	16.000
785.81	6.034
786.11	10.345
786.42	0.000
786.73	7.273
787.04	-2.041
787.34	10.714
787.65	5.714
787.96	16.814
788.26	5.455
788.57	0.855
788.88	17.188
789.19	11.111
789.49	6.087
789.80	7.143
790.11	4.040
790.41	3.636
790.72	16.304
791.03	3.409
791.33	22.500
791.64	8.750
791.95	3.488
792.25	4.255
792.56	21.348
792.87	-2.740
793.17	5.797
793.48	-2.667
793.79	-6.250
794.09	20.000
794.40	3.774
794.70	0.000
795.01	8.130
795.32	8.547
795.62	16.190
795.93	4.902
796.23	10.377
796.54	15.625
796.85	16.176
797.15	2.817
797.46	12.500
797.76	16.667
798.07	6.977
798.37	6.579
798.68	0.000
798.99	24.691
799.29	0.000
799.60	-4.348
799.90	10.667
800.21	-1.639
800.51	-7.692
800.82	5.085
801.12	17.391
801.43	21.311
801.73	6.349
802.04	-12.000
802.34	-10.448
802.65	28.846
802.95	0.000
803.26	0.000
803.56	23.529
803.87	-15.217
804.17	28.000
804.48	19.048
804.78	-3.704
805.09	2.174
805.39	-11.111
805.70	12.963
806.00	-19.298
806.30	9.859
806.61	14.286
806.91	-4.167
807.22	1.316
807.52	12.000
807.83	7.273
808.13	8.333
808.43	10.294
808.74	2.985
809.04	8.475
809.35	0.000
809.65	20.313
809.95	-40.541
810.26	-2.273
810.56	4.110
810.86	7.143
811.17	16.000
811.47	24.490
811.77	18.421
812.08	2.273
812.38	11.321
812.69	5.000
812.99	15.152
813.29	0.000
813.59	-28.571
813.90	13.636
814.20	-12.821
814.50	-7.692
814.81	3.774
815.11	-8.511
815.41	23.729
815.72	23.810
816.02	41.176
816.32	16.667
816.62	7.317
816.93	-2.703
817.23	11.429
817.53	20.833
817.84	6.522
818.14	7.692
818.44	2.632
818.74	6.522
819.04	-22.500
819.35	21.622
819.65	5.882
819.95	-19.444
820.25	2.381
820.56	40.000
820.86	-10.345
821.16	22.500
821.46	0.000
821.76	17.500
822.07	2.326
822.37	-10.811
822.67	12.500
822.97	40.476
823.27	-28.571
823.57	-8.000
823.88	-48.148
824.18	21.429
824.48	-8.824
824.78	-3.226
825.08	-26.087
825.38	18.182
825.69	-25.000
825.99	7.895
826.29	5.556
826.59	-53.333
826.89	-47.619
827.19	36.957
827.49	17.500
827.79	11.429
828.09	46.429
828.39	12.121
828.70	43.243
829.00	10.714
829.30	-9.524
829.60	6.667
829.90	6.250
830.20	26.316
830.50	0.000
830.80	-4.348
831.10	31.818
831.40	3.030
831.70	9.677
832.00	9.524
832.30	-4.762
832.60	41.667
832.90	13.793
833.20	-70.000
833.50	6.061
833.80	14.815
834.10	34.615
834.40	21.875
834.70	-44.444
835.00	-26.316
835.30	61.538
835.60	86.667
835.90	3.226
836.20	9.091
836.50	14.286
836.80	-30.769
837.10	21.429
837.40	-133.333
837.70	-36.364
838.00	-36.364
838.30	34.783
838.60	38.462
838.90	-4.545
839.19	-7.143
839.49	3.333
839.79	-23.077
840.09	-116.667
840.39	14.286
840.69	28.571
840.99	15.385
841.29	0.000
841.59	60.000
841.88	72.727
842.18	20.000
842.48	0.000
842.78	-46.667
843.08	0.000
843.38	-90.000
843.68	13.043
843.97	53.333
844.27	-13.333
844.57	-5.000
844.87	-16.667
845.17	-19.048
845.47	26.667
845.76	14.286
846.06	5.882
846.36	-30.000
846.66	-64.286
846.96	-53.333
847.25	-125.000
847.55	114.286
847.85	50.000
848.15	9.091
848.44	-166.667
848.74	40.000
849.04	62.963
849.34	18.182
849.63	-150.000
849.93	-320.000
850.23	-11.111
850.53	30.000
850.82	-7.692
851.12	-33.333
851.42	-33.333
851.71	0.000
852.01	-57.143
852.31	-175.000
852.61	-54.545
852.90	35.000
853.20	42.105
853.50	-66.667
853.79	4.348
854.09	29.167
854.39	-10.526
854.68	16.667
854.98	38.710
855.28	38.462
855.57	-10.000
855.87	16.667
856.17	29.630
856.46	0.000
856.76	40.000
857.05	0.000
857.35	16.000
857.65	16.667
857.94	15.385
858.24	51.724
858.53	50.000
858.83	51.852
859.13	50.000
859.42	-17.391
859.72	-125.000
860.01	-833.333
860.31	44.000
860.60	42.857
860.90	100.000
861.20	13.333
861.49	-550.000
861.79	-13.333
862.08	-35.000
862.38	120.000
862.67	-280.000
862.97	0.000
863.26	-41.667
863.56	44.444
863.85	-466.667
864.15	61.111
864.44	-10.000
864.74	35.714
865.03	225.000
865.33	-120.000
865.62	-83.333
865.92	-108.333
866.21	-50.000
866.51	81.250
866.80	0.000
867.10	0.000
867.39	25.000
867.69	0.000
867.98	38.462
868.27	-400.000
868.57	66.667
868.86	50.000
869.16	-46.154
869.45	26.667
869.75	-700.000
870.04	0.000
870.33	-14.286
870.63	33.333
870.92	466.667
871.22	-60.000
871.51	-800.000
871.80	55.556
872.10	566.667
>>>>>End Processed Spectral Data<<<<<
