SpectraSuite Data File
++++++++++++++++++++++++++++++++++++
Date: Fri May 15 20:07:38 PDT 2015
User: schluterlab
Dark Spectrum Present: Yes
Reference Spectrum Present: Yes
Number of Sampled Component Spectra: 1
Spectrometers: USB2E3373
Integration Time (usec): 3000 (USB2E3373)
Spectra Averaged: 3 (USB2E3373)
Boxcar Smoothing: 0 (USB2E3373)
Correct for Electrical Dark: No (USB2E3373)
Strobe/Lamp Enabled: No (USB2E3373)
Correct for Detector Non-linearity: No (USB2E3373)
Correct for Stray Light: No (USB2E3373)
Number of Pixels in Processed Spectrum: 2048
>>>>>Begin Processed Spectral Data<<<<<
178.53	0.000
178.91	0.000
179.29	75.000
179.67	-450.000
180.04	-14.286
180.42	-175.000
180.80	400.000
181.18	-333.333
181.56	-100.000
181.94	100.000
182.31	100.000
182.69	20.000
183.07	-266.667
183.45	0.000
183.83	116.667
184.20	-63.636
184.58	22.222
184.96	-25.000
185.34	-266.667
185.72	350.000
186.09	-7.692
186.47	100.000
186.85	100.000
187.23	22.222
187.61	200.000
187.98	66.667
188.36	100.000
188.74	-200.000
189.12	17.647
189.49	44.444
189.87	0.000
190.25	78.571
190.63	450.000
191.00	-500.000
191.38	-5.263
191.76	400.000
192.14	100.000
192.51	350.000
192.89	22.222
193.27	0.000
193.65	50.000
194.02	118.182
194.40	90.000
194.78	-137.500
195.15	33.333
195.53	-125.000
195.91	225.000
196.29	125.000
196.66	107.692
197.04	171.429
197.42	11.111
197.79	-333.333
198.17	-84.615
198.55	1600.000
198.92	-266.667
199.30	-200.000
199.68	-120.000
200.05	0.000
200.43	0.000
200.81	0.000
201.18	-400.000
201.56	1400.000
201.94	-100.000
202.31	66.667
202.69	-320.000
203.07	100.000
203.44	600.000
203.82	0.000
204.19	-28.571
204.57	-233.333
204.95	137.500
205.32	30.000
205.70	157.143
206.08	25.000
206.45	211.111
206.83	71.429
207.20	-14.286
207.58	900.000
207.96	100.000
208.33	-60.000
208.71	-175.000
209.08	-216.667
209.46	-100.000
209.84	-20.000
210.21	-1100.000
210.59	0.000
210.96	-116.667
211.34	50.000
211.71	33.333
212.09	-157.143
212.46	-2000.000
212.84	0.000
213.22	90.000
213.59	-0.000
213.97	38.462
214.34	-36.364
214.72	-133.333
215.09	275.000
215.47	7.692
215.84	-9.091
216.22	-133.333
216.59	37.500
216.97	100.000
217.34	-225.000
217.72	-220.000
218.09	50.000
218.47	62.500
218.84	-1000.000
219.22	-66.667
219.59	-20.000
219.97	100.000
220.34	225.000
220.72	114.286
221.09	-225.000
221.47	-100.000
221.84	-450.000
222.22	-450.000
222.59	27.273
222.97	66.667
223.34	-66.667
223.72	14.286
224.09	42.857
224.46	-10.714
224.84	500.000
225.21	-10.000
225.59	26.667
225.96	-200.000
226.34	350.000
226.71	-28.571
227.08	0.000
227.46	125.000
227.83	-550.000
228.21	55.556
228.58	-90.909
228.95	50.000
229.33	30.000
229.70	18.750
230.08	12.500
230.45	28.571
230.82	42.857
231.20	-40.000
231.57	7.143
231.95	-114.286
232.32	0.000
232.69	28.571
233.07	-66.667
233.44	-220.000
233.81	-70.000
234.19	11.111
234.56	64.706
234.93	800.000
235.31	150.000
235.68	-360.000
236.05	-53.846
236.43	-20.000
236.80	-70.588
237.17	34.375
237.55	-35.000
237.92	-25.926
238.29	5.556
238.67	-13.333
239.04	2.941
239.41	-4.878
239.79	-6.667
240.16	9.756
240.53	-7.895
240.91	-2.174
241.28	4.762
241.65	7.143
242.02	10.959
242.40	1.667
242.77	6.780
243.14	-3.030
243.51	1.250
243.89	19.540
244.26	4.598
244.63	14.286
245.00	13.402
245.38	7.216
245.75	-8.989
246.12	-0.862
246.49	4.959
246.87	5.769
247.24	-3.361
247.61	-0.877
247.98	-1.626
248.36	3.750
248.73	-3.289
249.10	5.195
249.47	3.165
249.84	4.575
250.22	-4.118
250.59	-4.575
250.96	8.451
251.33	-1.744
251.70	2.353
252.08	-1.015
252.45	7.426
252.82	-2.010
253.19	4.608
253.56	-2.336
253.94	6.757
254.31	3.913
254.68	-2.632
255.05	2.756
255.42	5.240
255.79	5.792
256.16	5.837
256.54	5.597
256.91	1.521
257.28	3.346
257.65	0.749
258.02	3.546
258.39	3.030
258.76	5.495
259.14	5.980
259.51	5.502
259.88	2.405
260.25	3.268
260.62	1.736
260.99	-1.695
261.36	-0.342
261.73	2.848
262.10	3.951
262.47	4.294
262.85	4.075
263.22	6.154
263.59	6.854
263.96	5.280
264.33	3.333
264.70	3.571
265.07	0.298
265.44	5.382
265.81	2.542
266.18	3.552
266.55	6.684
266.92	4.145
267.29	5.483
267.66	1.790
268.03	2.356
268.40	3.916
268.77	6.417
269.14	4.796
269.51	4.884
269.88	3.242
270.25	2.041
270.62	-0.244
270.99	2.302
271.36	3.667
271.73	4.225
272.10	1.946
272.47	4.728
272.84	2.475
273.21	2.784
273.58	4.578
273.95	4.348
274.32	4.619
274.69	2.036
275.06	3.348
275.43	2.494
275.80	1.325
276.17	1.609
276.54	4.069
276.91	6.579
277.28	1.528
277.65	4.339
278.02	2.979
278.39	0.875
278.76	2.725
279.13	1.452
279.50	3.151
279.87	4.320
280.23	2.151
280.60	4.288
280.97	3.030
281.34	1.923
281.71	4.312
282.08	1.022
282.45	2.153
282.82	3.089
283.19	4.062
283.56	4.239
283.92	0.949
284.29	1.731
284.66	3.295
285.03	2.554
285.40	3.781
285.77	1.406
286.14	2.888
286.51	7.196
286.87	2.742
287.24	2.394
287.61	1.587
287.98	6.491
288.35	2.253
288.72	3.503
289.08	1.389
289.45	3.866
289.82	2.448
290.19	1.706
290.56	1.201
290.93	2.020
291.29	3.082
291.66	3.307
292.03	1.754
292.40	2.258
292.77	1.116
293.13	0.162
293.50	3.642
293.87	2.901
294.24	1.236
294.60	2.534
294.97	3.125
295.34	1.687
295.71	0.894
296.08	2.691
296.44	1.422
296.81	1.806
297.18	2.464
297.55	3.117
297.91	2.329
298.28	4.749
298.65	3.528
299.02	3.235
299.38	0.547
299.75	1.931
300.12	3.010
300.48	1.318
300.85	3.295
301.22	1.558
301.59	1.053
301.95	4.051
302.32	2.205
302.69	1.244
303.05	2.599
303.42	2.740
303.79	3.037
304.15	3.465
304.52	1.546
304.89	2.105
305.25	1.332
305.62	2.217
305.99	2.690
306.35	1.734
306.72	1.687
307.09	2.851
307.45	3.789
307.82	1.273
308.19	3.368
308.55	2.944
308.92	2.070
309.29	1.564
309.65	1.722
310.02	1.430
310.38	2.744
310.75	1.858
311.12	2.153
311.48	2.015
311.85	2.408
312.22	1.160
312.58	2.229
312.95	1.387
313.31	1.760
313.68	1.466
314.05	2.449
314.41	3.711
314.78	2.784
315.14	2.569
315.51	2.692
315.87	1.742
316.24	4.449
316.61	3.248
316.97	3.671
317.34	2.832
317.70	2.486
318.07	3.077
318.43	2.255
318.80	3.314
319.16	3.418
319.53	5.128
319.89	4.035
320.26	4.555
320.62	4.012
320.99	3.340
321.35	4.419
321.72	4.465
322.08	5.035
322.45	5.279
322.81	5.599
323.18	4.809
323.54	4.923
323.91	5.258
324.27	6.641
324.64	6.929
325.00	7.299
325.37	8.632
325.73	6.709
326.10	7.629
326.46	9.238
326.83	8.311
327.19	8.457
327.56	8.167
327.92	9.067
328.29	8.214
328.65	9.623
329.01	9.467
329.38	10.968
329.74	9.065
330.11	10.565
330.47	11.132
330.84	9.904
331.20	11.882
331.56	11.111
331.93	11.416
332.29	12.832
332.66	11.403
333.02	10.502
333.38	11.182
333.75	12.088
334.11	10.922
334.48	11.786
334.84	11.996
335.20	11.253
335.57	10.607
335.93	11.653
336.29	11.694
336.66	10.627
337.02	11.338
337.38	11.019
337.75	11.182
338.11	11.812
338.47	12.135
338.84	12.015
339.20	11.609
339.56	11.651
339.93	12.802
340.29	13.486
340.65	12.903
341.02	11.613
341.38	12.920
341.74	11.484
342.11	11.612
342.47	11.032
342.83	12.716
343.20	10.976
343.56	12.870
343.92	11.780
344.28	14.347
344.65	11.485
345.01	11.236
345.37	11.354
345.73	12.803
346.10	12.166
346.46	11.690
346.82	12.439
347.19	12.552
347.55	11.779
347.91	11.812
348.27	12.126
348.63	11.925
349.00	11.157
349.36	12.635
349.72	12.272
350.08	12.377
350.45	12.769
350.81	11.296
351.17	12.052
351.53	12.653
351.89	11.148
352.26	11.840
352.62	12.258
352.98	12.369
353.34	11.514
353.70	13.269
354.07	12.258
354.43	12.010
354.79	11.974
355.15	12.778
355.51	12.658
355.87	11.731
356.24	10.767
356.60	11.722
356.96	12.857
357.32	12.220
357.68	11.572
358.04	11.712
358.40	12.781
358.77	12.759
359.13	12.410
359.49	12.327
359.85	12.793
360.21	11.802
360.57	12.318
360.93	11.800
361.29	11.329
361.66	13.401
362.02	12.879
362.38	13.404
362.74	11.506
363.10	12.641
363.46	12.380
363.82	13.674
364.18	12.251
364.54	12.500
364.90	13.118
365.26	11.718
365.62	12.993
365.98	12.390
366.35	13.401
366.71	12.860
367.07	12.192
367.43	12.797
367.79	12.297
368.15	13.065
368.51	12.964
368.87	12.706
369.23	13.502
369.59	12.172
369.95	12.903
370.31	12.717
370.67	12.761
371.03	12.771
371.39	12.691
371.75	12.967
372.11	13.338
372.47	12.944
372.83	13.627
373.19	14.337
373.55	12.635
373.91	13.751
374.27	14.458
374.63	14.142
374.99	14.043
375.35	14.485
375.71	14.056
376.07	13.413
376.42	14.694
376.78	14.094
377.14	14.421
377.50	14.143
377.86	14.592
378.22	14.167
378.58	14.744
378.94	13.800
379.30	14.223
379.66	14.734
380.02	14.531
380.38	14.181
380.74	14.243
381.09	15.031
381.45	14.251
381.81	14.867
382.17	14.784
382.53	15.116
382.89	16.008
383.25	14.499
383.61	15.244
383.97	14.349
384.32	14.321
384.68	15.232
385.04	15.196
385.40	15.370
385.76	16.289
386.12	15.912
386.48	16.922
386.83	14.965
387.19	15.568
387.55	16.248
387.91	15.709
388.27	15.751
388.62	15.293
388.98	16.329
389.34	15.928
389.70	15.848
390.06	16.048
390.42	15.933
390.77	15.566
391.13	15.574
391.49	15.977
391.85	15.984
392.20	16.886
392.56	16.147
392.92	15.972
393.28	16.568
393.64	17.117
393.99	16.865
394.35	15.180
394.71	16.731
395.07	16.153
395.42	16.758
395.78	16.547
396.14	17.024
396.50	16.867
396.85	16.291
397.21	16.228
397.57	15.674
397.92	17.555
398.28	17.011
398.64	15.361
399.00	16.366
399.35	16.084
399.71	17.174
400.07	16.808
400.42	16.401
400.78	17.208
401.14	16.334
401.49	17.451
401.85	16.392
402.21	17.530
402.57	16.437
402.92	16.060
403.28	16.980
403.63	16.393
403.99	15.625
404.35	15.928
404.70	15.833
405.06	15.981
405.42	16.221
405.77	15.805
406.13	16.182
406.49	15.571
406.84	16.687
407.20	16.255
407.55	15.454
407.91	15.775
408.27	15.551
408.62	16.308
408.98	16.328
409.34	16.357
409.69	15.568
410.05	16.256
410.40	16.358
410.76	15.983
411.11	16.187
411.47	16.239
411.83	15.191
412.18	15.637
412.54	15.356
412.89	15.764
413.25	15.042
413.60	16.149
413.96	15.767
414.31	15.915
414.67	15.908
415.03	15.779
415.38	15.209
415.74	15.505
416.09	16.264
416.45	15.665
416.80	15.730
417.16	16.091
417.51	15.989
417.87	16.232
418.22	15.933
418.58	15.786
418.93	16.991
419.29	15.813
419.64	15.230
420.00	16.499
420.35	15.403
420.71	16.646
421.06	16.145
421.42	16.286
421.77	16.069
422.12	15.834
422.48	15.864
422.83	15.255
423.19	16.479
423.54	15.461
423.90	16.019
424.25	16.303
424.61	17.136
424.96	16.434
425.31	15.887
425.67	16.725
426.02	16.784
426.38	16.218
426.73	16.707
427.09	17.532
427.44	16.882
427.79	16.500
428.15	17.112
428.50	16.657
428.85	15.541
429.21	16.638
429.56	16.819
429.92	16.384
430.27	16.591
430.62	16.048
430.98	16.136
431.33	16.562
431.68	16.745
432.04	16.825
432.39	17.114
432.74	16.416
433.10	16.954
433.45	16.547
433.80	17.005
434.16	16.510
434.51	16.505
434.86	16.899
435.22	16.713
435.57	16.906
435.92	17.246
436.28	16.577
436.63	16.315
436.98	16.802
437.34	16.999
437.69	16.696
438.04	16.467
438.39	16.371
438.75	17.183
439.10	16.921
439.45	17.468
439.81	16.820
440.16	16.983
440.51	17.552
440.86	18.066
441.22	17.647
441.57	16.722
441.92	16.999
442.27	16.962
442.63	17.880
442.98	17.691
443.33	16.138
443.68	17.029
444.03	17.884
444.39	17.118
444.74	17.503
445.09	17.261
445.44	17.493
445.79	17.690
446.15	17.896
446.50	16.916
446.85	17.056
447.20	17.153
447.55	18.415
447.91	17.710
448.26	17.814
448.61	17.559
448.96	17.785
449.31	16.532
449.66	17.770
450.02	16.999
450.37	17.309
450.72	17.010
451.07	17.785
451.42	16.792
451.77	17.420
452.12	17.344
452.47	16.999
452.83	17.079
453.18	18.343
453.53	17.509
453.88	17.851
454.23	17.640
454.58	18.010
454.93	18.428
455.28	17.333
455.63	18.103
455.98	17.498
456.34	18.199
456.69	18.234
457.04	18.084
457.39	17.679
457.74	17.836
458.09	16.363
458.44	16.676
458.79	17.255
459.14	18.078
459.49	18.030
459.84	18.331
460.19	18.083
460.54	18.215
460.89	18.011
461.24	18.944
461.59	17.696
461.94	17.170
462.29	18.396
462.64	18.405
462.99	18.280
463.34	17.455
463.69	17.503
464.04	17.373
464.39	17.526
464.74	17.853
465.09	18.590
465.44	18.292
465.79	16.893
466.14	17.788
466.49	17.711
466.84	17.430
467.19	17.710
467.54	17.369
467.89	17.119
468.24	17.153
468.59	18.349
468.94	18.222
469.29	17.967
469.64	18.455
469.99	17.940
470.34	16.860
470.68	17.823
471.03	18.754
471.38	18.188
471.73	17.507
472.08	17.368
472.43	18.121
472.78	16.107
473.13	18.367
473.48	17.720
473.83	17.372
474.17	18.135
474.52	18.379
474.87	18.121
475.22	17.755
475.57	17.787
475.92	17.444
476.27	18.626
476.61	18.113
476.96	17.457
477.31	18.064
477.66	17.697
478.01	17.967
478.36	17.320
478.70	18.271
479.05	17.582
479.40	17.435
479.75	17.414
480.10	18.024
480.45	17.750
480.79	18.228
481.14	18.443
481.49	17.241
481.84	17.423
482.19	17.540
482.53	17.746
482.88	17.613
483.23	17.562
483.58	17.500
483.92	17.473
484.27	17.548
484.62	17.795
484.97	17.206
485.31	17.269
485.66	17.088
486.01	17.344
486.36	17.159
486.70	17.477
487.05	17.757
487.40	17.968
487.75	17.915
488.09	17.553
488.44	17.297
488.79	17.594
489.13	17.869
489.48	17.743
489.83	17.175
490.17	17.079
490.52	18.291
490.87	17.770
491.22	17.670
491.56	17.979
491.91	17.113
492.26	17.793
492.60	18.474
492.95	18.052
493.30	17.440
493.64	17.583
493.99	17.246
494.34	17.039
494.68	18.238
495.03	16.886
495.37	18.008
495.72	17.264
496.07	17.951
496.41	17.972
496.76	17.688
497.11	17.187
497.45	17.757
497.80	17.457
498.14	17.486
498.49	17.826
498.84	17.615
499.18	17.219
499.53	17.609
499.87	17.023
500.22	17.755
500.56	17.095
500.91	17.620
501.26	17.350
501.60	17.216
501.95	17.370
502.29	17.530
502.64	17.761
502.98	17.464
503.33	17.195
503.67	16.964
504.02	17.644
504.36	17.615
504.71	17.576
505.06	17.464
505.40	17.919
505.75	18.093
506.09	17.081
506.44	18.275
506.78	17.857
507.13	17.839
507.47	16.710
507.82	17.041
508.16	17.063
508.51	17.524
508.85	17.373
509.19	16.817
509.54	17.909
509.88	17.530
510.23	17.106
510.57	18.119
510.92	17.591
511.26	17.949
511.61	17.712
511.95	17.808
512.30	17.461
512.64	17.474
512.98	16.901
513.33	17.515
513.67	17.169
514.02	18.707
514.36	18.057
514.70	18.182
515.05	18.273
515.39	16.765
515.74	17.605
516.08	17.872
516.42	17.138
516.77	18.607
517.11	16.855
517.46	18.133
517.80	18.594
518.14	18.371
518.49	17.548
518.83	17.679
519.17	16.859
519.52	17.348
519.86	16.747
520.20	17.618
520.55	16.886
520.89	17.880
521.23	17.859
521.58	17.603
521.92	18.333
522.26	18.282
522.61	17.597
522.95	18.477
523.29	17.726
523.64	17.471
523.98	17.563
524.32	16.946
524.66	17.670
525.01	18.312
525.35	17.952
525.69	17.374
526.04	17.196
526.38	19.066
526.72	17.005
527.06	17.056
527.41	17.612
527.75	16.756
528.09	16.944
528.43	18.366
528.78	17.162
529.12	17.935
529.46	17.284
529.80	17.416
530.15	18.350
530.49	17.710
530.83	18.057
531.17	17.260
531.51	18.331
531.86	17.471
532.20	16.910
532.54	18.039
532.88	17.522
533.22	18.145
533.57	17.366
533.91	17.820
534.25	18.099
534.59	17.062
534.93	16.992
535.27	17.069
535.62	17.434
535.96	17.482
536.30	17.282
536.64	17.988
536.98	17.491
537.32	17.781
537.66	18.583
538.01	18.252
538.35	17.614
538.69	16.911
539.03	16.610
539.37	17.295
539.71	18.064
540.05	17.108
540.39	17.798
540.73	17.643
541.07	16.851
541.42	18.414
541.76	17.825
542.10	17.756
542.44	16.609
542.78	16.311
543.12	16.827
543.46	17.594
543.80	16.863
544.14	16.021
544.48	16.522
544.82	17.703
545.16	17.896
545.50	18.224
545.84	17.422
546.18	16.667
546.52	17.159
546.86	17.182
547.20	17.239
547.54	16.396
547.88	17.663
548.22	17.817
548.56	17.348
548.90	17.992
549.24	16.322
549.58	17.278
549.92	16.369
550.26	16.777
550.60	16.952
550.94	18.895
551.28	17.311
551.62	18.077
551.96	16.316
552.30	17.471
552.64	17.137
552.98	17.722
553.32	17.261
553.66	16.763
554.00	17.153
554.34	17.430
554.68	16.814
555.02	17.411
555.36	17.053
555.69	16.923
556.03	15.275
556.37	16.370
556.71	17.690
557.05	17.524
557.39	15.762
557.73	16.942
558.07	17.798
558.41	17.228
558.75	17.381
559.08	17.100
559.42	16.270
559.76	17.294
560.10	16.743
560.44	16.530
560.78	17.343
561.12	16.573
561.45	17.358
561.79	17.297
562.13	17.033
562.47	16.187
562.81	17.291
563.15	17.348
563.48	17.044
563.82	17.502
564.16	16.922
564.50	17.838
564.84	17.604
565.17	16.231
565.51	18.374
565.85	16.941
566.19	17.971
566.52	16.823
566.86	17.995
567.20	16.687
567.54	17.457
567.88	17.458
568.21	17.364
568.55	16.848
568.89	16.581
569.23	16.996
569.56	16.375
569.90	16.809
570.24	17.119
570.57	16.509
570.91	16.905
571.25	16.245
571.59	16.412
571.92	15.793
572.26	16.606
572.60	16.558
572.93	16.693
573.27	15.862
573.61	16.289
573.95	16.248
574.28	16.711
574.62	16.095
574.96	16.330
575.29	16.406
575.63	15.626
575.97	16.156
576.30	16.053
576.64	15.762
576.98	16.268
577.31	16.540
577.65	16.124
577.98	16.040
578.32	16.038
578.66	15.603
578.99	16.144
579.33	16.313
579.67	16.326
580.00	16.025
580.34	15.896
580.67	16.320
581.01	16.162
581.35	16.150
581.68	16.099
582.02	15.985
582.35	15.933
582.69	16.284
583.02	15.873
583.36	16.087
583.70	16.537
584.03	16.041
584.37	16.488
584.70	15.962
585.04	15.777
585.37	16.069
585.71	16.292
586.04	16.036
586.38	15.764
586.72	16.557
587.05	16.320
587.39	16.299
587.72	16.484
588.06	16.413
588.39	16.235
588.73	16.331
589.06	16.504
589.40	16.557
589.73	16.612
590.07	16.163
590.40	16.912
590.73	16.722
591.07	16.243
591.40	16.429
591.74	16.833
592.07	16.698
592.41	16.740
592.74	16.049
593.08	15.788
593.41	16.112
593.75	15.734
594.08	15.963
594.41	16.412
594.75	16.374
595.08	15.929
595.42	16.378
595.75	15.734
596.09	16.771
596.42	16.205
596.75	16.785
597.09	15.854
597.42	16.034
597.75	17.224
598.09	15.844
598.42	16.155
598.76	16.431
599.09	15.745
599.42	15.650
599.76	16.215
600.09	15.913
600.42	16.490
600.76	15.676
601.09	15.496
601.42	16.138
601.76	15.959
602.09	15.635
602.42	16.849
602.76	16.171
603.09	15.988
603.42	16.597
603.76	16.089
604.09	15.877
604.42	16.286
604.76	16.733
605.09	15.905
605.42	15.847
605.75	15.806
606.09	16.093
606.42	15.638
606.75	16.667
607.09	16.703
607.42	15.995
607.75	16.075
608.08	15.948
608.42	16.217
608.75	16.627
609.08	15.795
609.41	16.497
609.75	16.230
610.08	16.375
610.41	15.894
610.74	15.651
611.07	16.124
611.41	16.191
611.74	16.684
612.07	15.418
612.40	16.958
612.73	16.045
613.07	15.354
613.40	16.849
613.73	15.669
614.06	15.526
614.39	15.962
614.72	16.134
615.06	15.419
615.39	15.775
615.72	15.554
616.05	16.313
616.38	15.157
616.71	16.269
617.05	16.183
617.38	15.965
617.71	15.660
618.04	16.698
618.37	17.402
618.70	16.700
619.03	17.014
619.36	16.787
619.69	17.210
620.03	16.801
620.36	16.166
620.69	16.417
621.02	15.979
621.35	17.095
621.68	16.667
622.01	15.750
622.34	16.520
622.67	16.640
623.00	15.850
623.33	16.463
623.66	15.707
623.99	15.734
624.32	16.274
624.65	15.564
624.99	16.178
625.32	15.921
625.65	17.518
625.98	16.438
626.31	15.960
626.64	15.251
626.97	16.754
627.30	16.813
627.63	17.244
627.96	15.274
628.29	16.096
628.62	17.207
628.95	16.232
629.28	14.718
629.61	15.653
629.94	17.498
630.26	16.403
630.59	16.025
630.92	15.692
631.25	16.410
631.58	15.969
631.91	15.570
632.24	15.711
632.57	17.614
632.90	16.963
633.23	16.941
633.56	16.625
633.89	15.043
634.22	19.136
634.55	16.137
634.88	16.092
635.20	16.282
635.53	17.200
635.86	16.385
636.19	17.076
636.52	16.964
636.85	16.129
637.18	15.723
637.51	15.346
637.83	15.375
638.16	18.145
638.49	14.850
638.82	17.632
639.15	14.790
639.48	17.194
639.81	16.597
640.13	16.450
640.46	15.160
640.79	17.378
641.12	15.805
641.45	15.465
641.77	17.037
642.10	16.904
642.43	15.273
642.76	17.987
643.09	17.286
643.41	18.447
643.74	15.815
644.07	16.256
644.40	18.412
644.73	17.688
645.05	17.785
645.38	18.871
645.71	15.248
646.04	15.440
646.36	16.489
646.69	17.266
647.02	15.312
647.35	17.910
647.67	19.013
648.00	18.097
648.33	17.235
648.66	16.949
648.98	16.248
649.31	17.190
649.64	15.228
649.96	16.207
650.29	16.525
650.62	15.726
650.94	17.778
651.27	16.946
651.60	16.216
651.92	17.483
652.25	14.387
652.58	17.500
652.90	16.810
653.23	16.471
653.56	15.059
653.88	15.636
654.21	12.960
654.54	16.978
654.86	18.166
655.19	14.474
655.52	16.099
655.84	14.550
656.17	16.001
656.49	21.820
656.82	23.382
657.15	17.798
657.47	13.355
657.80	9.773
658.13	10.013
658.45	15.258
658.78	15.235
659.10	14.955
659.43	15.732
659.75	16.724
660.08	16.000
660.41	16.547
660.73	16.022
661.06	16.291
661.38	16.243
661.71	15.606
662.03	18.884
662.36	16.264
662.68	16.372
663.01	19.214
663.33	13.225
663.66	14.186
663.98	15.116
664.31	17.271
664.63	15.438
664.96	12.826
665.28	12.141
665.61	14.935
665.93	17.391
666.26	14.317
666.58	14.318
666.91	16.471
667.23	17.217
667.56	16.351
667.88	14.388
668.21	16.706
668.53	17.258
668.86	17.925
669.18	14.151
669.50	16.707
669.83	15.116
670.15	16.783
670.48	14.593
670.80	15.438
671.13	14.541
671.45	11.872
671.77	17.597
672.10	15.248
672.42	16.105
672.75	18.117
673.07	18.426
673.39	17.615
673.72	12.229
674.04	17.500
674.37	13.771
674.69	14.133
675.01	15.556
675.34	16.667
675.66	18.981
675.98	15.521
676.31	15.367
676.63	16.152
676.95	16.818
677.28	15.529
677.60	16.145
677.92	16.055
678.25	17.505
678.57	13.203
678.89	15.966
679.22	15.436
679.54	16.265
679.86	14.115
680.18	16.311
680.51	16.667
680.83	13.718
681.15	14.600
681.48	18.238
681.80	15.496
682.12	13.911
682.44	12.343
682.77	14.790
683.09	15.103
683.41	14.318
683.73	16.359
684.06	16.150
684.38	12.903
684.70	17.429
685.02	14.938
685.34	15.613
685.67	14.634
685.99	15.913
686.31	12.743
686.63	16.512
686.96	13.878
687.28	10.303
687.60	14.259
687.92	16.970
688.24	16.935
688.56	15.939
688.89	15.179
689.21	15.778
689.53	16.009
689.85	14.651
690.17	17.411
690.49	13.475
690.82	15.777
691.14	13.095
691.46	16.121
691.78	12.387
692.10	16.774
692.42	13.420
692.74	16.026
693.06	15.991
693.39	16.742
693.71	12.670
694.03	14.088
694.35	16.121
694.67	14.394
694.99	14.883
695.31	17.493
695.63	15.250
695.95	16.414
696.27	14.249
696.59	15.278
696.91	14.846
697.23	15.167
697.56	11.634
697.88	18.280
698.20	16.173
698.52	14.353
698.84	14.593
699.16	14.000
699.48	16.040
699.80	15.881
700.12	15.903
700.44	16.246
700.76	14.244
701.08	9.697
701.40	16.867
701.72	18.827
702.04	15.182
702.36	16.722
702.68	16.517
703.00	10.909
703.32	13.196
703.64	14.689
703.96	15.072
704.28	15.951
704.60	15.556
704.91	11.987
705.23	11.628
705.55	19.435
705.87	18.051
706.19	15.185
706.51	11.340
706.83	15.434
707.15	15.265
707.47	14.566
707.79	17.448
708.11	16.000
708.43	14.750
708.74	16.279
709.06	16.056
709.38	15.902
709.70	16.272
710.02	11.465
710.34	15.789
710.66	12.179
710.98	11.589
711.29	14.098
711.61	16.949
711.93	17.590
712.25	19.588
712.57	16.484
712.89	10.448
713.20	14.533
713.52	17.422
713.84	11.945
714.16	10.997
714.48	11.935
714.80	16.667
715.11	14.894
715.43	16.614
715.75	13.000
716.07	12.625
716.39	12.752
716.70	12.915
717.02	12.595
717.34	15.789
717.66	10.619
717.97	11.739
718.29	15.481
718.61	15.354
718.93	11.628
719.24	14.068
719.56	13.655
719.88	15.808
720.20	15.909
720.51	15.709
720.83	12.355
721.15	15.966
721.46	10.887
721.78	14.229
722.10	13.011
722.42	10.788
722.73	15.102
723.05	19.184
723.37	22.034
723.68	18.919
724.00	12.393
724.32	12.000
724.63	15.000
724.95	13.100
725.27	13.364
725.58	15.678
725.90	13.095
726.22	15.444
726.53	16.949
726.85	15.730
727.16	13.962
727.48	9.312
727.80	19.433
728.11	13.559
728.43	12.549
728.74	11.290
729.06	14.000
729.38	15.038
729.69	13.147
730.01	7.692
730.32	13.806
730.64	16.608
730.96	15.094
731.27	15.667
731.59	11.864
731.90	12.420
732.22	17.666
732.53	12.292
732.85	15.248
733.16	17.845
733.48	13.669
733.80	9.058
734.11	14.915
734.43	14.433
734.74	16.061
735.06	10.098
735.37	16.012
735.69	12.795
736.00	13.937
736.32	11.745
736.63	16.197
736.95	15.700
737.26	12.456
737.58	11.409
737.89	13.919
738.21	13.910
738.52	16.461
738.83	16.157
739.15	12.227
739.46	13.386
739.78	9.890
740.09	14.706
740.41	13.406
740.72	9.449
741.04	16.194
741.35	11.915
741.66	10.900
741.98	13.776
742.29	12.871
742.61	15.183
742.92	3.791
743.23	5.093
743.55	16.742
743.86	10.048
744.18	14.833
744.49	7.979
744.80	11.957
745.12	18.717
745.43	15.610
745.74	13.021
746.06	12.683
746.37	13.613
746.68	17.536
747.00	10.106
747.31	18.408
747.62	13.592
747.94	12.440
748.25	10.891
748.56	10.383
748.88	7.853
749.19	15.957
749.50	18.719
749.82	12.264
750.13	9.633
750.44	16.165
750.75	14.925
751.07	14.599
751.38	14.176
751.69	10.196
752.01	19.767
752.32	13.546
752.63	8.300
752.94	13.362
753.26	18.410
753.57	11.765
753.88	12.832
754.19	7.500
754.51	11.983
754.82	8.502
755.13	16.250
755.44	15.323
755.75	17.187
756.07	20.623
756.38	15.094
756.69	8.429
757.00	16.667
757.31	15.359
757.63	12.195
757.94	15.000
758.25	10.685
758.56	13.032
758.87	12.181
759.18	13.396
759.50	9.455
759.81	13.712
760.12	11.290
760.43	10.606
760.74	14.815
761.05	12.615
761.36	12.784
761.67	19.394
761.99	12.585
762.30	14.182
762.61	14.625
762.92	13.122
763.23	13.063
763.54	12.617
763.85	9.746
764.16	9.544
764.47	12.903
764.78	10.623
765.10	15.825
765.41	12.303
765.72	16.508
766.03	11.278
766.34	12.409
766.65	15.139
766.96	11.111
767.27	10.638
767.58	5.747
767.89	7.801
768.20	15.341
768.51	9.341
768.82	10.837
769.13	6.912
769.44	13.305
769.75	11.872
770.06	17.672
770.37	14.423
770.68	11.675
770.99	11.765
771.30	12.255
771.61	14.932
771.92	14.655
772.23	13.793
772.54	14.516
772.85	14.815
773.16	17.416
773.47	13.725
773.78	13.072
774.09	12.575
774.39	10.000
774.70	14.650
775.01	14.483
775.32	5.714
775.63	4.132
775.94	15.267
776.25	17.323
776.56	10.833
776.87	3.846
777.18	19.658
777.48	12.069
777.79	6.087
778.10	4.762
778.41	6.306
778.72	7.143
779.03	12.030
779.34	12.766
779.65	7.534
779.95	10.274
780.26	20.000
780.57	12.195
780.88	11.024
781.19	6.034
781.50	20.155
781.80	15.976
782.11	5.031
782.42	14.615
782.73	12.950
783.04	14.815
783.34	7.639
783.65	2.564
783.96	9.016
784.27	14.483
784.57	14.634
784.88	10.156
785.19	20.000
785.50	22.000
785.81	12.931
786.11	15.517
786.42	1.942
786.73	14.545
787.04	14.286
787.34	16.964
787.65	11.429
787.96	15.044
788.26	9.091
788.57	13.675
788.88	17.969
789.19	3.968
789.49	2.609
789.80	5.102
790.11	3.030
790.41	10.909
790.72	8.696
791.03	20.455
791.33	25.000
791.64	-1.250
791.95	16.279
792.25	9.574
792.56	14.607
792.87	5.479
793.17	-4.348
793.48	4.000
793.79	2.500
794.09	20.000
794.40	18.868
794.70	9.709
795.01	3.252
795.32	10.256
795.62	7.619
795.93	8.824
796.23	15.094
796.54	13.542
796.85	14.706
797.15	0.000
797.46	16.667
797.76	10.606
798.07	16.279
798.37	3.947
798.68	1.515
798.99	13.580
799.29	17.143
799.60	1.449
799.90	17.333
800.21	19.672
800.51	23.077
800.82	20.339
801.12	10.145
801.43	9.836
801.73	7.937
802.04	6.000
802.34	-2.985
802.65	1.923
802.95	1.786
803.26	1.923
803.56	17.647
803.87	4.348
804.17	18.667
804.48	20.635
804.78	1.852
805.09	-8.696
805.39	-24.444
805.70	7.407
806.00	-1.754
806.30	11.268
806.61	20.000
806.91	-13.889
807.22	15.789
807.52	12.000
807.83	-12.727
808.13	19.444
808.43	7.353
808.74	1.493
809.04	3.390
809.35	-11.538
809.65	17.188
809.95	-56.757
810.26	-18.182
810.56	5.479
810.86	28.571
811.17	6.000
811.47	10.204
811.77	-21.053
812.08	13.636
812.38	9.434
812.69	-10.000
812.99	-27.273
813.29	28.947
813.59	-34.286
813.90	11.364
814.20	-10.256
814.50	-3.846
814.81	7.547
815.11	2.128
815.41	20.339
815.72	14.286
816.02	7.843
816.32	14.583
816.62	19.512
816.93	-2.703
817.23	-14.286
817.53	16.667
817.84	17.391
818.14	19.231
818.44	-2.632
818.74	28.261
819.04	-7.500
819.35	5.405
819.65	-11.765
819.95	11.111
820.25	7.143
820.56	37.500
820.86	-44.828
821.16	60.000
821.46	12.766
821.76	15.000
822.07	-4.651
822.37	-40.541
822.67	-12.500
822.97	26.190
823.27	17.857
823.57	-52.000
823.88	-3.704
824.18	10.714
824.48	-5.882
824.78	0.000
825.08	-26.087
825.38	15.152
825.69	-45.833
825.99	7.895
826.29	0.000
826.59	0.000
826.89	0.000
827.19	13.043
827.49	-7.500
827.79	11.429
828.09	-14.286
828.39	45.455
828.70	29.730
829.00	10.714
829.30	-52.381
829.60	43.333
829.90	15.625
830.20	13.158
830.50	11.111
830.80	4.348
831.10	-40.909
831.40	12.121
831.70	12.903
832.00	-28.571
832.30	-28.571
832.60	-25.000
832.90	-13.793
833.20	-15.000
833.50	9.091
833.80	18.519
834.10	30.769
834.40	28.125
834.70	-55.556
835.00	-5.263
835.30	30.769
835.60	6.667
835.90	22.581
836.20	18.182
836.50	25.000
836.80	-30.769
837.10	32.143
837.40	-266.667
837.70	-9.091
838.00	-72.727
838.30	21.739
838.60	-76.923
838.90	22.727
839.19	-7.143
839.49	10.000
839.79	15.385
840.09	-58.333
840.39	14.286
840.69	35.714
840.99	7.692
841.29	-57.895
841.59	-70.000
841.88	-9.091
842.18	-30.000
842.48	18.750
842.78	0.000
843.08	11.111
843.38	-90.000
843.68	43.478
843.97	40.000
844.27	-86.667
844.57	-10.000
844.87	38.889
845.17	-14.286
845.47	20.000
845.76	4.762
846.06	-41.176
846.36	-70.000
846.66	0.000
846.96	13.333
847.25	-200.000
847.55	50.000
847.85	0.000
848.15	0.000
848.44	-666.667
848.74	25.000
849.04	48.148
849.34	9.091
849.63	33.333
849.93	-180.000
850.23	-16.667
850.53	-10.000
850.82	7.692
851.12	-11.111
851.42	40.000
851.71	7.692
852.01	-50.000
852.31	-300.000
852.61	9.091
852.90	-5.000
853.20	10.526
853.50	-8.333
853.79	34.783
854.09	54.167
854.39	42.105
854.68	-8.333
854.98	12.903
855.28	15.385
855.57	-35.000
855.87	16.667
856.17	48.148
856.46	0.000
856.76	-20.000
857.05	100.000
857.35	68.000
857.65	0.000
857.94	-69.231
858.24	31.034
858.53	72.222
858.83	40.741
859.13	45.455
859.42	-4.348
859.72	200.000
860.01	33.333
860.31	24.000
860.60	57.143
860.90	-100.000
861.20	-26.667
861.49	-800.000
861.79	-20.000
862.08	-10.000
862.38	53.333
862.67	-100.000
862.97	-16.667
863.26	-8.333
863.56	5.556
863.85	-266.667
864.15	61.111
864.44	10.000
864.74	50.000
865.03	50.000
865.33	-120.000
865.62	-133.333
865.92	-58.333
866.21	-266.667
866.51	-6.250
866.80	-45.455
867.10	-150.000
867.39	-41.667
867.69	0.000
867.98	-7.692
868.27	-366.667
868.57	-6.667
868.86	-11.111
869.16	-46.154
869.45	53.333
869.75	-1400.000
870.04	0.000
870.33	0.000
870.63	47.619
870.92	300.000
871.22	-20.000
871.51	-1000.000
871.80	55.556
872.10	466.667
>>>>>End Processed Spectral Data<<<<<
