SpectraSuite Data File
++++++++++++++++++++++++++++++++++++
Date: Fri May 15 20:10:01 PDT 2015
User: schluterlab
Dark Spectrum Present: Yes
Reference Spectrum Present: Yes
Number of Sampled Component Spectra: 1
Spectrometers: USB2E3373
Integration Time (usec): 3000 (USB2E3373)
Spectra Averaged: 3 (USB2E3373)
Boxcar Smoothing: 0 (USB2E3373)
Correct for Electrical Dark: No (USB2E3373)
Strobe/Lamp Enabled: No (USB2E3373)
Correct for Detector Non-linearity: No (USB2E3373)
Correct for Stray Light: No (USB2E3373)
Number of Pixels in Processed Spectrum: 2048
>>>>>Begin Processed Spectral Data<<<<<
178.53	0.000
178.91	0.000
179.29	25.000
179.67	-50.000
180.04	-85.714
180.42	300.000
180.80	800.000
181.18	266.667
181.56	100.000
181.94	200.000
182.31	-1100.000
182.69	280.000
183.07	-333.333
183.45	40.000
183.83	150.000
184.20	36.364
184.58	22.222
184.96	150.000
185.34	-66.667
185.72	350.000
186.09	23.077
186.47	-200.000
186.85	100.000
187.23	-33.333
187.61	-200.000
187.98	-266.667
188.36	-22.222
188.74	-166.667
189.12	35.294
189.49	22.222
189.87	0.000
190.25	107.143
190.63	50.000
191.00	0.000
191.38	42.105
191.76	50.000
192.14	75.000
192.51	0.000
192.89	-55.556
193.27	14.286
193.65	50.000
194.02	63.636
194.40	0.000
194.78	-37.500
195.15	0.000
195.53	-137.500
195.91	-75.000
196.29	175.000
196.66	69.231
197.04	-0.000
197.42	-44.444
197.79	-266.667
198.17	46.154
198.55	-700.000
198.92	-566.667
199.30	600.000
199.68	20.000
200.05	-200.000
200.43	0.000
200.81	100.000
201.18	-166.667
201.56	500.000
201.94	50.000
202.31	133.333
202.69	140.000
203.07	125.000
203.44	1300.000
203.82	0.000
204.19	28.571
204.57	-333.333
204.95	12.500
205.32	10.000
205.70	-14.286
206.08	-50.000
206.45	155.556
206.83	71.429
207.20	14.286
207.58	200.000
207.96	-233.333
208.33	-50.000
208.71	50.000
209.08	-166.667
209.46	-200.000
209.84	-160.000
210.21	-100.000
210.59	-71.429
210.96	100.000
211.34	50.000
211.71	26.667
212.09	-100.000
212.46	-1900.000
212.84	0.000
213.22	70.000
213.59	200.000
213.97	100.000
214.34	27.273
214.72	-83.333
215.09	150.000
215.47	-38.462
215.84	-54.545
216.22	-66.667
216.59	-50.000
216.97	650.000
217.34	-250.000
217.72	-180.000
218.09	-50.000
218.47	100.000
218.84	-500.000
219.22	33.333
219.59	-80.000
219.97	266.667
220.34	-0.000
220.72	57.143
221.09	50.000
221.47	-350.000
221.84	0.000
222.22	-550.000
222.59	-45.455
222.97	66.667
223.34	-233.333
223.72	-14.286
224.09	-23.810
224.46	-3.571
224.84	266.667
225.21	-30.000
225.59	60.000
225.96	-100.000
226.34	300.000
226.71	-57.143
227.08	-83.333
227.46	-25.000
227.83	-400.000
228.21	77.778
228.58	45.455
228.95	-50.000
229.33	50.000
229.70	-6.250
230.08	-37.500
230.45	-57.143
230.82	-100.000
231.20	-53.333
231.57	78.571
231.95	-42.857
232.32	-40.000
232.69	14.286
233.07	300.000
233.44	-160.000
233.81	100.000
234.19	111.111
234.56	5.882
234.93	50.000
235.31	250.000
235.68	-120.000
236.05	53.846
236.43	-20.000
236.80	35.294
237.17	31.250
237.55	20.000
237.92	29.630
238.29	11.111
238.67	33.333
239.04	-23.529
239.41	-19.512
239.79	-10.000
240.16	34.146
240.53	7.895
240.91	-21.739
241.28	14.286
241.65	8.929
242.02	24.658
242.40	23.333
242.77	16.949
243.14	12.121
243.51	13.750
243.89	33.333
244.26	16.092
244.63	19.048
245.00	21.649
245.38	8.247
245.75	13.483
246.12	2.586
246.49	4.959
246.87	11.538
247.24	5.882
247.61	0.877
247.98	13.821
248.36	10.000
248.73	15.789
249.10	12.338
249.47	15.823
249.84	12.418
250.22	7.647
250.59	13.072
250.96	21.596
251.33	13.372
251.70	20.000
252.08	9.645
252.45	14.356
252.82	19.095
253.19	21.659
253.56	11.215
253.94	14.865
254.31	14.348
254.68	11.842
255.05	15.354
255.42	11.354
255.79	15.058
256.16	11.284
256.54	15.672
256.91	15.209
257.28	11.152
257.65	12.360
258.02	13.830
258.39	18.855
258.76	16.117
259.14	15.615
259.51	15.858
259.88	11.684
260.25	14.379
260.62	18.403
260.99	10.847
261.36	8.904
261.73	11.076
262.10	19.149
262.47	15.031
262.85	12.539
263.22	15.385
263.59	15.888
263.96	18.012
264.33	14.848
264.70	13.690
265.07	13.393
265.44	15.864
265.81	14.972
266.18	17.486
266.55	15.681
266.92	18.912
267.29	14.621
267.66	14.834
268.03	15.707
268.40	13.838
268.77	15.508
269.14	12.710
269.51	14.396
269.88	13.716
270.25	15.306
270.62	13.659
270.99	14.578
271.36	12.225
271.73	13.850
272.10	16.545
272.47	15.130
272.84	14.109
273.21	13.689
273.58	15.663
273.95	15.332
274.32	12.933
274.69	11.312
275.06	16.071
275.43	14.512
275.80	14.349
276.17	14.023
276.54	13.704
276.91	14.912
277.28	13.974
277.65	13.017
278.02	11.702
278.39	14.442
278.76	15.094
279.13	12.656
279.50	13.025
279.87	14.471
280.23	13.118
280.60	12.281
280.97	14.343
281.34	15.962
281.71	14.784
282.08	11.656
282.45	12.916
282.82	12.355
283.19	14.120
283.56	13.102
283.92	12.713
284.29	13.077
284.66	15.504
285.03	13.556
285.40	13.043
285.77	12.302
286.14	13.357
286.51	14.760
286.87	13.346
287.24	10.866
287.61	12.875
287.98	13.684
288.35	12.825
288.72	14.186
289.08	12.153
289.45	10.545
289.82	12.937
290.19	11.263
290.56	11.149
290.93	11.111
291.29	11.864
291.66	11.811
292.03	12.759
292.40	11.129
292.77	10.845
293.13	8.604
293.50	10.926
293.87	13.588
294.24	11.128
294.60	12.370
294.97	12.054
295.34	11.810
295.71	11.624
296.08	9.865
296.44	9.673
296.81	11.806
297.18	8.116
297.55	12.737
297.91	11.918
298.28	10.818
298.65	11.533
299.02	10.243
299.38	7.661
299.75	8.828
300.12	7.984
300.48	10.013
300.85	10.393
301.22	8.831
301.59	9.079
301.95	11.013
302.32	10.895
302.69	9.204
303.05	10.149
303.42	10.834
303.79	10.981
304.15	9.916
304.52	9.394
304.89	9.006
305.25	9.443
305.62	9.452
305.99	8.772
306.35	9.364
306.72	8.436
307.09	10.832
307.45	9.529
307.82	9.259
308.19	9.756
308.55	9.597
308.92	9.913
309.29	7.933
309.65	8.827
310.02	8.031
310.38	8.233
310.75	9.617
311.12	8.396
311.48	9.650
311.85	8.796
312.22	8.439
312.58	8.917
312.95	8.431
313.31	7.660
313.68	8.272
314.05	8.061
314.41	7.526
314.78	9.278
315.14	10.072
315.51	10.248
315.87	7.992
316.24	10.111
316.61	9.547
316.97	8.730
317.34	9.668
317.70	9.273
318.07	8.077
318.43	9.608
318.80	9.375
319.16	9.180
319.53	9.972
319.89	9.547
320.26	8.603
320.62	9.729
320.99	8.455
321.35	8.222
321.72	9.138
322.08	9.063
322.45	9.442
322.81	8.841
323.18	9.617
323.54	9.073
323.91	9.056
324.27	9.277
324.64	9.644
325.00	9.945
325.37	11.111
325.73	9.157
326.10	9.537
326.46	9.865
326.83	9.886
327.19	8.893
327.56	9.383
327.92	9.595
328.29	9.196
328.65	9.057
329.01	8.824
329.38	9.032
329.74	8.876
330.11	8.897
330.47	8.163
330.84	8.846
331.20	10.361
331.56	7.407
331.93	10.137
332.29	8.983
332.66	8.778
333.02	8.457
333.38	8.158
333.75	9.982
334.11	10.027
334.48	9.973
334.84	10.073
335.20	9.149
335.57	8.069
335.93	9.485
336.29	9.300
336.66	8.629
337.02	8.178
337.38	7.963
337.75	8.455
338.11	8.476
338.47	9.307
338.84	9.242
339.20	8.227
339.56	9.633
339.93	8.953
340.29	8.624
340.65	8.781
341.02	9.574
341.38	7.965
341.74	7.332
342.11	7.279
342.47	8.986
342.83	8.564
343.20	8.711
343.56	8.870
343.92	8.680
344.28	9.394
344.65	8.808
345.01	7.779
345.37	8.747
345.73	9.540
346.10	9.491
346.46	8.495
346.82	8.265
347.19	7.648
347.55	8.855
347.91	8.981
348.27	8.650
348.63	9.114
349.00	8.614
349.36	8.313
349.72	9.038
350.08	7.869
350.45	9.258
350.81	7.724
351.17	7.980
351.53	7.673
351.89	7.680
352.26	7.760
352.62	7.984
352.98	8.112
353.34	8.535
353.70	8.414
354.07	8.952
354.43	8.727
354.79	7.927
355.15	9.206
355.51	8.386
355.87	9.385
356.24	8.238
356.60	8.488
356.96	10.000
357.32	7.428
357.68	8.444
358.04	7.512
358.40	8.682
358.77	9.171
359.13	8.086
359.49	8.166
359.85	8.814
360.21	7.815
360.57	8.110
360.93	8.472
361.29	7.779
361.66	9.248
362.02	8.561
362.38	7.997
362.74	7.494
363.10	8.277
363.46	8.451
363.82	8.640
364.18	7.970
364.54	8.162
364.90	7.957
365.26	7.860
365.62	7.664
365.98	8.798
366.35	9.031
366.71	8.352
367.07	7.620
367.43	8.339
367.79	7.915
368.15	7.753
368.51	8.449
368.87	6.389
369.23	8.014
369.59	7.726
369.95	8.871
370.31	8.743
370.67	7.090
371.03	7.916
371.39	8.315
371.75	8.278
372.11	7.775
372.47	8.432
372.83	9.226
373.19	8.417
373.55	7.581
373.91	8.279
374.27	8.009
374.63	9.117
374.99	7.589
375.35	7.799
375.71	8.392
376.07	8.146
376.42	7.619
376.78	8.456
377.14	7.989
377.50	7.835
377.86	7.764
378.22	8.041
378.58	8.269
378.94	7.750
379.30	8.172
379.66	9.216
380.02	7.909
380.38	7.973
380.74	7.600
381.09	8.282
381.45	7.584
381.81	8.945
382.17	7.995
382.53	8.057
382.89	7.094
383.25	8.214
383.61	8.598
383.97	7.683
384.32	8.318
384.68	8.050
385.04	7.292
385.40	7.592
385.76	8.428
386.12	8.279
386.48	7.854
386.83	7.609
387.19	8.242
387.55	8.156
387.91	7.457
388.27	7.937
388.62	8.118
388.98	7.305
389.34	8.557
389.70	8.266
390.06	8.307
390.42	7.837
390.77	7.194
391.13	7.503
391.49	6.921
391.85	7.797
392.20	7.847
392.56	7.247
392.92	7.986
393.28	8.432
393.64	7.628
393.99	8.527
394.35	7.337
394.71	8.174
395.07	7.291
395.42	7.711
395.78	7.818
396.14	8.197
396.50	7.292
396.85	7.920
397.21	8.271
397.57	7.837
397.92	8.628
398.28	8.621
398.64	7.169
399.00	8.804
399.35	6.772
399.71	7.926
400.07	8.041
400.42	8.446
400.78	7.042
401.14	7.864
401.49	8.041
401.85	7.374
402.21	9.157
402.57	8.000
402.92	6.587
403.28	7.957
403.63	7.881
403.99	7.207
404.35	7.370
404.70	7.619
405.06	7.168
405.42	9.260
405.77	7.728
406.13	7.683
406.49	7.519
406.84	7.335
407.20	7.164
407.55	7.212
407.91	8.289
408.27	8.477
408.62	8.123
408.98	8.010
409.34	8.178
409.69	7.300
410.05	6.897
410.40	8.457
410.76	7.780
411.11	7.625
411.47	7.955
411.83	6.654
412.18	7.336
412.54	8.052
412.89	7.020
413.25	8.123
413.60	8.447
413.96	7.975
414.31	7.622
414.67	7.505
415.03	7.324
415.38	7.768
415.74	7.752
416.09	7.838
416.45	7.698
416.80	7.204
417.16	8.080
417.51	8.195
417.87	7.171
418.22	6.995
418.58	7.157
418.93	7.335
419.29	7.939
419.64	7.907
420.00	8.438
420.35	7.940
420.71	8.262
421.06	7.551
421.42	8.053
421.77	8.035
422.12	7.037
422.48	7.580
422.83	7.889
423.19	7.844
423.54	7.290
423.90	8.127
424.25	8.266
424.61	6.977
424.96	7.491
425.31	8.146
425.67	8.040
426.02	8.422
426.38	7.138
426.73	8.596
427.09	8.354
427.44	8.118
427.79	7.955
428.15	8.313
428.50	7.995
428.85	7.985
429.21	8.376
429.56	7.925
429.92	8.783
430.27	8.271
430.62	8.102
430.98	7.431
431.33	8.675
431.68	8.268
432.04	8.161
432.39	8.100
432.74	7.817
433.10	8.678
433.45	8.363
433.80	8.532
434.16	8.255
434.51	8.118
434.86	8.072
435.22	8.581
435.57	8.484
435.92	8.443
436.28	7.752
436.63	8.842
436.98	7.937
437.34	8.409
437.69	8.289
438.04	8.319
438.39	7.819
438.75	7.954
439.10	8.206
439.45	8.034
439.81	8.318
440.16	8.373
440.51	9.015
440.86	9.366
441.22	8.937
441.57	7.726
441.92	9.601
442.27	8.758
442.63	8.940
442.98	9.650
443.33	8.403
443.68	9.443
444.03	9.339
444.39	8.510
444.74	9.142
445.09	9.131
445.44	8.946
445.79	9.902
446.15	9.251
446.50	8.375
446.85	8.927
447.20	9.124
447.55	9.989
447.91	9.645
448.26	9.220
448.61	9.269
448.96	9.007
449.31	8.439
449.66	9.001
450.02	9.755
450.37	9.899
450.72	9.622
451.07	10.253
451.42	9.176
451.77	8.740
452.12	8.852
452.47	8.178
452.83	9.541
453.18	9.867
453.53	9.166
453.88	9.775
454.23	9.035
454.58	10.013
454.93	9.729
455.28	9.524
455.63	9.299
455.98	8.839
456.34	9.068
456.69	10.038
457.04	10.019
457.39	8.627
457.74	9.492
458.09	8.534
458.44	9.479
458.79	8.964
459.14	9.897
459.49	9.791
459.84	10.209
460.19	8.495
460.54	9.963
460.89	9.830
461.24	9.876
461.59	10.095
461.94	9.371
462.29	10.917
462.64	10.764
462.99	9.546
463.34	9.875
463.69	9.266
464.04	10.291
464.39	10.370
464.74	9.632
465.09	9.357
465.44	11.252
465.79	10.431
466.14	9.806
466.49	9.776
466.84	10.410
467.19	10.763
467.54	10.217
467.89	9.286
468.24	9.489
468.59	9.968
468.94	9.714
469.29	10.426
469.64	10.185
469.99	9.951
470.34	8.328
470.68	10.589
471.03	10.403
471.38	9.558
471.73	10.084
472.08	9.023
472.43	9.060
472.78	9.801
473.13	9.116
473.48	10.033
473.83	8.344
474.17	9.780
474.52	10.338
474.87	9.758
475.22	9.091
475.57	10.051
475.92	10.422
476.27	10.303
476.61	9.896
476.96	10.262
477.31	10.384
477.66	10.225
478.01	9.489
478.36	10.294
478.70	10.604
479.05	9.945
479.40	10.175
479.75	9.958
480.10	9.780
480.45	10.100
480.79	10.574
481.14	10.451
481.49	9.557
481.84	10.039
482.19	9.495
482.53	10.120
482.88	10.788
483.23	9.789
483.58	10.189
483.92	9.729
484.27	10.027
484.62	9.996
484.97	10.614
485.31	10.079
485.66	9.941
486.01	10.823
486.36	11.117
486.70	10.865
487.05	10.699
487.40	10.600
487.75	10.507
488.09	10.445
488.44	10.626
488.79	10.646
489.13	10.697
489.48	10.261
489.83	10.404
490.17	9.753
490.52	9.977
490.87	9.718
491.22	10.172
491.56	9.772
491.91	9.847
492.26	9.528
492.60	10.413
492.95	10.330
493.30	9.722
493.64	9.823
493.99	10.290
494.34	9.660
494.68	9.571
495.03	9.684
495.37	9.912
495.72	9.944
496.07	10.390
496.41	9.953
496.76	9.719
497.11	9.688
497.45	10.072
497.80	10.091
498.14	9.786
498.49	9.904
498.84	9.681
499.18	10.341
499.53	9.871
499.87	9.582
500.22	9.545
500.56	9.632
500.91	9.890
501.26	9.787
501.60	9.297
501.95	9.850
502.29	9.637
502.64	10.135
502.98	9.867
503.33	9.798
503.67	9.880
504.02	10.459
504.36	10.341
504.71	9.798
505.06	9.914
505.40	10.254
505.75	9.691
506.09	10.086
506.44	10.010
506.78	10.561
507.13	10.083
507.47	8.721
507.82	9.241
508.16	9.245
508.51	10.073
508.85	10.204
509.19	9.101
509.54	9.544
509.88	9.115
510.23	10.059
510.57	9.674
510.92	9.222
511.26	8.729
511.61	9.736
511.95	9.589
512.30	8.647
512.64	9.460
512.98	9.096
513.33	9.905
513.67	8.755
514.02	9.382
514.36	9.829
514.70	9.615
515.05	9.929
515.39	9.032
515.74	9.641
516.08	9.564
516.42	9.658
516.77	9.947
517.11	9.318
517.46	10.114
517.80	9.058
518.14	9.063
518.49	9.135
518.83	9.478
519.17	8.672
519.52	9.532
519.86	8.824
520.20	9.356
520.55	8.443
520.89	9.787
521.23	8.740
521.58	8.707
521.92	9.103
522.26	9.174
522.61	9.481
522.95	8.675
523.29	9.911
523.64	9.657
523.98	9.527
524.32	8.763
524.66	9.539
525.01	9.545
525.35	9.073
525.69	7.609
526.04	8.003
526.38	9.274
526.72	8.764
527.06	8.366
527.41	8.971
527.75	8.378
528.09	8.837
528.43	10.263
528.78	8.383
529.12	9.935
529.46	9.422
529.80	8.550
530.15	9.769
530.49	8.350
530.83	8.345
531.17	8.261
531.51	9.439
531.86	8.770
532.20	9.186
532.54	8.373
532.88	9.035
533.22	8.871
533.57	9.764
533.91	7.768
534.25	9.049
534.59	8.659
534.93	8.433
535.27	8.503
535.62	9.008
535.96	9.263
536.30	8.707
536.64	9.097
536.98	8.084
537.32	8.890
537.66	9.397
538.01	9.231
538.35	8.252
538.69	9.454
539.03	8.202
539.37	8.614
539.71	8.930
540.05	8.893
540.39	9.072
540.73	7.950
541.07	8.771
541.42	9.341
541.76	9.222
542.10	8.396
542.44	8.687
542.78	7.433
543.12	8.379
543.46	9.318
543.80	8.675
544.14	7.810
544.48	8.528
544.82	8.202
545.16	9.221
545.50	8.945
545.84	8.569
546.18	9.291
546.52	8.868
546.86	7.908
547.20	8.798
547.54	7.774
547.88	8.899
548.22	8.350
548.56	8.311
548.90	9.434
549.24	8.747
549.58	9.168
549.92	7.648
550.26	9.670
550.60	10.112
550.94	9.261
551.28	7.342
551.62	9.615
551.96	8.872
552.30	8.041
552.64	8.181
552.98	8.720
553.32	9.700
553.66	8.636
554.00	8.759
554.34	9.158
554.68	8.628
555.02	9.226
555.36	8.452
555.69	7.912
556.03	8.565
556.37	8.968
556.71	8.087
557.05	8.874
557.39	8.848
557.73	9.070
558.07	9.276
558.41	8.576
558.75	9.041
559.08	8.905
559.42	8.333
559.76	9.287
560.10	9.098
560.44	9.010
560.78	9.091
561.12	9.309
561.45	9.417
561.79	8.894
562.13	9.368
562.47	8.489
562.81	8.934
563.15	9.379
563.48	9.406
563.82	9.815
564.16	8.287
564.50	9.527
564.84	9.973
565.17	9.457
565.51	8.880
565.85	9.602
566.19	8.886
566.52	9.383
566.86	9.897
567.20	8.717
567.54	8.759
567.88	9.080
568.21	9.955
568.55	9.402
568.89	10.113
569.23	9.774
569.56	9.851
569.90	10.556
570.24	9.676
570.57	9.964
570.91	10.491
571.25	10.293
571.59	9.872
571.92	10.607
572.26	9.934
572.60	9.674
572.93	10.104
573.27	9.875
573.61	10.292
573.95	9.995
574.28	9.852
574.62	9.789
574.96	10.122
575.29	9.944
575.63	9.640
575.97	9.650
576.30	9.812
576.64	9.748
576.98	10.116
577.31	10.101
577.65	10.413
577.98	10.101
578.32	10.240
578.66	9.693
578.99	10.365
579.33	10.142
579.67	10.018
580.00	9.924
580.34	10.373
580.67	9.990
581.01	10.062
581.35	10.121
581.68	10.451
582.02	10.571
582.35	10.344
582.69	10.421
583.02	10.446
583.36	10.528
583.70	11.033
584.03	10.815
584.37	10.728
584.70	10.549
585.04	10.596
585.37	10.762
585.71	10.491
586.04	10.666
586.38	9.869
586.72	10.818
587.05	10.919
587.39	10.987
587.72	11.044
588.06	11.154
588.39	11.079
588.73	10.775
589.06	11.318
589.40	10.888
589.73	10.770
590.07	11.140
590.40	11.029
590.73	11.862
591.07	10.433
591.40	10.419
591.74	10.724
592.07	11.781
592.41	11.219
592.74	10.793
593.08	10.374
593.41	11.301
593.75	11.384
594.08	10.882
594.41	11.499
594.75	10.878
595.08	11.540
595.42	10.931
595.75	11.416
596.09	11.650
596.42	10.955
596.75	10.657
597.09	11.025
597.42	10.976
597.75	11.269
598.09	11.317
598.42	11.417
598.76	10.682
599.09	11.859
599.42	11.178
599.76	10.798
600.09	11.953
600.42	11.183
600.76	11.181
601.09	10.840
601.42	11.163
601.76	11.393
602.09	11.180
602.42	11.752
602.76	11.587
603.09	11.337
603.42	11.831
603.76	10.484
604.09	11.300
604.42	11.929
604.76	11.037
605.09	11.792
605.42	11.558
605.75	11.690
606.09	11.295
606.42	11.009
606.75	11.429
607.09	11.165
607.42	10.767
607.75	10.657
608.08	11.456
608.42	11.421
608.75	10.602
609.08	11.360
609.41	10.761
609.75	11.694
610.08	10.734
610.41	10.483
610.74	11.360
611.07	11.731
611.41	11.053
611.74	11.301
612.07	10.171
612.40	10.832
612.73	10.734
613.07	10.686
613.40	11.269
613.73	10.185
614.06	11.297
614.39	11.055
614.72	10.644
615.06	10.726
615.39	10.426
615.72	11.033
616.05	11.061
616.38	10.313
616.71	11.254
617.05	10.191
617.38	11.062
617.71	10.629
618.04	10.730
618.37	11.286
618.70	11.023
619.03	11.806
619.36	9.117
619.69	10.159
620.03	10.811
620.36	11.159
620.69	11.064
621.02	11.239
621.35	10.290
621.68	10.799
622.01	9.917
622.34	9.976
622.67	10.016
623.00	10.337
623.33	10.671
623.66	10.172
623.99	10.287
624.32	9.734
624.65	10.301
624.99	10.609
625.32	9.856
625.65	11.312
625.98	10.234
626.31	10.058
626.64	10.399
626.97	10.733
627.30	10.683
627.63	10.572
627.96	10.332
628.29	9.991
628.62	10.128
628.95	9.719
629.28	10.181
629.61	9.172
629.94	11.339
630.26	9.881
630.59	9.677
630.92	10.256
631.25	9.333
631.58	10.242
631.91	8.224
632.24	9.174
632.57	9.773
632.90	9.253
633.23	8.706
633.56	8.564
633.89	8.755
634.22	10.000
634.55	8.259
634.88	8.429
635.20	7.564
635.53	8.933
635.86	8.843
636.19	9.185
636.52	8.418
636.85	9.057
637.18	7.925
637.51	8.553
637.83	9.067
638.16	10.641
638.49	5.722
638.82	12.500
639.15	8.684
639.48	9.904
639.81	9.902
640.13	9.091
640.46	8.455
640.79	8.395
641.12	10.192
641.45	8.709
641.77	9.481
642.10	10.269
642.43	8.682
642.76	9.406
643.09	9.208
643.41	9.547
643.74	8.731
644.07	10.016
644.40	8.784
644.73	10.333
645.05	9.228
645.38	7.760
645.71	6.738
646.04	9.515
646.36	9.043
646.69	9.712
647.02	8.129
647.35	7.276
647.67	8.044
648.00	9.515
648.33	10.410
648.66	9.153
648.98	6.030
649.31	7.769
649.64	8.477
649.96	8.104
650.29	7.836
650.62	9.915
650.94	8.519
651.27	8.194
651.60	9.730
651.92	10.664
652.25	7.993
652.58	10.500
652.90	8.405
653.23	9.076
653.56	8.968
653.88	8.419
654.21	7.356
654.54	7.131
654.86	10.017
655.19	8.918
655.52	11.300
655.84	11.255
656.17	12.867
656.49	17.761
656.82	18.935
657.15	14.501
657.47	10.910
657.80	7.958
658.13	7.953
658.45	12.174
658.78	12.541
659.10	11.953
659.43	12.043
659.75	11.741
660.08	9.724
660.41	11.338
660.73	10.083
661.06	10.919
661.38	7.436
661.71	7.392
662.03	7.940
662.36	8.132
662.68	9.292
663.01	11.135
663.33	7.889
663.66	6.512
663.98	7.674
664.31	10.021
664.63	5.991
664.96	5.217
665.28	5.740
665.61	7.359
665.93	11.087
666.26	10.195
666.58	4.027
666.91	5.647
667.23	10.377
667.56	9.479
667.88	8.153
668.21	6.683
668.53	8.983
668.86	5.660
669.18	7.547
669.50	6.295
669.83	6.279
670.15	7.692
670.48	7.895
670.80	9.908
671.13	7.159
671.45	5.479
671.77	8.369
672.10	6.535
672.42	9.738
672.75	10.480
673.07	12.343
673.39	8.257
673.72	7.298
674.04	7.083
674.37	7.627
674.69	10.278
675.01	8.222
675.34	7.883
675.66	8.333
675.98	8.647
676.31	6.881
676.63	7.838
676.95	9.318
677.28	8.471
677.60	8.193
677.92	7.110
678.25	8.315
678.57	6.494
678.89	6.723
679.22	6.935
679.54	7.229
679.86	7.356
680.18	8.544
680.51	9.280
680.83	8.151
681.15	8.600
681.48	11.270
681.80	7.645
682.12	8.669
682.44	7.322
682.77	9.713
683.09	8.924
683.41	6.364
683.73	8.295
684.06	8.186
684.38	5.806
684.70	9.586
685.02	7.676
685.34	9.684
685.67	7.880
685.99	9.584
686.31	9.381
686.63	8.720
686.96	5.894
687.28	7.273
687.60	7.795
687.92	10.909
688.24	9.476
688.56	9.607
688.89	6.920
689.21	8.889
689.53	9.281
689.85	6.744
690.17	9.375
690.49	7.565
690.82	7.524
691.14	5.238
691.46	6.542
691.78	9.685
692.10	9.892
692.42	8.009
692.74	11.752
693.06	8.559
693.39	7.919
693.71	7.466
694.03	5.774
694.35	8.645
694.67	7.071
694.99	5.744
695.31	9.138
695.63	9.250
695.95	4.545
696.27	5.181
696.59	6.389
696.91	6.723
697.23	6.684
697.56	8.168
697.88	10.968
698.20	11.162
698.52	7.059
698.84	7.177
699.16	7.250
699.48	9.524
699.80	10.422
700.12	7.817
700.44	8.683
700.76	3.488
701.08	6.970
701.40	4.518
701.72	8.333
702.04	7.921
702.36	9.365
702.68	7.508
703.00	6.364
703.32	4.399
703.64	6.215
703.96	7.536
704.28	6.442
704.60	9.841
704.91	4.732
705.23	10.631
705.55	11.661
705.87	6.137
706.19	6.667
706.51	9.622
706.83	10.289
707.15	3.738
707.47	7.843
707.79	7.552
708.11	10.000
708.43	10.250
708.74	8.786
709.06	8.732
709.38	9.174
709.70	7.101
710.02	8.280
710.34	9.598
710.66	3.526
710.98	8.609
711.29	7.213
711.61	5.424
711.93	12.052
712.25	12.715
712.57	8.791
712.89	4.851
713.20	10.381
713.52	6.620
713.84	8.191
714.16	7.560
714.48	7.097
714.80	8.333
715.11	8.511
715.43	5.956
715.75	6.667
716.07	4.651
716.39	7.383
716.70	3.690
717.02	3.435
717.34	7.287
717.66	4.867
717.97	3.913
718.29	6.276
718.61	8.268
718.93	8.527
719.24	6.844
719.56	7.631
719.88	8.247
720.20	8.712
720.51	4.215
720.83	5.792
721.15	7.563
721.46	6.452
721.78	6.719
722.10	10.037
722.42	4.564
722.73	5.714
723.05	14.694
723.37	8.898
723.68	10.811
724.00	8.120
724.32	7.556
724.63	9.091
724.95	6.987
725.27	6.912
725.58	4.237
725.90	5.556
726.22	7.336
726.53	11.186
726.85	10.487
727.16	8.679
727.48	6.478
727.80	9.312
728.11	5.508
728.43	7.059
728.74	2.823
729.06	10.400
729.38	16.165
729.69	6.375
730.01	5.385
730.32	8.209
730.64	9.541
730.96	7.547
731.27	7.667
731.59	7.797
731.90	7.962
732.22	12.618
732.53	13.953
732.85	9.220
733.16	14.141
733.48	6.475
733.80	7.971
734.11	9.153
734.43	7.216
734.74	9.697
735.06	5.863
735.37	9.063
735.69	10.774
736.00	7.317
736.32	8.054
736.63	12.676
736.95	16.041
737.26	3.915
737.58	10.403
737.89	8.791
738.21	7.519
738.52	6.584
738.83	6.987
739.15	-0.437
739.46	11.417
739.78	6.960
740.09	10.131
740.41	10.145
740.72	1.181
741.04	7.692
741.35	5.957
741.66	6.161
741.98	7.143
742.29	10.396
742.61	0.000
742.92	2.844
743.23	3.241
743.55	7.692
743.86	11.005
744.18	7.177
744.49	3.723
744.80	6.522
745.12	8.021
745.43	3.902
745.74	9.896
746.06	9.268
746.37	5.236
746.68	11.374
747.00	1.596
747.31	13.433
747.62	9.223
747.94	13.397
748.25	7.921
748.56	6.011
748.88	6.806
749.19	6.915
749.50	8.374
749.82	1.415
750.13	4.128
750.44	10.526
750.75	10.075
751.07	11.314
751.38	8.429
751.69	10.980
752.01	12.791
752.32	8.367
752.63	5.929
752.94	3.017
753.26	15.900
753.57	5.430
753.88	8.850
754.19	4.583
754.51	9.091
754.82	10.121
755.13	12.917
755.44	12.097
755.75	8.984
756.07	7.782
756.38	5.283
756.69	5.364
757.00	7.000
757.31	7.190
757.63	7.317
757.94	8.889
758.25	8.493
758.56	11.170
758.87	6.516
759.18	9.346
759.50	4.364
759.81	10.033
760.12	8.710
760.43	6.667
760.74	5.864
761.05	6.769
761.36	10.795
761.67	12.424
761.99	9.864
762.30	5.818
762.61	5.138
762.92	4.525
763.23	6.757
763.54	5.140
763.85	13.136
764.16	7.469
764.47	4.435
764.78	8.791
765.10	8.418
765.41	4.416
765.72	8.254
766.03	7.143
766.34	10.949
766.65	10.757
766.96	6.061
767.27	7.979
767.58	7.471
767.89	0.000
768.20	5.114
768.51	7.692
768.82	8.867
769.13	8.295
769.44	9.442
769.75	6.393
770.06	9.483
770.37	5.288
770.68	8.122
770.99	6.335
771.30	9.804
771.61	8.597
771.92	7.759
772.23	13.300
772.54	10.215
772.85	4.321
773.16	6.180
773.47	16.993
773.78	5.229
774.09	4.192
774.39	2.000
774.70	12.739
775.01	11.724
775.32	11.429
775.63	-0.826
775.94	12.214
776.25	4.724
776.56	-0.833
776.87	4.808
777.18	1.709
777.48	1.724
777.79	7.826
778.10	5.714
778.41	0.901
778.72	10.317
779.03	6.767
779.34	12.057
779.65	6.849
779.95	4.110
780.26	8.966
780.57	3.252
780.88	6.299
781.19	9.483
781.50	8.527
781.80	5.325
782.11	1.258
782.42	1.538
782.73	10.791
783.04	8.889
783.34	3.472
783.65	3.419
783.96	9.836
784.27	9.655
784.57	4.065
784.88	13.281
785.19	2.000
785.50	19.000
785.81	15.517
786.11	10.345
786.42	0.971
786.73	5.455
787.04	1.020
787.34	0.893
787.65	0.000
787.96	4.425
788.26	9.091
788.57	4.274
788.88	14.844
789.19	11.905
789.49	6.087
789.80	1.020
790.11	15.152
790.41	8.182
790.72	13.043
791.03	2.273
791.33	5.000
791.64	0.000
791.95	15.116
792.25	32.979
792.56	29.213
792.87	0.000
793.17	7.246
793.48	4.000
793.79	11.250
794.09	10.000
794.40	4.717
794.70	2.913
795.01	5.691
795.32	5.983
795.62	10.476
795.93	4.902
796.23	16.981
796.54	10.417
796.85	19.118
797.15	2.817
797.46	6.944
797.76	22.727
798.07	15.116
798.37	2.632
798.68	4.545
798.99	8.642
799.29	22.857
799.60	1.449
799.90	12.000
800.21	-1.639
800.51	3.077
800.82	10.169
801.12	20.290
801.43	1.639
801.73	4.762
802.04	8.000
802.34	7.463
802.65	19.231
802.95	5.357
803.26	-17.308
803.56	-9.804
803.87	-17.391
804.17	6.667
804.48	23.810
804.78	29.630
805.09	0.000
805.39	-4.444
805.70	9.259
806.00	12.281
806.30	9.859
806.61	4.286
806.91	-8.333
807.22	27.632
807.52	8.000
807.83	-7.273
808.13	6.944
808.43	22.059
808.74	-1.493
809.04	-3.390
809.35	1.923
809.65	7.813
809.95	-51.351
810.26	15.909
810.56	2.740
810.86	-14.286
811.17	0.000
811.47	16.327
811.77	-5.263
812.08	6.818
812.38	3.774
812.69	5.000
812.99	0.000
813.29	-28.947
813.59	-25.714
813.90	-13.636
814.20	-12.821
814.50	5.769
814.81	15.094
815.11	-12.766
815.41	37.288
815.72	33.333
816.02	3.922
816.32	4.167
816.62	9.756
816.93	10.811
817.23	14.286
817.53	16.667
817.84	-8.696
818.14	5.769
818.44	-23.684
818.74	-4.348
819.04	-27.500
819.35	2.703
819.65	2.941
819.95	-19.444
820.25	-2.381
820.56	15.000
820.86	-27.586
821.16	25.000
821.46	6.383
821.76	10.000
822.07	2.326
822.37	-16.216
822.67	3.125
822.97	21.429
823.27	0.000
823.57	4.000
823.88	-22.222
824.18	10.714
824.48	-20.588
824.78	-16.129
825.08	-26.087
825.38	0.000
825.69	-12.500
825.99	-10.526
826.29	2.778
826.59	6.667
826.89	-61.905
827.19	26.087
827.49	-12.500
827.79	0.000
828.09	-28.571
828.39	18.182
828.70	40.541
829.00	-21.429
829.30	-57.143
829.60	13.333
829.90	0.000
830.20	5.263
830.50	-22.222
830.80	-13.043
831.10	-9.091
831.40	30.303
831.70	29.032
832.00	19.048
832.30	-33.333
832.60	-75.000
832.90	-13.793
833.20	-35.000
833.50	33.333
833.80	3.704
834.10	-15.385
834.40	3.125
834.70	-88.889
835.00	-31.579
835.30	53.846
835.60	-53.333
835.90	-6.452
836.20	9.091
836.50	3.571
836.80	-23.077
837.10	0.000
837.40	-333.333
837.70	13.636
838.00	-45.455
838.30	17.391
838.60	-38.462
838.90	54.545
839.19	3.571
839.49	-3.333
839.79	7.692
840.09	-108.333
840.39	50.000
840.69	10.714
840.99	-19.231
841.29	-73.684
841.59	-140.000
841.88	-9.091
842.18	-40.000
842.48	-31.250
842.78	0.000
843.08	-3.704
843.38	-80.000
843.68	-17.391
843.97	0.000
844.27	-100.000
844.57	5.000
844.87	5.556
845.17	-23.810
845.47	26.667
845.76	-14.286
846.06	-11.765
846.36	-130.000
846.66	-42.857
846.96	-13.333
847.25	-150.000
847.55	21.429
847.85	-12.500
848.15	-13.636
848.44	-500.000
848.74	45.000
849.04	40.741
849.34	-9.091
849.63	-100.000
849.93	-80.000
850.23	55.556
850.53	120.000
850.82	46.154
851.12	-44.444
851.42	6.667
851.71	23.077
852.01	-21.429
852.31	-75.000
852.61	9.091
852.90	30.000
853.20	36.842
853.50	0.000
853.79	-8.696
854.09	41.667
854.39	5.263
854.68	4.167
854.98	19.355
855.28	11.538
855.57	10.000
855.87	5.556
856.17	33.333
856.46	0.000
856.76	6.667
857.05	66.667
857.35	28.000
857.65	-88.889
857.94	-7.692
858.24	17.241
858.53	44.444
858.83	33.333
859.13	13.636
859.42	13.043
859.72	-125.000
860.01	100.000
860.31	44.000
860.60	14.286
860.90	-266.667
861.20	-20.000
861.49	-350.000
861.79	-20.000
862.08	10.000
862.38	60.000
862.67	-280.000
862.97	-116.667
863.26	0.000
863.56	-55.556
863.85	-333.333
864.15	38.889
864.44	10.000
864.74	85.714
865.03	100.000
865.33	-240.000
865.62	66.667
865.92	58.333
866.21	-166.667
866.51	-25.000
866.80	9.091
867.10	0.000
867.39	50.000
867.69	0.000
867.98	53.846
868.27	-133.333
868.57	0.000
868.86	33.333
869.16	-15.385
869.45	60.000
869.75	-900.000
870.04	0.000
870.33	-200.000
870.63	9.524
870.92	766.667
871.22	-100.000
871.51	400.000
871.80	77.778
872.10	266.667
>>>>>End Processed Spectral Data<<<<<
