SpectraSuite Data File
++++++++++++++++++++++++++++++++++++
Date: Fri May 15 20:02:23 PDT 2015
User: schluterlab
Dark Spectrum Present: Yes
Reference Spectrum Present: Yes
Number of Sampled Component Spectra: 1
Spectrometers: USB2E3373
Integration Time (usec): 3000 (USB2E3373)
Spectra Averaged: 3 (USB2E3373)
Boxcar Smoothing: 0 (USB2E3373)
Correct for Electrical Dark: No (USB2E3373)
Strobe/Lamp Enabled: No (USB2E3373)
Correct for Detector Non-linearity: No (USB2E3373)
Correct for Stray Light: No (USB2E3373)
Number of Pixels in Processed Spectrum: 2048
>>>>>Begin Processed Spectral Data<<<<<
178.53	0.000
178.91	0.000
179.29	125.000
179.67	-850.000
180.04	-0.000
180.42	0.000
180.80	100.000
181.18	-133.333
181.56	550.000
181.94	-100.000
182.31	400.000
182.69	100.000
183.07	-133.333
183.45	-60.000
183.83	150.000
184.20	-63.636
184.58	100.000
184.96	-250.000
185.34	266.667
185.72	150.000
186.09	38.462
186.47	-400.000
186.85	-16.667
187.23	-11.111
187.61	700.000
187.98	0.000
188.36	0.000
188.74	300.000
189.12	47.059
189.49	100.000
189.87	0.000
190.25	42.857
190.63	250.000
191.00	166.667
191.38	42.105
191.76	600.000
192.14	125.000
192.51	250.000
192.89	-55.556
193.27	-85.714
193.65	-33.333
194.02	72.727
194.40	70.000
194.78	-112.500
195.15	66.667
195.53	-62.500
195.91	75.000
196.29	100.000
196.66	23.077
197.04	171.429
197.42	33.333
197.79	-266.667
198.17	-76.923
198.55	800.000
198.92	33.333
199.30	0.000
199.68	20.000
200.05	333.333
200.43	0.000
200.81	0.000
201.18	66.667
201.56	1300.000
201.94	-50.000
202.31	66.667
202.69	-200.000
203.07	-75.000
203.44	1200.000
203.82	0.000
204.19	64.286
204.57	-433.333
204.95	112.500
205.32	0.000
205.70	71.429
206.08	100.000
206.45	177.778
206.83	150.000
207.20	-14.286
207.58	-200.000
207.96	-200.000
208.33	-150.000
208.71	-200.000
209.08	-183.333
209.46	200.000
209.84	60.000
210.21	0.000
210.59	-85.714
210.96	33.333
211.34	25.000
211.71	-40.000
212.09	0.000
212.46	-1300.000
212.84	0.000
213.22	40.000
213.59	50.000
213.97	61.538
214.34	0.000
214.72	-66.667
215.09	-25.000
215.47	-38.462
215.84	36.364
216.22	-233.333
216.59	75.000
216.97	-100.000
217.34	125.000
217.72	-40.000
218.09	50.000
218.47	150.000
218.84	-900.000
219.22	-11.111
219.59	0.000
219.97	133.333
220.34	325.000
220.72	57.143
221.09	-50.000
221.47	50.000
221.84	-100.000
222.22	-900.000
222.59	54.545
222.97	41.667
223.34	-200.000
223.72	-28.571
224.09	66.667
224.46	7.143
224.84	366.667
225.21	-10.000
225.59	20.000
225.96	-50.000
226.34	250.000
226.71	-142.857
227.08	83.333
227.46	-75.000
227.83	-300.000
228.21	44.444
228.58	81.818
228.95	87.500
229.33	-20.000
229.70	68.750
230.08	50.000
230.45	-85.714
230.82	171.429
231.20	40.000
231.57	114.286
231.95	-42.857
232.32	-80.000
232.69	42.857
233.07	266.667
233.44	20.000
233.81	-30.000
234.19	100.000
234.56	5.882
234.93	-0.000
235.31	50.000
235.68	-340.000
236.05	-92.308
236.43	0.000
236.80	-17.647
237.17	28.125
237.55	-50.000
237.92	-37.037
238.29	-22.222
238.67	30.000
239.04	14.706
239.41	-12.195
239.79	-16.667
240.16	21.951
240.53	-2.632
240.91	-15.217
241.28	25.397
241.65	30.357
242.02	12.329
242.40	8.333
242.77	-5.085
243.14	24.242
243.51	12.500
243.89	22.989
244.26	18.391
244.63	8.333
245.00	11.340
245.38	20.619
245.75	11.236
246.12	4.310
246.49	14.050
246.87	25.962
247.24	8.403
247.61	3.509
247.98	4.878
248.36	11.875
248.73	11.184
249.10	7.143
249.47	8.228
249.84	12.418
250.22	8.824
250.59	11.765
250.96	17.840
251.33	6.977
251.70	13.529
252.08	10.152
252.45	10.396
252.82	12.060
253.19	11.521
253.56	7.477
253.94	13.514
254.31	9.130
254.68	13.596
255.05	10.236
255.42	10.917
255.79	8.108
256.16	14.397
256.54	14.552
256.91	9.886
257.28	6.691
257.65	13.109
258.02	8.511
258.39	11.785
258.76	10.623
259.14	10.299
259.51	11.974
259.88	10.309
260.25	8.497
260.62	10.069
260.99	11.525
261.36	3.767
261.73	12.342
262.10	9.422
262.47	10.123
262.85	5.956
263.22	7.077
263.59	8.411
263.96	13.043
264.33	8.182
264.70	9.524
265.07	10.119
265.44	11.898
265.81	9.040
266.18	13.388
266.55	10.026
266.92	9.845
267.29	10.966
267.66	10.230
268.03	11.518
268.40	11.227
268.77	10.695
269.14	9.592
269.51	8.226
269.88	10.474
270.25	9.184
270.62	8.537
270.99	5.882
271.36	5.623
271.73	11.033
272.10	8.029
272.47	10.165
272.84	9.158
273.21	9.049
273.58	9.398
273.95	10.984
274.32	7.852
274.69	9.955
275.06	10.045
275.43	8.390
275.80	9.492
276.17	8.506
276.54	9.636
276.91	7.895
277.28	11.572
277.65	10.331
278.02	9.149
278.39	7.440
278.76	8.386
279.13	4.979
279.50	9.454
279.87	11.663
280.23	8.172
280.60	10.331
280.97	9.091
281.34	8.462
281.71	10.883
282.08	6.544
282.45	8.415
282.82	8.494
283.19	10.251
283.56	10.983
283.92	10.247
284.29	8.077
284.66	10.659
285.03	8.448
285.40	9.452
285.77	10.193
286.14	11.011
286.51	10.701
286.87	9.141
287.24	10.129
287.61	10.053
287.98	10.526
288.35	8.666
288.72	10.683
289.08	9.375
289.45	8.612
289.82	10.315
290.19	8.874
290.56	9.434
290.93	11.616
291.29	10.478
291.66	10.236
292.03	9.091
292.40	10.968
292.77	11.164
293.13	7.305
293.50	9.408
293.87	11.603
294.24	10.665
294.60	11.475
294.97	11.905
295.34	9.663
295.71	10.283
296.08	8.969
296.44	9.957
296.81	10.139
297.18	7.971
297.55	12.195
297.91	11.507
298.28	10.818
298.65	9.769
299.02	9.434
299.38	9.029
299.75	12.276
300.12	9.555
300.48	9.750
300.85	10.393
301.22	10.519
301.59	10.921
301.95	11.392
302.32	12.192
302.69	11.194
303.05	11.386
303.42	11.083
303.79	10.631
304.15	11.708
304.52	10.226
304.89	9.708
305.25	10.291
305.62	8.868
305.99	10.760
306.35	10.405
306.72	10.574
307.09	11.060
307.45	11.022
307.82	10.185
308.19	10.685
308.55	11.450
308.92	11.656
309.29	11.061
309.65	8.934
310.02	10.121
310.38	10.977
310.75	11.585
311.12	10.872
311.48	11.559
311.85	11.099
312.22	11.392
312.58	9.766
312.95	11.953
313.31	9.420
313.68	9.634
314.05	10.204
314.41	11.340
314.78	10.722
315.14	11.202
315.51	12.008
315.87	10.758
316.24	12.639
316.61	11.811
316.97	12.202
317.34	11.035
317.70	10.994
318.07	11.346
318.43	10.392
318.80	11.648
319.16	11.035
319.53	12.156
319.89	11.319
320.26	11.640
320.62	11.334
320.99	12.317
321.35	12.333
321.72	11.838
322.08	12.487
322.45	12.081
322.81	12.868
323.18	12.561
323.54	11.680
323.91	11.782
324.27	12.207
324.64	14.045
325.00	14.690
325.37	15.060
325.73	13.962
326.10	14.351
326.46	15.426
326.83	14.873
327.19	13.949
327.56	16.334
327.92	15.317
328.29	15.179
328.65	17.170
329.01	17.463
329.38	17.051
329.74	16.242
330.11	17.702
330.47	17.904
330.84	17.885
331.20	20.627
331.56	18.611
331.93	20.457
332.29	20.807
332.66	20.090
333.02	21.840
333.38	19.890
333.75	21.429
334.11	21.576
334.48	22.575
334.84	22.802
335.20	21.134
335.57	21.306
335.93	22.855
336.29	23.112
336.66	21.980
337.02	22.584
337.38	21.852
337.75	24.091
338.11	23.895
338.47	23.084
338.84	23.383
339.20	22.761
339.56	23.761
339.93	24.440
340.29	23.578
340.65	23.656
341.02	22.429
341.38	23.097
341.74	22.350
342.11	22.617
342.47	22.153
342.83	23.702
343.20	22.909
343.56	22.609
343.92	23.295
344.28	22.203
344.65	22.453
345.01	22.385
345.37	22.456
345.73	22.929
346.10	23.814
346.46	21.783
346.82	21.277
347.19	22.444
347.55	23.141
347.91	23.301
348.27	21.342
348.63	22.061
349.00	22.067
349.36	22.776
349.72	24.212
350.08	21.721
350.45	23.065
350.81	22.176
351.17	21.498
351.53	23.184
351.89	21.965
352.26	20.640
352.62	22.742
352.98	22.651
353.34	21.659
353.70	21.764
354.07	22.016
354.43	22.658
354.79	21.387
355.15	23.889
355.51	22.627
355.87	21.926
356.24	20.636
356.60	22.312
356.96	22.460
357.32	21.965
357.68	21.736
358.04	21.567
358.40	20.900
358.77	22.727
359.13	22.338
359.49	21.186
359.85	23.245
360.21	21.611
360.57	21.729
360.93	20.575
361.29	21.148
361.66	22.335
362.02	22.652
362.38	22.011
362.74	22.104
363.10	22.272
363.46	21.497
363.82	21.112
364.18	21.697
364.54	21.765
364.90	21.864
365.26	21.397
365.62	22.628
365.98	21.408
366.35	23.015
366.71	22.838
367.07	24.020
367.43	22.358
367.79	22.827
368.15	22.613
368.51	21.631
368.87	22.326
369.23	22.527
369.59	22.741
369.95	23.021
370.31	22.760
370.67	23.433
371.03	23.898
371.39	23.122
371.75	23.150
372.11	23.324
372.47	23.891
372.83	22.782
373.19	23.252
373.55	22.527
373.91	23.614
374.27	24.096
374.63	24.408
374.99	23.333
375.35	24.652
375.71	24.126
376.07	23.666
376.42	24.694
376.78	23.893
377.14	24.780
377.50	24.037
377.86	25.368
378.22	24.569
378.58	24.423
378.94	24.449
379.30	25.016
379.66	25.831
380.02	24.280
380.38	25.259
380.74	25.853
381.09	25.951
381.45	25.260
381.81	24.985
382.17	25.635
382.53	25.609
382.89	25.361
383.25	26.758
383.61	26.707
383.97	26.032
384.32	26.642
384.68	26.563
385.04	25.674
385.40	26.073
385.76	28.050
386.12	27.749
386.48	27.522
386.83	26.886
387.19	26.984
387.55	28.294
387.91	27.506
388.27	27.289
388.62	27.942
388.98	25.844
389.34	28.357
389.70	28.030
390.06	26.998
390.42	27.850
390.77	27.207
391.13	27.491
391.49	27.749
391.85	28.265
392.20	28.374
392.56	27.591
392.92	28.420
393.28	27.300
393.64	27.568
393.99	28.903
394.35	28.336
394.71	28.161
395.07	29.353
395.42	28.112
395.78	28.664
396.14	28.625
396.50	28.345
396.85	28.268
397.21	29.386
397.57	28.464
397.92	28.700
398.28	28.161
398.64	28.072
399.00	29.289
399.35	27.709
399.71	28.604
400.07	28.718
400.42	28.335
400.78	28.414
401.14	28.312
401.49	28.708
401.85	27.239
402.21	28.373
402.57	28.000
402.92	28.105
403.28	29.511
403.63	27.680
403.99	27.360
404.35	28.732
404.70	28.690
405.06	28.731
405.42	27.719
405.77	28.356
406.13	28.347
406.49	28.952
406.84	28.301
407.20	29.259
407.55	28.075
407.91	27.674
408.27	27.470
408.62	28.185
408.98	28.096
409.34	27.509
409.69	27.261
410.05	27.463
410.40	27.778
410.76	27.925
411.11	28.125
411.47	27.942
411.83	27.809
412.18	27.413
412.54	26.904
412.89	27.094
413.25	27.798
413.60	28.323
413.96	27.607
414.31	28.110
414.67	27.646
415.03	28.362
415.38	27.480
415.74	27.557
416.09	28.739
416.45	28.359
416.80	27.826
417.16	28.798
417.51	28.648
417.87	27.771
418.22	28.821
418.58	28.696
418.93	28.652
419.29	28.233
419.64	28.257
420.00	29.345
420.35	26.925
420.71	27.947
421.06	27.931
421.42	27.825
421.77	27.746
422.12	27.469
422.48	28.533
422.83	28.538
423.19	28.104
423.54	28.395
423.90	27.503
424.25	29.047
424.61	28.764
424.96	28.513
425.31	29.983
425.67	28.873
426.02	29.388
426.38	29.555
426.73	29.903
427.09	31.329
427.44	29.471
427.79	28.462
428.15	29.551
428.50	29.618
428.85	28.256
429.21	28.127
429.56	29.973
429.92	29.841
430.27	29.524
430.62	28.176
430.98	27.972
431.33	29.968
431.68	28.519
432.04	29.737
432.39	28.465
432.74	29.224
433.10	29.195
433.45	29.809
433.80	29.135
434.16	28.753
434.51	30.108
434.86	29.559
435.22	29.669
435.57	29.507
435.92	29.341
436.28	29.338
436.63	29.321
436.98	28.621
437.34	29.643
437.69	29.636
438.04	30.484
438.39	29.139
438.75	29.265
439.10	29.485
439.45	30.006
439.81	29.174
440.16	30.226
440.51	30.090
440.86	31.601
441.22	29.808
441.57	30.243
441.92	30.115
442.27	30.322
442.63	30.300
442.98	29.638
443.33	29.939
443.68	28.966
444.03	30.800
444.39	29.365
444.74	31.159
445.09	31.013
445.44	30.484
445.79	31.511
446.15	30.286
446.50	29.340
446.85	30.446
447.20	29.979
447.55	30.971
447.91	30.457
448.26	30.051
448.61	31.203
448.96	31.153
449.31	30.867
449.66	30.488
450.02	29.892
450.37	30.468
450.72	30.699
451.07	30.823
451.42	30.150
451.77	30.621
452.12	29.844
452.47	29.620
452.83	30.094
453.18	31.120
453.53	31.037
453.88	30.601
454.23	29.994
454.58	30.479
454.93	31.186
455.28	30.730
455.63	30.130
455.98	31.028
456.34	30.715
456.69	31.385
457.04	31.254
457.39	30.437
457.74	30.230
458.09	30.194
458.44	30.427
458.79	30.028
459.14	29.920
459.49	30.746
459.84	30.739
460.19	30.765
460.54	31.051
460.89	31.534
461.24	31.056
461.59	30.819
461.94	30.440
462.29	31.423
462.64	31.827
462.99	30.129
463.34	30.389
463.69	30.438
464.04	31.235
464.39	30.928
464.74	29.632
465.09	30.755
465.44	30.410
465.79	29.932
466.14	31.357
466.49	30.535
466.84	31.469
467.19	31.039
467.54	30.268
467.89	31.080
468.24	30.839
468.59	31.175
468.94	30.794
469.29	31.213
469.64	31.032
469.99	32.025
470.34	30.512
470.68	31.618
471.03	31.069
471.38	30.742
471.73	31.022
472.08	30.393
472.43	29.933
472.78	29.883
473.13	30.952
473.48	30.945
473.83	31.009
474.17	31.023
474.52	30.377
474.87	30.121
475.22	29.835
475.57	29.870
475.92	30.280
476.27	31.374
476.61	30.498
476.96	30.340
477.31	30.990
477.66	31.011
478.01	30.713
478.36	30.719
478.70	31.267
479.05	30.110
479.40	31.214
479.75	30.865
480.10	30.517
480.45	31.600
480.79	32.024
481.14	31.250
481.49	30.936
481.84	30.647
482.19	30.449
482.53	31.271
482.88	30.788
483.23	30.518
483.58	30.943
483.92	30.736
484.27	30.356
484.62	31.555
484.97	29.892
485.31	29.588
485.66	29.312
486.01	29.405
486.36	29.261
486.70	29.910
487.05	30.109
487.40	30.196
487.75	29.915
488.09	30.779
488.44	30.605
488.79	31.117
489.13	30.970
489.48	31.466
489.83	31.614
490.17	30.876
490.52	30.716
490.87	31.097
491.22	31.280
491.56	30.882
491.91	30.688
492.26	31.551
492.60	31.334
492.95	32.218
493.30	30.093
493.64	31.336
493.99	31.884
494.34	30.825
494.68	30.714
495.03	30.268
495.37	31.452
495.72	30.641
496.07	31.366
496.41	30.943
496.76	30.631
497.11	30.927
497.45	32.029
497.80	31.332
498.14	30.899
498.49	31.640
498.84	30.888
499.18	31.878
499.53	31.696
499.87	30.739
500.22	31.454
500.56	31.921
500.91	31.024
501.26	30.796
501.60	31.087
501.95	31.198
502.29	31.186
502.64	31.805
502.98	31.376
503.33	29.635
503.67	30.554
504.02	32.307
504.36	31.222
504.71	31.212
505.06	31.203
505.40	31.066
505.75	31.907
506.09	30.715
506.44	31.930
506.78	31.939
507.13	31.593
507.47	31.697
507.82	30.716
508.16	31.167
508.51	32.162
508.85	31.973
509.19	31.080
509.54	31.635
509.88	31.499
510.23	31.469
510.57	31.908
510.92	29.584
511.26	31.697
511.61	31.408
511.95	31.671
512.30	30.820
512.64	31.608
512.98	31.948
513.33	32.121
513.67	31.552
514.02	32.208
514.36	32.686
514.70	32.984
515.05	32.609
515.39	32.231
515.74	31.916
516.08	32.038
516.42	31.920
516.77	32.592
517.11	32.700
517.46	32.855
517.80	32.598
518.14	31.660
518.49	32.572
518.83	31.713
519.17	32.080
519.52	32.564
519.86	32.173
520.20	32.746
520.55	32.333
520.89	32.873
521.23	31.666
521.58	32.618
521.92	32.692
522.26	32.791
522.61	32.143
522.95	33.113
523.29	32.910
523.64	33.736
523.98	33.052
524.32	32.152
524.66	32.330
525.01	33.766
525.35	32.988
525.69	33.737
526.04	32.870
526.38	34.047
526.72	32.440
527.06	32.944
527.41	33.971
527.75	32.909
528.09	33.555
528.43	32.748
528.78	33.399
529.12	33.290
529.46	32.489
529.80	32.172
530.15	34.125
530.49	35.084
530.83	32.969
531.17	33.848
531.51	34.200
531.86	34.126
532.20	34.029
532.54	33.424
532.88	34.223
533.22	32.930
533.57	33.683
533.91	32.833
534.25	34.245
534.59	33.226
534.93	32.096
535.27	31.662
535.62	32.534
535.96	34.116
536.30	34.565
536.64	33.563
536.98	32.125
537.32	34.922
537.66	34.151
538.01	33.217
538.35	33.564
538.69	33.489
539.03	32.878
539.37	33.984
539.71	33.810
540.05	33.741
540.39	33.864
540.73	33.961
541.07	33.771
541.42	33.065
541.76	34.549
542.10	32.416
542.44	33.218
542.78	31.796
543.12	33.242
543.46	34.353
543.80	33.796
544.14	31.642
544.48	33.178
544.82	33.493
545.16	34.016
545.50	33.445
545.84	33.924
546.18	34.823
546.52	33.886
546.86	32.566
547.20	33.619
547.54	32.650
547.88	33.492
548.22	32.610
548.56	32.058
548.90	33.356
549.24	33.747
549.58	34.485
549.92	32.881
550.26	33.480
550.60	34.647
550.94	33.234
551.28	33.230
551.62	34.769
551.96	33.233
552.30	33.772
552.64	32.863
552.98	33.193
553.32	33.096
553.66	32.801
554.00	32.336
554.34	33.383
554.68	33.038
555.02	34.003
555.36	34.630
555.69	33.260
556.03	33.833
556.37	32.669
556.71	33.646
557.05	33.110
557.39	32.862
557.73	32.459
558.07	34.615
558.41	33.691
558.75	33.827
559.08	34.673
559.42	33.730
559.76	34.588
560.10	33.486
560.44	33.209
560.78	33.916
561.12	33.004
561.45	34.715
561.79	33.123
562.13	33.002
562.47	33.597
562.81	32.781
563.15	33.216
563.48	33.805
563.82	33.082
564.16	33.217
564.50	33.243
564.84	33.333
565.17	32.931
565.51	33.743
565.85	33.608
566.19	34.284
566.52	32.775
566.86	34.126
567.20	32.441
567.54	32.299
567.88	32.689
568.21	32.070
568.55	32.609
568.89	32.752
569.23	32.643
569.56	32.137
569.90	32.806
570.24	31.038
570.57	31.055
570.91	31.021
571.25	30.845
571.59	31.174
571.92	30.341
572.26	30.556
572.60	30.543
572.93	30.813
573.27	31.160
573.61	30.996
573.95	30.776
574.28	30.482
574.62	29.443
574.96	30.317
575.29	30.035
575.63	29.956
575.97	29.954
576.30	30.644
576.64	30.199
576.98	30.013
577.31	30.351
577.65	30.321
577.98	30.220
578.32	29.802
578.66	29.637
578.99	29.995
579.33	29.853
579.67	29.750
580.00	30.152
580.34	29.851
580.67	29.624
581.01	29.635
581.35	29.996
581.68	29.876
582.02	29.749
582.35	29.935
582.69	30.269
583.02	29.908
583.36	29.548
583.70	30.582
584.03	30.637
584.37	31.028
584.70	30.275
585.04	29.819
585.37	29.926
585.71	30.165
586.04	29.753
586.38	29.848
586.72	30.617
587.05	30.416
587.39	30.389
587.72	30.208
588.06	30.722
588.39	30.305
588.73	30.678
589.06	31.344
589.40	31.075
589.73	31.581
590.07	30.476
590.40	31.540
590.73	31.343
591.07	31.255
591.40	31.389
591.74	32.172
592.07	31.633
592.41	31.228
592.74	31.262
593.08	29.969
593.41	30.214
593.75	30.258
594.08	30.312
594.41	30.786
594.75	30.840
595.08	31.063
595.42	30.475
595.75	30.642
596.09	31.118
596.42	31.294
596.75	31.306
597.09	30.524
597.42	30.894
597.75	31.654
598.09	30.964
598.42	31.092
598.76	31.103
599.09	30.689
599.42	30.201
599.76	30.135
600.09	30.166
600.42	29.340
600.76	30.052
601.09	30.878
601.42	30.356
601.76	30.091
602.09	30.693
602.42	31.550
602.76	30.985
603.09	31.146
603.42	31.982
603.76	30.847
604.09	29.931
604.42	30.330
604.76	30.530
605.09	30.941
605.42	30.971
605.75	30.954
606.09	30.361
606.42	30.150
606.75	29.913
607.09	30.857
607.42	29.730
607.75	31.217
608.08	29.964
608.42	30.014
608.75	31.084
609.08	30.992
609.41	30.964
609.75	30.897
610.08	31.003
610.41	30.193
610.74	30.717
611.07	31.008
611.41	30.358
611.74	31.077
612.07	30.353
612.40	31.510
612.73	30.791
613.07	30.709
613.40	30.252
613.73	30.554
614.06	31.775
614.39	30.739
614.72	30.588
615.06	30.615
615.39	30.404
615.72	30.624
616.05	30.503
616.38	30.541
616.71	30.642
617.05	30.821
617.38	31.238
617.71	30.692
618.04	32.063
618.37	31.778
618.70	31.419
619.03	32.500
619.36	31.548
619.69	32.980
620.03	32.725
620.36	32.189
620.69	31.049
621.02	31.498
621.35	33.029
621.68	33.163
622.01	31.750
622.34	30.966
622.67	32.965
623.00	31.164
623.33	31.555
623.66	31.189
623.99	31.165
624.32	32.015
624.65	31.880
624.99	32.731
625.32	31.387
625.65	32.836
625.98	31.265
626.31	31.837
626.64	32.322
626.97	32.112
627.30	31.961
627.63	32.756
627.96	32.884
628.29	32.655
628.62	33.628
628.95	33.066
629.28	31.956
629.61	32.104
629.94	32.356
630.26	32.016
630.59	34.339
630.92	32.718
631.25	31.077
631.58	32.930
631.91	33.114
632.24	33.601
632.57	32.727
632.90	34.164
633.23	34.353
633.56	32.242
633.89	33.539
634.22	33.704
634.55	33.291
634.88	32.312
635.20	32.051
635.53	34.267
635.86	30.559
636.19	34.929
636.52	34.184
636.85	31.638
637.18	33.962
637.51	31.950
637.83	33.377
638.16	34.243
638.49	33.106
638.82	35.395
639.15	33.107
639.48	36.039
639.81	33.333
640.13	32.468
640.46	35.860
640.79	32.695
641.12	33.973
641.45	33.934
641.77	33.333
642.10	34.597
642.43	31.994
642.76	33.333
643.09	35.864
643.41	33.495
643.74	33.278
644.07	33.005
644.40	37.162
644.73	35.026
645.05	34.060
645.38	35.802
645.71	33.156
646.04	35.368
646.36	34.929
646.69	36.691
647.02	35.539
647.35	33.955
647.67	34.735
648.00	36.194
648.33	36.007
648.66	32.203
648.98	31.323
649.31	32.727
649.64	34.537
649.96	32.577
650.29	32.879
650.62	34.872
650.94	35.000
651.27	33.333
651.60	36.396
651.92	33.741
652.25	35.346
652.58	34.167
652.90	34.305
653.23	33.613
653.56	33.333
653.88	34.364
654.21	32.399
654.54	33.277
654.86	33.956
655.19	32.018
655.52	32.198
655.84	27.113
656.17	29.728
656.49	40.408
656.82	41.899
657.15	32.504
657.47	24.683
657.80	18.337
658.13	18.399
658.45	28.506
658.78	28.704
659.10	28.900
659.43	29.729
659.75	30.686
660.08	30.966
660.41	31.052
660.73	33.287
661.06	33.969
661.38	32.877
661.71	32.033
662.03	34.120
662.36	34.286
662.68	33.186
663.01	37.336
663.33	32.715
663.66	31.395
663.98	33.721
664.31	38.166
664.63	31.567
664.96	30.870
665.28	31.788
665.61	35.931
665.93	33.043
666.26	31.236
666.58	32.215
666.91	33.412
667.23	36.792
667.56	35.782
667.88	35.731
668.21	36.516
668.53	38.534
668.86	36.557
669.18	33.491
669.50	34.383
669.83	31.860
670.15	34.732
670.48	32.057
670.80	34.793
671.13	33.333
671.45	29.452
671.77	33.906
672.10	31.881
672.42	31.461
672.75	31.972
673.07	33.631
673.39	30.642
673.72	30.572
674.04	32.500
674.37	34.534
674.69	34.904
675.01	35.333
675.34	34.910
675.66	32.870
675.98	31.264
676.31	33.028
676.63	33.017
676.95	33.409
677.28	34.588
677.60	35.663
677.92	33.945
678.25	32.385
678.57	31.818
678.89	30.462
679.22	34.452
679.54	32.329
679.86	30.815
680.18	33.786
680.51	32.197
680.83	32.604
681.15	32.000
681.48	31.557
681.80	33.884
682.12	36.492
682.44	31.590
682.77	31.567
683.09	33.867
683.41	31.364
683.73	31.797
684.06	31.416
684.38	30.323
684.70	31.373
685.02	32.158
685.34	30.040
685.67	30.394
685.99	34.358
686.31	29.735
686.63	30.798
686.96	29.848
687.28	29.899
687.60	30.418
687.92	32.121
688.24	32.056
688.56	30.786
688.89	34.821
689.21	32.889
689.53	30.394
689.85	32.326
690.17	28.795
690.49	34.752
690.82	30.097
691.14	30.476
691.46	31.542
691.78	29.955
692.10	32.258
692.42	30.736
692.74	31.624
693.06	31.306
693.39	27.602
693.71	31.222
694.03	33.256
694.35	31.776
694.67	29.798
694.99	29.765
695.31	32.376
695.63	35.500
695.95	29.293
696.27	32.124
696.59	35.000
696.91	31.653
697.23	32.905
697.56	31.436
697.88	33.333
698.20	30.979
698.52	30.118
698.84	29.187
699.16	29.250
699.48	36.842
699.80	32.506
700.12	31.267
700.44	32.773
700.76	31.395
701.08	31.818
701.40	36.145
701.72	35.185
702.04	32.673
702.36	32.441
702.68	29.129
703.00	30.909
703.32	31.378
703.64	31.638
703.96	31.304
704.28	30.368
704.60	34.921
704.91	29.338
705.23	32.558
705.55	33.569
705.87	36.462
706.19	32.963
706.51	28.522
706.83	32.797
707.15	31.464
707.47	34.454
707.79	28.646
708.11	32.000
708.43	30.000
708.74	29.457
709.06	31.549
709.38	28.746
709.70	28.698
710.02	30.892
710.34	34.365
710.66	31.731
710.98	27.152
711.29	34.098
711.61	34.237
711.93	34.528
712.25	32.990
712.57	33.700
712.89	32.836
713.20	35.294
713.52	31.010
713.84	31.741
714.16	31.271
714.48	27.097
714.80	31.410
715.11	33.131
715.43	28.840
715.75	29.333
716.07	29.568
716.39	31.208
716.70	32.103
717.02	31.679
717.34	32.389
717.66	31.416
717.97	30.000
718.29	30.962
718.61	33.465
718.93	31.395
719.24	32.319
719.56	30.522
719.88	32.990
720.20	31.439
720.51	29.119
720.83	35.521
721.15	36.975
721.46	29.839
721.78	29.249
722.10	31.970
722.42	31.120
722.73	35.510
723.05	35.510
723.37	33.051
723.68	34.234
724.00	29.487
724.32	28.000
724.63	33.182
724.95	34.934
725.27	33.180
725.58	32.203
725.90	28.571
726.22	27.413
726.53	33.898
726.85	30.337
727.16	33.962
727.48	29.150
727.80	31.984
728.11	30.085
728.43	32.549
728.74	30.645
729.06	30.800
729.38	37.218
729.69	29.084
730.01	24.615
730.32	29.478
730.64	27.562
730.96	27.547
731.27	29.667
731.59	31.864
731.90	26.752
732.22	28.391
732.53	32.558
732.85	29.787
733.16	35.354
733.48	31.295
733.80	32.971
734.11	26.102
734.43	27.835
734.74	28.182
735.06	26.384
735.37	32.931
735.69	33.333
736.00	30.314
736.32	30.201
736.63	29.577
736.95	26.621
737.26	30.605
737.58	25.503
737.89	30.037
738.21	29.699
738.52	33.745
738.83	34.934
739.15	27.511
739.46	27.953
739.78	27.839
740.09	28.431
740.41	27.536
740.72	22.441
741.04	34.818
741.35	30.213
741.66	27.962
741.98	31.633
742.29	30.198
742.61	35.079
742.92	28.910
743.23	21.296
743.55	28.507
743.86	31.100
744.18	24.402
744.49	28.723
744.80	32.065
745.12	32.620
745.43	20.976
745.74	27.604
746.06	30.244
746.37	32.461
746.68	28.910
747.00	30.319
747.31	37.811
747.62	26.214
747.94	30.144
748.25	26.238
748.56	30.601
748.88	32.461
749.19	34.043
749.50	35.961
749.82	21.226
750.13	29.358
750.44	31.579
750.75	30.597
751.07	32.847
751.38	31.034
751.69	29.804
752.01	31.395
752.32	28.685
752.63	29.249
752.94	29.741
753.26	32.636
753.57	26.697
753.88	29.204
754.19	24.583
754.51	28.099
754.82	27.530
755.13	34.167
755.44	27.016
755.75	31.250
756.07	26.848
756.38	29.434
756.69	25.670
757.00	29.000
757.31	28.758
757.63	24.085
757.94	26.389
758.25	27.671
758.56	25.266
758.87	27.195
759.18	26.168
759.50	28.364
759.81	32.441
760.12	29.032
760.43	26.970
760.74	25.617
761.05	25.231
761.36	25.852
761.67	30.606
761.99	30.952
762.30	23.273
762.61	30.435
762.92	30.769
763.23	27.477
763.54	26.168
763.85	32.203
764.16	25.311
764.47	28.226
764.78	24.176
765.10	31.313
765.41	24.290
765.72	26.984
766.03	23.684
766.34	25.912
766.65	30.677
766.96	31.818
767.27	27.660
767.58	24.713
767.89	29.078
768.20	32.955
768.51	22.527
768.82	30.049
769.13	29.954
769.44	26.609
769.75	22.374
770.06	25.431
770.37	28.365
770.68	25.888
770.99	24.887
771.30	30.882
771.61	24.887
771.92	31.034
772.23	27.586
772.54	29.032
772.85	29.012
773.16	30.337
773.47	35.294
773.78	27.451
774.09	30.539
774.39	26.667
774.70	28.025
775.01	36.552
775.32	28.571
775.63	19.008
775.94	27.481
776.25	31.496
776.56	35.000
776.87	31.731
777.18	25.641
777.48	34.483
777.79	20.870
778.10	25.714
778.41	22.523
778.72	27.778
779.03	30.827
779.34	29.787
779.65	34.247
779.95	28.082
780.26	28.966
780.57	28.455
780.88	29.921
781.19	31.034
781.50	32.558
781.80	26.036
782.11	23.270
782.42	32.308
782.73	25.180
783.04	25.185
783.34	25.694
783.65	11.966
783.96	28.689
784.27	26.897
784.57	30.081
784.88	25.781
785.19	44.000
785.50	40.000
785.81	29.310
786.11	33.621
786.42	21.359
786.73	29.091
787.04	27.551
787.34	22.321
787.65	25.714
787.96	16.814
788.26	35.455
788.57	29.060
788.88	29.687
789.19	28.571
789.49	26.957
789.80	27.551
790.11	24.242
790.41	18.182
790.72	41.304
791.03	40.909
791.33	41.250
791.64	36.250
791.95	27.907
792.25	24.468
792.56	28.090
792.87	31.507
793.17	24.638
793.48	13.333
793.79	30.000
794.09	32.500
794.40	25.472
794.70	19.417
795.01	15.447
795.32	17.949
795.62	25.714
795.93	21.569
796.23	28.302
796.54	26.042
796.85	51.471
797.15	28.169
797.46	27.778
797.76	33.333
798.07	25.581
798.37	23.684
798.68	25.758
798.99	25.926
799.29	38.571
799.60	24.638
799.90	44.000
800.21	27.869
800.51	29.231
800.82	44.068
801.12	27.536
801.43	37.705
801.73	26.984
802.04	40.000
802.34	31.343
802.65	13.462
802.95	14.286
803.26	40.385
803.56	15.686
803.87	19.565
804.17	22.667
804.48	38.095
804.78	25.926
805.09	28.261
805.39	22.222
805.70	37.037
806.00	3.509
806.30	46.479
806.61	30.000
806.91	11.111
807.22	34.211
807.52	34.667
807.83	20.000
808.13	25.000
808.43	41.176
808.74	14.925
809.04	18.644
809.35	0.000
809.65	34.375
809.95	-8.108
810.26	38.636
810.56	28.767
810.86	2.381
811.17	28.000
811.47	40.816
811.77	21.053
812.08	34.091
812.38	41.509
812.69	32.500
812.99	18.182
813.29	23.684
813.59	-11.429
813.90	13.636
814.20	-5.128
814.50	40.385
814.81	18.868
815.11	21.277
815.41	38.983
815.72	35.714
816.02	21.569
816.32	18.750
816.62	29.268
816.93	29.730
817.23	34.286
817.53	35.417
817.84	50.000
818.14	28.846
818.44	15.789
818.74	39.130
819.04	15.000
819.35	48.649
819.65	23.529
819.95	25.000
820.25	19.048
820.56	25.000
820.86	17.241
821.16	65.000
821.46	36.170
821.76	52.500
822.07	23.256
822.37	-5.405
822.67	15.625
822.97	26.190
823.27	42.857
823.57	60.000
823.88	3.704
824.18	42.857
824.48	20.588
824.78	58.065
825.08	86.957
825.38	63.636
825.69	33.333
825.99	2.632
826.29	11.111
826.59	26.667
826.89	14.286
827.19	28.261
827.49	22.500
827.79	40.000
828.09	42.857
828.39	48.485
828.70	59.459
829.00	50.000
829.30	9.524
829.60	36.667
829.90	25.000
830.20	28.947
830.50	14.815
830.80	30.435
831.10	18.182
831.40	48.485
831.70	29.032
832.00	23.810
832.30	-47.619
832.60	0.000
832.90	37.931
833.20	-45.000
833.50	18.182
833.80	40.741
834.10	26.923
834.40	31.250
834.70	33.333
835.00	26.316
835.30	80.769
835.60	20.000
835.90	19.355
836.20	40.909
836.50	46.429
836.80	11.538
837.10	10.714
837.40	-366.667
837.70	-13.636
838.00	18.182
838.30	13.043
838.60	15.385
838.90	45.455
839.19	-7.143
839.49	33.333
839.79	-15.385
840.09	-8.333
840.39	25.000
840.69	21.429
840.99	19.231
841.29	10.526
841.59	10.000
841.88	18.182
842.18	90.000
842.48	87.500
842.78	80.000
843.08	22.222
843.38	-50.000
843.68	13.043
843.97	86.667
844.27	6.667
844.57	10.000
844.87	27.778
845.17	-9.524
845.47	113.333
845.76	-9.524
846.06	17.647
846.36	-80.000
846.66	28.571
846.96	46.667
847.25	-125.000
847.55	78.571
847.85	-62.500
848.15	4.545
848.44	-333.333
848.74	5.000
849.04	62.963
849.34	36.364
849.63	-83.333
849.93	-180.000
850.23	55.556
850.53	30.000
850.82	7.692
851.12	-11.111
851.42	53.333
851.71	30.769
852.01	14.286
852.31	-225.000
852.61	81.818
852.90	-15.000
853.20	-5.263
853.50	-75.000
853.79	4.348
854.09	62.500
854.39	68.421
854.68	20.833
854.98	-16.129
855.28	46.154
855.57	5.000
855.87	0.000
856.17	3.704
856.46	100.000
856.76	20.000
857.05	55.556
857.35	36.000
857.65	0.000
857.94	69.231
858.24	65.517
858.53	88.889
858.83	59.259
859.13	68.182
859.42	-17.391
859.72	0.000
860.01	-266.667
860.31	28.000
860.60	9.524
860.90	0.000
861.20	-46.667
861.49	-550.000
861.79	26.667
862.08	60.000
862.38	120.000
862.67	-160.000
862.97	-116.667
863.26	33.333
863.56	22.222
863.85	-500.000
864.15	38.889
864.44	30.000
864.74	92.857
865.03	75.000
865.33	60.000
865.62	33.333
865.92	-8.333
866.21	-166.667
866.51	75.000
866.80	-90.909
867.10	-450.000
867.39	75.000
867.69	0.000
867.98	92.308
868.27	-100.000
868.57	40.000
868.86	38.889
869.16	15.385
869.45	66.667
869.75	-1200.000
870.04	0.000
870.33	-71.429
870.63	23.810
870.92	300.000
871.22	-80.000
871.51	200.000
871.80	122.222
872.10	600.000
>>>>>End Processed Spectral Data<<<<<
