SpectraSuite Data File
++++++++++++++++++++++++++++++++++++
Date: Fri May 15 17:07:10 PDT 2015
User: schluterlab
Dark Spectrum Present: Yes
Reference Spectrum Present: Yes
Number of Sampled Component Spectra: 1
Spectrometers: USB2E3373
Integration Time (usec): 3000 (USB2E3373)
Spectra Averaged: 3 (USB2E3373)
Boxcar Smoothing: 0 (USB2E3373)
Correct for Electrical Dark: No (USB2E3373)
Strobe/Lamp Enabled: No (USB2E3373)
Correct for Detector Non-linearity: No (USB2E3373)
Correct for Stray Light: No (USB2E3373)
Number of Pixels in Processed Spectrum: 2048
>>>>>Begin Processed Spectral Data<<<<<
178.53	0.000
178.91	0.000
179.29	250.000
179.67	-350.000
180.04	-28.571
180.42	250.000
180.80	0.000
181.18	-166.667
181.56	-200.000
181.94	500.000
182.31	-800.000
182.69	100.000
183.07	-66.667
183.45	20.000
183.83	-100.000
184.20	-9.091
184.58	44.444
184.96	-225.000
185.34	66.667
185.72	600.000
186.09	30.769
186.47	900.000
186.85	-66.667
187.23	11.111
187.61	200.000
187.98	300.000
188.36	77.778
188.74	233.333
189.12	82.353
189.49	122.222
189.87	0.000
190.25	114.286
190.63	500.000
191.00	233.333
191.38	36.842
191.76	400.000
192.14	-100.000
192.51	300.000
192.89	100.000
193.27	28.571
193.65	33.333
194.02	81.818
194.40	120.000
194.78	-50.000
195.15	141.667
195.53	62.500
195.91	200.000
196.29	150.000
196.66	7.692
197.04	-71.429
197.42	-22.222
197.79	-166.667
198.17	-38.462
198.55	-400.000
198.92	-133.333
199.30	700.000
199.68	80.000
200.05	233.333
200.43	0.000
200.81	366.667
201.18	33.333
201.56	-100.000
201.94	100.000
202.31	-300.000
202.69	-60.000
203.07	-25.000
203.44	1000.000
203.82	0.000
204.19	135.714
204.57	-133.333
204.95	25.000
205.32	140.000
205.70	142.857
206.08	75.000
206.45	288.889
206.83	135.714
207.20	42.857
207.58	-500.000
207.96	-66.667
208.33	-30.000
208.71	100.000
209.08	-183.333
209.46	1200.000
209.84	20.000
210.21	-100.000
210.59	71.429
210.96	133.333
211.34	100.000
211.71	106.667
212.09	57.143
212.46	-400.000
212.84	0.000
213.22	160.000
213.59	-250.000
213.97	100.000
214.34	90.909
214.72	33.333
215.09	225.000
215.47	23.077
215.84	9.091
216.22	266.667
216.59	12.500
216.97	300.000
217.34	175.000
217.72	-60.000
218.09	87.500
218.47	-25.000
218.84	600.000
219.22	88.889
219.59	20.000
219.97	33.333
220.34	100.000
220.72	171.429
221.09	350.000
221.47	800.000
221.84	-350.000
222.22	-250.000
222.59	109.091
222.97	91.667
223.34	133.333
223.72	57.143
224.09	38.095
224.46	21.429
224.84	133.333
225.21	90.000
225.59	86.667
225.96	50.000
226.34	25.000
226.71	128.571
227.08	-50.000
227.46	87.500
227.83	250.000
228.21	133.333
228.58	81.818
228.95	37.500
229.33	60.000
229.70	106.250
230.08	-75.000
230.45	0.000
230.82	42.857
231.20	20.000
231.57	207.143
231.95	114.286
232.32	10.000
232.69	64.286
233.07	366.667
233.44	60.000
233.81	20.000
234.19	11.111
234.56	129.412
234.93	-700.000
235.31	250.000
235.68	0.000
236.05	23.077
236.43	5.000
236.80	23.529
237.17	37.500
237.55	5.000
237.92	0.000
238.29	69.444
238.67	66.667
239.04	67.647
239.41	21.951
239.79	23.333
240.16	43.902
240.53	52.632
240.91	30.435
241.28	30.159
241.65	64.286
242.02	36.986
242.40	56.667
242.77	47.458
243.14	51.515
243.51	58.750
243.89	47.126
244.26	31.034
244.63	39.286
245.00	46.392
245.38	40.206
245.75	34.831
246.12	39.655
246.49	34.711
246.87	46.154
247.24	42.017
247.61	26.316
247.98	37.398
248.36	38.125
248.73	36.842
249.10	37.013
249.47	42.405
249.84	37.908
250.22	39.412
250.59	39.216
250.96	42.254
251.33	36.047
251.70	43.529
252.08	43.655
252.45	43.564
252.82	42.211
253.19	45.161
253.56	33.645
253.94	44.144
254.31	40.435
254.68	41.228
255.05	33.858
255.42	38.428
255.79	37.838
256.16	38.132
256.54	42.910
256.91	39.163
257.28	42.751
257.65	36.330
258.02	36.170
258.39	42.088
258.76	39.194
259.14	40.199
259.51	37.217
259.88	38.144
260.25	37.908
260.62	43.403
260.99	37.966
261.36	41.096
261.73	41.139
262.10	39.514
262.47	36.196
262.85	42.006
263.22	36.615
263.59	40.187
263.96	40.373
264.33	42.727
264.70	37.500
265.07	41.667
265.44	37.394
265.81	40.113
266.18	38.525
266.55	37.532
266.92	37.306
267.29	40.992
267.66	39.642
268.03	40.314
268.40	37.337
268.77	43.316
269.14	37.890
269.51	41.902
269.88	38.155
270.25	36.480
270.62	37.805
270.99	37.084
271.36	36.919
271.73	38.732
272.10	36.740
272.47	39.716
272.84	37.129
273.21	38.747
273.58	37.831
273.95	38.215
274.32	37.182
274.69	35.068
275.06	39.732
275.43	35.601
275.80	41.280
276.17	36.552
276.54	35.118
276.91	38.158
277.28	36.245
277.65	37.603
278.02	36.809
278.39	38.293
278.76	36.268
279.13	34.025
279.50	38.866
279.87	39.093
280.23	34.839
280.60	35.478
280.97	36.970
281.34	34.615
281.71	38.193
282.08	34.356
282.45	35.225
282.82	33.977
283.19	35.203
283.56	36.416
283.92	36.243
284.29	33.654
284.66	35.465
285.03	37.328
285.40	35.350
285.77	33.919
286.14	34.657
286.51	35.609
286.87	33.821
287.24	35.175
287.61	34.215
287.98	34.561
288.35	33.449
288.72	33.275
289.08	33.333
289.45	34.271
289.82	34.091
290.19	32.935
290.56	32.247
290.93	32.492
291.29	29.430
291.66	32.283
292.03	29.825
292.40	32.419
292.77	31.898
293.13	28.734
293.50	29.742
293.87	28.244
294.24	30.603
294.60	28.614
294.97	28.571
295.34	29.908
295.71	26.826
296.08	27.803
296.44	25.605
296.81	27.639
297.18	27.681
297.55	29.404
297.91	29.726
298.28	28.760
298.65	27.680
299.02	26.954
299.38	25.445
299.75	26.621
300.12	26.963
300.48	26.614
300.85	24.842
301.22	25.584
301.59	25.132
301.95	25.443
302.32	27.108
302.69	27.239
303.05	24.381
303.42	27.273
303.79	24.883
304.15	24.970
304.52	23.543
304.89	23.626
305.25	23.608
305.62	23.221
305.99	23.158
306.35	25.087
306.72	23.060
307.09	23.375
307.45	24.340
307.82	24.190
308.19	25.784
308.55	24.100
308.92	24.946
309.29	23.352
309.65	22.713
310.02	25.083
310.38	24.808
310.75	23.825
311.12	24.004
311.48	24.390
311.85	23.665
312.22	23.101
312.58	23.355
312.95	21.985
313.31	22.671
313.68	22.094
314.05	21.735
314.41	22.371
314.78	22.990
315.14	22.508
315.51	22.774
315.87	21.824
316.24	23.761
316.61	24.311
316.97	23.512
317.34	22.168
317.70	23.136
318.07	23.846
318.43	22.647
318.80	22.254
319.16	23.828
319.53	22.507
319.89	23.130
320.26	23.178
320.62	23.470
320.99	23.591
321.35	22.816
321.72	22.845
322.08	23.162
322.45	23.350
322.81	22.102
323.18	21.884
323.54	22.201
323.91	21.032
324.27	21.875
324.64	22.753
325.00	22.354
325.37	23.508
325.73	21.850
326.10	22.525
326.46	24.036
326.83	22.572
327.19	21.709
327.56	23.110
327.92	22.447
328.29	21.786
328.65	22.170
329.01	22.518
329.38	22.673
329.74	22.191
330.11	21.038
330.47	21.707
330.84	21.154
331.20	23.859
331.56	21.111
331.93	22.374
332.29	21.632
332.66	20.995
333.02	21.283
333.38	21.265
333.75	22.161
334.11	21.218
334.48	22.665
334.84	22.436
335.20	21.866
335.57	20.671
335.93	22.945
336.29	22.560
336.66	21.889
337.02	20.446
337.38	20.833
337.75	21.364
338.11	21.821
338.47	21.350
338.84	21.349
339.20	21.389
339.56	20.550
339.93	22.023
340.29	21.193
340.65	21.685
341.02	20.922
341.38	20.177
341.74	19.611
342.11	19.844
342.47	21.619
342.83	20.675
343.20	20.296
343.56	20.609
343.92	20.992
344.28	20.922
344.65	20.207
345.01	19.188
345.37	20.521
345.73	20.084
346.10	22.519
346.46	20.858
346.82	20.949
347.19	19.534
347.55	21.303
347.91	19.984
348.27	20.614
348.63	19.847
349.00	20.591
349.36	21.197
349.72	20.398
350.08	20.246
350.45	20.830
350.81	19.186
351.17	20.277
351.53	21.143
351.89	19.240
352.26	19.760
352.62	20.565
352.98	20.241
353.34	19.807
353.70	19.822
354.07	20.968
354.43	20.336
354.79	20.066
355.15	20.952
355.51	20.411
355.87	20.146
356.24	19.250
356.60	19.483
356.96	20.000
357.32	20.847
357.68	20.172
358.04	19.871
358.40	19.534
358.77	20.335
359.13	20.016
359.49	19.414
359.85	19.657
360.21	20.335
360.57	19.663
360.93	19.667
361.29	17.674
361.66	19.671
362.02	20.076
362.38	20.030
362.74	19.228
363.10	20.015
363.46	19.792
363.82	20.361
364.18	19.705
364.54	18.897
364.90	18.208
365.26	18.268
365.62	19.927
365.98	20.455
366.35	20.320
366.71	19.438
367.07	20.247
367.43	19.698
367.79	19.011
368.15	19.526
368.51	18.937
368.87	18.665
369.23	17.762
369.59	19.023
369.95	19.868
370.31	19.581
370.67	19.701
371.03	19.417
371.39	19.183
371.75	19.707
372.11	19.401
372.47	19.379
372.83	19.375
373.19	18.402
373.55	18.917
373.91	18.431
374.27	19.915
374.63	19.095
374.99	19.716
375.35	18.663
375.71	19.720
376.07	19.312
376.42	18.776
376.78	18.859
377.14	18.957
377.50	19.323
377.86	18.407
378.22	19.081
378.58	19.295
378.94	18.589
379.30	19.089
379.66	19.436
380.02	18.578
380.38	18.807
380.74	18.432
381.09	18.773
381.45	19.144
381.81	18.816
382.17	19.162
382.53	18.926
382.89	19.083
383.25	18.606
383.61	18.963
383.97	19.302
384.32	18.637
384.68	18.328
385.04	18.382
385.40	18.233
385.76	18.239
386.12	19.340
386.48	18.966
386.83	18.706
387.19	18.864
387.55	18.821
387.91	19.071
388.27	19.109
388.62	18.313
388.98	18.539
389.34	18.676
389.70	18.832
390.06	18.691
390.42	18.977
390.77	18.574
391.13	18.096
391.49	19.082
391.85	19.168
392.20	18.581
392.56	18.754
392.92	18.555
393.28	18.986
393.64	19.580
393.99	18.809
394.35	19.228
394.71	18.455
395.07	18.730
395.42	17.608
395.78	18.567
396.14	20.050
396.50	19.404
396.85	18.802
397.21	18.358
397.57	18.558
397.92	18.634
398.28	18.851
398.64	18.313
399.00	19.187
399.35	18.623
399.71	18.036
400.07	19.468
400.42	17.993
400.78	20.086
401.14	19.298
401.49	18.702
401.85	19.074
402.21	18.494
402.57	18.500
402.92	18.130
403.28	19.236
403.63	19.672
403.99	18.048
404.35	19.113
404.70	18.214
405.06	19.565
405.42	18.086
405.77	18.652
406.13	18.917
406.49	18.709
406.84	18.643
407.20	18.242
407.55	18.545
407.91	18.783
408.27	19.184
408.62	19.138
408.98	19.409
409.34	19.455
409.69	18.282
410.05	18.658
410.40	17.778
410.76	18.335
411.11	19.312
411.47	18.869
411.83	18.205
412.18	18.983
412.54	18.290
412.89	18.411
413.25	19.254
413.60	17.764
413.96	18.160
414.31	19.024
414.67	17.447
415.03	18.375
415.38	18.864
415.74	19.088
416.09	19.464
416.45	18.569
416.80	18.969
417.16	19.682
417.51	18.921
417.87	19.296
418.22	18.588
418.58	19.064
418.93	19.436
419.29	18.630
419.64	18.406
420.00	20.907
420.35	19.284
420.71	19.623
421.06	18.969
421.42	18.570
421.77	18.960
422.12	18.785
422.48	19.220
422.83	17.807
423.19	19.074
423.54	18.989
423.90	18.316
424.25	19.346
424.61	19.339
424.96	19.048
425.31	19.815
425.67	19.131
426.02	19.258
426.38	19.349
426.73	18.826
427.09	18.987
427.44	19.588
427.79	19.505
428.15	19.660
428.50	19.140
428.85	19.595
429.21	19.298
429.56	19.677
429.92	19.414
430.27	19.398
430.62	19.812
430.98	18.737
431.33	19.558
431.68	18.420
432.04	18.726
432.39	19.224
432.74	18.521
433.10	20.115
433.45	19.415
433.80	19.269
434.16	18.283
434.51	19.624
434.86	19.222
435.22	18.957
435.57	19.089
435.92	19.162
436.28	18.843
436.63	18.140
436.98	18.366
437.34	18.754
437.69	19.022
438.04	19.259
438.39	18.754
438.75	19.065
439.10	19.128
439.45	19.477
439.81	18.899
440.16	20.487
440.51	19.463
440.86	20.544
441.22	20.079
441.57	19.702
441.92	19.622
442.27	19.401
442.63	19.593
442.98	19.070
443.33	19.421
443.68	19.098
444.03	19.871
444.39	19.528
444.74	20.067
445.09	19.766
445.44	19.772
445.79	19.134
446.15	18.998
446.50	19.246
446.85	19.607
447.20	18.926
447.55	20.201
447.91	19.289
448.26	18.953
448.61	20.841
448.96	19.105
449.31	18.324
449.66	19.512
450.02	19.852
450.37	19.324
450.72	18.900
451.07	20.000
451.42	19.476
451.77	19.168
452.12	19.139
452.47	18.480
452.83	18.257
453.18	18.912
453.53	20.038
453.88	19.126
454.23	18.808
454.58	19.207
454.93	19.459
455.28	18.921
455.63	19.839
455.98	20.144
456.34	19.349
456.69	19.695
457.04	19.786
457.39	19.380
457.74	20.012
458.09	18.011
458.44	18.549
458.79	18.095
459.14	19.737
459.49	19.940
459.84	18.725
460.19	19.417
460.54	19.743
460.89	19.432
461.24	19.503
461.59	19.656
461.94	18.868
462.29	20.145
462.64	19.668
462.99	18.483
463.34	18.637
463.69	18.919
464.04	19.492
464.39	19.102
464.74	19.448
465.09	20.150
465.44	20.254
465.79	19.104
466.14	20.182
466.49	19.839
466.84	19.810
467.19	19.962
467.54	20.179
467.89	19.709
468.24	19.465
468.59	19.556
468.94	18.984
469.29	19.541
469.64	19.959
469.99	19.692
470.34	19.044
470.68	20.433
471.03	21.161
471.38	19.686
471.73	18.978
472.08	19.471
472.43	19.799
472.78	19.054
473.13	18.367
473.48	19.088
473.83	19.054
474.17	19.495
474.52	19.592
474.87	19.818
475.22	19.219
475.57	18.690
475.92	19.309
476.27	19.790
476.61	19.618
476.96	18.572
477.31	20.173
477.66	19.270
478.01	19.090
478.36	19.499
478.70	20.500
479.05	19.890
479.40	19.131
479.75	19.135
480.10	18.945
480.45	19.150
480.79	19.688
481.14	19.518
481.49	19.360
481.84	19.691
482.19	19.504
482.53	19.089
482.88	19.093
483.23	18.858
483.58	19.057
483.92	19.022
484.27	18.642
484.62	18.736
484.97	18.574
485.31	19.147
485.66	19.344
486.01	19.368
486.36	19.296
486.70	19.063
487.05	18.718
487.40	18.795
487.75	19.549
488.09	18.356
488.44	19.188
488.79	18.939
489.13	18.830
489.48	19.667
489.83	19.013
490.17	19.416
490.52	19.215
490.87	18.880
491.22	19.150
491.56	18.928
491.91	18.881
492.26	19.203
492.60	18.330
492.95	19.479
493.30	19.101
493.64	19.450
493.99	19.275
494.34	18.786
494.68	18.762
495.03	18.881
495.37	19.333
495.72	19.889
496.07	19.610
496.41	19.528
496.76	19.438
497.11	19.190
497.45	19.332
497.80	19.778
498.14	19.324
498.49	18.842
498.84	19.212
499.18	19.528
499.53	18.601
499.87	18.337
500.22	18.694
500.56	19.667
500.91	19.177
501.26	19.427
501.60	18.938
501.95	19.214
502.29	19.564
502.64	20.512
502.98	19.043
503.33	18.732
503.67	19.133
504.02	19.501
504.36	19.099
504.71	18.889
505.06	19.376
505.40	19.442
505.75	19.691
506.09	19.361
506.44	19.353
506.78	18.980
507.13	19.545
507.47	18.538
507.82	18.750
508.16	19.334
508.51	18.783
508.85	19.309
509.19	19.266
509.54	19.142
509.88	18.069
510.23	19.903
510.57	19.615
510.92	17.377
511.26	19.367
511.61	19.252
511.95	19.397
512.30	18.570
512.64	19.811
512.98	19.540
513.33	19.586
513.67	18.874
514.02	19.737
514.36	19.314
514.70	20.105
515.05	19.800
515.39	19.303
515.74	19.940
516.08	19.187
516.42	19.376
516.77	19.719
517.11	18.813
517.46	20.407
517.80	20.977
518.14	18.922
518.49	19.050
518.83	19.502
519.17	19.284
519.52	18.650
519.86	19.088
520.20	18.955
520.55	18.699
520.89	19.887
521.23	19.189
521.58	19.306
521.92	19.551
522.26	19.323
522.61	18.377
522.95	19.404
523.29	18.043
523.64	20.076
523.98	19.313
524.32	19.201
524.66	20.294
525.01	20.065
525.35	19.767
525.69	18.923
526.04	18.651
526.38	19.520
526.72	18.443
527.06	19.520
527.41	19.459
527.75	18.834
528.09	18.538
528.43	20.122
528.78	19.142
529.12	20.194
529.46	19.428
529.80	19.063
530.15	20.132
530.49	18.721
530.83	20.246
531.17	19.140
531.51	19.152
531.86	19.171
532.20	20.042
532.54	20.830
532.88	19.576
533.22	19.153
533.57	19.332
533.91	18.473
534.25	20.117
534.59	18.922
534.93	18.754
535.27	18.909
535.62	18.989
535.96	19.243
536.30	19.261
536.64	20.055
536.98	20.139
537.32	19.986
537.66	19.846
538.01	20.210
538.35	18.724
538.69	19.640
539.03	18.250
539.37	20.121
539.71	19.087
540.05	19.416
540.39	19.321
540.73	19.456
541.07	20.028
541.42	20.094
541.76	20.234
542.10	19.890
542.44	19.041
542.78	17.894
543.12	19.093
543.46	18.846
543.80	20.125
544.14	18.291
544.48	19.987
544.82	20.096
545.16	19.057
545.50	21.162
545.84	19.193
546.18	19.149
546.52	19.827
546.86	18.979
547.20	20.243
547.54	19.505
547.88	19.158
548.22	18.080
548.56	19.327
548.90	19.407
549.24	19.766
549.58	20.310
549.92	17.727
550.26	19.487
550.60	19.033
550.94	20.239
551.28	19.552
551.62	19.846
551.96	20.150
552.30	19.079
552.64	19.535
552.98	19.550
553.32	19.829
553.66	18.578
554.00	19.489
554.34	18.981
554.68	19.174
555.02	20.833
555.36	19.073
555.69	18.535
556.03	20.343
556.37	19.502
556.71	19.350
557.05	18.195
557.39	19.182
557.73	19.790
558.07	19.080
558.41	19.602
558.75	19.953
559.08	18.834
559.42	19.206
559.76	19.295
560.10	19.343
560.44	19.434
560.78	19.301
561.12	19.182
561.45	20.239
561.79	20.868
562.13	19.517
562.47	20.000
562.81	19.813
563.15	19.252
563.48	19.590
563.82	19.698
564.16	19.290
564.50	20.000
564.84	19.813
565.17	18.779
565.51	20.082
565.85	19.547
566.19	19.695
566.52	19.973
566.86	19.987
567.20	19.614
567.54	19.891
567.88	19.391
568.21	20.079
568.55	19.348
568.89	20.226
569.23	19.740
569.56	20.403
569.90	19.407
570.24	19.204
570.57	19.964
570.91	19.972
571.25	19.697
571.59	19.028
571.92	19.141
572.26	19.414
572.60	18.915
572.93	19.172
573.27	19.530
573.61	19.779
573.95	19.689
574.28	19.756
574.62	18.815
574.96	19.147
575.29	18.551
575.63	18.839
575.97	18.840
576.30	19.117
576.64	18.861
576.98	19.614
577.31	19.046
577.65	19.518
577.98	19.801
578.32	19.062
578.66	18.934
578.99	19.233
579.33	18.811
579.67	19.001
580.00	20.000
580.34	19.229
580.67	19.337
581.01	19.693
581.35	19.854
581.68	19.288
582.02	19.839
582.35	19.387
582.69	19.381
583.02	19.056
583.36	19.328
583.70	19.600
584.03	19.461
584.37	20.271
584.70	19.478
585.04	19.378
585.37	19.607
585.71	19.575
586.04	19.692
586.38	18.832
586.72	20.057
587.05	19.642
587.39	19.821
587.72	20.093
588.06	19.624
588.39	19.567
588.73	19.841
589.06	19.798
589.40	19.564
589.73	20.044
590.07	19.713
590.40	19.737
590.73	20.387
591.07	19.254
591.40	20.036
591.74	19.457
592.07	20.130
592.41	19.965
592.74	19.833
593.08	19.071
593.41	20.066
593.75	19.562
594.08	19.224
594.41	19.432
594.75	19.389
595.08	19.221
595.42	19.433
595.75	20.240
596.09	19.312
596.42	19.223
596.75	19.760
597.09	20.000
597.42	19.964
597.75	19.606
598.09	19.602
598.42	19.585
598.76	20.249
599.09	20.072
599.42	19.818
599.76	19.451
600.09	19.985
600.42	20.053
600.76	19.205
601.09	19.160
601.42	19.781
601.76	19.293
602.09	19.719
602.42	19.882
602.76	18.930
603.09	19.103
603.42	19.774
603.76	19.355
604.09	19.482
604.42	20.516
604.76	20.160
605.09	20.247
605.42	19.684
605.75	19.746
606.09	19.618
606.42	19.516
606.75	19.697
607.09	19.692
607.42	19.273
607.75	19.316
608.08	19.272
608.42	19.872
608.75	20.145
609.08	19.831
609.41	18.883
609.75	19.808
610.08	19.720
610.41	19.614
610.74	19.844
611.07	19.121
611.41	20.239
611.74	20.789
612.07	19.861
612.40	20.022
612.73	20.169
613.07	18.785
613.40	19.967
613.73	19.978
614.06	19.922
614.39	20.135
614.72	19.608
615.06	19.721
615.39	19.269
615.72	19.322
616.05	19.944
616.38	19.031
616.71	20.122
617.05	19.704
617.38	19.987
617.71	19.057
618.04	20.127
618.37	21.375
618.70	20.000
619.03	20.833
619.36	18.162
619.69	19.409
620.03	21.329
620.36	19.957
620.69	19.843
621.02	19.419
621.35	19.170
621.68	20.663
622.01	20.000
622.34	20.271
622.67	21.293
623.00	20.291
623.33	20.198
623.66	20.045
623.99	19.289
624.32	20.380
624.65	19.549
624.99	21.068
625.32	19.181
625.65	19.403
625.98	20.306
626.31	18.953
626.64	20.971
626.97	21.030
627.30	19.790
627.63	19.151
627.96	20.395
628.29	19.796
628.62	20.551
628.95	20.741
629.28	20.363
629.61	19.342
629.94	21.408
630.26	19.862
630.59	20.291
630.92	20.410
631.25	18.564
631.58	19.714
631.91	19.298
632.24	19.381
632.57	20.568
632.90	19.454
633.23	20.235
633.56	19.899
633.89	20.345
634.22	19.753
634.55	20.712
634.88	18.774
635.20	21.154
635.53	20.533
635.86	19.116
636.19	21.345
636.52	20.026
636.85	19.107
637.18	19.245
637.51	20.755
637.83	19.317
638.16	21.010
638.49	19.210
638.82	21.579
639.15	19.403
639.48	21.320
639.81	21.199
640.13	19.913
640.46	19.388
640.79	19.293
641.12	19.645
641.45	20.571
641.77	20.148
642.10	20.695
642.43	18.167
642.76	21.122
643.09	21.002
643.41	19.417
643.74	18.781
644.07	21.182
644.40	22.466
644.73	22.592
645.05	20.302
645.38	20.988
645.71	19.858
646.04	21.903
646.36	19.681
646.69	21.223
647.02	20.605
647.35	21.642
647.67	20.658
648.00	21.082
648.33	21.672
648.66	18.983
648.98	18.425
649.31	18.843
649.64	19.623
649.96	18.314
650.29	18.910
650.62	20.684
650.94	19.815
651.27	18.994
651.60	23.063
651.92	20.280
652.25	19.005
652.58	21.333
652.90	21.784
653.23	19.496
653.56	18.951
653.88	20.619
654.21	18.564
654.54	20.713
654.86	21.392
655.19	20.029
655.52	21.594
655.84	20.077
656.17	23.316
656.49	31.097
656.82	31.593
657.15	23.669
657.47	17.426
657.80	12.764
658.13	12.537
658.45	19.157
658.78	19.090
659.10	18.631
659.43	19.494
659.75	20.079
660.08	19.379
660.41	20.327
660.73	20.718
661.06	19.757
661.38	21.135
661.71	18.480
662.03	23.176
662.36	21.538
662.68	18.805
663.01	21.616
663.33	19.954
663.66	19.070
663.98	20.000
664.31	20.896
664.63	19.355
664.96	17.174
665.28	18.102
665.61	20.779
665.93	21.304
666.26	21.475
666.58	20.134
666.91	20.471
667.23	20.047
667.56	20.142
667.88	20.144
668.21	20.048
668.53	19.385
668.86	23.349
669.18	18.396
669.50	19.370
669.83	18.140
670.15	20.513
670.48	18.421
670.80	19.585
671.13	17.226
671.45	21.461
671.77	22.318
672.10	19.604
672.42	18.352
672.75	20.604
673.07	23.256
673.39	22.202
673.72	18.343
674.04	21.458
674.37	19.068
674.69	19.914
675.01	20.667
675.34	20.270
675.66	21.528
675.98	21.064
676.31	21.330
676.63	19.002
676.95	20.227
677.28	20.471
677.60	18.554
677.92	17.661
678.25	21.663
678.57	19.048
678.89	19.118
679.22	22.371
679.54	20.281
679.86	17.495
680.18	20.194
680.51	21.780
680.83	20.875
681.15	21.400
681.48	20.697
681.80	23.760
682.12	19.355
682.44	18.828
682.77	22.958
683.09	19.680
683.41	19.545
683.73	21.659
684.06	20.354
684.38	19.355
684.70	20.915
685.02	17.012
685.34	17.589
685.67	21.388
685.99	22.966
686.31	20.531
686.63	19.666
686.96	20.342
687.28	16.970
687.60	18.061
687.92	24.848
688.24	18.952
688.56	19.214
688.89	22.545
689.21	21.111
689.53	19.490
689.85	20.233
690.17	20.536
690.49	22.931
690.82	18.204
691.14	18.333
691.46	21.963
691.78	20.045
692.10	20.430
692.42	21.861
692.74	19.444
693.06	20.721
693.39	19.231
693.71	16.968
694.03	21.016
694.35	22.664
694.67	20.455
694.99	19.060
695.31	21.410
695.63	19.750
695.95	19.192
696.27	21.762
696.59	18.056
696.91	21.849
697.23	17.995
697.56	19.554
697.88	22.151
698.20	24.374
698.52	22.588
698.84	19.856
699.16	18.750
699.48	19.549
699.80	17.618
700.12	20.485
700.44	19.048
700.76	15.116
701.08	20.303
701.40	20.181
701.72	26.852
702.04	19.802
702.36	18.060
702.68	18.318
703.00	22.727
703.32	18.768
703.64	18.927
703.96	22.609
704.28	20.245
704.60	20.635
704.91	17.666
705.23	21.927
705.55	24.028
705.87	23.466
706.19	21.852
706.51	21.306
706.83	23.473
707.15	17.445
707.47	21.008
707.79	22.396
708.11	19.000
708.43	23.250
708.74	21.964
709.06	23.380
709.38	22.324
709.70	21.006
710.02	23.248
710.34	23.839
710.66	15.705
710.98	17.219
711.29	23.934
711.61	22.034
711.93	20.195
712.25	25.430
712.57	20.879
712.89	20.522
713.20	23.875
713.52	17.422
713.84	18.771
714.16	20.275
714.48	19.355
714.80	23.077
715.11	23.100
715.43	19.436
715.75	20.000
716.07	20.266
716.39	21.141
716.70	18.819
717.02	19.084
717.34	21.862
717.66	20.354
717.97	18.696
718.29	25.105
718.61	21.260
718.93	22.868
719.24	22.053
719.56	21.285
719.88	24.399
720.20	20.076
720.51	18.391
720.83	21.236
721.15	23.109
721.46	20.161
721.78	22.925
722.10	15.242
722.42	19.917
722.73	18.367
723.05	26.122
723.37	23.729
723.68	25.676
724.00	25.641
724.32	20.444
724.63	23.182
724.95	23.581
725.27	16.590
725.58	23.305
725.90	17.460
726.22	19.305
726.53	19.322
726.85	23.596
727.16	21.509
727.48	20.243
727.80	20.648
728.11	24.153
728.43	23.922
728.74	14.516
729.06	22.400
729.38	26.316
729.69	17.131
730.01	20.385
730.32	23.881
730.64	25.088
730.96	24.151
731.27	22.333
731.59	20.000
731.90	18.471
732.22	23.028
732.53	22.924
732.85	23.404
733.16	25.253
733.48	20.863
733.80	17.029
734.11	22.373
734.43	21.993
734.74	22.424
735.06	20.847
735.37	22.054
735.69	28.283
736.00	17.073
736.32	23.826
736.63	26.056
736.95	21.502
737.26	17.438
737.58	25.168
737.89	22.711
738.21	21.805
738.52	20.165
738.83	21.834
739.15	16.157
739.46	22.441
739.78	21.612
740.09	19.608
740.41	23.551
740.72	18.504
741.04	23.887
741.35	20.426
741.66	17.536
741.98	19.388
742.29	26.238
742.61	20.419
742.92	17.536
743.23	14.352
743.55	19.005
743.86	21.053
744.18	22.010
744.49	19.149
744.80	19.565
745.12	20.856
745.43	18.049
745.74	21.354
746.06	16.098
746.37	24.607
746.68	22.275
747.00	18.617
747.31	26.368
747.62	21.845
747.94	20.574
748.25	15.842
748.56	22.404
748.88	19.895
749.19	30.851
749.50	25.616
749.82	18.868
750.13	18.349
750.44	25.188
750.75	21.269
751.07	27.372
751.38	21.839
751.69	18.431
752.01	20.930
752.32	24.303
752.63	19.368
752.94	17.241
753.26	27.197
753.57	19.910
753.88	24.336
754.19	18.750
754.51	22.314
754.82	18.623
755.13	25.833
755.44	21.371
755.75	28.125
756.07	20.233
756.38	20.755
756.69	21.073
757.00	24.000
757.31	21.569
757.63	20.732
757.94	23.056
758.25	22.740
758.56	18.617
758.87	20.113
759.18	21.807
759.50	19.636
759.81	21.070
760.12	20.968
760.43	21.818
760.74	20.062
761.05	24.000
761.36	23.580
761.67	21.515
761.99	23.810
762.30	17.455
762.61	18.972
762.92	19.457
763.23	19.820
763.54	20.561
763.85	27.966
764.16	16.598
764.47	17.742
764.78	23.810
765.10	22.896
765.41	20.505
765.72	21.905
766.03	19.549
766.34	21.898
766.65	25.896
766.96	23.737
767.27	23.936
767.58	23.563
767.89	19.149
768.20	28.977
768.51	19.780
768.82	24.138
769.13	22.120
769.44	21.459
769.75	14.155
770.06	21.983
770.37	18.750
770.68	21.827
770.99	19.910
771.30	20.588
771.61	24.887
771.92	25.862
772.23	22.167
772.54	25.269
772.85	22.222
773.16	25.843
773.47	35.294
773.78	23.529
774.09	26.946
774.39	24.000
774.70	20.382
775.01	27.586
775.32	17.857
775.63	21.488
775.94	22.901
776.25	28.346
776.56	20.000
776.87	22.115
777.18	22.222
777.48	25.000
777.79	11.304
778.10	8.571
778.41	24.324
778.72	24.603
779.03	21.053
779.34	29.078
779.65	31.507
779.95	22.603
780.26	23.448
780.57	13.821
780.88	14.961
781.19	14.655
781.50	20.155
781.80	23.669
782.11	21.384
782.42	26.154
782.73	22.302
783.04	22.222
783.34	18.750
783.65	17.949
783.96	17.213
784.27	25.517
784.57	29.268
784.88	30.469
785.19	33.000
785.50	37.000
785.81	25.000
786.11	24.138
786.42	24.272
786.73	34.545
787.04	33.673
787.34	22.321
787.65	28.571
787.96	23.009
788.26	20.000
788.57	24.786
788.88	26.563
789.19	26.984
789.49	16.522
789.80	31.633
790.11	22.222
790.41	18.182
790.72	19.565
791.03	29.545
791.33	20.000
791.64	23.750
791.95	26.744
792.25	28.723
792.56	30.337
792.87	21.918
793.17	20.290
793.48	33.333
793.79	32.500
794.09	37.500
794.40	19.811
794.70	12.621
795.01	22.764
795.32	17.094
795.62	34.286
795.93	31.373
796.23	23.585
796.54	33.333
796.85	38.235
797.15	29.577
797.46	33.333
797.76	34.848
798.07	16.279
798.37	22.368
798.68	13.636
798.99	22.222
799.29	11.429
799.60	20.290
799.90	33.333
800.21	27.869
800.51	38.462
800.82	18.644
801.12	24.638
801.43	16.393
801.73	42.857
802.04	10.000
802.34	37.313
802.65	38.462
802.95	10.714
803.26	25.000
803.56	31.373
803.87	19.565
804.17	25.333
804.48	34.921
804.78	31.481
805.09	21.739
805.39	26.667
805.70	31.481
806.00	0.000
806.30	32.394
806.61	30.000
806.91	9.722
807.22	42.105
807.52	45.333
807.83	14.545
808.13	26.389
808.43	32.353
808.74	14.925
809.04	13.559
809.35	25.000
809.65	37.500
809.95	-16.216
810.26	9.091
810.56	27.397
810.86	14.286
811.17	32.000
811.47	36.735
811.77	23.684
812.08	29.545
812.38	18.868
812.69	22.500
812.99	21.212
813.29	36.842
813.59	17.143
813.90	22.727
814.20	33.333
814.50	32.692
814.81	37.736
815.11	2.128
815.41	30.508
815.72	38.095
816.02	47.059
816.32	31.250
816.62	39.024
816.93	29.730
817.23	25.714
817.53	41.667
817.84	28.261
818.14	36.538
818.44	7.895
818.74	50.000
819.04	-7.500
819.35	16.216
819.65	32.353
819.95	19.444
820.25	50.000
820.56	55.000
820.86	-3.448
821.16	65.000
821.46	38.298
821.76	47.500
822.07	25.581
822.37	-5.405
822.67	37.500
822.97	66.667
823.27	28.571
823.57	44.000
823.88	18.519
824.18	25.000
824.48	38.235
824.78	38.710
825.08	13.043
825.38	27.273
825.69	-16.667
825.99	18.421
826.29	30.556
826.59	66.667
826.89	-42.857
827.19	30.435
827.49	35.000
827.79	45.714
828.09	32.143
828.39	42.424
828.70	54.054
829.00	39.286
829.30	23.810
829.60	53.333
829.90	25.000
830.20	31.579
830.50	37.037
830.80	21.739
831.10	4.545
831.40	60.606
831.70	35.484
832.00	52.381
832.30	4.762
832.60	0.000
832.90	20.690
833.20	60.000
833.50	45.455
833.80	44.444
834.10	50.000
834.40	34.375
834.70	88.889
835.00	68.421
835.30	84.615
835.60	100.000
835.90	48.387
836.20	86.364
836.50	85.714
836.80	-7.692
837.10	17.857
837.40	66.667
837.70	59.091
838.00	9.091
838.30	69.565
838.60	61.538
838.90	31.818
839.19	35.714
839.49	33.333
839.79	61.538
840.09	33.333
840.39	92.857
840.69	-3.571
840.99	23.077
841.29	-5.263
841.59	-50.000
841.88	9.091
842.18	140.000
842.48	37.500
842.78	40.000
843.08	25.926
843.38	10.000
843.68	47.826
843.97	33.333
844.27	-13.333
844.57	35.000
844.87	16.667
845.17	4.762
845.47	120.000
845.76	19.048
846.06	100.000
846.36	50.000
846.66	-28.571
846.96	0.000
847.25	12.500
847.55	57.143
847.85	112.500
848.15	40.909
848.44	-133.333
848.74	45.000
849.04	44.444
849.34	100.000
849.63	0.000
849.93	-60.000
850.23	5.556
850.53	40.000
850.82	7.692
851.12	155.556
851.42	66.667
851.71	3.846
852.01	85.714
852.31	50.000
852.61	27.273
852.90	40.000
853.20	15.789
853.50	0.000
853.79	43.478
854.09	58.333
854.39	52.632
854.68	16.667
854.98	32.258
855.28	42.308
855.57	60.000
855.87	44.444
856.17	70.370
856.46	57.143
856.76	-13.333
857.05	155.556
857.35	28.000
857.65	83.333
857.94	15.385
858.24	41.379
858.53	38.889
858.83	70.370
859.13	40.909
859.42	8.696
859.72	325.000
860.01	-100.000
860.31	40.000
860.60	-14.286
860.90	133.333
861.20	-20.000
861.49	-150.000
861.79	20.000
862.08	105.000
862.38	106.667
862.67	-80.000
862.97	-133.333
863.26	16.667
863.56	77.778
863.85	-100.000
864.15	83.333
864.44	40.000
864.74	135.714
865.03	100.000
865.33	80.000
865.62	300.000
865.92	-16.667
866.21	16.667
866.51	37.500
866.80	27.273
867.10	-100.000
867.39	166.667
867.69	0.000
867.98	84.615
868.27	233.333
868.57	26.667
868.86	44.444
869.16	-15.385
869.45	106.667
869.75	-400.000
870.04	0.000
870.33	14.286
870.63	52.381
870.92	133.333
871.22	20.000
871.51	200.000
871.80	44.444
872.10	366.667
>>>>>End Processed Spectral Data<<<<<
