SpectraSuite Data File
++++++++++++++++++++++++++++++++++++
Date: Fri May 15 17:17:30 PDT 2015
User: schluterlab
Dark Spectrum Present: Yes
Reference Spectrum Present: Yes
Number of Sampled Component Spectra: 1
Spectrometers: USB2E3373
Integration Time (usec): 3000 (USB2E3373)
Spectra Averaged: 3 (USB2E3373)
Boxcar Smoothing: 0 (USB2E3373)
Correct for Electrical Dark: No (USB2E3373)
Strobe/Lamp Enabled: No (USB2E3373)
Correct for Detector Non-linearity: No (USB2E3373)
Correct for Stray Light: No (USB2E3373)
Number of Pixels in Processed Spectrum: 2048
>>>>>Begin Processed Spectral Data<<<<<
178.53	0.000
178.91	0.000
179.29	-37.500
179.67	0.000
180.04	-100.000
180.42	75.000
180.80	600.000
181.18	-166.667
181.56	450.000
181.94	150.000
182.31	200.000
182.69	180.000
183.07	-100.000
183.45	-100.000
183.83	50.000
184.20	36.364
184.58	-111.111
184.96	-350.000
185.34	-166.667
185.72	400.000
186.09	53.846
186.47	700.000
186.85	50.000
187.23	-0.000
187.61	-100.000
187.98	-33.333
188.36	144.444
188.74	166.667
189.12	47.059
189.49	100.000
189.87	0.000
190.25	71.429
190.63	550.000
191.00	100.000
191.38	36.842
191.76	500.000
192.14	-100.000
192.51	750.000
192.89	111.111
193.27	14.286
193.65	150.000
194.02	9.091
194.40	80.000
194.78	50.000
195.15	33.333
195.53	-25.000
195.91	200.000
196.29	-100.000
196.66	-0.000
197.04	28.571
197.42	11.111
197.79	-333.333
198.17	-53.846
198.55	800.000
198.92	166.667
199.30	1000.000
199.68	300.000
200.05	66.667
200.43	0.000
200.81	0.000
201.18	333.333
201.56	400.000
201.94	250.000
202.31	-133.333
202.69	-180.000
203.07	150.000
203.44	1200.000
203.82	0.000
204.19	78.571
204.57	-100.000
204.95	150.000
205.32	60.000
205.70	114.286
206.08	175.000
206.45	200.000
206.83	121.429
207.20	-14.286
207.58	-800.000
207.96	133.333
208.33	10.000
208.71	0.000
209.08	-333.333
209.46	-100.000
209.84	-240.000
210.21	-600.000
210.59	-42.857
210.96	33.333
211.34	275.000
211.71	113.333
212.09	-85.714
212.46	-100.000
212.84	0.000
213.22	130.000
213.59	350.000
213.97	46.154
214.34	100.000
214.72	83.333
215.09	75.000
215.47	30.769
215.84	63.636
216.22	233.333
216.59	50.000
216.97	450.000
217.34	225.000
217.72	80.000
218.09	75.000
218.47	25.000
218.84	-300.000
219.22	-88.889
219.59	100.000
219.97	-33.333
220.34	325.000
220.72	114.286
221.09	-150.000
221.47	150.000
221.84	0.000
222.22	-150.000
222.59	127.273
222.97	108.333
223.34	-266.667
223.72	71.429
224.09	28.571
224.46	57.143
224.84	300.000
225.21	60.000
225.59	140.000
225.96	150.000
226.34	225.000
226.71	42.857
227.08	0.000
227.46	37.500
227.83	-100.000
228.21	-11.111
228.58	45.455
228.95	75.000
229.33	-30.000
229.70	25.000
230.08	-150.000
230.45	85.714
230.82	-14.286
231.20	33.333
231.57	114.286
231.95	28.571
232.32	-30.000
232.69	64.286
233.07	300.000
233.44	40.000
233.81	40.000
234.19	-11.111
234.56	17.647
234.93	300.000
235.31	125.000
235.68	-60.000
236.05	-69.231
236.43	40.000
236.80	5.882
237.17	28.125
237.55	15.000
237.92	-18.519
238.29	16.667
238.67	46.667
239.04	11.765
239.41	-7.317
239.79	16.667
240.16	19.512
240.53	0.000
240.91	-15.217
241.28	0.000
241.65	21.429
242.02	27.397
242.40	11.667
242.77	10.169
243.14	-13.636
243.51	3.750
243.89	13.793
244.26	5.747
244.63	7.143
245.00	8.247
245.38	10.309
245.75	-17.978
246.12	-5.172
246.49	4.959
246.87	5.769
247.24	-4.202
247.61	-14.035
247.98	1.626
248.36	0.625
248.73	6.579
249.10	-3.247
249.47	1.266
249.84	0.654
250.22	0.588
250.59	-1.307
250.96	7.512
251.33	-0.581
251.70	-2.353
252.08	-2.538
252.45	9.406
252.82	2.010
253.19	7.834
253.56	-0.467
253.94	4.054
254.31	5.217
254.68	4.825
255.05	-1.575
255.42	0.000
255.79	4.247
256.16	0.000
256.54	4.851
256.91	1.521
257.28	3.717
257.65	2.247
258.02	0.000
258.39	5.387
258.76	0.000
259.14	3.987
259.51	1.618
259.88	2.749
260.25	0.980
260.62	5.903
260.99	-2.034
261.36	1.370
261.73	-0.633
262.10	-1.520
262.47	1.227
262.85	2.194
263.22	1.231
263.59	3.115
263.96	4.037
264.33	1.212
264.70	-2.083
265.07	0.595
265.44	0.000
265.81	1.977
266.18	1.093
266.55	2.057
266.92	3.368
267.29	0.261
267.66	3.581
268.03	1.571
268.40	0.522
268.77	3.209
269.14	0.240
269.51	0.514
269.88	3.491
270.25	-0.510
270.62	0.488
270.99	-1.279
271.36	0.733
271.73	2.817
272.10	1.460
272.47	0.236
272.84	2.723
273.21	3.712
273.58	3.373
273.95	4.805
274.32	1.617
274.69	-0.679
275.06	1.339
275.43	4.535
275.80	2.208
276.17	-0.460
276.54	0.642
276.91	-0.658
277.28	-0.218
277.65	2.273
278.02	1.702
278.39	-1.751
278.76	1.258
279.13	-1.037
279.50	2.941
279.87	-0.216
280.23	0.430
280.60	3.899
280.97	2.424
281.34	-0.385
281.71	3.696
282.08	0.409
282.45	0.587
282.82	0.965
283.19	1.161
283.56	2.312
283.92	-0.569
284.29	-1.154
284.66	1.357
285.03	1.965
285.40	1.134
285.77	-0.351
286.14	1.264
286.51	1.845
286.87	1.280
287.24	0.368
287.61	1.940
287.98	3.158
288.35	-0.173
288.72	2.977
289.08	1.910
289.45	1.230
289.82	0.874
290.19	-0.171
290.56	0.343
290.93	-1.010
291.29	0.462
291.66	1.732
292.03	1.914
292.40	1.774
292.77	-0.478
293.13	-1.948
293.50	-0.303
293.87	1.985
294.24	2.164
294.60	0.596
294.97	0.744
295.34	0.153
295.71	2.086
296.08	1.046
296.44	0.569
296.81	0.972
297.18	-0.435
297.55	2.439
297.91	0.959
298.28	3.430
298.65	-0.271
299.02	0.809
299.38	-1.231
299.75	-0.828
300.12	0.916
300.48	0.395
300.85	2.408
301.22	0.519
301.59	0.395
301.95	2.025
302.32	2.335
302.69	2.114
303.05	0.866
303.42	-0.249
303.79	1.752
304.15	2.509
304.52	0.000
304.89	1.287
305.25	1.211
305.62	0.117
305.99	0.702
306.35	0.347
306.72	1.012
307.09	0.456
307.45	2.067
307.82	0.463
308.19	1.510
308.55	1.200
308.92	1.416
309.29	-0.335
309.65	-0.108
310.02	0.990
310.38	1.427
310.75	1.967
311.12	1.076
311.48	0.424
311.85	0.628
312.22	1.055
312.58	1.380
312.95	-0.640
313.31	-0.414
313.68	0.628
314.05	0.816
314.41	1.237
314.78	0.722
315.14	1.644
315.51	2.174
315.87	1.025
316.24	2.022
316.61	1.673
316.97	1.687
317.34	1.855
317.70	0.956
318.07	1.827
318.43	1.471
318.80	1.515
319.16	2.832
319.53	3.799
319.89	2.756
320.26	1.721
320.62	2.808
320.99	1.983
321.35	1.953
321.72	4.050
322.08	2.820
322.45	2.843
322.81	3.831
323.18	2.552
323.54	3.282
323.91	3.603
324.27	3.711
324.64	4.963
325.00	5.292
325.37	6.887
325.73	4.261
326.10	6.176
326.46	7.534
326.83	6.299
327.19	7.847
327.56	7.472
327.92	7.482
328.29	8.661
328.65	9.057
329.01	9.559
329.38	10.691
329.74	7.932
330.11	11.029
330.47	9.276
330.84	9.904
331.20	12.643
331.56	11.481
331.93	12.968
332.29	13.382
332.66	12.851
333.02	12.639
333.38	12.741
333.75	14.469
334.11	13.876
334.48	14.053
334.84	14.103
335.20	15.737
335.57	14.506
335.93	15.628
336.29	14.180
336.66	14.896
337.02	14.777
337.38	14.815
337.75	15.273
338.11	16.411
338.47	15.967
338.84	15.342
339.20	16.088
339.56	16.972
339.93	15.936
340.29	15.596
340.65	17.025
341.02	16.489
341.38	16.372
341.74	15.371
342.11	15.251
342.47	15.391
342.83	16.609
343.20	16.028
343.56	16.609
343.92	16.386
344.28	17.250
344.65	16.062
345.01	15.990
345.37	15.980
345.73	16.820
346.10	17.515
346.46	16.821
346.82	16.612
347.19	15.711
347.55	16.040
347.91	17.233
348.27	16.977
348.63	16.695
349.00	16.653
349.36	15.461
349.72	16.584
350.08	16.557
350.45	16.441
350.81	15.199
351.17	14.739
351.53	16.571
351.89	15.937
352.26	16.800
352.62	15.968
352.98	15.582
353.34	16.747
353.70	17.799
354.07	15.000
354.43	16.093
354.79	16.185
355.15	16.270
355.51	17.563
355.87	16.667
356.24	15.579
356.60	16.572
356.96	16.746
357.32	15.815
357.68	16.966
358.04	15.994
358.40	15.836
358.77	16.587
359.13	16.173
359.49	15.948
359.85	16.771
360.21	16.348
360.57	16.756
360.93	17.398
361.29	16.239
361.66	16.536
362.02	16.742
362.38	17.593
362.74	15.670
363.10	17.306
363.46	16.457
363.82	17.431
364.18	16.753
364.54	16.103
364.90	16.416
365.26	16.230
365.62	17.956
365.98	17.449
366.35	16.387
366.71	17.369
367.07	17.344
367.43	16.175
367.79	17.809
368.15	16.511
368.51	17.116
368.87	17.301
369.23	16.895
369.59	17.420
369.95	17.962
370.31	17.702
370.67	17.164
371.03	17.401
371.39	16.484
371.75	16.777
372.11	17.903
372.47	16.864
372.83	18.169
373.19	17.903
373.55	17.329
373.91	17.423
374.27	17.860
374.63	18.665
374.99	18.156
375.35	18.106
375.71	17.762
376.07	18.820
376.42	17.415
376.78	18.389
377.14	17.197
377.50	16.999
377.86	17.871
378.22	17.805
378.58	17.949
378.94	17.895
379.30	17.966
379.66	18.621
380.02	17.413
380.38	17.468
380.74	18.372
381.09	19.141
381.45	17.431
381.81	17.643
382.17	18.147
382.53	18.176
382.89	18.707
383.25	19.166
383.61	19.085
383.97	17.143
384.32	18.699
384.68	18.080
385.04	17.770
385.40	18.917
385.76	19.748
386.12	18.435
386.48	19.285
386.83	18.833
387.19	19.170
387.55	18.193
387.91	18.215
388.27	18.681
388.62	18.188
388.98	18.416
389.34	19.113
389.70	18.459
390.06	18.062
390.42	18.005
390.77	18.574
391.13	17.465
391.49	18.370
391.85	18.194
392.20	18.707
392.56	17.991
392.92	18.555
393.28	18.986
393.64	18.919
393.99	18.746
394.35	18.849
394.71	18.710
395.07	17.788
395.42	18.519
395.78	17.329
396.14	19.042
396.50	18.326
396.85	18.030
397.21	19.298
397.57	18.307
397.92	18.095
398.28	19.368
398.64	18.012
399.00	19.752
399.35	17.664
399.71	18.036
400.07	18.198
400.42	17.442
400.78	18.616
401.14	18.451
401.49	17.808
401.85	17.611
402.21	18.072
402.57	17.875
402.92	17.566
403.28	17.982
403.63	18.537
403.99	17.985
404.35	17.989
404.70	17.202
405.06	17.391
405.42	18.707
405.77	16.851
406.13	17.346
406.49	17.052
406.84	17.543
407.20	16.436
407.55	16.871
407.91	17.380
408.27	17.145
408.62	17.415
408.98	17.991
409.34	17.534
409.69	16.602
410.05	17.241
410.40	17.222
410.76	17.612
411.11	17.250
411.47	17.291
411.83	16.510
412.18	16.924
412.54	16.729
412.89	17.241
413.25	17.810
413.60	16.460
413.96	16.564
414.31	17.073
414.67	16.742
415.03	16.511
415.38	17.493
415.74	16.873
416.09	17.897
416.45	16.880
416.80	16.854
417.16	17.956
417.51	17.189
417.87	16.688
418.22	17.940
418.58	16.589
418.93	17.179
419.29	16.645
419.64	17.174
420.00	18.010
420.35	16.537
420.71	17.497
421.06	18.293
421.42	17.548
421.77	17.341
422.12	17.423
422.48	17.921
422.83	17.285
423.19	18.059
423.54	17.343
423.90	17.727
424.25	17.681
424.61	17.931
424.96	17.654
425.31	17.389
425.67	18.897
426.02	17.962
426.38	18.347
426.73	17.978
427.09	19.304
427.44	18.471
427.79	17.737
428.15	18.689
428.50	18.171
428.85	17.445
429.21	18.563
429.56	18.760
429.92	18.850
430.27	18.145
430.62	17.982
430.98	18.365
431.33	18.980
431.68	18.315
432.04	18.446
432.39	18.254
432.74	18.100
433.10	19.080
433.45	18.937
433.80	19.327
434.16	18.615
434.51	19.462
434.86	19.222
435.22	18.845
435.57	19.089
435.92	19.521
436.28	18.903
436.63	18.540
436.98	18.598
437.34	18.875
437.69	19.201
438.04	18.405
438.39	19.059
438.75	20.279
439.10	19.242
439.45	19.355
439.81	19.021
440.16	19.299
440.51	20.418
440.86	20.483
441.22	19.457
441.57	19.702
441.92	19.622
442.27	19.956
442.63	20.396
442.98	20.391
443.33	19.644
443.68	19.310
444.03	20.666
444.39	19.921
444.74	20.401
445.09	19.710
445.44	20.627
445.79	20.010
446.15	19.548
446.50	19.689
446.85	20.191
447.20	20.177
447.55	20.201
447.91	20.305
448.26	20.205
448.61	20.668
448.96	20.711
449.31	19.191
449.66	19.977
450.02	20.251
450.37	20.628
450.72	20.389
451.07	21.013
451.42	20.974
451.77	20.012
452.12	19.916
452.47	19.961
452.83	20.436
453.18	20.557
453.53	20.860
453.88	20.158
454.23	20.467
454.58	20.277
454.93	20.876
455.28	19.937
455.63	21.451
455.98	21.527
456.34	20.817
456.69	20.267
457.04	21.676
457.39	21.081
457.74	20.133
458.09	19.482
458.44	19.778
458.79	19.944
459.14	20.652
459.49	21.433
459.84	20.643
460.19	19.903
460.54	21.088
460.89	20.341
461.24	20.248
461.59	21.200
461.94	20.314
462.29	20.748
462.64	21.528
462.99	20.650
463.34	20.932
463.69	21.171
464.04	21.005
464.39	21.043
464.74	20.552
465.09	21.585
465.44	20.716
465.79	20.748
466.14	20.353
466.49	19.954
466.84	20.999
467.19	21.339
467.54	21.009
467.89	21.036
468.24	20.742
468.59	21.968
468.94	20.889
469.29	20.262
469.64	21.121
469.99	22.355
470.34	20.273
470.68	21.551
471.03	21.373
471.38	20.328
471.73	21.008
472.08	20.217
472.43	19.597
472.78	20.836
473.13	21.633
473.48	19.935
473.83	20.610
474.17	19.819
474.52	19.974
474.87	21.394
475.22	20.439
475.57	20.271
475.92	21.174
476.27	20.547
476.61	20.949
476.96	20.524
477.31	21.201
477.66	19.438
478.01	20.438
478.36	19.499
478.70	20.935
479.05	20.495
479.40	20.721
479.75	20.021
480.10	20.533
480.45	20.950
480.79	20.896
481.14	21.004
481.49	19.754
481.84	20.222
482.19	20.112
482.53	20.048
482.88	20.095
483.23	19.866
483.58	20.094
483.92	20.716
484.27	19.781
484.62	20.708
484.97	19.983
485.31	19.581
485.66	19.989
486.01	19.957
486.36	19.246
486.70	20.018
487.05	20.348
487.40	20.088
487.75	19.775
488.09	20.334
488.44	20.598
488.79	20.545
489.13	20.272
489.48	19.752
489.83	20.359
490.17	20.360
490.52	20.231
490.87	20.777
491.22	20.344
491.56	19.592
491.91	19.694
492.26	19.737
492.60	20.298
492.95	20.954
493.30	19.736
493.64	19.843
493.99	20.483
494.34	19.757
494.68	19.333
495.03	19.270
495.37	20.216
495.72	20.192
496.07	20.488
496.41	20.000
496.76	20.221
497.11	19.655
497.45	20.000
497.80	20.333
498.14	20.368
498.49	19.248
498.84	19.461
499.18	20.281
499.53	20.238
499.87	19.553
500.22	20.079
500.56	20.121
500.91	19.428
501.26	19.476
501.60	19.872
501.95	20.233
502.29	19.758
502.64	19.981
502.98	19.290
503.33	19.693
503.67	19.904
504.02	19.697
504.36	19.792
504.71	20.303
505.06	19.980
505.40	20.254
505.75	19.794
506.09	19.818
506.44	20.534
506.78	20.102
507.13	20.062
507.47	19.269
507.82	18.803
508.16	19.440
508.51	19.150
508.85	19.728
509.19	18.893
509.54	20.054
509.88	19.525
510.23	19.473
510.57	19.294
510.92	18.817
511.26	18.712
511.61	20.242
511.95	19.726
512.30	18.958
512.64	19.310
512.98	18.922
513.33	20.201
513.67	19.557
514.02	20.709
514.36	20.057
514.70	20.688
515.05	20.094
515.39	19.776
515.74	20.838
516.08	19.964
516.42	20.612
516.77	20.246
517.11	19.288
517.46	19.689
517.80	20.501
518.14	18.555
518.49	19.471
518.83	19.198
519.17	19.466
519.52	18.946
519.86	18.727
520.20	19.988
520.55	18.136
520.89	20.452
521.23	19.379
521.58	19.874
521.92	19.103
522.26	19.779
522.61	19.156
522.95	20.265
523.29	19.187
523.64	19.568
523.98	19.572
524.32	18.814
524.66	19.526
525.01	19.740
525.35	18.859
525.69	19.663
526.04	19.246
526.38	20.039
526.72	18.182
527.06	19.001
527.41	20.383
527.75	18.097
528.09	18.671
528.43	19.649
528.78	18.548
529.12	19.806
529.46	18.648
529.80	19.633
530.15	20.330
530.49	19.394
530.83	18.536
531.17	18.334
531.51	19.767
531.86	18.763
532.20	18.580
532.54	19.877
532.88	19.439
533.22	19.624
533.57	19.725
533.91	19.582
534.25	19.792
534.59	18.858
534.93	18.880
535.27	18.020
535.62	18.795
535.96	19.765
536.30	20.053
536.64	19.642
536.98	18.815
537.32	19.275
537.66	19.565
538.01	18.951
538.35	18.724
538.69	19.041
539.03	18.455
539.37	19.112
539.71	19.223
540.05	19.212
540.39	19.737
540.73	18.689
541.07	20.235
541.42	20.833
541.76	18.651
542.10	18.032
542.44	19.319
542.78	17.963
543.12	19.025
543.46	18.498
543.80	19.153
544.14	17.757
544.48	18.654
544.82	19.686
545.16	18.784
545.50	19.292
545.84	18.839
546.18	18.652
546.52	18.890
546.86	18.907
547.20	18.741
547.54	17.880
547.88	18.750
548.22	18.869
548.56	19.063
548.90	19.677
549.24	18.457
549.58	18.900
549.92	18.513
550.26	18.388
550.60	18.810
550.94	18.820
551.28	18.702
551.62	18.077
551.96	19.248
552.30	19.518
552.64	18.124
552.98	19.198
553.32	19.686
553.66	17.634
554.00	19.343
554.34	18.981
554.68	18.584
555.02	17.783
555.36	18.773
555.69	17.582
556.03	17.345
556.37	17.936
556.71	18.773
557.05	18.568
557.39	17.100
557.73	19.190
558.07	19.382
558.41	17.534
558.75	18.628
559.08	18.597
559.42	18.175
559.76	18.094
560.10	17.966
560.44	17.275
560.78	18.811
561.12	18.336
561.45	17.920
561.79	18.838
562.13	19.730
562.47	19.065
562.81	18.444
563.15	18.406
563.48	18.458
563.82	18.874
564.16	18.663
564.50	17.973
564.84	19.143
565.17	18.176
565.51	19.194
565.85	18.587
566.19	18.833
566.52	19.236
566.86	19.152
567.20	18.244
567.54	18.491
567.88	19.215
568.21	19.061
568.55	18.043
568.89	19.045
569.23	18.296
569.56	18.214
569.90	18.149
570.24	17.789
570.57	17.927
570.91	18.299
571.25	17.922
571.59	17.751
571.92	18.163
572.26	17.814
572.60	17.860
572.93	17.822
573.27	17.837
573.61	17.810
573.95	18.378
574.28	17.426
574.62	17.417
574.96	17.701
575.29	17.769
575.63	17.077
575.97	17.512
576.30	17.965
576.64	17.457
576.98	18.275
577.31	18.063
577.65	17.729
577.98	17.773
578.32	17.831
578.66	17.408
578.99	17.899
579.33	17.387
579.67	17.462
580.00	17.747
580.34	17.935
580.67	17.804
581.01	17.603
581.35	17.808
581.68	17.457
582.02	17.434
582.35	17.344
582.69	17.413
583.02	17.496
583.36	17.909
583.70	18.069
584.03	18.821
584.37	18.577
584.70	18.379
585.04	17.487
585.37	17.813
585.71	17.946
586.04	17.322
586.38	17.285
586.72	18.393
587.05	18.862
587.39	18.283
587.72	18.207
588.06	17.382
588.39	18.114
588.73	18.162
589.06	18.624
589.40	18.804
589.73	18.510
590.07	18.731
590.40	17.918
590.73	18.822
591.07	18.363
591.40	18.744
591.74	18.597
592.07	19.295
592.41	18.772
592.74	18.080
593.08	17.569
593.41	17.957
593.75	17.893
594.08	17.782
594.41	18.486
594.75	17.557
595.08	18.275
595.42	17.814
595.75	18.175
596.09	18.374
596.42	18.231
596.75	18.606
597.09	18.451
597.42	18.293
597.75	17.957
598.09	17.881
598.42	18.096
598.76	17.675
599.09	17.508
599.42	17.393
599.76	18.172
600.09	18.100
600.42	17.817
600.76	17.719
601.09	17.710
601.42	17.470
601.76	17.904
602.09	18.193
602.42	18.324
602.76	17.869
603.09	18.729
603.42	18.269
603.76	18.266
604.09	17.780
604.42	17.766
604.76	18.959
605.09	18.601
605.42	17.607
605.75	17.863
606.09	18.132
606.42	17.890
606.75	18.052
607.09	18.198
607.42	17.545
607.75	17.940
608.08	17.610
608.42	18.502
608.75	17.735
609.08	18.186
609.41	18.325
609.75	17.692
610.08	18.323
610.41	17.633
610.74	17.942
611.07	17.829
611.41	18.786
611.74	18.230
612.07	17.880
612.40	17.834
612.73	18.475
613.07	18.054
613.40	19.147
613.73	17.851
614.06	18.531
614.39	18.161
614.72	18.263
615.06	18.659
615.39	17.467
615.72	18.030
616.05	18.492
616.38	17.607
616.71	18.593
617.05	18.468
617.38	17.788
617.71	18.113
618.04	18.603
618.37	19.735
618.70	18.218
619.03	19.097
619.36	18.162
619.69	18.802
620.03	19.942
620.36	17.310
620.69	18.344
621.02	18.502
621.35	19.170
621.68	18.622
622.01	19.667
622.34	18.595
622.67	19.006
623.00	19.449
623.33	18.140
623.66	17.876
623.99	18.306
624.32	18.251
624.65	18.346
624.99	18.284
625.32	18.650
625.65	18.617
625.98	18.856
626.31	18.038
626.64	19.844
626.97	19.721
627.30	19.264
627.63	18.198
627.96	18.419
628.29	17.669
628.62	19.371
628.95	19.138
629.28	19.052
629.61	17.846
629.94	18.768
630.26	18.083
630.59	19.251
630.92	17.744
631.25	17.846
631.58	18.943
631.91	18.750
632.24	17.431
632.57	19.318
632.90	18.861
633.23	19.412
633.56	18.892
633.89	18.249
634.22	19.753
634.55	19.695
634.88	18.519
635.20	17.436
635.53	20.533
635.86	16.905
636.19	19.405
636.52	18.240
636.85	16.005
637.18	18.491
637.51	19.245
637.83	18.528
638.16	20.873
638.49	17.711
638.82	20.526
639.15	19.810
639.48	18.157
639.81	16.876
640.13	18.903
640.46	18.950
640.79	17.231
641.12	20.384
641.45	16.817
641.77	19.407
642.10	20.379
642.43	18.328
642.76	21.287
643.09	19.063
643.41	17.799
643.74	18.946
644.07	19.376
644.40	19.932
644.73	20.841
645.05	18.289
645.38	19.224
645.71	16.667
646.04	19.928
646.36	19.504
646.69	20.683
647.02	20.416
647.35	19.030
647.67	19.744
648.00	21.082
648.33	19.625
648.66	18.644
648.98	18.258
649.31	18.017
649.64	19.623
649.96	16.856
650.29	19.761
650.62	18.632
650.94	18.704
651.27	15.456
651.60	18.559
651.92	17.832
652.25	18.828
652.58	17.667
652.90	20.926
653.23	18.487
653.56	16.751
653.88	18.385
654.21	16.287
654.54	18.846
654.86	20.034
655.19	19.737
655.52	19.040
655.84	15.951
656.17	18.121
656.49	24.991
656.82	26.917
657.15	21.206
657.47	16.029
657.80	12.014
658.13	12.051
658.45	19.415
658.78	19.949
659.10	20.426
659.43	20.796
659.75	20.967
660.08	21.034
660.41	20.633
660.73	20.856
661.06	20.624
661.38	18.982
661.71	17.659
662.03	20.815
662.36	18.022
662.68	19.469
663.01	20.306
663.33	17.169
663.66	15.581
663.98	16.047
664.31	20.682
664.63	16.590
664.96	18.913
665.28	15.894
665.61	18.398
665.93	20.000
666.26	18.655
666.58	16.555
666.91	20.000
667.23	20.519
667.56	17.536
667.88	19.664
668.21	20.286
668.53	22.222
668.86	20.755
669.18	19.575
669.50	17.918
669.83	19.302
670.15	20.513
670.48	17.225
670.80	18.894
671.13	18.792
671.45	20.091
671.77	20.601
672.10	17.030
672.42	19.663
672.75	18.828
673.07	18.962
673.39	19.817
673.72	16.371
674.04	17.292
674.37	19.492
674.69	20.771
675.01	19.333
675.34	18.694
675.66	19.444
675.98	20.621
676.31	21.789
676.63	17.577
676.95	19.773
677.28	21.412
677.60	18.554
677.92	18.349
678.25	20.788
678.57	17.100
678.89	19.118
679.22	17.226
679.54	18.675
679.86	18.091
680.18	16.893
680.51	18.939
680.83	17.097
681.15	19.200
681.48	20.287
681.80	16.736
682.12	17.944
682.44	13.808
682.77	18.322
683.09	20.595
683.41	18.864
683.73	18.203
684.06	18.805
684.38	15.699
684.70	19.390
685.02	17.427
685.34	14.229
685.67	18.574
685.99	17.360
686.31	17.522
686.63	17.996
686.96	18.251
687.28	15.758
687.60	16.920
687.92	20.404
688.24	17.944
688.56	17.904
688.89	17.857
689.21	21.333
689.53	19.258
689.85	18.140
690.17	20.536
690.49	18.203
690.82	19.175
691.14	19.048
691.46	17.290
691.78	17.117
692.10	16.344
692.42	17.749
692.74	17.949
693.06	19.144
693.39	18.778
693.71	16.968
694.03	18.245
694.35	18.224
694.67	18.939
694.99	16.710
695.31	19.321
695.63	21.750
695.95	17.172
696.27	18.135
696.59	19.167
696.91	16.246
697.23	16.967
697.56	16.584
697.88	18.925
698.20	17.768
698.52	17.882
698.84	14.593
699.16	17.000
699.48	16.541
699.80	18.114
700.12	17.251
700.44	21.569
700.76	15.116
701.08	18.182
701.40	17.169
701.72	23.765
702.04	18.812
702.36	16.722
702.68	15.916
703.00	15.455
703.32	18.768
703.64	13.842
703.96	18.841
704.28	18.712
704.60	20.952
704.91	16.719
705.23	18.937
705.55	19.435
705.87	20.939
706.19	18.519
706.51	15.464
706.83	19.614
707.15	13.084
707.47	16.807
707.79	16.406
708.11	19.000
708.43	18.500
708.74	17.571
709.06	17.746
709.38	14.373
709.70	20.710
710.02	14.968
710.34	21.981
710.66	16.026
710.98	15.894
711.29	19.344
711.61	20.000
711.93	20.521
712.25	19.931
712.57	20.147
712.89	17.910
713.20	19.377
713.52	16.376
713.84	20.137
714.16	17.182
714.48	17.742
714.80	19.231
715.11	19.757
715.43	17.241
715.75	14.667
716.07	17.608
716.39	16.779
716.70	18.819
717.02	16.412
717.34	19.028
717.66	16.814
717.97	18.696
718.29	15.481
718.61	20.472
718.93	17.829
719.24	13.688
719.56	16.064
719.88	19.931
720.20	19.318
720.51	17.625
720.83	15.444
721.15	17.227
721.46	20.161
721.78	16.996
722.10	18.959
722.42	16.598
722.73	13.469
723.05	20.000
723.37	22.458
723.68	21.622
724.00	16.667
724.32	15.111
724.63	14.091
724.95	17.031
725.27	19.816
725.58	19.915
725.90	15.476
726.22	18.919
726.53	21.356
726.85	19.850
727.16	19.623
727.48	15.789
727.80	17.004
728.11	17.373
728.43	16.863
728.74	15.726
729.06	21.600
729.38	21.805
729.69	12.749
730.01	17.692
730.32	16.791
730.64	20.495
730.96	17.358
731.27	18.000
731.59	15.932
731.90	19.108
732.22	19.874
732.53	17.608
732.85	18.085
733.16	19.529
733.48	17.266
733.80	12.319
734.11	19.322
734.43	14.777
734.74	19.697
735.06	17.264
735.37	16.918
735.69	20.539
736.00	17.073
736.32	15.436
736.63	20.070
736.95	21.502
737.26	13.879
737.58	16.779
737.89	16.850
738.21	21.429
738.52	16.872
738.83	15.721
739.15	17.467
739.46	16.535
739.78	16.850
740.09	18.627
740.41	19.203
740.72	14.567
741.04	19.433
741.35	14.043
741.66	16.114
741.98	18.878
742.29	20.297
742.61	19.895
742.92	12.796
743.23	13.889
743.55	23.077
743.86	17.225
744.18	14.833
744.49	14.894
744.80	10.326
745.12	22.460
745.43	15.610
745.74	23.438
746.06	17.073
746.37	18.325
746.68	18.483
747.00	11.702
747.31	21.393
747.62	14.078
747.94	17.703
748.25	18.812
748.56	18.033
748.88	14.136
749.19	22.340
749.50	18.719
749.82	12.264
750.13	15.138
750.44	21.053
750.75	19.030
751.07	22.263
751.38	17.625
751.69	14.902
752.01	22.481
752.32	18.327
752.63	17.787
752.94	15.517
753.26	24.268
753.57	13.122
753.88	15.929
754.19	16.250
754.51	16.116
754.82	16.599
755.13	18.750
755.44	20.161
755.75	19.531
756.07	14.008
756.38	13.208
756.69	14.176
757.00	18.000
757.31	18.627
757.63	14.329
757.94	17.222
758.25	16.712
758.56	15.957
758.87	15.014
759.18	15.888
759.50	13.455
759.81	15.719
760.12	16.129
760.43	16.970
760.74	18.210
761.05	14.154
761.36	16.477
761.67	15.455
761.99	20.748
762.30	16.000
762.61	21.739
762.92	20.814
763.23	11.712
763.54	13.084
763.85	19.915
764.16	15.768
764.47	15.323
764.78	21.245
765.10	20.539
765.41	14.511
765.72	14.603
766.03	15.414
766.34	14.599
766.65	23.904
766.96	19.192
767.27	19.149
767.58	14.943
767.89	9.220
768.20	18.182
768.51	19.231
768.82	17.734
769.13	12.903
769.44	14.163
769.75	15.982
770.06	15.517
770.37	19.231
770.68	16.244
770.99	19.910
771.30	15.196
771.61	15.385
771.92	19.828
772.23	18.719
772.54	19.355
772.85	18.519
773.16	19.663
773.47	24.183
773.78	19.608
774.09	7.186
774.39	6.000
774.70	24.841
775.01	30.345
775.32	20.000
775.63	20.661
775.94	20.611
776.25	19.685
776.56	7.500
776.87	31.731
777.18	13.675
777.48	23.276
777.79	17.391
778.10	20.952
778.41	19.820
778.72	15.079
779.03	5.263
779.34	24.113
779.65	25.342
779.95	14.384
780.26	14.483
780.57	16.260
780.88	20.472
781.19	11.207
781.50	12.403
781.80	19.527
782.11	8.176
782.42	26.154
782.73	14.388
783.04	5.926
783.34	20.139
783.65	8.547
783.96	22.951
784.27	22.759
784.57	15.447
784.88	19.531
785.19	17.000
785.50	35.000
785.81	27.586
786.11	14.655
786.42	11.650
786.73	29.091
787.04	7.143
787.34	16.964
787.65	8.571
787.96	13.274
788.26	10.909
788.57	15.385
788.88	27.344
789.19	17.460
789.49	11.304
789.80	25.510
790.11	24.242
790.41	12.727
790.72	26.087
791.03	21.591
791.33	28.750
791.64	13.750
791.95	12.791
792.25	21.277
792.56	17.978
792.87	21.918
793.17	24.638
793.48	12.000
793.79	23.750
794.09	21.250
794.40	0.943
794.70	22.330
795.01	10.569
795.32	17.949
795.62	22.857
795.93	25.490
796.23	15.094
796.54	22.917
796.85	22.059
797.15	22.535
797.46	16.667
797.76	39.394
798.07	12.791
798.37	7.895
798.68	19.697
798.99	28.395
799.29	31.429
799.60	15.942
799.90	18.667
800.21	16.393
800.51	26.154
800.82	22.034
801.12	33.333
801.43	13.115
801.73	20.635
802.04	10.000
802.34	16.418
802.65	25.000
802.95	17.857
803.26	9.615
803.56	25.490
803.87	-10.870
804.17	24.000
804.48	28.571
804.78	20.370
805.09	21.739
805.39	26.667
805.70	24.074
806.00	-8.772
806.30	15.493
806.61	28.571
806.91	20.833
807.22	18.421
807.52	18.667
807.83	5.455
808.13	18.056
808.43	26.471
808.74	7.463
809.04	-5.085
809.35	26.923
809.65	10.938
809.95	18.919
810.26	15.909
810.56	15.068
810.86	-2.381
811.17	20.000
811.47	30.612
811.77	23.684
812.08	34.091
812.38	37.736
812.69	0.000
812.99	18.182
813.29	23.684
813.59	17.143
813.90	-9.091
814.20	-15.385
814.50	34.615
814.81	11.321
815.11	23.404
815.41	13.559
815.72	11.905
816.02	23.529
816.32	12.500
816.62	4.878
816.93	13.514
817.23	-2.857
817.53	18.750
817.84	13.043
818.14	34.615
818.44	7.895
818.74	30.435
819.04	7.500
819.35	43.243
819.65	8.824
819.95	8.333
820.25	7.143
820.56	32.500
820.86	-10.345
821.16	52.500
821.46	31.915
821.76	47.500
822.07	20.930
822.37	-16.216
822.67	18.750
822.97	23.810
823.27	-10.714
823.57	16.000
823.88	14.815
824.18	14.286
824.48	11.765
824.78	38.710
825.08	17.391
825.38	30.303
825.69	33.333
825.99	5.263
826.29	0.000
826.59	-20.000
826.89	4.762
827.19	23.913
827.49	-15.000
827.79	14.286
828.09	17.857
828.39	27.273
828.70	27.027
829.00	14.286
829.30	19.048
829.60	10.000
829.90	43.750
830.20	10.526
830.50	29.630
830.80	0.000
831.10	-27.273
831.40	36.364
831.70	41.935
832.00	42.857
832.30	19.048
832.60	-25.000
832.90	6.897
833.20	-40.000
833.50	12.121
833.80	14.815
834.10	19.231
834.40	40.625
834.70	66.667
835.00	47.368
835.30	53.846
835.60	26.667
835.90	19.355
836.20	4.545
836.50	42.857
836.80	3.846
837.10	0.000
837.40	100.000
837.70	27.273
838.00	0.000
838.30	13.043
838.60	7.692
838.90	54.545
839.19	17.857
839.49	40.000
839.79	-23.077
840.09	-125.000
840.39	32.143
840.69	7.143
840.99	7.692
841.29	0.000
841.59	-110.000
841.88	36.364
842.18	60.000
842.48	6.250
842.78	-26.667
843.08	-3.704
843.38	0.000
843.68	52.174
843.97	66.667
844.27	0.000
844.57	-10.000
844.87	5.556
845.17	19.048
845.47	86.667
845.76	-4.762
846.06	58.824
846.36	40.000
846.66	50.000
846.96	100.000
847.25	-37.500
847.55	64.286
847.85	-87.500
848.15	-27.273
848.44	-266.667
848.74	30.000
849.04	25.926
849.34	36.364
849.63	-116.667
849.93	-180.000
850.23	22.222
850.53	220.000
850.82	30.769
851.12	44.444
851.42	60.000
851.71	11.538
852.01	14.286
852.31	-50.000
852.61	45.455
852.90	35.000
853.20	52.632
853.50	33.333
853.79	47.826
854.09	54.167
854.39	63.158
854.68	16.667
854.98	41.935
855.28	53.846
855.57	-5.000
855.87	22.222
856.17	51.852
856.46	92.857
856.76	6.667
857.05	155.556
857.35	64.000
857.65	88.889
857.94	-61.538
858.24	72.414
858.53	27.778
858.83	51.852
859.13	18.182
859.42	17.391
859.72	275.000
860.01	66.667
860.31	24.000
860.60	42.857
860.90	166.667
861.20	-20.000
861.49	0.000
861.79	-6.667
862.08	50.000
862.38	140.000
862.67	20.000
862.97	83.333
863.26	-58.333
863.56	50.000
863.85	-166.667
864.15	72.222
864.44	-10.000
864.74	64.286
865.03	-50.000
865.33	220.000
865.62	33.333
865.92	-58.333
866.21	83.333
866.51	62.500
866.80	18.182
867.10	-200.000
867.39	133.333
867.69	0.000
867.98	0.000
868.27	200.000
868.57	46.667
868.86	0.000
869.16	7.692
869.45	40.000
869.75	-900.000
870.04	0.000
870.33	14.286
870.63	90.476
870.92	-66.667
871.22	-260.000
871.51	-200.000
871.80	11.111
872.10	100.000
>>>>>End Processed Spectral Data<<<<<
