SpectraSuite Data File
++++++++++++++++++++++++++++++++++++
Date: Fri May 15 17:06:46 PDT 2015
User: schluterlab
Dark Spectrum Present: Yes
Reference Spectrum Present: Yes
Number of Sampled Component Spectra: 1
Spectrometers: USB2E3373
Integration Time (usec): 3000 (USB2E3373)
Spectra Averaged: 3 (USB2E3373)
Boxcar Smoothing: 0 (USB2E3373)
Correct for Electrical Dark: No (USB2E3373)
Strobe/Lamp Enabled: No (USB2E3373)
Correct for Detector Non-linearity: No (USB2E3373)
Correct for Stray Light: No (USB2E3373)
Number of Pixels in Processed Spectrum: 2048
>>>>>Begin Processed Spectral Data<<<<<
178.53	0.000
178.91	0.000
179.29	212.500
179.67	200.000
180.04	-114.286
180.42	250.000
180.80	2200.000
181.18	-133.333
181.56	-300.000
181.94	400.000
182.31	500.000
182.69	20.000
183.07	300.000
183.45	180.000
183.83	-33.333
184.20	145.455
184.58	44.444
184.96	-325.000
185.34	-500.000
185.72	-300.000
186.09	-15.385
186.47	200.000
186.85	-16.667
187.23	33.333
187.61	-400.000
187.98	366.667
188.36	66.667
188.74	-33.333
189.12	70.588
189.49	77.778
189.87	0.000
190.25	128.571
190.63	550.000
191.00	333.333
191.38	89.474
191.76	850.000
192.14	-350.000
192.51	500.000
192.89	88.889
193.27	14.286
193.65	-16.667
194.02	45.455
194.40	30.000
194.78	12.500
195.15	50.000
195.53	75.000
195.91	125.000
196.29	100.000
196.66	92.308
197.04	14.286
197.42	33.333
197.79	-100.000
198.17	-7.692
198.55	300.000
198.92	233.333
199.30	300.000
199.68	100.000
200.05	-133.333
200.43	0.000
200.81	-133.333
201.18	300.000
201.56	600.000
201.94	150.000
202.31	-433.333
202.69	-20.000
203.07	-25.000
203.44	1000.000
203.82	0.000
204.19	78.571
204.57	33.333
204.95	-37.500
205.32	160.000
205.70	171.429
206.08	225.000
206.45	200.000
206.83	128.571
207.20	42.857
207.58	-600.000
207.96	133.333
208.33	10.000
208.71	-75.000
209.08	0.000
209.46	-300.000
209.84	220.000
210.21	-400.000
210.59	200.000
210.96	116.667
211.34	125.000
211.71	60.000
212.09	57.143
212.46	200.000
212.84	0.000
213.22	110.000
213.59	550.000
213.97	84.615
214.34	181.818
214.72	166.667
215.09	250.000
215.47	130.769
215.84	63.636
216.22	-133.333
216.59	25.000
216.97	500.000
217.34	125.000
217.72	0.000
218.09	62.500
218.47	-37.500
218.84	-400.000
219.22	33.333
219.59	140.000
219.97	-0.000
220.34	-150.000
220.72	85.714
221.09	125.000
221.47	600.000
221.84	-100.000
222.22	-350.000
222.59	63.636
222.97	141.667
223.34	33.333
223.72	42.857
224.09	85.714
224.46	28.571
224.84	-0.000
225.21	30.000
225.59	33.333
225.96	-50.000
226.34	-50.000
226.71	100.000
227.08	133.333
227.46	300.000
227.83	100.000
228.21	44.444
228.58	72.727
228.95	62.500
229.33	-40.000
229.70	75.000
230.08	37.500
230.45	14.286
230.82	228.571
231.20	60.000
231.57	14.286
231.95	157.143
232.32	40.000
232.69	57.143
233.07	133.333
233.44	140.000
233.81	80.000
234.19	33.333
234.56	47.059
234.93	-550.000
235.31	400.000
235.68	20.000
236.05	46.154
236.43	80.000
236.80	82.353
237.17	62.500
237.55	70.000
237.92	81.481
238.29	86.111
238.67	93.333
239.04	61.765
239.41	53.659
239.79	80.000
240.16	95.122
240.53	86.842
240.91	63.043
241.28	63.492
241.65	92.857
242.02	58.904
242.40	55.000
242.77	77.966
243.14	60.606
243.51	75.000
243.89	83.908
244.26	56.322
244.63	78.571
245.00	72.165
245.38	79.381
245.75	67.416
246.12	56.034
246.49	74.380
246.87	72.115
247.24	61.345
247.61	71.930
247.98	76.423
248.36	56.875
248.73	63.816
249.10	62.987
249.47	72.152
249.84	68.627
250.22	68.235
250.59	72.549
250.96	67.606
251.33	73.837
251.70	72.941
252.08	60.914
252.45	65.842
252.82	72.864
253.19	65.438
253.56	68.224
253.94	67.117
254.31	68.696
254.68	67.982
255.05	66.929
255.42	72.926
255.79	66.023
256.16	65.759
256.54	63.806
256.91	66.920
257.28	61.710
257.65	63.296
258.02	68.085
258.39	65.320
258.76	69.597
259.14	65.449
259.51	65.049
259.88	67.010
260.25	65.359
260.62	71.181
260.99	65.424
261.36	64.726
261.73	66.456
262.10	66.261
262.47	68.712
262.85	66.771
263.22	64.308
263.59	67.913
263.96	68.944
264.33	69.394
264.70	67.262
265.07	69.048
265.44	67.139
265.81	65.537
266.18	67.213
266.55	65.553
266.92	64.508
267.29	69.974
267.66	64.194
268.03	69.895
268.40	63.446
268.77	72.460
269.14	63.549
269.51	67.609
269.88	63.591
270.25	63.010
270.62	65.854
270.99	63.939
271.36	63.814
271.73	61.737
272.10	69.100
272.47	68.085
272.84	66.089
273.21	62.181
273.58	64.819
273.95	65.446
274.32	63.510
274.69	59.729
275.06	62.946
275.43	63.492
275.80	61.810
276.17	65.287
276.54	59.957
276.91	64.474
277.28	58.952
277.65	62.190
278.02	60.638
278.39	63.676
278.76	62.055
279.13	62.448
279.50	63.235
279.87	60.691
280.23	64.301
280.60	61.209
280.97	63.030
281.34	59.423
281.71	62.423
282.08	61.759
282.45	59.883
282.82	61.197
283.19	59.381
283.56	60.694
283.92	60.342
284.29	59.423
284.66	58.721
285.03	61.297
285.40	58.979
285.77	57.645
286.14	58.664
286.51	60.332
286.87	56.490
287.24	59.853
287.61	56.437
287.98	58.070
288.35	54.939
288.72	56.042
289.08	53.299
289.45	57.118
289.82	56.294
290.19	54.949
290.56	53.345
290.93	55.892
291.29	50.231
291.66	52.913
292.03	51.515
292.40	52.903
292.77	51.515
293.13	50.000
293.50	48.407
293.87	49.618
294.24	49.459
294.60	46.200
294.97	48.810
295.34	48.466
295.71	48.584
296.08	47.683
296.44	46.088
296.81	45.556
297.18	47.391
297.55	46.748
297.91	45.890
298.28	44.723
298.65	44.369
299.02	44.744
299.38	42.681
299.75	44.552
300.12	43.979
300.48	44.269
300.85	42.586
301.22	42.078
301.59	43.026
301.95	42.532
302.32	44.488
302.69	41.542
303.05	43.193
303.42	41.843
303.79	40.070
304.15	41.338
304.52	39.596
304.89	39.532
305.25	41.889
305.62	39.090
305.99	39.064
306.35	40.000
306.72	39.483
307.09	41.733
307.45	41.217
307.82	40.046
308.19	40.070
308.55	38.386
308.92	40.741
309.29	39.665
309.65	39.505
310.02	38.394
310.38	38.968
310.75	39.781
311.12	39.612
311.48	38.706
311.85	38.010
312.22	38.608
312.58	38.960
312.95	36.606
313.31	36.957
313.68	37.592
314.05	37.653
314.41	37.835
314.78	38.557
315.14	39.260
315.51	37.888
315.87	38.012
316.24	38.322
316.61	37.598
316.97	37.302
317.34	37.793
317.70	36.902
318.07	35.962
318.43	38.039
318.80	37.121
319.16	37.305
319.53	37.702
319.89	37.402
320.26	36.741
320.62	37.513
320.99	36.013
321.35	36.691
321.72	36.449
322.08	36.657
322.45	37.665
322.81	36.739
323.18	37.684
323.54	37.645
323.91	35.833
324.27	35.742
324.64	36.704
325.00	36.223
325.37	36.639
325.73	33.726
326.10	35.876
326.46	36.592
326.83	35.958
327.19	36.443
327.56	36.751
327.92	36.356
328.29	35.982
328.65	37.736
329.01	34.651
329.38	35.484
329.74	34.655
330.11	35.959
330.47	34.972
330.84	34.808
331.20	37.738
331.56	34.907
331.93	34.886
332.29	36.572
332.66	34.932
333.02	35.688
333.38	33.456
333.75	35.623
334.11	34.020
334.48	35.177
334.84	34.432
335.20	34.218
335.57	33.545
335.93	34.417
336.29	34.162
336.66	33.878
337.02	33.271
337.38	34.167
337.75	34.545
338.11	35.167
338.47	34.580
338.84	33.919
339.20	33.455
339.56	33.853
339.93	34.378
340.29	33.853
340.65	34.857
341.02	32.979
341.38	34.248
341.74	32.244
342.11	31.802
342.47	33.452
342.83	34.343
343.20	33.188
343.56	33.739
343.92	33.658
344.28	33.817
344.65	32.902
345.01	33.276
345.37	33.810
345.73	33.808
346.10	32.701
346.46	33.137
346.82	33.306
347.19	32.419
347.55	32.414
347.91	32.767
348.27	32.741
348.63	33.135
349.00	31.583
349.36	31.837
349.72	33.997
350.08	32.295
350.45	31.923
350.81	32.226
351.17	31.352
351.53	34.122
351.89	31.214
352.26	30.720
352.62	32.419
352.98	31.566
353.34	31.562
353.70	31.958
354.07	31.855
354.43	30.985
354.79	31.049
355.15	30.714
355.51	31.013
355.87	32.767
356.24	30.750
356.60	31.770
356.96	32.381
357.32	30.351
357.68	30.336
358.04	30.372
358.40	29.984
358.77	31.340
359.13	31.946
359.49	30.971
359.85	31.591
360.21	30.861
360.57	30.834
360.93	29.425
361.29	30.287
361.66	30.016
362.02	30.606
362.38	31.759
362.74	30.659
363.10	31.678
363.46	31.505
363.82	31.705
364.18	30.627
364.54	30.221
364.90	30.753
365.26	30.277
365.62	31.095
365.98	30.132
366.35	30.881
366.71	29.342
367.07	29.318
367.43	29.188
367.79	29.541
368.15	30.366
368.51	29.643
368.87	30.223
369.23	30.325
369.59	28.863
369.95	30.938
370.31	30.275
370.67	30.896
371.03	28.454
371.39	29.395
371.75	29.377
372.11	29.672
372.47	30.769
372.83	29.454
373.19	30.243
373.55	29.964
373.91	31.030
374.27	30.120
374.63	30.079
374.99	30.071
375.35	29.875
375.71	29.860
376.07	29.354
376.42	29.456
376.78	29.799
377.14	29.519
377.50	29.748
377.86	30.254
378.22	29.100
378.58	29.872
378.94	29.112
379.30	29.819
379.66	29.530
380.02	28.020
380.38	28.728
380.74	30.042
381.09	30.307
381.45	28.930
381.81	28.624
382.17	28.680
382.53	29.357
382.89	29.567
383.25	28.936
383.61	30.183
383.97	28.762
384.32	28.643
384.68	28.916
385.04	28.370
385.40	28.438
385.76	29.623
386.12	28.655
386.48	29.438
386.83	29.106
387.19	29.976
387.55	29.925
387.91	28.729
388.27	28.449
388.62	29.830
388.98	29.773
389.34	28.919
389.70	29.024
390.06	28.446
390.42	29.275
390.77	29.431
391.13	28.878
391.49	29.495
391.85	29.175
392.20	28.814
392.56	28.862
392.92	28.538
393.28	28.243
393.64	29.009
393.99	29.843
394.35	28.020
394.71	29.374
395.07	28.410
395.42	27.990
395.78	28.990
396.14	29.634
396.50	28.725
396.85	28.976
397.21	29.323
397.57	28.464
397.92	28.999
398.28	28.793
398.64	28.494
399.00	29.289
399.35	27.765
399.71	28.374
400.07	29.927
400.42	29.559
400.78	29.577
401.14	28.070
401.49	28.648
401.85	28.580
402.21	28.735
402.57	28.062
402.92	27.917
403.28	29.198
403.63	28.878
403.99	28.189
404.35	28.982
404.70	28.512
405.06	28.496
405.42	28.713
405.77	27.833
406.13	28.696
406.49	28.597
406.84	28.729
407.20	29.139
407.55	28.203
407.91	27.273
408.27	27.342
408.62	28.615
408.98	29.144
409.34	28.377
409.69	27.778
410.05	28.140
410.40	28.025
410.76	28.287
411.11	28.688
411.47	28.205
411.83	27.181
412.18	28.700
412.54	27.154
412.89	27.278
413.25	29.001
413.60	27.453
413.96	28.282
414.31	27.500
414.67	27.069
415.03	27.497
415.38	28.264
415.74	27.818
416.09	28.021
416.45	28.022
416.80	28.288
417.16	29.351
417.51	27.915
417.87	27.640
418.22	29.145
418.58	27.559
418.93	27.586
419.29	27.657
419.64	28.192
420.00	29.408
420.35	28.239
420.71	29.891
421.06	27.379
421.42	27.825
421.77	29.017
422.12	28.661
422.48	28.262
422.83	28.132
423.19	27.314
423.54	27.631
423.90	27.444
424.25	28.932
424.61	28.519
424.96	27.584
425.31	28.192
425.67	28.873
426.02	28.975
426.38	28.741
426.73	29.177
427.09	29.494
427.44	29.647
427.79	28.933
428.15	28.701
428.50	27.680
428.85	28.563
429.21	28.862
429.56	29.380
429.92	27.940
430.27	28.622
430.62	27.287
430.98	27.972
431.33	28.970
431.68	28.467
432.04	28.787
432.39	27.496
432.74	28.984
433.10	29.195
433.45	27.778
433.80	28.497
434.16	28.199
434.51	28.548
434.86	28.513
435.22	28.828
435.57	28.759
435.92	28.144
436.28	28.265
436.63	29.036
436.98	27.636
437.34	27.889
437.69	29.219
438.04	28.946
438.39	28.589
438.75	28.658
439.10	28.976
439.45	29.580
439.81	28.502
440.16	29.335
440.51	29.970
440.86	30.997
441.22	29.921
441.57	29.470
441.92	29.801
442.27	29.435
442.63	29.872
442.98	29.408
443.33	28.715
443.68	29.920
444.03	29.856
444.39	28.578
444.74	29.599
445.09	29.399
445.44	29.858
445.79	29.758
446.15	29.295
446.50	28.730
446.85	29.384
447.20	29.197
447.55	29.297
447.91	29.554
448.26	29.141
448.61	30.340
448.96	30.178
449.31	28.844
449.66	29.384
450.02	29.435
450.37	29.876
450.72	29.496
451.07	30.316
451.42	28.964
451.77	29.777
452.12	27.990
452.47	28.654
452.83	29.329
453.18	30.044
453.53	29.393
453.88	29.387
454.23	29.994
454.58	31.171
454.93	30.090
455.28	28.762
455.63	28.952
455.98	30.066
456.34	29.438
456.69	29.606
457.04	29.427
457.39	29.222
457.74	29.625
458.09	28.016
458.44	29.374
458.79	28.852
459.14	29.462
459.49	31.104
459.84	29.667
460.19	30.218
460.54	30.134
460.89	29.034
461.24	30.745
461.59	29.751
461.94	29.057
462.29	30.157
462.64	29.701
462.99	30.399
463.34	30.042
463.69	29.408
464.04	28.874
464.39	30.139
464.74	28.528
465.09	29.195
465.44	29.486
465.79	28.798
466.14	30.217
466.49	29.845
466.84	30.934
467.19	29.599
467.54	29.183
467.89	29.564
468.24	28.224
468.59	30.095
468.94	29.587
469.29	29.508
469.64	29.460
469.99	30.133
470.34	28.874
470.68	30.127
471.03	28.450
471.38	29.315
471.73	30.042
472.08	29.172
472.43	29.060
472.78	28.170
473.13	29.388
473.48	29.837
473.83	29.078
474.17	30.246
474.52	29.419
474.87	28.788
475.22	29.774
475.57	28.515
475.92	29.786
476.27	30.035
476.61	28.704
476.96	28.834
477.31	28.610
477.66	27.921
478.01	29.085
478.36	28.431
478.70	29.527
479.05	29.176
479.40	29.571
479.75	28.728
480.10	28.674
480.45	29.000
480.79	29.708
481.14	29.713
481.49	28.670
481.84	29.681
482.19	29.326
482.53	29.784
482.88	28.926
483.23	28.887
483.58	29.575
483.92	28.558
484.27	29.125
484.62	28.866
484.97	28.317
485.31	28.866
485.66	28.560
486.01	29.523
486.36	29.578
486.70	30.216
487.05	29.618
487.40	29.498
487.75	29.972
488.09	30.315
488.44	30.468
488.79	29.847
489.13	30.449
489.48	29.286
489.83	29.238
490.17	28.629
490.52	28.961
490.87	28.181
491.22	28.797
491.56	28.558
491.91	28.872
492.26	29.169
492.60	28.839
492.95	29.907
493.30	27.601
493.64	28.929
493.99	28.889
494.34	27.913
494.68	27.952
495.03	28.078
495.37	28.950
495.72	28.672
496.07	28.439
496.41	28.443
496.76	27.913
497.11	28.272
497.45	29.690
497.80	29.162
498.14	27.571
498.49	28.796
498.84	28.792
499.18	28.614
499.53	28.125
499.87	28.453
500.22	28.338
500.56	29.047
500.91	27.861
501.26	28.127
501.60	28.874
501.95	28.967
502.29	28.717
502.64	28.427
502.98	28.466
503.33	28.482
503.67	27.759
504.02	29.130
504.36	29.639
504.71	27.727
505.06	27.932
505.40	28.782
505.75	28.454
506.09	27.826
506.44	28.439
506.78	28.571
507.13	28.697
507.47	28.355
507.82	28.419
508.16	27.522
508.51	28.332
508.85	27.734
509.19	27.674
509.54	29.115
509.88	28.479
510.23	28.133
510.57	27.793
510.92	27.132
511.26	28.423
511.61	28.108
511.95	28.164
512.30	28.215
512.64	28.047
512.98	27.625
513.33	28.148
513.67	27.970
514.02	28.261
514.36	28.457
514.70	28.322
515.05	28.672
515.39	27.391
515.74	28.383
516.08	27.675
516.42	28.269
516.77	28.906
517.11	28.012
517.46	29.084
517.80	27.831
518.14	28.047
518.49	28.486
518.83	27.825
519.17	26.076
519.52	26.110
519.86	27.311
520.20	27.704
520.55	27.205
520.89	28.043
521.23	27.042
521.58	27.950
521.92	27.051
522.26	27.586
522.61	26.753
522.95	28.146
523.29	28.463
523.64	27.700
523.98	28.516
524.32	26.546
524.66	27.337
525.01	26.883
525.35	27.479
525.69	26.195
526.04	26.984
526.38	29.313
526.72	26.030
527.06	27.497
527.41	27.375
527.75	26.340
528.09	27.110
528.43	27.684
528.78	26.139
529.12	27.548
529.46	27.290
529.80	26.282
530.15	28.713
530.49	26.936
530.83	27.018
531.17	26.931
531.51	27.770
531.86	26.513
532.20	27.209
532.54	28.387
532.88	27.242
533.22	27.016
533.57	27.064
533.91	26.371
534.25	29.297
534.59	27.518
534.93	27.502
535.27	25.825
535.62	27.544
535.96	27.397
536.30	28.298
536.64	27.429
536.98	27.735
537.32	27.454
537.66	28.541
538.01	27.902
538.35	27.323
538.69	27.896
539.03	27.136
539.37	27.725
539.71	28.085
540.05	27.223
540.39	27.770
540.73	27.127
541.07	27.555
541.42	28.091
541.76	28.562
542.10	26.910
542.44	26.824
542.78	26.428
543.12	25.481
543.46	27.677
543.80	27.273
544.14	25.501
544.48	28.115
544.82	27.409
545.16	27.049
545.50	27.170
545.84	29.108
546.18	28.156
546.52	27.325
546.86	26.528
547.20	27.396
547.54	26.572
547.88	27.514
548.22	27.022
548.56	27.441
548.90	27.830
549.24	27.273
549.58	26.939
549.92	26.733
550.26	27.619
550.60	27.509
550.94	27.110
551.28	28.980
551.62	27.385
551.96	28.421
552.30	27.412
552.64	26.305
552.98	27.286
553.32	27.033
553.66	26.343
554.00	27.810
554.34	28.139
554.68	26.991
555.02	28.423
555.36	27.225
555.69	26.593
556.03	27.052
556.37	27.260
556.71	27.437
557.05	27.591
557.39	26.394
557.73	27.286
558.07	28.205
558.41	27.718
558.75	26.890
559.08	27.344
559.42	27.381
559.76	26.821
560.10	27.294
560.44	27.252
560.78	29.161
561.12	27.574
561.45	29.093
561.79	27.591
562.13	27.253
562.47	28.345
562.81	27.810
563.15	28.209
563.48	28.006
563.82	28.277
564.16	28.134
564.50	27.162
564.84	28.514
565.17	27.498
565.51	28.552
565.85	28.669
566.19	26.989
566.52	28.083
566.86	28.985
567.20	27.709
567.54	27.676
567.88	29.233
568.21	29.355
568.55	28.750
568.89	29.261
569.23	28.503
569.56	28.853
569.90	29.882
570.24	29.512
570.57	29.564
570.91	29.766
571.25	29.398
571.59	28.932
571.92	29.185
572.26	29.559
572.60	29.116
572.93	29.338
573.27	29.498
573.61	29.415
573.95	29.219
574.28	29.476
574.62	29.443
574.96	29.643
575.29	29.758
575.63	29.412
575.97	28.843
576.30	29.407
576.64	28.980
576.98	29.730
577.31	29.590
577.65	29.817
577.98	29.269
578.32	29.468
578.66	29.207
578.99	29.808
579.33	29.478
579.67	29.548
580.00	30.203
580.34	30.249
580.67	29.624
581.01	30.067
581.35	29.651
581.68	29.660
582.02	29.950
582.35	29.545
582.69	29.840
583.02	29.844
583.36	30.092
583.70	30.867
584.03	31.054
584.37	30.774
584.70	30.412
585.04	29.896
585.37	30.393
585.71	29.770
586.04	29.753
586.38	29.795
586.72	30.072
587.05	30.474
587.39	30.081
587.72	30.262
588.06	29.809
588.39	30.675
588.73	30.617
589.06	30.561
589.40	30.626
589.73	30.887
590.07	30.438
590.40	30.495
590.73	30.643
591.07	29.644
591.40	30.988
591.74	29.729
592.07	30.380
592.41	29.859
592.74	29.988
593.08	29.619
593.41	30.247
593.75	29.277
594.08	29.729
594.41	29.585
594.75	29.962
595.08	29.815
595.42	29.812
595.75	29.854
596.09	30.688
596.42	30.054
596.75	30.506
597.09	30.114
597.42	29.765
597.75	30.005
598.09	30.195
598.42	30.370
598.76	30.588
599.09	29.607
599.42	29.898
599.76	29.609
600.09	29.864
600.42	30.212
600.76	28.900
601.09	29.389
601.42	29.926
601.76	29.099
602.09	30.487
602.42	31.129
602.76	30.603
603.09	30.357
603.42	31.229
603.76	29.435
604.09	30.377
604.42	30.076
604.76	30.663
605.09	30.165
605.42	30.293
605.75	30.035
606.09	30.234
606.42	29.691
606.75	29.307
607.09	30.022
607.42	30.084
607.75	30.107
608.08	29.155
608.42	29.740
608.75	30.699
609.08	29.646
609.41	29.492
609.75	29.335
610.08	29.905
610.41	29.469
610.74	29.937
611.07	30.749
611.41	30.358
611.74	29.158
612.07	28.801
612.40	29.814
612.73	30.226
613.07	28.853
613.40	29.486
613.73	29.323
614.06	28.993
614.39	29.385
614.72	28.964
615.06	30.168
615.39	29.258
615.72	29.333
616.05	29.385
616.38	29.174
616.71	29.235
617.05	29.277
617.38	29.604
617.71	29.119
618.04	29.587
618.37	29.950
618.70	30.231
619.03	29.722
619.36	28.726
619.69	29.340
620.03	29.876
620.36	28.755
620.69	29.193
621.02	28.899
621.35	29.461
621.68	28.827
622.01	28.167
622.34	28.731
622.67	28.864
623.00	28.867
623.33	28.659
623.66	29.170
623.99	29.047
624.32	28.745
624.65	27.368
624.99	28.894
625.32	28.506
625.65	28.830
625.98	29.089
626.31	28.845
626.64	28.250
626.97	29.407
627.30	28.809
627.63	29.203
627.96	29.111
628.29	28.492
628.62	29.695
628.95	28.557
629.28	28.528
629.61	29.312
629.94	28.055
630.26	27.866
630.59	27.680
630.92	27.179
631.25	26.872
631.58	29.185
631.91	26.425
632.24	25.803
632.57	28.864
632.90	27.402
633.23	27.529
633.56	27.834
633.89	27.004
634.22	28.765
634.55	28.717
634.88	27.075
635.20	26.795
635.53	28.000
635.86	27.308
636.19	27.943
636.52	28.444
636.85	26.055
637.18	26.541
637.51	26.164
637.83	25.756
638.16	27.967
638.49	24.387
638.82	29.474
639.15	27.951
639.48	28.061
639.81	27.894
640.13	26.984
640.46	25.802
640.79	25.920
641.12	26.883
641.45	26.877
641.77	26.519
642.10	27.962
642.43	27.331
642.76	28.548
643.09	26.979
643.41	25.566
643.74	25.371
644.07	27.258
644.40	26.520
644.73	27.496
645.05	25.168
645.38	26.631
645.71	25.532
646.04	28.905
646.36	26.773
646.69	27.158
647.02	28.544
647.35	26.493
647.67	26.874
648.00	26.866
648.33	28.157
648.66	26.271
648.98	26.633
649.31	26.612
649.64	27.316
649.96	25.122
650.29	26.405
650.62	26.838
650.94	25.000
651.27	26.443
651.60	27.928
651.92	26.399
652.25	25.400
652.58	26.667
652.90	29.160
653.23	28.908
653.56	25.381
653.88	26.460
654.21	25.569
654.54	27.334
654.86	29.032
655.19	27.485
655.52	28.096
655.84	27.436
656.17	32.258
656.49	44.961
656.82	48.595
657.15	38.025
657.47	28.473
657.80	21.447
658.13	21.631
658.45	34.016
658.78	34.765
659.10	34.512
659.43	35.081
659.75	34.188
660.08	34.000
660.41	32.278
660.73	31.768
661.06	27.903
661.38	27.593
661.71	26.694
662.03	27.253
662.36	25.495
662.68	25.221
663.01	27.293
663.33	23.202
663.66	25.581
663.98	27.442
664.31	25.586
664.63	22.581
664.96	22.826
665.28	26.490
665.61	26.623
665.93	27.391
666.26	27.983
666.58	24.832
666.91	26.353
667.23	25.943
667.56	24.882
667.88	24.700
668.21	27.208
668.53	26.005
668.86	28.066
669.18	23.585
669.50	22.276
669.83	25.581
670.15	25.408
670.48	25.120
670.80	25.346
671.13	27.069
671.45	24.658
671.77	27.039
672.10	26.337
672.42	26.779
672.75	27.886
673.07	27.013
673.39	26.606
673.72	23.471
674.04	28.333
674.37	26.271
674.69	25.482
675.01	27.556
675.34	26.351
675.66	26.389
675.98	27.273
676.31	27.752
676.63	24.703
676.95	24.091
677.28	28.706
677.60	27.711
677.92	25.229
678.25	28.228
678.57	25.325
678.89	26.471
679.22	29.306
679.54	27.108
679.86	26.044
680.18	27.961
680.51	25.758
680.83	24.254
681.15	26.400
681.48	27.049
681.80	26.446
682.12	26.411
682.44	26.987
682.77	28.477
683.09	27.231
683.41	22.955
683.73	29.263
684.06	21.460
684.38	24.301
684.70	27.451
685.02	26.141
685.34	26.680
685.67	26.266
685.99	26.221
686.31	27.434
686.63	26.902
686.96	26.996
687.28	24.040
687.60	26.236
687.92	29.293
688.24	26.008
688.56	27.074
688.89	28.348
689.21	28.889
689.53	28.074
689.85	24.419
690.17	25.223
690.49	26.478
690.82	26.942
691.14	24.048
691.46	28.738
691.78	25.676
692.10	26.452
692.42	26.190
692.74	27.564
693.06	25.901
693.39	26.923
693.71	24.434
694.03	24.480
694.35	26.402
694.67	24.495
694.99	23.499
695.31	26.632
695.63	27.250
695.95	27.778
696.27	24.352
696.59	26.111
696.91	24.090
697.23	24.679
697.56	25.990
697.88	31.183
698.20	25.513
698.52	27.059
698.84	26.316
699.16	27.750
699.48	28.321
699.80	27.047
700.12	24.528
700.44	28.571
700.76	23.837
701.08	22.424
701.40	27.410
701.72	29.012
702.04	25.083
702.36	26.756
702.68	24.024
703.00	26.061
703.32	26.393
703.64	24.576
703.96	25.797
704.28	27.301
704.60	23.492
704.91	23.028
705.23	27.907
705.55	30.035
705.87	25.632
706.19	24.444
706.51	23.711
706.83	27.010
707.15	22.118
707.47	28.291
707.79	25.521
708.11	31.000
708.43	26.750
708.74	24.806
709.06	28.451
709.38	28.746
709.70	26.923
710.02	24.841
710.34	26.316
710.66	23.397
710.98	22.185
711.29	26.885
711.61	27.458
711.93	27.036
712.25	26.804
712.57	26.007
712.89	24.627
713.20	27.682
713.52	25.436
713.84	29.352
714.16	28.179
714.48	20.968
714.80	26.923
715.11	28.875
715.43	23.511
715.75	27.667
716.07	23.256
716.39	28.523
716.70	21.771
717.02	25.954
717.34	28.745
717.66	28.761
717.97	28.696
718.29	27.197
718.61	28.346
718.93	26.744
719.24	26.236
719.56	24.096
719.88	24.399
720.20	26.515
720.51	27.586
720.83	25.483
721.15	23.950
721.46	27.419
721.78	22.925
722.10	24.907
722.42	20.332
722.73	24.898
723.05	28.163
723.37	23.729
723.68	31.982
724.00	23.504
724.32	24.000
724.63	28.182
724.95	25.764
725.27	26.267
725.58	25.000
725.90	21.429
726.22	30.116
726.53	27.458
726.85	26.217
727.16	28.302
727.48	24.291
727.80	29.960
728.11	25.847
728.43	24.706
728.74	18.548
729.06	24.400
729.38	27.820
729.69	21.912
730.01	21.923
730.32	32.463
730.64	29.329
730.96	29.811
731.27	25.333
731.59	27.797
731.90	28.344
732.22	25.237
732.53	28.571
732.85	27.660
733.16	33.333
733.48	20.504
733.80	23.913
734.11	28.475
734.43	25.086
734.74	27.879
735.06	27.036
735.37	29.003
735.69	27.946
736.00	27.178
736.32	26.510
736.63	29.225
736.95	30.375
737.26	26.335
737.58	28.859
737.89	28.205
738.21	25.188
738.52	29.218
738.83	27.074
739.15	22.271
739.46	34.252
739.78	26.007
740.09	27.778
740.41	32.609
740.72	23.622
741.04	30.769
741.35	27.234
741.66	21.327
741.98	31.633
742.29	23.267
742.61	29.843
742.92	20.853
743.23	23.611
743.55	32.127
743.86	27.273
744.18	25.359
744.49	28.723
744.80	25.000
745.12	32.086
745.43	20.976
745.74	29.167
746.06	23.415
746.37	28.796
746.68	25.118
747.00	29.255
747.31	31.343
747.62	24.272
747.94	25.837
748.25	25.743
748.56	28.962
748.88	26.178
749.19	28.723
749.50	28.079
749.82	22.642
750.13	22.936
750.44	30.827
750.75	25.373
751.07	32.482
751.38	30.268
751.69	23.137
752.01	31.395
752.32	25.498
752.63	24.901
752.94	22.414
753.26	33.054
753.57	26.244
753.88	26.549
754.19	23.333
754.51	25.207
754.82	24.696
755.13	28.333
755.44	32.258
755.75	27.344
756.07	26.459
756.38	30.566
756.69	29.502
757.00	26.000
757.31	28.758
757.63	25.915
757.94	29.444
758.25	24.384
758.56	26.330
758.87	26.912
759.18	26.480
759.50	26.182
759.81	29.766
760.12	25.484
760.43	28.485
760.74	28.704
761.05	28.000
761.36	28.977
761.67	30.909
761.99	32.313
762.30	27.636
762.61	29.249
762.92	29.864
763.23	23.874
763.54	28.037
763.85	29.661
764.16	26.971
764.47	26.613
764.78	27.839
765.10	29.630
765.41	29.022
765.72	31.111
766.03	23.308
766.34	30.292
766.65	30.279
766.96	27.778
767.27	29.787
767.58	24.713
767.89	23.404
768.20	25.568
768.51	26.923
768.82	28.079
769.13	27.189
769.44	27.897
769.75	26.484
770.06	28.017
770.37	26.923
770.68	25.888
770.99	24.887
771.30	29.412
771.61	28.507
771.92	28.017
772.23	33.990
772.54	34.409
772.85	28.395
773.16	32.022
773.47	33.333
773.78	30.065
774.09	31.138
774.39	27.333
774.70	31.210
775.01	28.276
775.32	20.000
775.63	25.620
775.94	35.115
776.25	31.496
776.56	23.333
776.87	31.731
777.18	24.786
777.48	21.552
777.79	25.217
778.10	20.952
778.41	20.721
778.72	27.778
779.03	28.571
779.34	29.078
779.65	28.082
779.95	25.342
780.26	26.207
780.57	21.951
780.88	40.157
781.19	26.724
781.50	35.659
781.80	21.302
782.11	18.239
782.42	36.923
782.73	24.460
783.04	22.222
783.34	27.778
783.65	19.658
783.96	22.131
784.27	31.034
784.57	30.081
784.88	29.688
785.19	30.000
785.50	40.000
785.81	31.034
786.11	25.000
786.42	31.068
786.73	23.636
787.04	26.531
787.34	30.357
787.65	28.571
787.96	23.009
788.26	37.273
788.57	30.769
788.88	36.719
789.19	26.984
789.49	32.174
789.80	14.286
790.11	27.273
790.41	25.455
790.72	39.130
791.03	35.227
791.33	27.500
791.64	13.750
791.95	6.977
792.25	20.213
792.56	33.708
792.87	20.548
793.17	11.594
793.48	30.667
793.79	31.250
794.09	22.500
794.40	22.642
794.70	22.330
795.01	30.894
795.32	17.094
795.62	29.524
795.93	41.176
796.23	29.245
796.54	26.042
796.85	41.176
797.15	33.803
797.46	51.389
797.76	69.697
798.07	23.256
798.37	17.105
798.68	13.636
798.99	30.864
799.29	25.714
799.60	33.333
799.90	28.000
800.21	39.344
800.51	23.077
800.82	45.763
801.12	40.580
801.43	40.984
801.73	23.810
802.04	26.000
802.34	31.343
802.65	34.615
802.95	26.786
803.26	19.231
803.56	27.451
803.87	28.261
804.17	30.667
804.48	42.857
804.78	35.185
805.09	10.870
805.39	44.444
805.70	27.778
806.00	21.053
806.30	15.493
806.61	44.286
806.91	26.389
807.22	43.421
807.52	34.667
807.83	21.818
808.13	33.333
808.43	39.706
808.74	17.910
809.04	27.119
809.35	21.154
809.65	23.437
809.95	8.108
810.26	15.909
810.56	20.548
810.86	50.000
811.17	28.000
811.47	30.612
811.77	31.579
812.08	43.182
812.38	37.736
812.69	27.500
812.99	21.212
813.29	28.947
813.59	22.857
813.90	40.909
814.20	12.821
814.50	42.308
814.81	11.321
815.11	31.915
815.41	32.203
815.72	52.381
816.02	56.863
816.32	39.583
816.62	46.341
816.93	24.324
817.23	8.571
817.53	31.250
817.84	2.174
818.14	40.385
818.44	7.895
818.74	52.174
819.04	-7.500
819.35	54.054
819.65	32.353
819.95	19.444
820.25	9.524
820.56	40.000
820.86	13.793
821.16	47.500
821.46	36.170
821.76	30.000
822.07	20.930
822.37	10.811
822.67	6.250
822.97	57.143
823.27	7.143
823.57	12.000
823.88	22.222
824.18	46.429
824.48	26.471
824.78	35.484
825.08	30.435
825.38	27.273
825.69	-8.333
825.99	18.421
826.29	33.333
826.59	66.667
826.89	19.048
827.19	32.609
827.49	35.000
827.79	25.714
828.09	53.571
828.39	45.455
828.70	54.054
829.00	46.429
829.30	66.667
829.60	73.333
829.90	12.500
830.20	26.316
830.50	25.926
830.80	30.435
831.10	54.545
831.40	78.788
831.70	96.774
832.00	57.143
832.30	-23.810
832.60	8.333
832.90	44.828
833.20	25.000
833.50	39.394
833.80	48.148
834.10	19.231
834.40	53.125
834.70	88.889
835.00	15.789
835.30	80.769
835.60	100.000
835.90	45.161
836.20	50.000
836.50	64.286
836.80	57.692
837.10	42.857
837.40	66.667
837.70	31.818
838.00	36.364
838.30	39.130
838.60	161.538
838.90	40.909
839.19	7.143
839.49	10.000
839.79	84.615
840.09	-41.667
840.39	57.143
840.69	50.000
840.99	30.769
841.29	36.842
841.59	-50.000
841.88	81.818
842.18	80.000
842.48	37.500
842.78	26.667
843.08	25.926
843.38	-10.000
843.68	69.565
843.97	113.333
844.27	13.333
844.57	80.000
844.87	44.444
845.17	33.333
845.47	-20.000
845.76	-28.571
846.06	76.471
846.36	70.000
846.66	42.857
846.96	13.333
847.25	25.000
847.55	100.000
847.85	-50.000
848.15	-27.273
848.44	-66.667
848.74	55.000
849.04	55.556
849.34	81.818
849.63	-116.667
849.93	-120.000
850.23	50.000
850.53	70.000
850.82	30.769
851.12	0.000
851.42	46.667
851.71	3.846
852.01	28.571
852.31	200.000
852.61	27.273
852.90	0.000
853.20	0.000
853.50	0.000
853.79	8.696
854.09	33.333
854.39	57.895
854.68	66.667
854.98	80.645
855.28	73.077
855.57	65.000
855.87	94.444
856.17	40.741
856.46	78.571
856.76	53.333
857.05	133.333
857.35	84.000
857.65	38.889
857.94	15.385
858.24	68.966
858.53	88.889
858.83	85.185
859.13	22.727
859.42	60.870
859.72	150.000
860.01	-66.667
860.31	72.000
860.60	33.333
860.90	-266.667
861.20	0.000
861.49	-300.000
861.79	40.000
862.08	30.000
862.38	73.333
862.67	160.000
862.97	183.333
863.26	58.333
863.56	105.556
863.85	-133.333
864.15	83.333
864.44	90.000
864.74	57.143
865.03	-50.000
865.33	40.000
865.62	150.000
865.92	66.667
866.21	-283.333
866.51	37.500
866.80	45.455
867.10	-150.000
867.39	183.333
867.69	0.000
867.98	76.923
868.27	66.667
868.57	33.333
868.86	83.333
869.16	23.077
869.45	66.667
869.75	400.000
870.04	0.000
870.33	-28.571
870.63	95.238
870.92	-200.000
871.22	-220.000
871.51	-100.000
871.80	177.778
872.10	33.333
>>>>>End Processed Spectral Data<<<<<
