SpectraSuite Data File
++++++++++++++++++++++++++++++++++++
Date: Fri May 15 20:10:26 PDT 2015
User: schluterlab
Dark Spectrum Present: Yes
Reference Spectrum Present: Yes
Number of Sampled Component Spectra: 1
Spectrometers: USB2E3373
Integration Time (usec): 3000 (USB2E3373)
Spectra Averaged: 3 (USB2E3373)
Boxcar Smoothing: 0 (USB2E3373)
Correct for Electrical Dark: No (USB2E3373)
Strobe/Lamp Enabled: No (USB2E3373)
Correct for Detector Non-linearity: No (USB2E3373)
Correct for Stray Light: No (USB2E3373)
Number of Pixels in Processed Spectrum: 2048
>>>>>Begin Processed Spectral Data<<<<<
178.53	0.000
178.91	0.000
179.29	37.500
179.67	-150.000
180.04	-128.571
180.42	275.000
180.80	-400.000
181.18	133.333
181.56	-200.000
181.94	-150.000
182.31	-600.000
182.69	20.000
183.07	-100.000
183.45	-160.000
183.83	116.667
184.20	18.182
184.58	122.222
184.96	-225.000
185.34	-100.000
185.72	-200.000
186.09	46.154
186.47	200.000
186.85	183.333
187.23	122.222
187.61	-600.000
187.98	-300.000
188.36	22.222
188.74	0.000
189.12	52.941
189.49	33.333
189.87	0.000
190.25	121.429
190.63	550.000
191.00	166.667
191.38	42.105
191.76	400.000
192.14	150.000
192.51	250.000
192.89	22.222
193.27	57.143
193.65	-0.000
194.02	63.636
194.40	80.000
194.78	37.500
195.15	33.333
195.53	0.000
195.91	275.000
196.29	-75.000
196.66	76.923
197.04	-71.429
197.42	55.556
197.79	-300.000
198.17	-23.077
198.55	300.000
198.92	-133.333
199.30	300.000
199.68	-40.000
200.05	-266.667
200.43	0.000
200.81	366.667
201.18	133.333
201.56	300.000
201.94	200.000
202.31	133.333
202.69	-160.000
203.07	100.000
203.44	100.000
203.82	0.000
204.19	21.429
204.57	-266.667
204.95	-0.000
205.32	50.000
205.70	28.571
206.08	75.000
206.45	255.556
206.83	100.000
207.20	85.714
207.58	-600.000
207.96	0.000
208.33	10.000
208.71	100.000
209.08	-100.000
209.46	-500.000
209.84	20.000
210.21	-1200.000
210.59	128.571
210.96	150.000
211.34	50.000
211.71	53.333
212.09	42.857
212.46	-900.000
212.84	0.000
213.22	100.000
213.59	400.000
213.97	61.538
214.34	63.636
214.72	-50.000
215.09	550.000
215.47	7.692
215.84	118.182
216.22	-133.333
216.59	100.000
216.97	350.000
217.34	-25.000
217.72	0.000
218.09	112.500
218.47	75.000
218.84	700.000
219.22	-33.333
219.59	40.000
219.97	-66.667
220.34	250.000
220.72	157.143
221.09	-75.000
221.47	100.000
221.84	-450.000
222.22	-400.000
222.59	18.182
222.97	41.667
223.34	-133.333
223.72	21.429
224.09	42.857
224.46	50.000
224.84	233.333
225.21	30.000
225.59	66.667
225.96	300.000
226.34	50.000
226.71	-85.714
227.08	100.000
227.46	-112.500
227.83	-150.000
228.21	22.222
228.58	-9.091
228.95	37.500
229.33	10.000
229.70	31.250
230.08	-50.000
230.45	57.143
230.82	14.286
231.20	-40.000
231.57	35.714
231.95	28.571
232.32	20.000
232.69	78.571
233.07	-100.000
233.44	-20.000
233.81	-40.000
234.19	-44.444
234.56	-5.882
234.93	100.000
235.31	150.000
235.68	-160.000
236.05	15.385
236.43	-20.000
236.80	47.059
237.17	25.000
237.55	10.000
237.92	11.111
238.29	41.667
238.67	13.333
239.04	50.000
239.41	-17.073
239.79	10.000
240.16	24.390
240.53	28.947
240.91	0.000
241.28	22.222
241.65	28.571
242.02	26.027
242.40	31.667
242.77	20.339
243.14	27.273
243.51	23.750
243.89	25.287
244.26	34.483
244.63	19.048
245.00	11.340
245.38	21.649
245.75	29.213
246.12	12.069
246.49	24.793
246.87	25.962
247.24	23.529
247.61	29.825
247.98	20.325
248.36	13.750
248.73	21.711
249.10	21.429
249.47	27.848
249.84	30.065
250.22	25.294
250.59	24.183
250.96	24.883
251.33	20.930
251.70	27.059
252.08	23.858
252.45	28.713
252.82	26.131
253.19	29.493
253.56	22.430
253.94	28.378
254.31	31.304
254.68	27.632
255.05	24.409
255.42	29.258
255.79	27.799
256.16	26.459
256.54	24.627
256.91	23.574
257.28	23.792
257.65	18.727
258.02	21.631
258.39	27.273
258.76	28.571
259.14	27.907
259.51	22.977
259.88	23.711
260.25	26.797
260.62	28.472
260.99	22.373
261.36	25.000
261.73	28.797
262.10	25.532
262.47	25.767
262.85	26.646
263.22	24.000
263.59	27.103
263.96	28.882
264.33	26.061
264.70	27.976
265.07	22.619
265.44	24.079
265.81	25.141
266.18	27.596
266.55	22.622
266.92	26.943
267.29	26.893
267.66	25.831
268.03	22.513
268.40	22.715
268.77	26.203
269.14	25.420
269.51	27.249
269.88	25.686
270.25	22.704
270.62	24.146
270.99	23.274
271.36	23.227
271.73	23.709
272.10	27.007
272.47	23.404
272.84	25.000
273.21	25.986
273.58	25.783
273.95	24.027
274.32	21.478
274.69	21.719
275.06	25.893
275.43	24.036
275.80	24.062
276.17	23.908
276.54	23.983
276.91	23.246
277.28	23.362
277.65	25.207
278.02	21.277
278.39	21.882
278.76	22.222
279.13	19.710
279.50	23.319
279.87	23.974
280.23	20.000
280.60	23.392
280.97	21.414
281.34	23.077
281.71	26.489
282.08	21.268
282.45	23.679
282.82	20.849
283.19	23.211
283.56	24.470
283.92	19.924
284.29	21.538
284.66	19.767
285.03	22.790
285.40	22.495
285.77	22.144
286.14	20.758
286.51	22.140
286.87	22.669
287.24	22.284
287.61	19.577
287.98	20.877
288.35	18.891
288.72	23.468
289.08	20.312
289.45	21.617
289.82	21.154
290.19	19.454
290.56	21.784
290.93	20.875
291.29	20.185
291.66	21.102
292.03	19.458
292.40	21.935
292.77	18.022
293.13	18.831
293.50	18.665
293.87	18.473
294.24	18.856
294.60	20.417
294.97	20.089
295.34	19.018
295.71	18.927
296.08	17.788
296.44	16.643
296.81	17.778
297.18	17.246
297.55	19.377
297.91	17.808
298.28	18.734
298.65	16.554
299.02	17.385
299.38	16.005
299.75	17.241
300.12	18.063
300.48	18.050
300.85	18.631
301.22	18.701
301.59	16.579
301.95	19.241
302.32	17.769
302.69	17.537
303.05	17.327
303.42	18.182
303.79	17.290
304.15	17.563
304.52	18.430
304.89	15.556
305.25	16.828
305.62	16.803
305.99	17.193
306.35	16.879
306.72	17.210
307.09	16.648
307.45	17.681
307.82	15.162
308.19	17.538
308.55	17.775
308.92	17.429
309.29	16.536
309.65	16.039
310.02	17.162
310.38	16.905
310.75	17.049
311.12	17.438
311.48	17.709
311.85	17.801
312.22	16.772
312.58	18.259
312.95	16.862
313.31	17.288
313.68	16.440
314.05	19.082
314.41	18.247
314.78	18.351
315.14	20.349
315.51	19.048
315.87	18.750
316.24	21.335
316.61	19.193
316.97	20.139
317.34	18.848
317.70	19.025
318.07	19.327
318.43	20.294
318.80	19.413
319.16	19.824
319.53	20.798
319.89	20.669
320.26	20.850
320.62	22.467
320.99	20.772
321.35	22.302
321.72	23.053
322.08	22.860
322.45	22.030
322.81	23.281
323.18	23.258
323.54	24.228
323.91	24.343
324.27	25.293
324.64	25.749
325.00	26.734
325.37	29.752
325.73	27.108
326.10	29.064
326.46	30.045
326.83	30.271
327.19	29.904
327.56	31.538
327.92	33.011
328.29	32.054
328.65	33.679
329.01	35.662
329.38	34.562
329.74	34.939
330.11	35.218
330.47	36.085
330.84	36.346
331.20	38.688
331.56	36.389
331.93	39.452
332.29	38.222
332.66	37.738
333.02	39.684
333.38	38.772
333.75	40.659
334.11	38.854
334.48	41.342
334.84	40.934
335.20	40.439
335.57	40.888
335.93	41.554
336.29	41.252
336.66	40.781
337.02	41.078
337.38	40.278
337.75	42.182
338.11	41.749
338.47	41.880
338.84	43.068
339.20	42.048
339.56	42.385
339.93	42.435
340.29	44.037
340.65	41.846
341.02	43.528
341.38	43.717
341.74	42.226
342.11	41.854
342.47	42.972
342.83	44.377
343.20	45.645
343.56	44.957
343.92	45.084
344.28	44.833
344.65	44.214
345.01	43.561
345.37	42.893
345.73	44.435
346.10	45.384
346.46	43.482
346.82	45.008
347.19	44.722
347.55	45.781
347.91	45.065
348.27	44.139
348.63	45.571
349.00	45.365
349.36	45.636
349.72	44.942
350.08	44.918
350.45	45.172
350.81	45.100
351.17	45.033
351.53	45.633
351.89	45.334
352.26	45.760
352.62	47.742
352.98	44.900
353.34	45.169
353.70	46.440
354.07	46.694
354.43	45.076
354.79	47.812
355.15	46.270
355.51	46.044
355.87	49.434
356.24	46.656
356.60	49.232
356.96	47.857
357.32	47.125
357.68	45.973
358.04	47.738
358.40	49.035
358.77	48.246
359.13	47.878
359.49	48.459
359.85	48.518
360.21	49.920
360.57	49.273
360.93	48.638
361.29	48.792
361.66	50.784
362.02	49.545
362.38	49.962
362.74	50.038
363.10	50.414
363.46	51.742
363.82	52.216
364.18	51.144
364.54	50.441
364.90	51.470
365.26	51.528
365.62	53.066
365.98	51.026
366.35	52.149
366.71	54.324
367.07	53.048
367.43	52.696
367.79	52.297
368.15	52.907
368.51	53.678
368.87	53.338
369.23	52.130
369.59	52.624
369.95	54.252
370.31	55.058
370.67	55.896
371.03	55.116
371.39	53.683
371.75	55.678
372.11	54.636
372.47	55.621
372.83	55.429
373.19	54.922
373.55	55.812
373.91	56.299
374.27	56.910
374.63	56.640
374.99	56.525
375.35	55.989
375.71	57.972
376.07	58.006
376.42	57.551
376.78	57.785
377.14	58.294
377.50	58.632
377.86	59.103
378.22	58.328
378.58	59.615
378.94	58.727
379.30	58.515
379.66	60.752
380.02	60.331
380.38	60.682
380.74	59.725
381.09	61.534
381.45	61.896
381.81	62.060
382.17	61.739
382.53	60.712
382.89	62.963
383.25	63.535
383.61	63.232
383.97	62.857
384.32	62.226
384.68	63.034
385.04	63.419
385.40	64.530
385.76	67.233
386.12	64.489
386.48	65.390
386.83	64.363
387.19	64.164
387.55	66.750
387.91	65.403
388.27	63.675
388.62	66.142
388.98	66.667
389.34	65.896
389.70	67.371
390.06	64.884
390.42	66.386
390.77	67.364
391.13	65.700
391.49	68.823
391.85	68.681
392.20	67.043
392.56	67.832
392.92	68.996
393.28	68.809
393.64	69.369
393.99	68.715
394.35	69.513
394.71	68.838
395.07	66.436
395.42	69.460
395.78	70.554
396.14	69.546
396.50	70.133
396.85	69.478
397.21	69.424
397.57	69.592
397.92	70.282
398.28	71.092
398.64	68.675
399.00	71.783
399.35	68.962
399.71	68.811
400.07	70.254
400.42	70.685
400.78	71.280
401.14	69.389
401.49	70.578
401.85	69.287
402.21	69.699
402.57	70.687
402.92	69.322
403.28	70.865
403.63	70.933
403.99	70.791
404.35	70.706
404.70	68.036
405.06	69.859
405.42	69.671
405.77	69.785
406.13	71.129
406.49	69.745
406.84	71.455
407.20	70.981
407.55	69.607
407.91	70.789
408.27	69.790
408.62	70.092
408.98	70.117
409.34	70.260
409.69	69.767
410.05	68.966
410.40	70.679
410.76	70.084
411.11	70.625
411.47	70.940
411.83	71.124
412.18	70.721
412.54	69.288
412.89	69.766
413.25	71.059
413.60	70.124
413.96	68.834
414.31	70.061
414.67	70.173
415.03	69.774
415.38	70.431
415.74	70.554
416.09	71.326
416.45	70.831
416.80	69.729
417.16	73.204
417.51	71.019
417.87	71.186
418.22	70.984
418.58	71.973
418.93	71.724
419.29	70.743
419.64	72.327
420.00	74.181
420.35	72.119
420.71	72.357
421.06	71.516
421.42	72.175
421.77	72.890
422.12	70.715
422.48	72.442
422.83	73.898
423.19	73.758
423.54	73.486
423.90	73.852
424.25	74.684
424.61	73.623
424.96	75.087
425.31	76.083
425.67	75.469
426.02	75.442
426.38	77.458
426.73	76.271
427.09	76.835
427.44	76.176
427.79	76.370
428.15	75.607
428.50	76.499
428.85	75.921
429.21	75.722
429.56	77.574
429.92	76.271
430.27	76.241
430.62	77.104
430.98	77.866
431.33	77.760
431.68	76.557
432.04	77.194
432.39	77.410
432.74	75.887
433.10	78.333
433.45	77.539
433.80	79.629
434.16	78.615
434.51	79.355
434.86	78.978
435.22	78.407
435.57	80.037
435.92	79.760
436.28	78.116
436.63	78.608
436.98	79.085
437.34	80.762
437.69	81.097
438.04	80.798
438.39	78.925
438.75	81.421
439.10	79.853
439.45	81.680
439.81	79.878
440.16	81.770
440.51	80.418
440.86	82.719
441.22	80.373
441.57	81.898
441.92	82.896
442.27	82.816
442.63	82.602
442.98	82.022
443.33	80.579
443.68	81.326
444.03	80.725
444.39	81.112
444.74	84.169
445.09	83.241
445.44	82.792
445.79	83.497
446.15	81.278
446.50	82.640
446.85	82.040
447.20	81.387
447.55	82.031
447.91	83.418
448.26	82.356
448.61	82.786
448.96	83.305
449.31	83.353
449.66	83.624
450.02	83.799
450.37	83.758
450.72	81.787
451.07	83.671
451.42	82.459
451.77	83.062
452.12	81.639
452.47	81.970
452.83	83.098
453.18	81.594
453.53	82.048
453.88	84.639
454.23	82.606
454.58	83.186
454.93	81.894
455.28	81.714
455.63	84.687
455.98	82.562
456.34	83.269
456.69	83.672
457.04	82.735
457.39	82.746
457.74	82.346
458.09	82.107
458.44	83.792
458.79	82.073
459.14	83.066
459.49	82.925
459.84	83.756
460.19	82.888
460.54	83.619
460.89	82.614
461.24	82.795
461.59	82.898
461.94	82.201
462.29	82.388
462.64	83.787
462.99	82.464
463.34	82.337
463.69	83.140
464.04	83.111
464.39	82.656
464.74	82.638
465.09	83.531
465.44	83.208
465.79	81.293
466.14	84.379
466.49	83.209
466.84	83.938
467.19	81.977
467.54	83.206
467.89	83.386
468.24	82.299
468.59	83.873
468.94	81.778
469.29	81.902
469.64	81.750
469.99	83.111
470.34	81.911
470.68	83.818
471.03	81.883
471.38	81.883
471.73	82.563
472.08	80.461
472.43	81.745
472.78	80.809
473.13	81.973
473.48	81.824
473.83	81.880
474.17	82.578
474.52	81.429
474.87	82.424
475.22	82.977
475.57	81.254
475.92	82.940
476.27	82.712
476.61	84.028
476.96	81.037
477.31	83.288
477.66	81.292
478.01	82.819
478.36	81.427
478.70	83.143
479.05	82.967
479.40	81.558
479.75	81.595
480.10	83.359
480.45	83.200
480.79	82.377
481.14	82.787
481.49	81.379
481.84	84.653
482.19	82.320
482.53	83.357
482.88	81.718
483.23	81.718
483.58	82.028
483.92	82.236
484.27	80.310
484.62	80.995
484.97	80.348
485.31	83.165
485.66	82.966
486.01	84.306
486.36	84.410
486.70	83.604
487.05	82.712
487.40	82.135
487.75	82.000
488.09	80.717
488.44	78.955
488.79	80.463
489.13	81.450
489.48	81.018
489.83	79.552
490.17	79.865
490.52	81.940
490.87	81.074
491.22	83.286
491.56	81.546
491.91	79.254
492.26	82.304
492.60	80.998
492.95	81.259
493.30	78.896
493.64	81.778
493.99	81.256
494.34	81.214
494.68	81.714
495.03	80.389
495.37	80.667
495.72	81.424
496.07	81.415
496.41	80.425
496.76	81.806
497.11	79.832
497.45	80.668
497.80	82.644
498.14	80.427
498.49	80.498
498.84	80.339
499.18	82.631
499.53	81.746
499.87	80.982
500.22	79.476
500.56	81.089
500.91	79.769
501.26	79.585
501.60	79.341
501.95	81.320
502.29	81.840
502.64	81.660
502.98	81.204
503.33	79.347
503.67	80.771
504.02	81.720
504.36	80.851
504.71	80.404
505.06	79.265
505.40	79.442
505.75	81.443
506.09	79.676
506.44	80.955
506.78	81.122
507.13	79.938
507.47	78.068
507.82	79.380
508.16	79.451
508.51	81.060
508.85	80.167
509.19	80.947
509.54	79.839
509.88	79.612
510.23	79.505
510.57	79.102
510.92	79.158
511.26	81.233
511.61	80.528
511.95	80.877
512.30	81.042
512.64	78.854
512.98	80.011
513.33	80.526
513.67	78.169
514.02	80.721
514.36	81.029
514.70	81.760
515.05	81.904
515.39	81.346
515.74	80.599
516.08	81.650
516.42	80.683
516.77	82.329
517.11	81.306
517.46	80.072
517.80	80.095
518.14	78.934
518.49	79.026
518.83	80.012
519.17	78.714
519.52	79.159
519.86	80.912
520.20	80.377
520.55	80.175
520.89	79.172
521.23	79.797
521.58	80.568
521.92	79.744
522.26	79.961
522.61	78.312
522.95	81.192
523.29	78.590
523.64	80.241
523.98	80.493
524.32	79.897
524.66	80.794
525.01	80.519
525.35	79.456
525.69	79.798
526.04	80.225
526.38	81.388
526.72	79.922
527.06	80.934
527.41	80.079
527.75	79.357
528.09	78.405
528.43	81.161
528.78	79.868
529.12	79.677
529.46	80.572
529.80	78.341
530.15	79.934
530.49	80.875
530.83	81.259
531.17	79.181
531.51	80.027
531.86	79.266
532.20	79.471
532.54	78.421
532.88	80.493
533.22	79.704
533.57	80.341
533.91	79.243
534.25	80.339
534.59	79.795
534.93	78.729
535.27	78.997
535.62	79.326
535.96	80.691
536.30	79.617
536.64	80.014
536.98	79.373
537.32	80.299
537.66	79.663
538.01	80.350
538.35	79.681
538.69	78.562
539.03	79.494
539.37	78.264
539.71	79.550
540.05	78.344
540.39	81.717
540.73	79.219
541.07	78.660
541.42	78.898
541.76	80.936
542.10	80.661
542.44	79.847
542.78	79.422
543.12	78.365
543.46	80.737
543.80	81.124
544.14	79.172
544.48	79.747
544.82	80.451
545.16	81.626
545.50	79.306
545.84	81.374
546.18	81.206
546.52	79.452
546.86	80.302
547.20	79.685
547.54	79.011
547.88	80.707
548.22	79.619
548.56	78.694
548.90	80.593
549.24	78.030
549.58	78.350
549.92	79.414
550.26	79.560
550.60	79.926
550.94	81.180
551.28	78.284
551.62	80.692
551.96	80.602
552.30	80.190
552.64	78.984
552.98	78.270
553.32	78.816
553.66	79.318
554.00	80.949
554.34	81.241
554.68	80.015
555.02	80.878
555.36	80.479
555.69	80.000
556.03	79.729
556.37	78.932
556.71	80.072
557.05	81.655
557.39	77.844
557.73	80.435
558.07	78.356
558.41	80.628
558.75	79.891
559.08	79.748
559.42	80.159
559.76	81.345
560.10	79.358
560.44	81.087
560.78	79.231
561.12	80.677
561.45	81.729
561.79	80.462
562.13	80.483
562.47	79.281
562.81	80.692
563.15	78.491
563.48	80.198
563.82	79.959
564.16	81.058
564.50	79.054
564.84	80.388
565.17	78.471
565.51	82.514
565.85	82.167
566.19	78.912
566.52	80.496
566.86	80.720
567.20	80.199
567.54	81.083
567.88	82.953
568.21	82.975
568.55	81.033
568.89	82.444
569.23	83.293
569.56	83.187
569.90	83.354
570.24	80.461
570.57	83.527
570.91	83.618
571.25	81.782
571.59	81.906
571.92	80.830
572.26	81.039
572.60	80.651
572.93	80.734
573.27	80.533
573.61	81.414
573.95	81.513
574.28	81.012
574.62	80.880
574.96	80.803
575.29	80.338
575.63	78.777
575.97	79.480
576.30	79.843
576.64	80.291
576.98	81.776
577.31	81.470
577.65	81.628
577.98	81.530
578.32	80.897
578.66	79.819
578.99	79.504
579.33	79.365
579.67	79.031
580.00	81.038
580.34	80.547
580.67	78.660
581.01	81.412
581.35	81.072
581.68	81.716
582.02	82.474
582.35	81.523
582.69	81.301
583.02	80.581
583.36	80.057
583.70	81.179
584.03	81.346
584.37	81.931
584.70	80.632
585.04	80.207
585.37	80.909
585.71	82.350
586.04	81.114
586.38	81.889
586.72	81.980
587.05	82.178
587.39	82.667
587.72	83.625
588.06	81.567
588.39	80.718
588.73	81.319
589.06	81.931
589.40	81.161
589.73	80.431
590.07	81.193
590.40	82.276
590.73	82.166
591.07	81.425
591.40	81.701
591.74	82.715
592.07	81.494
592.41	81.670
592.74	81.123
593.08	80.859
593.41	82.306
593.75	81.845
594.08	80.227
594.41	81.077
594.75	81.756
595.08	81.990
595.42	81.156
595.75	82.989
596.09	80.805
596.42	80.777
596.75	81.483
597.09	79.727
597.42	80.262
597.75	81.127
598.09	80.489
598.42	80.505
598.76	80.438
599.09	81.611
599.42	80.296
599.76	79.571
600.09	79.449
600.42	80.250
600.76	80.423
601.09	79.962
601.42	79.162
601.76	81.580
602.09	81.064
602.42	82.224
602.76	80.772
603.09	81.811
603.42	83.863
603.76	81.855
604.09	80.275
604.42	81.387
604.76	80.507
605.09	81.033
605.42	80.135
605.75	80.779
606.09	80.934
606.42	80.192
606.75	79.740
607.09	80.132
607.42	78.821
607.75	81.083
608.08	79.515
608.42	79.306
608.75	80.819
609.08	81.814
609.41	79.543
609.75	81.653
610.08	80.929
610.41	81.787
610.74	80.010
611.07	80.413
611.41	80.903
611.74	80.330
612.07	80.514
612.40	81.291
612.73	80.734
613.07	79.640
613.40	79.595
613.73	81.533
614.06	79.855
614.39	79.752
614.72	80.056
615.06	79.218
615.39	79.749
615.72	79.548
616.05	79.162
616.38	79.031
616.71	79.878
617.05	79.864
617.38	79.195
617.71	79.686
618.04	81.079
618.37	80.076
618.70	80.726
619.03	81.042
619.36	80.608
619.69	81.046
620.03	81.446
620.36	80.043
620.69	79.872
621.02	79.128
621.35	79.087
621.68	81.463
622.01	80.083
622.34	78.532
622.67	78.470
623.00	79.020
623.33	78.125
623.66	79.058
623.99	79.501
624.32	79.772
624.65	78.120
624.99	79.834
625.32	77.862
625.65	79.419
625.98	79.774
626.31	78.554
626.64	79.809
626.97	78.272
627.30	79.685
627.63	77.383
627.96	77.898
628.29	79.278
628.62	79.449
628.95	77.856
629.28	79.435
629.61	77.866
629.94	79.472
630.26	78.063
630.59	79.709
630.92	76.923
631.25	76.615
631.58	78.524
631.91	78.289
632.24	79.358
632.57	78.636
632.90	78.529
633.23	77.176
633.56	77.834
633.89	78.915
634.22	80.247
634.55	81.067
634.88	77.267
635.20	75.513
635.53	78.267
635.86	77.113
636.19	78.784
636.52	78.699
636.85	77.171
637.18	77.484
637.51	74.214
637.83	75.953
638.16	78.035
638.49	76.158
638.82	77.632
639.15	78.019
639.48	76.616
639.81	76.709
640.13	78.211
640.46	77.259
640.79	77.761
641.12	75.480
641.45	75.526
641.77	76.889
642.10	78.357
642.43	77.010
642.76	76.898
643.09	77.706
643.41	75.405
643.74	77.924
644.07	76.190
644.40	77.365
644.73	80.035
645.05	75.839
645.38	78.483
645.71	77.305
646.04	77.199
646.36	78.369
646.69	76.799
647.02	79.395
647.35	77.612
647.67	74.223
648.00	77.239
648.33	76.109
648.66	77.458
648.98	76.214
649.31	76.198
649.64	76.295
649.96	75.041
650.29	76.661
650.62	76.752
650.94	77.593
651.27	75.605
651.60	75.495
651.92	72.378
652.25	76.021
652.58	75.333
652.90	77.702
653.23	76.303
653.56	73.266
653.88	78.179
654.21	74.431
654.54	73.854
654.86	76.401
655.19	73.538
655.52	81.037
655.84	82.540
656.17	90.939
656.49	100.000
656.82	100.000
657.15	100.000
657.47	99.233
657.80	50.818
658.13	50.412
658.45	76.646
658.78	73.641
659.10	71.493
659.43	70.597
659.75	70.400
660.08	70.828
660.41	72.523
660.73	71.133
661.06	74.697
661.38	74.755
661.71	72.074
662.03	79.614
662.36	76.703
662.68	73.894
663.01	75.109
663.33	74.246
663.66	75.349
663.98	77.907
664.31	70.789
664.63	73.272
664.96	71.522
665.28	70.419
665.61	72.727
665.93	73.913
666.26	74.837
666.58	72.036
666.91	76.235
667.23	74.292
667.56	72.986
667.88	72.422
668.21	74.940
668.53	73.522
668.86	72.877
669.18	72.406
669.50	74.576
669.83	73.953
670.15	73.893
670.48	71.770
670.80	75.115
671.13	68.904
671.45	70.548
671.77	72.103
672.10	74.059
672.42	73.408
672.75	73.179
673.07	74.597
673.39	73.578
673.72	72.978
674.04	73.125
674.37	71.822
674.69	68.951
675.01	73.111
675.34	71.396
675.66	72.454
675.98	70.732
676.31	74.771
676.63	73.397
676.95	73.409
677.28	74.118
677.60	73.494
677.92	74.312
678.25	72.648
678.57	73.377
678.89	71.639
679.22	78.300
679.54	69.679
679.86	71.173
680.18	72.427
680.51	72.348
680.83	71.571
681.15	72.000
681.48	73.770
681.80	73.140
682.12	73.589
682.44	74.059
682.77	75.717
683.09	70.709
683.41	68.409
683.73	70.046
684.06	70.796
684.38	69.892
684.70	72.549
685.02	74.274
685.34	71.344
685.67	74.109
685.99	72.152
686.31	71.681
686.63	69.388
686.96	69.392
687.28	71.111
687.60	69.202
687.92	73.535
688.24	69.758
688.56	71.179
688.89	69.866
689.21	71.556
689.53	72.158
689.85	72.558
690.17	72.545
690.49	71.158
690.82	72.087
691.14	69.524
691.46	73.131
691.78	72.748
692.10	72.258
692.42	68.831
692.74	70.726
693.06	67.793
693.39	69.683
693.71	70.814
694.03	71.363
694.35	71.262
694.67	71.465
694.99	70.757
695.31	70.757
695.63	71.000
695.95	69.444
696.27	72.280
696.59	68.889
696.91	68.067
697.23	67.352
697.56	71.535
697.88	73.118
698.20	70.615
698.52	75.529
698.84	66.268
699.16	70.750
699.48	69.925
699.80	65.757
700.12	69.272
700.44	73.669
700.76	66.570
701.08	68.485
701.40	66.867
701.72	73.148
702.04	71.947
702.36	73.579
702.68	70.871
703.00	72.727
703.32	72.727
703.64	67.232
703.96	70.145
704.28	68.712
704.60	70.794
704.91	68.139
705.23	68.106
705.55	67.138
705.87	76.173
706.19	71.481
706.51	65.979
706.83	68.810
707.15	68.224
707.47	71.989
707.79	66.927
708.11	69.500
708.43	66.750
708.74	68.475
709.06	73.521
709.38	69.725
709.70	68.343
710.02	66.561
710.34	66.873
710.66	65.705
710.98	67.881
711.29	68.852
711.61	70.508
711.93	71.661
712.25	70.103
712.57	69.231
712.89	67.910
713.20	63.668
713.52	64.111
713.84	66.894
714.16	72.165
714.48	69.032
714.80	71.795
715.11	68.085
715.43	65.831
715.75	67.667
716.07	67.774
716.39	66.443
716.70	65.683
717.02	66.794
717.34	70.040
717.66	69.912
717.97	67.391
718.29	63.180
718.61	69.685
718.93	67.442
719.24	63.118
719.56	69.478
719.88	66.667
720.20	65.909
720.51	63.985
720.83	62.548
721.15	72.269
721.46	70.968
721.78	64.427
722.10	66.914
722.42	68.465
722.73	68.571
723.05	72.653
723.37	72.881
723.68	63.964
724.00	64.957
724.32	68.000
724.63	69.091
724.95	67.249
725.27	72.811
725.58	68.644
725.90	66.667
726.22	64.865
726.53	67.797
726.85	70.037
727.16	66.792
727.48	65.587
727.80	62.753
728.11	62.712
728.43	62.353
728.74	67.742
729.06	64.400
729.38	67.669
729.69	72.112
730.01	64.231
730.32	66.045
730.64	65.018
730.96	67.925
731.27	68.667
731.59	65.763
731.90	68.153
732.22	67.823
732.53	66.445
732.85	68.440
733.16	67.340
733.48	62.950
733.80	68.478
734.11	68.814
734.43	70.447
734.74	63.333
735.06	70.684
735.37	66.767
735.69	70.370
736.00	65.157
736.32	61.745
736.63	70.423
736.95	66.212
737.26	67.616
737.58	59.732
737.89	64.103
738.21	67.293
738.52	70.782
738.83	69.869
739.15	66.812
739.46	66.142
739.78	64.103
740.09	64.052
740.41	67.029
740.72	62.598
741.04	70.040
741.35	67.660
741.66	60.190
741.98	64.286
742.29	61.386
742.61	63.874
742.92	62.085
743.23	54.630
743.55	61.086
743.86	61.244
744.18	67.943
744.49	65.426
744.80	60.870
745.12	68.449
745.43	60.000
745.74	67.708
746.06	66.829
746.37	67.539
746.68	66.351
747.00	67.021
747.31	65.174
747.62	66.505
747.94	69.856
748.25	63.861
748.56	68.306
748.88	64.921
749.19	61.170
749.50	64.532
749.82	66.981
750.13	64.220
750.44	66.541
750.75	67.910
751.07	66.058
751.38	65.134
751.69	64.314
752.01	62.791
752.32	66.135
752.63	64.822
752.94	66.379
753.26	66.109
753.57	62.896
753.88	62.832
754.19	66.667
754.51	66.116
754.82	63.968
755.13	65.417
755.44	61.694
755.75	66.797
756.07	60.311
756.38	60.755
756.69	65.134
757.00	66.000
757.31	65.033
757.63	60.671
757.94	63.333
758.25	63.288
758.56	62.766
758.87	58.924
759.18	57.321
759.50	63.273
759.81	63.545
760.12	64.839
760.43	63.636
760.74	65.432
761.05	64.000
761.36	64.773
761.67	62.424
761.99	70.068
762.30	60.727
762.61	64.822
762.92	63.801
763.23	60.811
763.54	60.280
763.85	62.712
764.16	64.730
764.47	63.710
764.78	64.103
765.10	62.626
765.41	61.514
765.72	63.810
766.03	62.030
766.34	56.204
766.65	61.753
766.96	62.626
767.27	62.766
767.58	55.747
767.89	60.993
768.20	63.636
768.51	64.286
768.82	63.054
769.13	57.143
769.44	61.373
769.75	59.361
770.06	57.328
770.37	62.981
770.68	59.391
770.99	55.656
771.30	64.706
771.61	62.896
771.92	64.655
772.23	62.562
772.54	60.753
772.85	63.580
773.16	60.112
773.47	72.549
773.78	69.281
774.09	55.689
774.39	66.000
774.70	58.599
775.01	58.621
775.32	53.571
775.63	60.331
775.94	51.908
776.25	51.969
776.56	62.500
776.87	54.808
777.18	54.701
777.48	63.793
777.79	61.739
778.10	60.952
778.41	49.550
778.72	60.317
779.03	54.887
779.34	65.248
779.65	56.849
779.95	63.014
780.26	62.759
780.57	42.276
780.88	50.394
781.19	56.034
781.50	66.667
781.80	60.355
782.11	58.491
782.42	62.308
782.73	57.554
783.04	68.889
783.34	50.694
783.65	52.991
783.96	70.492
784.27	63.448
784.57	57.724
784.88	58.594
785.19	64.000
785.50	62.000
785.81	58.621
786.11	62.069
786.42	53.398
786.73	70.000
787.04	55.102
787.34	57.143
787.65	55.238
787.96	61.947
788.26	59.091
788.57	56.410
788.88	65.625
789.19	44.444
789.49	69.565
789.80	54.082
790.11	58.586
790.41	50.000
790.72	56.522
791.03	59.091
791.33	58.750
791.64	56.250
791.95	45.349
792.25	54.255
792.56	59.551
792.87	56.164
793.17	43.478
793.48	40.000
793.79	42.500
794.09	81.250
794.40	53.774
794.70	55.340
795.01	50.407
795.32	58.974
795.62	61.905
795.93	58.824
796.23	57.547
796.54	51.042
796.85	79.412
797.15	47.887
797.46	62.500
797.76	60.606
798.07	47.674
798.37	44.737
798.68	43.939
798.99	50.617
799.29	68.571
799.60	50.725
799.90	66.667
800.21	59.016
800.51	70.769
800.82	66.102
801.12	59.420
801.43	60.656
801.73	50.794
802.04	42.000
802.34	29.851
802.65	63.462
802.95	51.786
803.26	38.462
803.56	50.980
803.87	65.217
804.17	49.333
804.48	57.143
804.78	42.593
805.09	52.174
805.39	51.111
805.70	59.259
806.00	59.649
806.30	59.155
806.61	54.286
806.91	45.833
807.22	61.842
807.52	53.333
807.83	61.818
808.13	45.833
808.43	63.235
808.74	56.716
809.04	50.847
809.35	48.077
809.65	40.625
809.95	45.946
810.26	56.818
810.56	50.685
810.86	59.524
811.17	46.000
811.47	57.143
811.77	60.526
812.08	50.000
812.38	49.057
812.69	57.500
812.99	81.818
813.29	44.737
813.59	54.286
813.90	40.909
814.20	38.462
814.50	55.769
814.81	73.585
815.11	27.660
815.41	54.237
815.72	50.000
816.02	43.137
816.32	39.583
816.62	39.024
816.93	40.541
817.23	42.857
817.53	37.500
817.84	30.435
818.14	51.923
818.44	23.684
818.74	65.217
819.04	22.500
819.35	27.027
819.65	47.059
819.95	55.556
820.25	28.571
820.56	82.500
820.86	17.241
821.16	82.500
821.46	40.426
821.76	85.000
822.07	58.140
822.37	45.946
822.67	25.000
822.97	73.810
823.27	75.000
823.57	64.000
823.88	18.519
824.18	57.143
824.48	70.588
824.78	45.161
825.08	21.739
825.38	69.697
825.69	41.667
825.99	15.789
826.29	52.778
826.59	113.333
826.89	14.286
827.19	34.783
827.49	25.000
827.79	57.143
828.09	46.429
828.39	69.697
828.70	83.784
829.00	82.143
829.30	71.429
829.60	60.000
829.90	56.250
830.20	55.263
830.50	48.148
830.80	56.522
831.10	59.091
831.40	75.758
831.70	67.742
832.00	52.381
832.30	0.000
832.60	33.333
832.90	44.828
833.20	-5.000
833.50	42.424
833.80	37.037
834.10	-3.846
834.40	65.625
834.70	88.889
835.00	131.579
835.30	96.154
835.60	113.333
835.90	64.516
836.20	54.545
836.50	53.571
836.80	7.692
837.10	32.143
837.40	-100.000
837.70	22.727
838.00	9.091
838.30	56.522
838.60	38.462
838.90	40.909
839.19	35.714
839.49	50.000
839.79	92.308
840.09	50.000
840.39	35.714
840.69	50.000
840.99	7.692
841.29	-31.579
841.59	20.000
841.88	9.091
842.18	60.000
842.48	62.500
842.78	-40.000
843.08	22.222
843.38	60.000
843.68	39.130
843.97	-13.333
844.27	-20.000
844.57	60.000
844.87	72.222
845.17	23.810
845.47	66.667
845.76	-14.286
846.06	58.824
846.36	110.000
846.66	14.286
846.96	33.333
847.25	-37.500
847.55	71.429
847.85	37.500
848.15	22.727
848.44	-433.333
848.74	35.000
849.04	59.259
849.34	18.182
849.63	66.667
849.93	-40.000
850.23	11.111
850.53	110.000
850.82	-15.385
851.12	55.556
851.42	26.667
851.71	-7.692
852.01	100.000
852.31	125.000
852.61	0.000
852.90	10.000
853.20	26.316
853.50	75.000
853.79	78.261
854.09	104.167
854.39	5.263
854.68	25.000
854.98	41.935
855.28	92.308
855.57	0.000
855.87	55.556
856.17	66.667
856.46	42.857
856.76	73.333
857.05	111.111
857.35	40.000
857.65	66.667
857.94	15.385
858.24	44.828
858.53	61.111
858.83	62.963
859.13	63.636
859.42	43.478
859.72	125.000
860.01	-333.333
860.31	32.000
860.60	28.571
860.90	-100.000
861.20	13.333
861.49	0.000
861.79	6.667
862.08	0.000
862.38	80.000
862.67	-80.000
862.97	-116.667
863.26	-25.000
863.56	16.667
863.85	-100.000
864.15	22.222
864.44	80.000
864.74	85.714
865.03	100.000
865.33	-220.000
865.62	183.333
865.92	-58.333
866.21	-233.333
866.51	31.250
866.80	45.455
867.10	200.000
867.39	-8.333
867.69	0.000
867.98	61.538
868.27	-166.667
868.57	73.333
868.86	88.889
869.16	-46.154
869.45	66.667
869.75	-700.000
870.04	0.000
870.33	-42.857
870.63	38.095
870.92	166.667
871.22	-80.000
871.51	0.000
871.80	55.556
872.10	133.333
>>>>>End Processed Spectral Data<<<<<
