SpectraSuite Data File
++++++++++++++++++++++++++++++++++++
Date: Fri May 15 17:29:38 PDT 2015
User: schluterlab
Dark Spectrum Present: Yes
Reference Spectrum Present: Yes
Number of Sampled Component Spectra: 1
Spectrometers: USB2E3373
Integration Time (usec): 3000 (USB2E3373)
Spectra Averaged: 3 (USB2E3373)
Boxcar Smoothing: 0 (USB2E3373)
Correct for Electrical Dark: No (USB2E3373)
Strobe/Lamp Enabled: No (USB2E3373)
Correct for Detector Non-linearity: No (USB2E3373)
Correct for Stray Light: No (USB2E3373)
Number of Pixels in Processed Spectrum: 2048
>>>>>Begin Processed Spectral Data<<<<<
178.53	0.000
178.91	0.000
179.29	137.500
179.67	-700.000
180.04	-85.714
180.42	275.000
180.80	-300.000
181.18	-33.333
181.56	450.000
181.94	-200.000
182.31	-300.000
182.69	-60.000
183.07	-133.333
183.45	-100.000
183.83	116.667
184.20	-63.636
184.58	11.111
184.96	-350.000
185.34	-300.000
185.72	-300.000
186.09	46.154
186.47	800.000
186.85	116.667
187.23	22.222
187.61	-800.000
187.98	66.667
188.36	77.778
188.74	100.000
189.12	52.941
189.49	77.778
189.87	0.000
190.25	78.571
190.63	300.000
191.00	-100.000
191.38	-31.579
191.76	0.000
192.14	-125.000
192.51	150.000
192.89	-33.333
193.27	-142.857
193.65	116.667
194.02	54.545
194.40	50.000
194.78	-187.500
195.15	41.667
195.53	62.500
195.91	175.000
196.29	0.000
196.66	38.462
197.04	142.857
197.42	-44.444
197.79	-133.333
198.17	-76.923
198.55	1100.000
198.92	-66.667
199.30	-500.000
199.68	120.000
200.05	-200.000
200.43	0.000
200.81	100.000
201.18	-166.667
201.56	900.000
201.94	-150.000
202.31	33.333
202.69	-120.000
203.07	100.000
203.44	700.000
203.82	0.000
204.19	92.857
204.57	-366.667
204.95	-25.000
205.32	40.000
205.70	-85.714
206.08	150.000
206.45	177.778
206.83	85.714
207.20	-114.286
207.58	600.000
207.96	233.333
208.33	-50.000
208.71	-25.000
209.08	-100.000
209.46	-1000.000
209.84	40.000
210.21	-1100.000
210.59	57.143
210.96	33.333
211.34	150.000
211.71	46.667
212.09	28.571
212.46	-1000.000
212.84	0.000
213.22	10.000
213.59	600.000
213.97	23.077
214.34	145.455
214.72	-83.333
215.09	350.000
215.47	0.000
215.84	63.636
216.22	66.667
216.59	75.000
216.97	750.000
217.34	50.000
217.72	-220.000
218.09	50.000
218.47	200.000
218.84	-1400.000
219.22	33.333
219.59	-220.000
219.97	-0.000
220.34	100.000
220.72	57.143
221.09	50.000
221.47	100.000
221.84	100.000
222.22	-50.000
222.59	54.545
222.97	25.000
223.34	0.000
223.72	0.000
224.09	66.667
224.46	28.571
224.84	66.667
225.21	60.000
225.59	-20.000
225.96	-50.000
226.34	125.000
226.71	28.571
227.08	-116.667
227.46	-12.500
227.83	-150.000
228.21	0.000
228.58	-9.091
228.95	100.000
229.33	160.000
229.70	-6.250
230.08	-75.000
230.45	-185.714
230.82	171.429
231.20	-20.000
231.57	35.714
231.95	128.571
232.32	0.000
232.69	71.429
233.07	100.000
233.44	0.000
233.81	-10.000
234.19	0.000
234.56	-29.412
234.93	200.000
235.31	125.000
235.68	-280.000
236.05	-15.385
236.43	-20.000
236.80	11.765
237.17	6.250
237.55	25.000
237.92	14.815
238.29	13.889
238.67	-50.000
239.04	-5.882
239.41	-12.195
239.79	-16.667
240.16	29.268
240.53	-23.684
240.91	-10.870
241.28	12.698
241.65	12.500
242.02	28.767
242.40	25.000
242.77	-6.780
243.14	-12.121
243.51	8.750
243.89	3.448
244.26	8.046
244.63	2.381
245.00	8.247
245.38	-1.031
245.75	-7.865
246.12	-1.724
246.49	6.612
246.87	-1.923
247.24	3.361
247.61	1.754
247.98	5.691
248.36	-0.625
248.73	1.316
249.10	-0.649
249.47	5.696
249.84	2.614
250.22	6.471
250.59	-1.961
250.96	7.042
251.33	-0.581
251.70	0.000
252.08	-4.569
252.45	1.485
252.82	6.030
253.19	6.452
253.56	-0.467
253.94	7.207
254.31	3.478
254.68	0.000
255.05	0.000
255.42	4.367
255.79	3.089
256.16	0.778
256.54	1.866
256.91	2.662
257.28	1.487
257.65	0.000
258.02	-1.773
258.39	4.377
258.76	6.227
259.14	5.316
259.51	5.502
259.88	1.718
260.25	3.268
260.62	1.389
260.99	-0.678
261.36	-1.712
261.73	1.266
262.10	3.951
262.47	1.840
262.85	0.000
263.22	1.846
263.59	3.115
263.96	1.863
264.33	1.818
264.70	3.274
265.07	2.083
265.44	1.416
265.81	3.107
266.18	1.093
266.55	1.542
266.92	1.036
267.29	1.567
267.66	4.092
268.03	2.618
268.40	0.783
268.77	3.743
269.14	3.357
269.51	4.884
269.88	0.000
270.25	0.765
270.62	0.000
270.99	0.512
271.36	1.956
271.73	0.704
272.10	2.920
272.47	3.546
272.84	1.238
273.21	2.784
273.58	3.614
273.95	2.746
274.32	-1.155
274.69	0.905
275.06	1.116
275.43	3.628
275.80	2.428
276.17	1.149
276.54	2.570
276.91	0.877
277.28	0.437
277.65	2.686
278.02	1.915
278.39	1.094
278.76	1.048
279.13	-1.037
279.50	5.042
279.87	1.296
280.23	-0.430
280.60	4.094
280.97	4.040
281.34	1.538
281.71	2.669
282.08	-1.227
282.45	0.000
282.82	-0.579
283.19	1.934
283.56	2.890
283.92	1.708
284.29	2.308
284.66	0.581
285.03	1.375
285.40	1.890
285.77	0.176
286.14	2.347
286.51	1.845
286.87	0.183
287.24	2.210
287.61	1.587
287.98	3.509
288.35	2.600
288.72	4.203
289.08	0.694
289.45	2.460
289.82	1.573
290.19	0.853
290.56	0.172
290.93	1.178
291.29	1.079
291.66	2.205
292.03	1.754
292.40	1.935
292.77	0.957
293.13	0.974
293.50	-0.455
293.87	2.290
294.24	2.473
294.60	1.788
294.97	4.018
295.34	0.460
295.71	2.385
296.08	2.093
296.44	1.565
296.81	1.944
297.18	3.623
297.55	2.981
297.91	2.055
298.28	2.507
298.65	1.357
299.02	2.022
299.38	-1.231
299.75	1.793
300.12	1.571
300.48	0.395
300.85	2.408
301.22	1.818
301.59	0.395
301.95	2.532
302.32	2.335
302.69	2.985
303.05	2.104
303.42	1.868
303.79	1.285
304.15	2.031
304.52	-1.070
304.89	0.819
305.25	2.785
305.62	1.284
305.99	1.520
306.35	1.272
306.72	1.012
307.09	1.254
307.45	3.559
307.82	0.810
308.19	2.787
308.55	2.835
308.92	2.070
309.29	0.112
309.65	1.615
310.02	1.100
310.38	1.537
310.75	1.093
311.12	1.292
311.48	2.439
311.85	1.990
312.22	2.004
312.58	2.229
312.95	1.494
313.31	0.725
313.68	0.838
314.05	1.735
314.41	1.443
314.78	1.546
315.14	1.850
315.51	2.899
315.87	1.537
316.24	3.438
316.61	2.854
316.97	2.083
317.34	3.809
317.70	1.530
318.07	3.558
318.43	2.941
318.80	3.788
319.16	3.711
319.53	5.128
319.89	4.331
320.26	4.049
320.62	4.714
320.99	2.818
321.35	4.625
321.72	4.673
322.08	6.042
322.45	5.076
322.81	5.501
323.18	5.299
323.54	6.081
323.91	5.745
324.27	6.152
324.64	7.772
325.00	7.847
325.37	9.275
325.73	7.434
326.10	9.173
326.46	9.058
326.83	10.061
327.19	10.113
327.56	10.252
327.92	11.444
328.29	10.536
328.65	11.226
329.01	11.673
329.38	12.258
329.74	12.465
330.11	13.716
330.47	12.059
330.84	11.731
331.20	14.829
331.56	12.870
331.93	13.973
332.29	15.032
332.66	15.113
333.02	14.405
333.38	13.657
333.75	15.110
334.11	14.235
334.48	15.866
334.84	14.652
335.20	14.639
335.57	15.413
335.93	15.537
336.29	16.206
336.66	15.350
337.02	14.684
337.38	15.556
337.75	16.364
338.11	16.231
338.47	15.967
338.84	18.022
339.20	17.002
339.56	16.606
339.93	17.010
340.29	15.596
340.65	16.935
341.02	16.667
341.38	17.345
341.74	15.901
342.11	14.905
342.47	16.192
342.83	16.436
343.20	16.028
343.56	16.348
343.92	16.829
344.28	16.909
344.65	16.408
345.01	17.113
345.37	17.830
345.73	18.577
346.10	16.997
346.46	18.587
346.82	17.676
347.19	16.874
347.55	17.878
347.91	17.314
348.27	17.057
348.63	17.888
349.00	17.966
349.36	18.204
349.72	16.915
350.08	17.787
350.45	18.675
350.81	16.944
351.17	17.590
351.53	18.041
351.89	17.589
352.26	17.360
352.62	18.387
352.98	18.072
353.34	18.277
353.70	18.932
354.07	19.516
354.43	19.215
354.79	18.332
355.15	20.476
355.51	19.620
355.87	18.770
356.24	18.434
356.60	18.917
356.96	20.079
357.32	18.690
357.68	19.156
358.04	18.901
358.40	19.775
358.77	19.458
359.13	19.696
359.49	19.877
359.85	19.579
360.21	20.893
360.57	19.434
360.93	20.575
361.29	18.958
361.66	20.141
362.02	20.152
362.38	20.868
362.74	20.363
363.10	21.219
363.46	21.572
363.82	20.962
364.18	20.886
364.54	20.368
364.90	21.649
365.26	21.397
365.62	22.993
365.98	22.581
366.35	23.015
366.71	22.838
367.07	22.496
367.43	22.646
367.79	21.625
368.15	23.187
368.51	23.452
368.87	22.398
369.23	22.022
369.59	22.741
369.95	23.680
370.31	23.772
370.67	22.015
371.03	22.255
371.39	24.070
371.75	23.297
372.11	23.538
372.47	24.482
372.83	23.563
373.19	23.823
373.55	24.477
373.91	24.550
374.27	26.010
374.63	25.341
374.99	25.177
375.35	25.209
375.71	25.944
376.07	26.404
376.42	25.442
376.78	25.235
377.14	26.811
377.50	26.228
377.86	26.439
378.22	27.058
378.58	26.410
378.94	26.402
379.30	27.199
379.66	27.900
380.02	26.426
380.38	27.206
380.74	27.648
381.09	29.018
381.45	27.829
381.81	27.699
382.17	28.744
382.53	28.919
382.89	28.814
383.25	29.371
383.61	29.329
383.97	29.651
384.32	29.018
384.68	29.907
385.04	28.799
385.40	29.247
385.76	31.069
386.12	30.660
386.48	31.418
386.83	31.135
387.19	31.807
387.55	31.932
387.91	31.724
388.27	30.708
388.62	31.403
388.98	31.799
389.34	31.355
389.70	32.194
390.06	30.774
390.42	32.060
390.77	32.047
391.13	31.652
391.49	31.501
391.85	32.034
392.20	31.576
392.56	33.566
392.92	32.766
393.28	31.722
393.64	33.093
393.99	33.354
394.35	32.764
394.71	32.886
395.07	33.061
395.42	32.544
395.78	33.941
396.14	32.850
396.50	33.354
396.85	33.741
397.21	33.521
397.57	34.357
397.92	33.913
398.28	33.793
398.64	32.651
399.00	34.707
399.35	33.747
399.71	33.831
400.07	33.676
400.42	33.905
400.78	34.293
401.14	33.273
401.49	35.200
401.85	34.430
402.21	34.337
402.57	34.250
402.92	33.814
403.28	35.401
403.63	34.237
403.99	34.056
404.35	35.665
404.70	34.702
405.06	33.608
405.42	33.748
405.77	35.445
406.13	34.400
406.49	34.458
406.84	35.575
407.20	34.557
407.55	34.127
407.91	33.757
408.27	34.289
408.62	35.077
408.98	36.044
409.34	34.572
409.69	34.625
410.05	35.160
410.40	34.815
410.76	35.585
411.11	35.000
411.47	35.240
411.83	34.212
412.18	35.006
412.54	35.518
412.89	34.667
413.25	34.597
413.60	35.093
413.96	34.847
414.31	36.159
414.67	33.162
415.03	34.887
415.38	34.661
415.74	35.570
416.09	34.879
416.45	35.381
416.80	35.030
417.16	36.809
417.51	36.442
417.87	35.202
418.22	34.715
418.58	34.849
418.93	35.799
419.29	34.251
419.64	36.293
420.00	36.902
420.35	36.358
420.71	36.756
421.06	36.464
421.42	37.320
421.77	37.457
422.12	35.925
422.48	35.896
422.83	35.905
423.19	37.077
423.54	36.861
423.90	36.455
424.25	36.969
424.61	38.005
424.96	36.934
425.31	37.782
425.67	38.028
426.02	37.986
426.38	38.009
426.73	38.075
427.09	38.608
427.44	38.588
427.79	38.244
428.15	38.410
428.50	37.856
428.85	38.022
429.21	38.596
429.56	38.383
429.92	38.624
430.27	39.298
430.62	38.996
430.98	38.854
431.33	38.906
431.68	37.834
432.04	39.463
432.39	38.562
432.74	37.462
433.10	39.483
433.45	39.606
433.80	41.033
434.16	39.778
434.51	40.161
434.86	39.489
435.22	39.428
435.57	39.551
435.92	38.982
436.28	40.191
436.63	40.502
436.98	39.745
437.34	40.109
437.69	39.654
438.04	39.829
438.39	39.462
438.75	41.044
439.10	39.785
439.45	41.570
439.81	39.266
440.16	41.211
440.51	41.254
440.86	41.088
441.22	40.837
441.57	41.060
441.92	41.553
442.27	41.630
442.63	42.452
442.98	40.437
443.33	40.067
443.68	40.477
444.03	41.182
444.39	40.433
444.74	41.695
445.09	41.258
445.44	40.969
445.79	42.341
446.15	40.253
446.50	39.989
446.85	41.870
447.20	41.137
447.55	41.071
447.91	41.173
448.26	41.833
448.61	40.702
448.96	41.193
449.31	40.925
449.66	39.605
450.02	40.559
450.37	41.672
450.72	40.722
451.07	41.266
451.42	39.513
451.77	40.145
452.12	40.251
452.47	40.373
452.83	40.224
453.18	40.354
453.53	40.076
453.88	40.376
454.23	40.565
454.58	40.302
454.93	42.139
455.28	39.111
455.63	41.166
455.98	41.130
456.34	41.252
456.69	39.390
457.04	40.517
457.39	40.340
457.74	39.843
458.09	39.847
458.44	40.199
458.79	39.832
459.14	40.961
459.49	41.075
459.84	41.399
460.19	40.777
460.54	40.709
460.89	40.398
461.24	40.559
461.59	40.321
461.94	39.245
462.29	40.048
462.64	40.066
462.99	40.352
463.34	39.499
463.69	40.026
464.04	39.044
464.39	40.206
464.74	39.755
465.09	39.988
465.44	40.450
465.79	39.796
466.14	40.707
466.49	38.355
466.84	40.036
467.19	40.551
467.54	39.527
467.89	39.545
468.24	39.234
468.59	40.127
468.94	38.349
469.29	38.951
469.64	39.781
469.99	39.874
470.34	37.133
470.68	39.746
471.03	38.500
471.38	38.944
471.73	38.866
472.08	37.788
472.43	38.658
472.78	38.382
473.13	38.980
473.48	38.697
473.83	38.667
474.17	38.148
474.52	37.907
474.87	39.333
475.22	38.987
475.57	39.187
475.92	39.276
476.27	38.533
476.61	40.509
476.96	38.148
477.31	37.372
477.66	38.483
478.01	38.293
478.36	38.943
478.70	39.532
479.05	38.681
479.40	38.474
479.75	38.008
480.10	38.556
480.45	39.200
480.79	39.174
481.14	39.344
481.49	37.340
481.84	39.286
482.19	37.231
482.53	39.185
482.88	38.807
483.23	37.092
483.58	38.349
483.92	37.512
484.27	37.284
484.62	37.875
484.97	37.769
485.31	38.475
485.66	39.629
486.01	42.153
486.36	41.662
486.70	40.324
487.05	40.250
487.40	39.038
487.75	38.930
488.09	37.855
488.44	37.070
488.79	37.056
489.13	37.300
489.48	36.982
489.83	36.861
490.17	37.034
490.52	36.952
490.87	36.418
491.22	37.249
491.56	36.480
491.91	36.329
492.26	37.433
492.60	38.004
492.95	37.236
493.30	36.297
493.64	37.279
493.99	37.053
494.34	36.505
494.68	36.381
495.03	36.399
495.37	36.310
495.72	36.345
496.07	37.024
496.41	37.075
496.76	36.158
497.11	36.376
497.45	37.232
497.80	37.386
498.14	36.115
498.49	36.262
498.84	36.876
499.18	36.747
499.53	36.409
499.87	35.749
500.22	36.597
500.56	37.821
500.91	37.048
501.26	36.876
501.60	36.990
501.95	36.972
502.29	36.852
502.64	36.535
502.98	37.444
503.33	37.272
503.67	36.578
504.02	36.852
504.36	37.308
504.71	36.010
505.06	36.185
505.40	36.447
505.75	36.907
506.09	37.354
506.44	36.756
506.78	37.245
507.13	36.505
507.47	36.188
507.82	35.791
508.16	35.869
508.51	36.726
508.85	36.264
509.19	35.072
509.54	35.657
509.88	36.246
510.23	37.224
510.57	37.039
510.92	34.968
511.26	37.043
511.61	36.194
511.95	36.329
512.30	36.253
512.64	36.505
512.98	36.609
513.33	36.262
513.67	36.669
514.02	36.613
514.36	37.371
514.70	37.179
515.05	36.604
515.39	36.600
515.74	37.425
516.08	36.402
516.42	36.690
516.77	36.279
517.11	37.151
517.46	36.445
517.80	36.174
518.14	36.926
518.49	36.418
518.83	36.452
519.17	36.386
519.52	36.471
519.86	36.255
520.20	37.303
520.55	35.397
520.89	35.947
521.23	35.022
521.58	36.215
521.92	35.962
522.26	36.174
522.61	36.623
522.95	37.550
523.29	35.451
523.64	35.642
523.98	36.811
524.32	36.147
524.66	36.940
525.01	36.494
525.35	37.395
525.69	36.296
526.04	36.574
526.38	37.289
526.72	35.056
527.06	36.706
527.41	36.478
527.75	36.729
528.09	35.681
528.43	37.880
528.78	36.568
529.12	37.677
529.46	36.582
529.80	37.619
530.15	37.822
530.49	36.970
530.83	38.235
531.17	36.400
531.51	38.030
531.86	36.710
532.20	36.117
532.54	37.304
532.88	37.440
533.22	37.433
533.57	37.090
533.91	37.467
534.25	38.477
534.59	37.011
534.93	36.690
535.27	36.231
535.62	37.589
535.96	39.074
536.30	37.599
536.64	37.216
536.98	37.282
537.32	36.273
537.66	37.167
538.01	37.273
538.35	36.755
538.69	36.818
539.03	38.619
539.37	38.358
539.71	37.832
540.05	37.678
540.39	37.465
540.73	37.587
541.07	38.052
541.42	37.702
541.76	38.266
542.10	37.853
542.44	38.429
542.78	36.476
543.12	37.363
543.46	38.526
543.80	39.001
544.14	35.447
544.48	38.175
544.82	38.004
545.16	37.432
545.50	38.718
545.84	38.527
546.18	39.291
546.52	37.779
546.86	36.880
547.20	37.411
547.54	36.890
547.88	38.247
548.22	36.818
548.56	38.456
548.90	38.949
549.24	36.364
549.58	37.659
549.92	37.741
550.26	37.143
550.60	36.580
550.94	37.864
551.28	38.176
551.62	38.385
551.96	37.970
552.30	38.158
552.64	37.870
552.98	39.030
553.32	38.302
553.66	37.591
554.00	38.175
554.34	37.592
554.68	37.094
555.02	37.798
555.36	38.968
555.69	38.168
556.03	38.044
556.37	37.794
556.71	37.762
557.05	38.628
557.39	36.952
557.73	37.031
558.07	37.406
558.41	38.668
558.75	38.504
559.08	38.534
559.42	37.302
559.76	38.271
560.10	37.615
560.44	38.124
560.78	38.322
561.12	39.633
561.45	39.775
561.79	39.846
562.13	38.254
562.47	39.209
562.81	39.193
563.15	39.351
563.48	38.402
563.82	40.563
564.16	38.719
564.50	39.459
564.84	40.094
565.17	39.235
565.51	40.027
565.85	40.329
566.19	40.915
566.52	40.617
566.86	41.710
567.20	40.535
567.54	41.302
567.88	42.238
568.21	41.686
568.55	42.065
568.89	43.172
569.23	43.621
569.56	43.827
569.90	44.539
570.24	43.729
570.57	44.618
570.91	44.510
571.25	44.393
571.59	43.756
571.92	44.237
572.26	44.535
572.60	44.527
572.93	43.866
573.27	43.636
573.61	44.451
573.95	45.603
574.28	45.154
574.62	45.182
574.96	45.300
575.29	44.447
575.63	43.612
575.97	43.725
576.30	44.251
576.64	44.106
576.98	45.920
577.31	45.441
577.65	46.284
577.98	46.682
578.32	45.777
578.66	44.896
578.99	45.157
579.33	44.317
579.67	43.830
580.00	44.633
580.34	45.075
580.67	45.005
581.01	46.013
581.35	46.210
581.68	46.881
582.02	47.422
582.35	46.982
582.69	46.884
583.02	46.123
583.36	45.801
583.70	46.054
584.03	45.677
584.37	45.991
584.70	45.385
585.04	45.544
585.37	46.167
585.71	46.754
586.04	46.873
586.38	45.799
586.72	45.911
587.05	46.967
587.39	46.296
587.72	47.294
588.06	46.831
588.39	46.482
588.73	46.245
589.06	46.184
589.40	45.351
589.73	46.148
590.07	46.866
590.40	45.820
590.73	46.129
591.07	46.056
591.40	45.058
591.74	45.339
592.07	44.759
592.41	46.864
592.74	46.077
593.08	46.210
593.41	47.644
593.75	46.876
594.08	46.619
594.41	46.434
594.75	46.412
595.08	47.068
595.42	47.332
595.75	47.578
596.09	46.247
596.42	46.052
596.75	46.536
597.09	45.057
597.42	45.799
597.75	46.862
598.09	45.043
598.42	46.164
598.76	46.761
599.09	46.955
599.42	46.798
599.76	46.313
600.09	46.569
600.42	47.157
600.76	46.137
601.09	46.603
601.42	46.377
601.76	46.685
602.09	46.328
602.42	47.009
602.76	47.114
603.09	47.550
603.42	48.495
603.76	47.218
604.09	47.752
604.42	46.574
604.76	47.219
605.09	47.166
605.42	47.314
605.75	47.110
606.09	47.941
606.42	46.831
606.75	47.100
607.09	46.945
607.42	47.009
607.75	46.137
608.08	45.508
608.42	45.272
608.75	46.843
609.08	46.886
609.41	46.701
609.75	46.724
610.08	47.429
610.41	45.459
610.74	48.464
611.07	47.442
611.41	46.705
611.74	46.695
612.07	47.537
612.40	46.225
612.73	47.062
613.07	46.007
613.40	46.937
613.73	46.614
614.06	46.800
614.39	46.475
614.72	45.994
615.06	46.983
615.39	46.616
615.72	46.771
616.05	47.263
616.38	45.356
616.71	46.055
617.05	45.275
617.38	46.323
617.71	47.044
618.04	47.556
618.37	48.487
618.70	46.535
619.03	46.389
619.36	44.573
619.69	45.792
620.03	45.873
620.36	47.067
620.69	46.610
621.02	46.177
621.35	45.311
621.68	44.813
622.01	46.417
622.34	45.172
622.67	45.584
623.00	46.325
623.33	46.265
623.66	45.699
623.99	45.688
624.32	46.540
624.65	46.391
624.99	47.856
625.32	46.171
625.65	46.819
625.98	46.172
626.31	45.719
626.64	46.014
626.97	45.462
627.30	45.096
627.63	45.927
627.96	45.463
628.29	43.848
628.62	44.444
628.95	43.587
629.28	44.355
629.61	45.464
629.94	43.597
630.26	43.083
630.59	45.161
630.92	43.487
631.25	42.564
631.58	43.722
631.91	42.763
632.24	45.528
632.57	43.977
632.90	41.163
633.23	42.000
633.56	43.829
633.89	43.033
634.22	42.963
634.55	43.202
634.88	43.806
635.20	42.692
635.53	41.600
635.86	42.133
636.19	43.596
636.52	43.878
636.85	42.556
637.18	42.390
637.51	43.899
637.83	40.736
638.16	44.202
638.49	41.826
638.82	42.105
639.15	42.877
639.48	44.842
639.81	42.120
640.13	44.300
640.46	40.525
640.79	42.268
641.12	40.620
641.45	41.141
641.77	40.148
642.10	41.706
642.43	42.605
642.76	41.584
643.09	41.034
643.41	38.835
643.74	39.868
644.07	42.857
644.40	42.568
644.73	44.308
645.05	39.597
645.38	41.446
645.71	39.362
646.04	42.011
646.36	42.021
646.69	41.187
647.02	42.722
647.35	40.485
647.67	38.940
648.00	41.978
648.33	43.174
648.66	42.203
648.98	42.546
649.31	43.967
649.64	43.642
649.96	39.870
650.29	44.293
650.62	42.393
650.94	44.074
651.27	42.458
651.60	43.423
651.92	43.182
652.25	42.984
652.58	43.333
652.90	45.111
653.23	44.538
653.56	43.316
653.88	43.643
654.21	39.405
654.54	41.935
654.86	44.822
655.19	44.006
655.52	55.573
655.84	61.894
656.17	71.328
656.49	93.972
656.82	95.102
657.15	70.469
657.47	51.554
657.80	37.491
658.13	36.111
658.45	54.088
658.78	51.324
659.10	49.214
659.43	47.920
659.75	48.841
660.08	46.690
660.41	45.455
660.73	42.818
661.06	41.941
661.38	39.922
661.71	38.809
662.03	45.064
662.36	42.198
662.68	42.035
663.01	43.231
663.33	37.819
663.66	40.233
663.98	37.209
664.31	41.151
664.63	41.244
664.96	36.957
665.28	37.748
665.61	41.126
665.93	43.261
666.26	44.902
666.58	40.940
666.91	42.353
667.23	41.509
667.56	42.417
667.88	40.528
668.21	42.005
668.53	43.735
668.86	43.632
669.18	39.387
669.50	37.288
669.83	42.093
670.15	39.161
670.48	41.388
670.80	44.470
671.13	41.611
671.45	41.781
671.77	44.635
672.10	45.545
672.42	46.255
672.75	47.425
673.07	48.122
673.39	47.339
673.72	44.181
674.04	44.167
674.37	44.492
674.69	42.612
675.01	44.889
675.34	42.568
675.66	45.370
675.98	45.676
676.31	46.330
676.63	43.230
676.95	43.182
677.28	45.176
677.60	42.410
677.92	45.872
678.25	46.827
678.57	46.970
678.89	43.908
679.22	48.546
679.54	45.783
679.86	45.527
680.18	48.350
680.51	46.212
680.83	45.726
681.15	44.400
681.48	48.975
681.80	47.521
682.12	45.565
682.44	42.678
682.77	47.241
683.09	44.851
683.41	44.545
683.73	44.470
684.06	47.788
684.38	44.086
684.70	48.584
685.02	48.340
685.34	46.640
685.67	50.844
685.99	50.633
686.31	50.442
686.63	50.278
686.96	45.437
687.28	47.879
687.60	48.479
687.92	50.303
688.24	49.597
688.56	49.563
688.89	48.661
689.21	50.889
689.53	47.332
689.85	46.744
690.17	46.875
690.49	47.281
690.82	47.573
691.14	45.000
691.46	48.832
691.78	48.423
692.10	49.892
692.42	49.134
692.74	50.855
693.06	46.171
693.39	44.796
693.71	43.213
694.03	45.035
694.35	48.131
694.67	46.212
694.99	46.475
695.31	48.564
695.63	44.750
695.95	45.707
696.27	44.819
696.59	47.222
696.91	47.339
697.23	47.558
697.56	52.228
697.88	51.828
698.20	50.569
698.52	49.412
698.84	47.129
699.16	49.000
699.48	47.870
699.80	45.161
700.12	45.553
700.44	47.339
700.76	44.186
701.08	42.727
701.40	42.169
701.72	50.617
702.04	43.564
702.36	52.174
702.68	43.844
703.00	48.485
703.32	49.853
703.64	43.220
703.96	45.797
704.28	48.160
704.60	44.127
704.91	41.009
705.23	45.515
705.55	51.237
705.87	48.736
706.19	40.370
706.51	43.643
706.83	46.945
707.15	47.352
707.47	52.101
707.79	51.563
708.11	51.750
708.43	51.500
708.74	52.196
709.06	49.577
709.38	51.376
709.70	50.000
710.02	49.682
710.34	51.393
710.66	42.308
710.98	49.007
711.29	52.459
711.61	50.169
711.93	47.883
712.25	50.859
712.57	47.253
712.89	50.746
713.20	47.405
713.52	43.902
713.84	48.805
714.16	46.392
714.48	50.323
714.80	52.244
715.11	50.456
715.43	49.843
715.75	51.333
716.07	47.841
716.39	45.638
716.70	49.446
717.02	43.511
717.34	45.749
717.66	48.673
717.97	46.522
718.29	50.628
718.61	49.213
718.93	50.000
719.24	46.768
719.56	45.783
719.88	49.141
720.20	49.242
720.51	47.510
720.83	50.579
721.15	50.000
721.46	51.210
721.78	47.826
722.10	49.442
722.42	51.452
722.73	52.653
723.05	48.163
723.37	50.424
723.68	57.207
724.00	47.863
724.32	51.556
724.63	50.455
724.95	54.585
725.27	53.917
725.58	53.814
725.90	45.635
726.22	55.598
726.53	51.864
726.85	53.933
727.16	53.585
727.48	46.154
727.80	47.368
728.11	52.119
728.43	54.118
728.74	49.597
729.06	53.600
729.38	57.143
729.69	47.410
730.01	45.769
730.32	55.970
730.64	52.650
730.96	55.094
731.27	55.667
731.59	56.271
731.90	52.866
732.22	57.413
732.53	59.136
732.85	59.220
733.16	55.892
733.48	55.396
733.80	53.986
734.11	54.237
734.43	57.732
734.74	57.273
735.06	55.049
735.37	56.495
735.69	58.586
736.00	56.794
736.32	53.356
736.63	53.521
736.95	51.877
737.26	56.228
737.58	56.376
737.89	54.579
738.21	56.391
738.52	54.733
738.83	54.585
739.15	53.712
739.46	54.724
739.78	58.974
740.09	58.824
740.41	53.623
740.72	54.331
741.04	54.656
741.35	52.340
741.66	49.763
741.98	50.510
742.29	47.525
742.61	51.832
742.92	49.289
743.23	52.315
743.55	52.941
743.86	57.416
744.18	48.804
744.49	50.532
744.80	51.087
745.12	63.102
745.43	49.756
745.74	56.250
746.06	53.171
746.37	48.168
746.68	49.763
747.00	53.723
747.31	55.224
747.62	55.340
747.94	56.459
748.25	52.475
748.56	59.563
748.88	54.974
749.19	60.638
749.50	51.724
749.82	50.472
750.13	60.092
750.44	56.767
750.75	65.299
751.07	63.139
751.38	59.387
751.69	54.902
752.01	55.039
752.32	58.566
752.63	52.174
752.94	55.172
753.26	58.996
753.57	57.466
753.88	57.080
754.19	53.750
754.51	58.678
754.82	56.680
755.13	59.583
755.44	59.677
755.75	56.250
756.07	57.977
756.38	56.226
756.69	57.471
757.00	58.333
757.31	58.170
757.63	59.146
757.94	60.000
758.25	60.000
758.56	60.904
758.87	54.958
759.18	57.009
759.50	60.727
759.81	59.866
760.12	62.258
760.43	62.424
760.74	66.975
761.05	62.462
761.36	57.670
761.67	63.636
761.99	61.224
762.30	55.636
762.61	57.708
762.92	55.656
763.23	53.153
763.54	55.607
763.85	57.203
764.16	57.676
764.47	60.081
764.78	58.242
765.10	63.300
765.41	58.044
765.72	59.048
766.03	59.023
766.34	59.489
766.65	58.964
766.96	58.081
767.27	58.511
767.58	46.552
767.89	58.156
768.20	52.841
768.51	58.791
768.82	53.695
769.13	66.359
769.44	55.794
769.75	56.621
770.06	58.621
770.37	53.365
770.68	53.299
770.99	57.014
771.30	65.686
771.61	62.896
771.92	64.655
772.23	63.547
772.54	57.527
772.85	62.963
773.16	58.427
773.47	66.667
773.78	66.013
774.09	53.892
774.39	59.333
774.70	50.318
775.01	60.690
775.32	52.143
775.63	53.719
775.94	53.435
776.25	54.331
776.56	50.833
776.87	45.192
777.18	52.991
777.48	50.000
777.79	46.087
778.10	39.048
778.41	57.658
778.72	47.619
779.03	58.647
779.34	63.121
779.65	60.959
779.95	47.260
780.26	55.172
780.57	50.407
780.88	56.693
781.19	56.897
781.50	58.915
781.80	52.071
782.11	52.830
782.42	72.308
782.73	54.676
783.04	53.333
783.34	50.694
783.65	49.573
783.96	59.016
784.27	60.000
784.57	64.228
784.88	48.438
785.19	66.000
785.50	60.000
785.81	47.414
786.11	57.759
786.42	55.340
786.73	55.455
787.04	53.061
787.34	50.893
787.65	51.429
787.96	47.788
788.26	64.545
788.57	51.282
788.88	58.594
789.19	50.000
789.49	48.696
789.80	60.204
790.11	48.485
790.41	48.182
790.72	63.043
791.03	53.409
791.33	68.750
791.64	50.000
791.95	44.186
792.25	51.064
792.56	48.315
792.87	50.685
793.17	66.667
793.48	54.667
793.79	38.750
794.09	58.750
794.40	49.057
794.70	62.136
795.01	43.902
795.32	49.573
795.62	58.095
795.93	66.667
796.23	45.283
796.54	60.417
796.85	58.824
797.15	45.070
797.46	51.389
797.76	66.667
798.07	46.512
798.37	44.737
798.68	46.970
798.99	39.506
799.29	37.143
799.60	30.435
799.90	50.667
800.21	59.016
800.51	41.538
800.82	61.017
801.12	49.275
801.43	52.459
801.73	68.254
802.04	68.000
802.34	32.836
802.65	67.308
802.95	32.143
803.26	53.846
803.56	62.745
803.87	47.826
804.17	50.667
804.48	60.317
804.78	51.852
805.09	47.826
805.39	62.222
805.70	48.148
806.00	45.614
806.30	50.704
806.61	71.429
806.91	47.222
807.22	64.474
807.52	62.667
807.83	43.636
808.13	72.222
808.43	63.235
808.74	41.791
809.04	67.797
809.35	46.154
809.65	46.875
809.95	10.811
810.26	43.182
810.56	36.986
810.86	47.619
811.17	24.000
811.47	42.857
811.77	36.842
812.08	38.636
812.38	18.868
812.69	17.500
812.99	72.727
813.29	36.842
813.59	0.000
813.90	43.182
814.20	7.692
814.50	76.923
814.81	47.170
815.11	44.681
815.41	62.712
815.72	59.524
816.02	41.176
816.32	20.833
816.62	46.341
816.93	43.243
817.23	14.286
817.53	45.833
817.84	63.043
818.14	30.769
818.44	28.947
818.74	52.174
819.04	15.000
819.35	29.730
819.65	29.412
819.95	11.111
820.25	35.714
820.56	77.500
820.86	17.241
821.16	92.500
821.46	61.702
821.76	57.500
822.07	58.140
822.37	18.919
822.67	25.000
822.97	40.476
823.27	42.857
823.57	100.000
823.88	22.222
824.18	75.000
824.48	26.471
824.78	54.839
825.08	17.391
825.38	36.364
825.69	16.667
825.99	57.895
826.29	44.444
826.59	66.667
826.89	14.286
827.19	34.783
827.49	47.500
827.79	60.000
828.09	64.286
828.39	60.606
828.70	89.189
829.00	60.714
829.30	57.143
829.60	36.667
829.90	31.250
830.20	21.053
830.50	40.741
830.80	60.870
831.10	50.000
831.40	75.758
831.70	64.516
832.00	80.952
832.30	-9.524
832.60	66.667
832.90	41.379
833.20	-30.000
833.50	48.485
833.80	33.333
834.10	15.385
834.40	50.000
834.70	155.556
835.00	52.632
835.30	73.077
835.60	140.000
835.90	25.806
836.20	40.909
836.50	60.714
836.80	3.846
837.10	10.714
837.40	133.333
837.70	0.000
838.00	0.000
838.30	34.783
838.60	38.462
838.90	40.909
839.19	3.571
839.49	26.667
839.79	53.846
840.09	58.333
840.39	17.857
840.69	42.857
840.99	-3.846
841.29	-10.526
841.59	-70.000
841.88	54.545
842.18	10.000
842.48	62.500
842.78	-6.667
843.08	7.407
843.38	20.000
843.68	17.391
843.97	80.000
844.27	-33.333
844.57	25.000
844.87	38.889
845.17	-52.381
845.47	80.000
845.76	4.762
846.06	70.588
846.36	50.000
846.66	21.429
846.96	40.000
847.25	-100.000
847.55	50.000
847.85	-37.500
848.15	18.182
848.44	-200.000
848.74	25.000
849.04	18.519
849.34	136.364
849.63	0.000
849.93	-180.000
850.23	-16.667
850.53	40.000
850.82	53.846
851.12	-66.667
851.42	0.000
851.71	15.385
852.01	14.286
852.31	100.000
852.61	72.727
852.90	0.000
853.20	42.105
853.50	83.333
853.79	4.348
854.09	41.667
854.39	100.000
854.68	16.667
854.98	48.387
855.28	42.308
855.57	30.000
855.87	38.889
856.17	33.333
856.46	-21.429
856.76	60.000
857.05	33.333
857.35	12.000
857.65	83.333
857.94	15.385
858.24	41.379
858.53	38.889
858.83	25.926
859.13	40.909
859.42	21.739
859.72	-100.000
860.01	-300.000
860.31	40.000
860.60	38.095
860.90	-133.333
861.20	6.667
861.49	-500.000
861.79	-26.667
862.08	10.000
862.38	73.333
862.67	-80.000
862.97	0.000
863.26	33.333
863.56	100.000
863.85	-266.667
864.15	61.111
864.44	-60.000
864.74	14.286
865.03	-75.000
865.33	-40.000
865.62	83.333
865.92	50.000
866.21	-16.667
866.51	25.000
866.80	-18.182
867.10	200.000
867.39	33.333
867.69	0.000
867.98	-7.692
868.27	-100.000
868.57	53.333
868.86	83.333
869.16	0.000
869.45	66.667
869.75	-1000.000
870.04	0.000
870.33	-28.571
870.63	9.524
870.92	400.000
871.22	-140.000
871.51	0.000
871.80	122.222
872.10	200.000
>>>>>End Processed Spectral Data<<<<<
