SpectraSuite Data File
++++++++++++++++++++++++++++++++++++
Date: Fri May 15 17:33:31 PDT 2015
User: schluterlab
Dark Spectrum Present: Yes
Reference Spectrum Present: Yes
Number of Sampled Component Spectra: 1
Spectrometers: USB2E3373
Integration Time (usec): 3000 (USB2E3373)
Spectra Averaged: 3 (USB2E3373)
Boxcar Smoothing: 0 (USB2E3373)
Correct for Electrical Dark: No (USB2E3373)
Strobe/Lamp Enabled: No (USB2E3373)
Correct for Detector Non-linearity: No (USB2E3373)
Correct for Stray Light: No (USB2E3373)
Number of Pixels in Processed Spectrum: 2048
>>>>>Begin Processed Spectral Data<<<<<
178.53	0.000
178.91	0.000
179.29	25.000
179.67	-100.000
180.04	28.571
180.42	200.000
180.80	500.000
181.18	66.667
181.56	400.000
181.94	150.000
182.31	-100.000
182.69	-20.000
183.07	100.000
183.45	-180.000
183.83	166.667
184.20	18.182
184.58	-55.556
184.96	-100.000
185.34	33.333
185.72	50.000
186.09	84.615
186.47	100.000
186.85	-16.667
187.23	55.556
187.61	1300.000
187.98	-400.000
188.36	66.667
188.74	-233.333
189.12	58.824
189.49	27.778
189.87	0.000
190.25	57.143
190.63	350.000
191.00	-133.333
191.38	-5.263
191.76	400.000
192.14	50.000
192.51	200.000
192.89	55.556
193.27	-57.143
193.65	133.333
194.02	154.545
194.40	20.000
194.78	-50.000
195.15	25.000
195.53	25.000
195.91	-0.000
196.29	-75.000
196.66	38.462
197.04	114.286
197.42	44.444
197.79	-266.667
198.17	-61.538
198.55	2200.000
198.92	-133.333
199.30	700.000
199.68	100.000
200.05	133.333
200.43	0.000
200.81	266.667
201.18	-400.000
201.56	700.000
201.94	-150.000
202.31	-266.667
202.69	80.000
203.07	100.000
203.44	1600.000
203.82	0.000
204.19	71.429
204.57	33.333
204.95	50.000
205.32	60.000
205.70	85.714
206.08	-275.000
206.45	255.556
206.83	71.429
207.20	42.857
207.58	-300.000
207.96	300.000
208.33	-30.000
208.71	-50.000
209.08	-116.667
209.46	-1800.000
209.84	120.000
210.21	-1000.000
210.59	14.286
210.96	133.333
211.34	-25.000
211.71	66.667
212.09	-242.857
212.46	-900.000
212.84	0.000
213.22	60.000
213.59	450.000
213.97	107.692
214.34	18.182
214.72	133.333
215.09	200.000
215.47	53.846
215.84	-27.273
216.22	100.000
216.59	12.500
216.97	200.000
217.34	0.000
217.72	-160.000
218.09	87.500
218.47	50.000
218.84	0.000
219.22	0.000
219.59	160.000
219.97	300.000
220.34	200.000
220.72	-28.571
221.09	25.000
221.47	-100.000
221.84	-650.000
222.22	-400.000
222.59	-18.182
222.97	100.000
223.34	-166.667
223.72	-28.571
224.09	14.286
224.46	28.571
224.84	166.667
225.21	90.000
225.59	80.000
225.96	0.000
226.34	25.000
226.71	71.429
227.08	33.333
227.46	-37.500
227.83	-750.000
228.21	44.444
228.58	90.909
228.95	0.000
229.33	10.000
229.70	50.000
230.08	0.000
230.45	-157.143
230.82	142.857
231.20	26.667
231.57	35.714
231.95	100.000
232.32	-30.000
232.69	64.286
233.07	100.000
233.44	120.000
233.81	-70.000
234.19	44.444
234.56	23.529
234.93	50.000
235.31	-125.000
235.68	-20.000
236.05	15.385
236.43	15.000
236.80	23.529
237.17	34.375
237.55	-25.000
237.92	22.222
238.29	30.556
238.67	26.667
239.04	44.118
239.41	-29.268
239.79	-3.333
240.16	31.707
240.53	21.053
240.91	23.913
241.28	17.460
241.65	28.571
242.02	16.438
242.40	11.667
242.77	25.424
243.14	13.636
243.51	22.500
243.89	25.287
244.26	12.644
244.63	26.190
245.00	20.619
245.38	24.742
245.75	16.854
246.12	14.655
246.49	18.182
246.87	29.808
247.24	13.445
247.61	14.035
247.98	24.390
248.36	15.625
248.73	18.421
249.10	13.636
249.47	17.089
249.84	24.837
250.22	20.000
250.59	18.954
250.96	25.352
251.33	18.023
251.70	18.824
252.08	19.289
252.45	23.267
252.82	17.085
253.19	22.120
253.56	17.290
253.94	19.369
254.31	18.696
254.68	21.053
255.05	20.866
255.42	24.891
255.79	20.077
256.16	18.677
256.54	22.015
256.91	21.293
257.28	19.331
257.65	20.599
258.02	20.567
258.39	24.242
258.76	23.443
259.14	23.920
259.51	22.006
259.88	18.900
260.25	22.876
260.62	21.528
260.99	16.610
261.36	19.863
261.73	21.835
262.10	18.237
262.47	19.018
262.85	19.122
263.22	24.615
263.59	21.184
263.96	22.050
264.33	23.636
264.70	20.833
265.07	21.131
265.44	23.796
265.81	21.186
266.18	20.765
266.55	22.622
266.92	20.466
267.29	24.021
267.66	19.693
268.03	23.298
268.40	18.538
268.77	23.262
269.14	20.863
269.51	21.594
269.88	18.703
270.25	18.112
270.62	20.732
270.99	19.182
271.36	18.337
271.73	22.300
272.10	21.411
272.47	18.913
272.84	19.554
273.21	22.042
273.58	21.205
273.95	21.739
274.32	18.245
274.69	20.588
275.06	21.205
275.43	19.274
275.80	22.075
276.17	21.379
276.54	20.343
276.91	19.298
277.28	18.341
277.65	21.488
278.02	20.851
278.39	19.694
278.76	18.868
279.13	17.012
279.50	20.588
279.87	20.518
280.23	19.140
280.60	21.442
280.97	20.202
281.34	18.654
281.71	22.793
282.08	20.041
282.45	19.961
282.82	18.919
283.19	22.824
283.56	20.617
283.92	18.596
284.29	18.462
284.66	17.636
285.03	18.075
285.40	17.958
285.77	18.981
286.14	17.329
286.51	19.557
286.87	19.561
287.24	19.521
287.61	14.991
287.98	18.772
288.35	18.024
288.72	19.089
289.08	16.319
289.45	16.872
289.82	19.231
290.19	16.553
290.56	16.981
290.93	16.835
291.29	15.562
291.66	19.370
292.03	18.979
292.40	18.387
292.77	15.630
293.13	15.260
293.50	16.844
293.87	15.725
294.24	17.156
294.60	17.437
294.97	17.262
295.34	15.644
295.71	17.884
296.08	13.752
296.44	14.367
296.81	15.972
297.18	15.072
297.55	16.938
297.91	15.616
298.28	15.963
298.65	15.468
299.02	16.307
299.38	13.133
299.75	15.448
300.12	14.921
300.48	15.020
300.85	14.702
301.22	14.675
301.59	14.079
301.95	15.063
302.32	15.694
302.69	13.930
303.05	14.356
303.42	13.823
303.79	15.070
304.15	15.054
304.52	12.961
304.89	12.865
305.25	13.075
305.62	13.069
305.99	12.982
306.35	13.757
306.72	12.036
307.09	13.569
307.45	12.744
307.82	12.037
308.19	14.866
308.55	12.105
308.92	13.290
309.29	12.402
309.65	11.410
310.02	13.091
310.38	14.050
310.75	13.770
311.12	12.271
311.48	12.089
311.85	12.565
312.22	12.131
312.58	12.527
312.95	11.099
313.31	12.112
313.68	12.461
314.05	12.959
314.41	13.196
314.78	13.505
315.14	14.594
315.51	12.629
315.87	14.037
316.24	14.661
316.61	13.780
316.97	13.790
317.34	13.379
317.70	14.054
318.07	15.096
318.43	14.314
318.80	14.394
319.16	13.574
319.53	14.435
319.89	13.780
320.26	15.283
320.62	14.142
320.99	14.092
321.35	14.697
321.72	15.472
322.08	16.717
322.45	16.548
322.81	16.699
323.18	15.211
323.54	16.892
323.91	17.040
324.27	16.602
324.64	17.603
325.00	17.792
325.37	18.182
325.73	17.770
326.10	18.801
326.46	20.628
326.83	20.122
327.19	20.663
327.56	19.983
327.92	21.655
328.29	21.875
328.65	22.075
329.01	19.393
329.38	21.567
329.74	22.380
330.11	23.170
330.47	22.820
330.84	23.077
331.20	26.141
331.56	23.333
331.93	25.205
332.29	24.656
332.66	24.796
333.02	25.372
333.38	25.115
333.75	26.465
334.11	25.962
334.48	25.839
334.84	26.465
335.20	27.813
335.57	24.479
335.93	26.920
336.29	26.611
336.66	26.249
337.02	26.115
337.38	27.778
337.75	26.727
338.11	29.666
338.47	28.102
338.84	27.172
339.20	26.508
339.56	28.349
339.93	28.469
340.29	27.890
340.65	28.853
341.02	28.103
341.38	28.761
341.74	27.297
342.11	27.643
342.47	28.025
342.83	28.114
343.20	27.962
343.56	28.696
343.92	27.281
344.28	29.291
344.65	28.152
345.01	26.880
345.37	28.259
345.73	27.699
346.10	29.853
346.46	28.511
346.82	28.151
347.19	27.598
347.55	28.070
347.91	28.236
348.27	28.618
348.63	28.365
349.00	29.040
349.36	28.845
349.72	29.270
350.08	27.787
350.45	28.412
350.81	28.571
351.17	28.746
351.53	29.306
351.89	27.828
352.26	28.560
352.62	29.516
352.98	28.675
353.34	29.871
353.70	29.369
354.07	29.516
354.43	29.864
354.79	29.067
355.15	30.317
355.51	29.272
355.87	29.773
356.24	28.140
356.60	30.154
356.96	30.794
357.32	30.431
357.68	30.180
358.04	29.725
358.40	29.100
358.77	30.463
359.13	29.944
359.49	28.814
359.85	29.251
360.21	29.745
360.57	29.380
360.93	29.198
361.29	29.758
361.66	29.937
362.02	30.303
362.38	31.835
362.74	30.204
363.10	31.603
363.46	30.245
363.82	30.879
364.18	30.554
364.54	29.412
364.90	31.183
365.26	30.640
365.62	32.409
365.98	31.012
366.35	31.901
366.71	32.225
367.07	31.713
367.43	31.632
367.79	32.155
368.15	31.371
368.51	30.517
368.87	31.084
369.23	30.397
369.59	31.706
369.95	31.305
370.31	32.153
370.67	32.612
371.03	31.665
371.39	31.875
371.75	32.161
372.11	31.598
372.47	32.322
372.83	32.363
373.19	33.310
373.55	33.357
373.91	32.757
374.27	34.018
374.63	32.879
374.99	32.908
375.35	34.123
375.71	33.287
376.07	33.076
376.42	33.878
376.78	34.430
377.14	33.920
377.50	33.665
377.86	34.471
378.22	34.397
378.58	33.782
378.94	33.522
379.30	34.186
379.66	34.357
380.02	34.335
380.38	34.084
380.74	34.231
381.09	35.583
381.45	34.618
381.81	35.965
382.17	35.216
382.53	35.415
382.89	35.907
383.25	36.341
383.61	36.037
383.97	36.381
384.32	36.335
384.68	36.842
385.04	36.887
385.40	35.532
385.76	37.421
386.12	37.322
386.48	37.995
386.83	37.857
387.19	37.179
387.55	38.018
387.91	38.020
388.27	37.057
388.62	37.634
388.98	36.525
389.34	38.476
389.70	39.776
390.06	36.249
390.42	38.148
390.77	38.522
391.13	37.957
391.49	38.616
391.85	38.207
392.20	38.544
392.56	38.525
392.92	38.755
393.28	39.210
393.64	39.820
393.99	39.812
394.35	39.026
394.71	39.591
395.07	38.341
395.42	38.251
395.78	38.827
396.14	38.209
396.50	40.076
396.85	38.892
397.21	39.411
397.57	38.307
397.92	39.365
398.28	39.138
398.64	38.916
399.00	40.914
399.35	38.939
399.71	39.173
400.07	39.359
400.42	39.412
400.78	39.743
401.14	39.080
401.49	40.024
401.85	39.549
402.21	39.157
402.57	38.625
402.92	39.962
403.28	40.351
403.63	40.542
403.99	39.158
404.35	39.850
404.70	38.869
405.06	39.424
405.42	38.658
405.77	39.977
406.13	40.105
406.49	39.728
406.84	39.548
407.20	39.795
407.55	39.021
407.91	38.570
408.27	39.771
408.62	39.938
408.98	39.988
409.34	40.025
409.69	39.018
410.05	38.793
410.40	39.259
410.76	40.169
411.11	40.812
411.47	41.157
411.83	38.983
412.18	40.798
412.54	39.014
412.89	40.148
413.25	39.892
413.60	39.068
413.96	39.387
414.31	39.146
414.67	39.128
415.03	39.547
415.38	39.230
415.74	39.935
416.09	41.215
416.45	39.905
416.80	39.458
417.16	40.331
417.51	40.306
417.87	40.352
418.22	40.479
418.58	39.064
418.93	41.630
419.29	39.501
419.64	40.117
420.00	41.940
420.35	40.418
420.71	40.522
421.06	42.050
421.42	40.625
421.77	40.925
422.12	40.692
422.48	40.823
422.83	41.125
423.19	41.591
423.54	41.387
423.90	41.284
424.25	41.217
424.61	40.759
424.96	41.115
425.31	42.519
425.67	41.784
426.02	42.815
426.38	41.891
426.73	42.433
427.09	41.646
427.44	42.706
427.79	41.308
428.15	41.748
428.50	41.975
428.85	41.278
429.21	41.766
429.56	43.881
429.92	42.373
430.27	42.306
430.62	41.662
430.98	43.365
431.33	42.482
431.68	41.497
432.04	42.482
432.39	42.384
432.74	43.175
433.10	42.989
433.45	43.668
433.80	43.297
434.16	42.881
434.51	43.978
434.86	43.902
435.22	43.746
435.57	43.731
435.92	43.293
436.28	42.338
436.63	43.354
436.98	43.105
437.34	43.497
437.69	44.067
438.04	43.533
438.39	42.822
438.75	44.384
439.10	43.237
439.45	43.396
439.81	43.976
440.16	44.181
440.51	44.239
440.86	46.586
441.22	44.231
441.57	45.695
441.92	44.753
442.27	45.953
442.63	45.289
442.98	44.400
443.33	43.907
443.68	44.615
444.03	44.908
444.39	44.171
444.74	46.656
445.09	45.880
445.44	45.356
445.79	46.622
446.15	44.824
446.50	45.036
446.85	45.962
447.20	44.891
447.55	46.540
447.91	45.008
448.26	44.849
448.61	45.423
448.96	44.980
449.31	45.549
449.66	43.961
450.02	45.465
450.37	45.347
450.72	45.590
451.07	45.759
451.42	43.695
451.77	44.485
452.12	44.199
452.47	44.945
452.83	44.287
453.18	44.972
453.53	44.817
453.88	45.294
454.23	44.561
454.58	44.144
454.93	45.683
455.28	44.444
455.63	45.195
455.98	45.580
456.34	44.572
456.69	45.108
457.04	46.125
457.39	45.261
457.74	46.372
458.09	44.320
458.44	45.114
458.79	45.602
459.14	45.938
459.49	46.985
459.84	45.629
460.19	45.328
460.54	45.721
460.89	46.875
461.24	45.652
461.59	46.259
461.94	43.899
462.29	46.502
462.64	45.382
462.99	46.175
463.34	44.228
463.69	45.753
464.04	46.308
464.39	45.058
464.74	45.215
465.09	46.475
465.44	45.990
465.79	46.485
466.14	45.952
466.49	45.658
466.84	45.390
467.19	45.181
467.54	44.508
467.89	45.167
468.24	44.830
468.59	46.032
468.94	44.317
469.29	45.836
469.64	46.001
469.99	46.181
470.34	44.642
470.68	45.787
471.03	44.798
471.38	45.221
471.73	44.048
472.08	43.962
472.43	44.564
472.78	43.592
473.13	45.578
473.48	45.342
473.83	43.898
474.17	45.466
474.52	44.352
474.87	44.970
475.22	45.210
475.57	44.099
475.92	45.694
476.27	45.460
476.61	45.312
476.96	44.395
477.31	45.105
477.66	45.112
478.01	45.480
478.36	45.316
478.70	45.895
479.05	45.055
479.40	45.469
479.75	44.213
480.10	46.032
480.45	45.150
480.79	46.173
481.14	46.107
481.49	44.187
481.84	45.367
482.19	44.153
482.53	45.276
482.88	44.726
483.23	44.290
483.58	44.623
483.92	44.821
484.27	44.075
484.62	45.271
484.97	44.652
485.31	45.773
485.66	46.830
486.01	48.556
486.36	48.656
486.70	47.730
487.05	48.001
487.40	46.458
487.75	46.648
488.09	45.766
488.44	45.048
488.79	43.631
489.13	45.072
489.48	43.950
489.83	43.722
490.17	44.180
490.52	44.573
490.87	43.730
491.22	44.747
491.56	43.548
491.91	43.451
492.26	44.239
492.60	44.146
492.95	44.270
493.30	43.723
493.64	44.253
493.99	43.671
494.34	44.078
494.68	43.429
495.03	43.212
495.37	42.738
495.72	43.867
496.07	43.512
496.41	43.962
496.76	43.713
497.11	44.061
497.45	45.203
497.80	43.895
498.14	43.418
498.49	43.423
498.84	44.012
499.18	44.779
499.53	43.998
499.87	43.531
500.22	43.670
500.56	44.680
500.91	44.378
501.26	42.857
501.60	44.417
501.95	43.571
502.29	44.068
502.64	44.160
502.98	44.598
503.33	43.228
503.67	44.048
504.02	44.624
504.36	44.186
504.71	42.778
505.06	42.526
505.40	42.792
505.75	43.454
506.09	42.828
506.44	44.097
506.78	44.082
507.13	43.175
507.47	42.402
507.82	43.056
508.16	42.314
508.51	43.599
508.85	43.642
509.19	43.214
509.54	43.592
509.88	42.449
510.23	43.195
510.57	42.865
510.92	42.324
511.26	42.390
511.61	43.234
511.95	42.466
512.30	43.071
512.64	44.018
512.98	42.673
513.33	42.138
513.67	42.467
514.02	42.792
514.36	43.429
514.70	42.657
515.05	41.011
515.39	41.972
515.74	42.695
516.08	42.200
516.42	42.580
516.77	41.837
517.11	42.433
517.46	41.412
517.80	42.729
518.14	42.131
518.49	41.947
518.83	41.373
519.17	41.844
519.52	41.385
519.86	41.777
520.20	41.009
520.55	39.900
520.89	41.280
521.23	41.102
521.58	41.199
521.92	41.282
522.26	40.794
522.61	40.195
522.95	42.517
523.29	40.597
523.64	40.915
523.98	42.191
524.32	40.464
524.66	40.333
525.01	41.494
525.35	42.061
525.69	41.953
526.04	40.741
526.38	41.894
526.72	39.765
527.06	41.440
527.41	41.095
527.75	40.349
528.09	41.063
528.43	42.269
528.78	40.660
529.12	41.871
529.46	42.495
529.80	40.342
530.15	41.980
530.49	41.616
530.83	42.613
531.17	41.504
531.51	41.450
531.86	40.653
532.20	40.292
532.54	40.844
532.88	42.231
533.22	41.398
533.57	40.629
533.91	41.188
534.25	42.253
534.59	41.052
534.93	41.221
535.27	41.815
535.62	41.802
535.96	41.292
536.30	41.293
536.64	41.902
536.98	40.557
537.32	41.394
537.66	41.304
538.01	41.958
538.35	41.956
538.69	41.145
539.03	41.148
539.37	40.983
539.71	41.922
540.05	40.665
540.39	42.452
540.73	41.283
541.07	42.472
541.42	40.860
541.76	43.083
542.10	42.464
542.44	42.391
542.78	40.950
543.12	41.346
543.46	41.446
543.80	42.401
544.14	41.322
544.48	41.839
544.82	41.900
545.16	43.443
545.50	41.856
545.84	42.139
546.18	40.780
546.52	41.168
546.86	42.487
547.20	41.631
547.54	40.141
547.88	41.644
548.22	41.946
548.56	41.755
548.90	42.857
549.24	39.876
549.58	41.044
549.92	40.029
550.26	41.758
550.60	41.859
550.94	41.748
551.28	40.726
551.62	41.846
551.96	42.105
552.30	41.520
552.64	40.903
552.98	41.491
553.32	41.441
553.66	41.147
554.00	39.708
554.34	41.728
554.68	39.454
555.02	39.807
555.36	41.212
555.69	40.513
556.03	41.470
556.37	40.854
556.71	41.661
557.05	41.909
557.39	40.818
557.73	41.679
558.07	42.609
558.41	41.654
558.75	41.855
559.08	39.953
559.42	39.683
559.76	40.352
560.10	40.367
560.44	41.102
560.78	41.958
561.12	42.102
561.45	43.078
561.79	42.437
562.13	41.732
562.47	40.935
562.81	42.075
563.15	40.550
563.48	43.069
563.82	42.759
564.16	41.643
564.50	41.216
564.84	42.704
565.17	43.192
565.51	43.716
565.85	42.936
566.19	42.573
566.52	43.097
566.86	44.216
567.20	42.902
567.54	44.343
567.88	44.405
568.21	44.683
568.55	45.272
568.89	46.201
569.23	47.183
569.56	46.760
569.90	47.950
570.24	47.413
570.57	48.618
570.91	48.937
571.25	48.438
571.59	47.462
571.92	46.726
572.26	47.917
572.60	47.473
572.93	46.596
573.27	46.489
573.61	47.882
573.95	48.116
574.28	48.517
574.62	48.131
574.96	48.616
575.29	48.359
575.63	46.800
575.97	46.950
576.30	47.484
576.64	47.391
576.98	48.160
577.31	49.422
577.65	49.197
577.98	49.620
578.32	49.614
578.66	48.291
578.99	48.573
579.33	47.240
579.67	48.398
580.00	48.633
580.34	47.861
580.67	48.343
581.01	48.919
581.35	48.665
581.68	49.793
582.02	49.826
582.35	49.192
582.69	49.455
583.02	49.434
583.36	48.545
583.70	48.572
584.03	48.707
584.37	48.334
584.70	49.148
585.04	47.824
585.37	48.943
585.71	49.296
586.04	49.218
586.38	48.546
586.72	48.637
587.05	49.653
587.39	49.091
587.72	50.246
588.06	48.796
588.39	48.505
588.73	49.115
589.06	48.793
589.40	48.116
589.73	47.901
590.07	48.527
590.40	48.607
590.73	48.558
591.07	48.728
591.40	47.418
591.74	47.647
592.07	47.588
592.41	48.057
592.74	48.905
593.08	47.747
593.41	48.929
593.75	47.498
594.08	46.756
594.41	47.016
594.75	47.595
595.08	48.657
595.42	48.509
595.75	48.479
596.09	48.397
596.42	46.341
596.75	47.202
597.09	47.198
597.42	47.290
597.75	48.191
598.09	46.311
598.42	47.112
598.76	47.748
599.09	47.556
599.42	48.655
599.76	47.329
600.09	48.341
600.42	48.180
600.76	47.511
601.09	47.557
601.42	47.356
601.76	48.154
602.09	47.525
602.42	47.936
602.76	47.411
603.09	47.757
603.42	48.537
603.76	48.468
604.09	47.347
604.42	48.139
604.76	47.753
605.09	48.035
605.42	47.088
605.75	47.898
606.09	48.025
606.42	47.081
606.75	47.316
607.09	47.209
607.42	46.743
607.75	47.291
608.08	46.271
608.42	45.637
608.75	47.566
609.08	47.035
609.41	47.411
609.75	45.968
610.08	48.427
610.41	46.377
610.74	47.148
611.07	47.183
611.41	46.290
611.74	48.294
612.07	46.949
612.40	47.374
612.73	46.667
613.07	46.625
613.40	48.140
613.73	46.111
614.06	46.578
614.39	46.757
614.72	45.266
615.06	46.927
615.39	46.397
615.72	46.017
616.05	46.257
616.38	44.957
616.71	46.116
617.05	46.201
617.38	46.700
617.71	46.352
618.04	46.603
618.37	46.910
618.70	45.149
619.03	47.222
619.36	44.935
619.69	44.276
620.03	46.165
620.36	45.923
620.69	44.183
621.02	43.807
621.35	43.900
621.68	45.238
622.01	45.000
622.34	44.214
622.67	43.454
623.00	45.253
623.33	45.198
623.66	45.101
623.99	44.327
624.32	45.323
624.65	45.188
624.99	43.642
625.32	45.565
625.65	45.247
625.98	43.594
626.31	43.724
626.64	43.588
626.97	43.630
627.30	43.608
627.63	42.288
627.96	43.486
628.29	43.201
628.62	41.986
628.95	42.385
629.28	44.153
629.61	40.778
629.94	43.206
630.26	42.589
630.59	43.080
630.92	42.974
631.25	42.359
631.58	43.172
631.91	42.544
632.24	41.170
632.57	42.614
632.90	39.620
633.23	40.471
633.56	40.554
633.89	39.951
634.22	41.111
634.55	40.152
634.88	41.252
635.20	39.103
635.53	40.400
635.86	39.272
636.19	39.457
636.52	39.031
636.85	38.710
637.18	39.874
637.51	41.006
637.83	41.524
638.16	41.201
638.49	38.965
638.82	40.526
639.15	39.756
639.48	40.303
639.81	39.191
640.13	40.981
640.46	38.630
640.79	39.470
641.12	37.666
641.45	36.486
641.77	38.667
642.10	40.758
642.43	38.103
642.76	38.449
643.09	37.641
643.41	37.379
643.74	38.550
644.07	39.901
644.40	37.669
644.73	41.331
645.05	38.255
645.38	37.919
645.71	34.929
646.04	37.522
646.36	37.943
646.69	37.950
647.02	37.429
647.35	36.381
647.67	36.746
648.00	38.433
648.33	40.102
648.66	40.339
648.98	37.018
649.31	38.843
649.64	40.031
649.96	38.736
650.29	39.864
650.62	37.778
650.94	38.889
651.27	37.244
651.60	39.820
651.92	40.210
652.25	37.655
652.58	37.833
652.90	39.623
653.23	41.681
653.56	38.579
653.88	41.237
654.21	37.303
654.54	38.031
654.86	40.407
655.19	40.205
655.52	50.464
655.84	54.149
656.17	62.335
656.49	83.245
656.82	85.826
657.15	64.233
657.47	46.623
657.80	34.773
658.13	34.189
658.45	51.442
658.78	49.605
659.10	48.036
659.43	45.895
659.75	45.683
660.08	42.759
660.41	42.799
660.73	39.779
661.06	38.128
661.38	36.595
661.71	34.086
662.03	38.197
662.36	38.681
662.68	34.292
663.01	35.808
663.33	37.587
663.66	34.884
663.98	34.651
664.31	34.542
664.63	34.562
664.96	34.348
665.28	37.969
665.61	38.312
665.93	38.696
666.26	39.046
666.58	34.676
666.91	35.059
667.23	34.670
667.56	35.071
667.88	37.410
668.21	38.425
668.53	38.771
668.86	38.443
669.18	35.377
669.50	33.414
669.83	34.419
670.15	33.566
670.48	36.842
670.80	37.788
671.13	35.123
671.45	33.562
671.77	37.768
672.10	37.822
672.42	41.199
672.75	39.964
673.07	42.934
673.39	40.000
673.72	38.264
674.04	37.083
674.37	39.407
674.69	35.974
675.01	38.000
675.34	35.360
675.66	39.120
675.98	34.590
676.31	37.385
676.63	35.867
676.95	35.455
677.28	38.353
677.60	41.205
677.92	34.174
678.25	38.293
678.57	39.177
678.89	38.445
679.22	40.268
679.54	36.345
679.86	37.177
680.18	42.524
680.51	41.098
680.83	40.755
681.15	38.800
681.48	40.779
681.80	41.942
682.12	38.911
682.44	38.494
682.77	39.956
683.09	37.529
683.41	37.727
683.73	38.940
684.06	37.832
684.38	39.140
684.70	39.216
685.02	37.344
685.34	39.723
685.67	40.901
685.99	41.953
686.31	41.416
686.63	43.228
686.96	39.544
687.28	38.990
687.60	38.213
687.92	41.616
688.24	40.524
688.56	39.520
688.89	38.393
689.21	38.667
689.53	35.963
689.85	39.070
690.17	36.830
690.49	40.662
690.82	36.893
691.14	37.857
691.46	40.421
691.78	42.117
692.10	42.151
692.42	36.797
692.74	38.889
693.06	38.739
693.39	38.235
693.71	40.045
694.03	37.413
694.35	38.785
694.67	37.879
694.99	39.164
695.31	39.948
695.63	36.000
695.95	37.879
696.27	35.751
696.59	40.278
696.91	36.134
697.23	37.532
697.56	43.069
697.88	40.645
698.20	38.041
698.52	38.824
698.84	41.148
699.16	38.000
699.48	38.095
699.80	38.958
700.12	38.275
700.44	39.776
700.76	38.372
701.08	35.455
701.40	34.337
701.72	41.667
702.04	39.604
702.36	38.127
702.68	36.937
703.00	38.788
703.32	41.642
703.64	36.441
703.96	35.072
704.28	35.276
704.60	38.095
704.91	36.593
705.23	34.219
705.55	39.576
705.87	38.267
706.19	38.519
706.51	36.770
706.83	40.193
707.15	37.695
707.47	41.176
707.79	40.365
708.11	41.000
708.43	41.250
708.74	38.501
709.06	40.845
709.38	45.260
709.70	36.982
710.02	40.127
710.34	37.461
710.66	35.897
710.98	36.755
711.29	38.033
711.61	42.034
711.93	40.065
712.25	38.832
712.57	41.392
712.89	36.194
713.20	39.100
713.52	35.540
713.84	35.154
714.16	40.893
714.48	37.742
714.80	45.513
715.11	39.514
715.43	36.050
715.75	38.667
716.07	37.542
716.39	40.268
716.70	36.531
717.02	32.443
717.34	36.842
717.66	35.841
717.97	37.826
718.29	33.473
718.61	36.614
718.93	39.535
719.24	36.122
719.56	35.341
719.88	43.299
720.20	36.742
720.51	39.847
720.83	42.471
721.15	39.916
721.46	35.887
721.78	34.783
722.10	36.803
722.42	37.344
722.73	36.735
723.05	40.000
723.37	40.254
723.68	45.045
724.00	33.333
724.32	37.778
724.63	40.455
724.95	37.118
725.27	36.406
725.58	38.559
725.90	34.127
726.22	43.629
726.53	36.271
726.85	43.071
727.16	43.396
727.48	37.652
727.80	37.247
728.11	36.864
728.43	36.863
728.74	31.855
729.06	39.200
729.38	42.105
729.69	37.052
730.01	41.154
730.32	45.896
730.64	42.049
730.96	38.868
731.27	41.000
731.59	38.983
731.90	41.401
732.22	43.533
732.53	42.857
732.85	41.135
733.16	46.801
733.48	39.568
733.80	41.304
734.11	43.390
734.43	42.955
734.74	44.848
735.06	42.345
735.37	42.900
735.69	44.444
736.00	42.160
736.32	45.973
736.63	44.014
736.95	39.590
737.26	40.569
737.58	43.624
737.89	40.659
738.21	37.970
738.52	45.267
738.83	35.371
739.15	37.118
739.46	41.732
739.78	38.095
740.09	41.176
740.41	43.841
740.72	42.913
741.04	42.510
741.35	36.596
741.66	37.915
741.98	39.286
742.29	37.129
742.61	36.649
742.92	33.175
743.23	35.648
743.55	42.534
743.86	38.278
744.18	39.234
744.49	36.702
744.80	41.304
745.12	42.246
745.43	30.244
745.74	42.708
746.06	36.098
746.37	39.267
746.68	41.706
747.00	42.553
747.31	35.323
747.62	36.893
747.94	36.364
748.25	43.069
748.56	37.158
748.88	38.220
749.19	44.681
749.50	40.394
749.82	33.962
750.13	39.450
750.44	42.857
750.75	50.373
751.07	45.620
751.38	35.249
751.69	40.784
752.01	44.961
752.32	41.833
752.63	37.945
752.94	40.517
753.26	44.770
753.57	42.081
753.88	42.478
754.19	42.083
754.51	37.190
754.82	41.296
755.13	42.917
755.44	39.919
755.75	41.797
756.07	43.191
756.38	39.245
756.69	42.529
757.00	41.333
757.31	41.830
757.63	43.598
757.94	45.278
758.25	41.096
758.56	43.085
758.87	39.093
759.18	42.368
759.50	41.818
759.81	38.796
760.12	41.290
760.43	43.333
760.74	45.679
761.05	47.692
761.36	45.455
761.67	42.121
761.99	46.599
762.30	41.091
762.61	42.292
762.92	41.176
763.23	41.441
763.54	40.187
763.85	42.373
764.16	38.589
764.47	35.484
764.78	43.590
765.10	42.424
765.41	43.849
765.72	41.270
766.03	43.233
766.34	41.971
766.65	44.622
766.96	43.434
767.27	38.830
767.58	42.529
767.89	40.426
768.20	36.932
768.51	39.011
768.82	39.901
769.13	41.014
769.44	40.343
769.75	38.356
770.06	37.500
770.37	34.615
770.68	38.579
770.99	34.389
771.30	42.157
771.61	41.176
771.92	40.948
772.23	42.365
772.54	44.624
772.85	41.975
773.16	39.326
773.47	43.137
773.78	51.634
774.09	31.138
774.39	40.000
774.70	34.395
775.01	44.138
775.32	36.429
775.63	42.149
775.94	35.878
776.25	38.583
776.56	34.167
776.87	38.462
777.18	32.479
777.48	35.345
777.79	30.435
778.10	26.667
778.41	44.144
778.72	32.540
779.03	34.586
779.34	36.879
779.65	47.260
779.95	38.356
780.26	37.241
780.57	34.959
780.88	38.583
781.19	41.379
781.50	44.186
781.80	40.828
782.11	35.849
782.42	44.615
782.73	41.007
783.04	43.704
783.34	36.806
783.65	38.462
783.96	39.344
784.27	38.621
784.57	37.398
784.88	36.719
785.19	47.000
785.50	44.000
785.81	43.103
786.11	35.345
786.42	31.068
786.73	41.818
787.04	40.816
787.34	37.500
787.65	41.905
787.96	44.248
788.26	48.182
788.57	35.897
788.88	37.500
789.19	36.508
789.49	43.478
789.80	37.755
790.11	36.364
790.41	33.636
790.72	48.913
791.03	42.045
791.33	41.250
791.64	37.500
791.95	38.372
792.25	38.298
792.56	37.079
792.87	27.397
793.17	34.783
793.48	25.333
793.79	33.750
794.09	45.000
794.40	43.396
794.70	39.806
795.01	35.772
795.32	34.188
795.62	31.429
795.93	46.078
796.23	39.623
796.54	40.625
796.85	39.706
797.15	40.845
797.46	36.111
797.76	45.455
798.07	30.233
798.37	27.632
798.68	21.212
798.99	30.864
799.29	47.143
799.60	42.029
799.90	40.000
800.21	42.623
800.51	35.385
800.82	33.898
801.12	43.478
801.43	24.590
801.73	28.571
802.04	40.000
802.34	26.866
802.65	25.000
802.95	21.429
803.26	19.231
803.56	45.098
803.87	21.739
804.17	28.000
804.48	50.794
804.78	24.074
805.09	26.087
805.39	28.889
805.70	31.481
806.00	24.561
806.30	32.394
806.61	42.857
806.91	29.167
807.22	52.632
807.52	50.667
807.83	43.636
808.13	37.500
808.43	27.941
808.74	28.358
809.04	38.983
809.35	26.923
809.65	48.438
809.95	-2.703
810.26	22.727
810.56	36.986
810.86	30.952
811.17	38.000
811.47	18.367
811.77	50.000
812.08	2.273
812.38	35.849
812.69	22.500
812.99	39.394
813.29	36.842
813.59	8.571
813.90	25.000
814.20	43.590
814.50	40.385
814.81	30.189
815.11	27.660
815.41	33.898
815.72	50.000
816.02	41.176
816.32	33.333
816.62	26.829
816.93	21.622
817.23	51.429
817.53	33.333
817.84	19.565
818.14	17.308
818.44	13.158
818.74	36.957
819.04	5.000
819.35	43.243
819.65	5.882
819.95	41.667
820.25	26.190
820.56	52.500
820.86	-24.138
821.16	52.500
821.46	46.809
821.76	37.500
822.07	23.256
822.37	29.730
822.67	28.125
822.97	52.381
823.27	32.143
823.57	44.000
823.88	3.704
824.18	28.571
824.48	35.294
824.78	9.677
825.08	39.130
825.38	18.182
825.69	37.500
825.99	44.737
826.29	27.778
826.59	20.000
826.89	-4.762
827.19	56.522
827.49	35.000
827.79	31.429
828.09	57.143
828.39	12.121
828.70	72.973
829.00	64.286
829.30	38.095
829.60	20.000
829.90	18.750
830.20	23.684
830.50	37.037
830.80	21.739
831.10	81.818
831.40	51.515
831.70	38.710
832.00	57.143
832.30	-28.571
832.60	41.667
832.90	41.379
833.20	35.000
833.50	6.061
833.80	11.111
834.10	80.769
834.40	56.250
834.70	0.000
835.00	36.842
835.30	69.231
835.60	20.000
835.90	48.387
836.20	63.636
836.50	82.143
836.80	-26.923
837.10	21.429
837.40	33.333
837.70	31.818
838.00	-27.273
838.30	21.739
838.60	7.692
838.90	36.364
839.19	10.714
839.49	33.333
839.79	30.769
840.09	-33.333
840.39	50.000
840.69	14.286
840.99	50.000
841.29	15.789
841.59	-60.000
841.88	100.000
842.18	-50.000
842.48	56.250
842.78	53.333
843.08	51.852
843.38	-40.000
843.68	26.087
843.97	106.667
844.27	33.333
844.57	25.000
844.87	50.000
845.17	-9.524
845.47	60.000
845.76	52.381
846.06	35.294
846.36	30.000
846.66	-21.429
846.96	13.333
847.25	-62.500
847.55	50.000
847.85	-25.000
848.15	72.727
848.44	-433.333
848.74	40.000
849.04	70.370
849.34	9.091
849.63	-116.667
849.93	-240.000
850.23	0.000
850.53	40.000
850.82	0.000
851.12	44.444
851.42	46.667
851.71	-19.231
852.01	-7.143
852.31	-150.000
852.61	0.000
852.90	40.000
853.20	-15.789
853.50	-50.000
853.79	56.522
854.09	62.500
854.39	78.947
854.68	45.833
854.98	41.935
855.28	73.077
855.57	85.000
855.87	33.333
856.17	62.963
856.46	50.000
856.76	66.667
857.05	144.444
857.35	24.000
857.65	38.889
857.94	69.231
858.24	65.517
858.53	11.111
858.83	59.259
859.13	59.091
859.42	47.826
859.72	25.000
860.01	-366.667
860.31	32.000
860.60	38.095
860.90	33.333
861.20	-20.000
861.49	-50.000
861.79	13.333
862.08	-5.000
862.38	66.667
862.67	-100.000
862.97	-66.667
863.26	16.667
863.56	61.111
863.85	-500.000
864.15	66.667
864.44	10.000
864.74	42.857
865.03	25.000
865.33	140.000
865.62	-50.000
865.92	-41.667
866.21	-116.667
866.51	0.000
866.80	-54.545
867.10	50.000
867.39	108.333
867.69	0.000
867.98	23.077
868.27	166.667
868.57	-20.000
868.86	22.222
869.16	15.385
869.45	106.667
869.75	-1100.000
870.04	0.000
870.33	-100.000
870.63	90.476
870.92	-66.667
871.22	-80.000
871.51	300.000
871.80	100.000
872.10	266.667
>>>>>End Processed Spectral Data<<<<<
