SpectraSuite Data File
++++++++++++++++++++++++++++++++++++
Date: Fri May 15 17:27:09 PDT 2015
User: schluterlab
Dark Spectrum Present: Yes
Reference Spectrum Present: Yes
Number of Sampled Component Spectra: 1
Spectrometers: USB2E3373
Integration Time (usec): 3000 (USB2E3373)
Spectra Averaged: 3 (USB2E3373)
Boxcar Smoothing: 0 (USB2E3373)
Correct for Electrical Dark: No (USB2E3373)
Strobe/Lamp Enabled: No (USB2E3373)
Correct for Detector Non-linearity: No (USB2E3373)
Correct for Stray Light: No (USB2E3373)
Number of Pixels in Processed Spectrum: 2048
>>>>>Begin Processed Spectral Data<<<<<
178.53	0.000
178.91	0.000
179.29	125.000
179.67	-450.000
180.04	-28.571
180.42	100.000
180.80	200.000
181.18	233.333
181.56	350.000
181.94	100.000
182.31	700.000
182.69	140.000
183.07	-166.667
183.45	100.000
183.83	-50.000
184.20	63.636
184.58	-55.556
184.96	-125.000
185.34	-33.333
185.72	-200.000
186.09	15.385
186.47	-100.000
186.85	66.667
187.23	155.556
187.61	-800.000
187.98	66.667
188.36	-11.111
188.74	-133.333
189.12	76.471
189.49	38.889
189.87	0.000
190.25	14.286
190.63	-350.000
191.00	-166.667
191.38	63.158
191.76	250.000
192.14	-25.000
192.51	450.000
192.89	-55.556
193.27	-85.714
193.65	133.333
194.02	118.182
194.40	40.000
194.78	-12.500
195.15	-16.667
195.53	-50.000
195.91	425.000
196.29	150.000
196.66	76.923
197.04	-42.857
197.42	-88.889
197.79	-666.667
198.17	-107.692
198.55	600.000
198.92	-33.333
199.30	500.000
199.68	-100.000
200.05	66.667
200.43	0.000
200.81	266.667
201.18	66.667
201.56	1500.000
201.94	-100.000
202.31	100.000
202.69	-40.000
203.07	75.000
203.44	600.000
203.82	0.000
204.19	14.286
204.57	-266.667
204.95	87.500
205.32	-70.000
205.70	-14.286
206.08	25.000
206.45	200.000
206.83	35.714
207.20	-71.429
207.58	200.000
207.96	300.000
208.33	10.000
208.71	0.000
209.08	-16.667
209.46	500.000
209.84	20.000
210.21	-300.000
210.59	-14.286
210.96	33.333
211.34	-125.000
211.71	-13.333
212.09	-157.143
212.46	-1300.000
212.84	0.000
213.22	190.000
213.59	-300.000
213.97	100.000
214.34	54.545
214.72	116.667
215.09	-50.000
215.47	-30.769
215.84	18.182
216.22	-166.667
216.59	12.500
216.97	250.000
217.34	-100.000
217.72	-340.000
218.09	200.000
218.47	137.500
218.84	500.000
219.22	0.000
219.59	-120.000
219.97	100.000
220.34	-75.000
220.72	128.571
221.09	-25.000
221.47	50.000
221.84	-300.000
222.22	-350.000
222.59	72.727
222.97	-25.000
223.34	-200.000
223.72	7.143
224.09	9.524
224.46	21.429
224.84	366.667
225.21	-70.000
225.59	20.000
225.96	50.000
226.34	350.000
226.71	-71.429
227.08	-83.333
227.46	0.000
227.83	-350.000
228.21	33.333
228.58	72.727
228.95	25.000
229.33	70.000
229.70	43.750
230.08	37.500
230.45	-71.429
230.82	0.000
231.20	13.333
231.57	35.714
231.95	171.429
232.32	-40.000
232.69	64.286
233.07	433.333
233.44	-60.000
233.81	50.000
234.19	133.333
234.56	64.706
234.93	250.000
235.31	300.000
235.68	-300.000
236.05	-23.077
236.43	15.000
236.80	23.529
237.17	53.125
237.55	-5.000
237.92	14.815
238.29	27.778
238.67	36.667
239.04	-2.941
239.41	2.439
239.79	30.000
240.16	39.024
240.53	5.263
240.91	19.565
241.28	31.746
241.65	33.929
242.02	31.507
242.40	46.667
242.77	44.068
243.14	21.212
243.51	16.250
243.89	16.092
244.26	21.839
244.63	16.667
245.00	30.928
245.38	27.835
245.75	25.843
246.12	25.862
246.49	19.835
246.87	25.000
247.24	15.126
247.61	21.053
247.98	15.447
248.36	23.125
248.73	21.053
249.10	19.481
249.47	20.886
249.84	22.876
250.22	19.412
250.59	24.837
250.96	29.108
251.33	21.512
251.70	28.235
252.08	23.858
252.45	22.772
252.82	20.101
253.19	26.728
253.56	21.495
253.94	21.171
254.31	23.478
254.68	28.947
255.05	19.291
255.42	23.144
255.79	22.780
256.16	24.125
256.54	27.612
256.91	22.433
257.28	25.651
257.65	22.846
258.02	23.404
258.39	27.609
258.76	20.879
259.14	25.581
259.51	23.301
259.88	22.680
260.25	23.856
260.62	29.167
260.99	23.051
261.36	22.603
261.73	23.418
262.10	20.973
262.47	26.994
262.85	24.765
263.22	21.231
263.59	26.480
263.96	24.845
264.33	25.455
264.70	23.214
265.07	22.917
265.44	25.212
265.81	22.316
266.18	24.044
266.55	26.221
266.92	29.534
267.29	23.760
267.66	26.854
268.03	23.822
268.40	25.849
268.77	25.134
269.14	25.659
269.51	24.422
269.88	23.441
270.25	26.276
270.62	20.732
270.99	24.552
271.36	23.472
271.73	25.352
272.10	23.114
272.47	23.168
272.84	22.030
273.21	26.450
273.58	24.578
273.95	23.799
274.32	21.709
274.69	19.231
275.06	21.429
275.43	21.995
275.80	24.724
276.17	23.908
276.54	22.484
276.91	23.904
277.28	21.179
277.65	23.967
278.02	24.681
278.39	21.663
278.76	23.480
279.13	19.087
279.50	26.050
279.87	22.678
280.23	23.441
280.60	22.417
280.97	24.242
281.34	22.115
281.71	24.025
282.08	21.881
282.45	20.548
282.82	22.008
283.19	23.211
283.56	24.085
283.92	22.011
284.29	21.154
284.66	21.318
285.03	20.236
285.40	20.416
285.77	19.859
286.14	22.383
286.51	22.509
286.87	19.013
287.24	21.363
287.61	22.751
287.98	21.930
288.35	19.757
288.72	23.117
289.08	19.618
289.45	22.847
289.82	21.329
290.19	19.625
290.56	18.353
290.93	17.845
291.29	19.106
291.66	20.945
292.03	20.734
292.40	18.065
292.77	18.660
293.13	16.721
293.50	18.361
293.87	19.237
294.24	19.784
294.60	18.480
294.97	18.452
295.34	17.791
295.71	18.778
296.08	19.133
296.44	16.501
296.81	16.389
297.18	18.261
297.55	19.106
297.91	17.534
298.28	17.810
298.65	16.825
299.02	16.846
299.38	14.774
299.75	17.517
300.12	17.016
300.48	16.733
300.85	16.730
301.22	16.364
301.59	15.395
301.95	16.456
302.32	17.510
302.69	16.915
303.05	16.089
303.42	16.936
303.79	17.173
304.15	17.324
304.52	15.339
304.89	15.322
305.25	15.133
305.62	15.286
305.99	15.556
306.35	15.376
306.72	14.736
307.09	15.165
307.45	15.729
307.82	14.815
308.19	16.841
308.55	15.594
308.92	16.122
309.29	14.637
309.65	14.747
310.02	15.182
310.38	13.941
310.75	15.519
311.12	15.608
311.48	14.952
311.85	13.089
312.22	13.819
312.58	14.968
312.95	14.194
313.31	14.803
313.68	15.288
314.05	13.571
314.41	14.536
314.78	15.155
315.14	14.697
315.51	13.975
315.87	13.627
316.24	15.066
316.61	15.453
316.97	14.484
317.34	14.063
317.70	15.870
318.07	15.385
318.43	16.078
318.80	15.246
319.16	16.406
319.53	16.904
319.89	14.764
320.26	17.308
320.62	17.553
320.99	15.344
321.35	17.575
321.72	17.342
322.08	15.811
322.45	16.041
322.81	18.075
323.18	17.272
323.54	17.954
323.91	18.306
324.27	17.969
324.64	20.225
325.00	20.529
325.37	21.396
325.73	20.308
326.10	21.344
326.46	22.691
326.83	23.885
327.19	22.493
327.56	24.327
327.92	24.472
328.29	23.036
328.65	25.000
329.01	26.011
329.38	25.714
329.74	24.740
330.11	26.599
330.47	27.180
330.84	27.885
331.20	28.992
331.56	28.241
331.93	29.041
332.29	29.514
332.66	30.136
333.02	30.669
333.38	29.056
333.75	31.319
334.11	29.096
334.48	31.188
334.84	30.861
335.20	31.656
335.57	29.737
335.93	32.520
336.29	31.584
336.66	30.972
337.02	30.762
337.38	32.037
337.75	31.909
338.11	32.372
338.47	33.303
338.84	32.532
339.20	32.267
339.56	34.495
339.93	34.199
340.29	33.119
340.65	33.154
341.02	33.333
341.38	33.186
341.74	34.452
342.11	32.582
342.47	33.986
342.83	34.429
343.20	33.014
343.56	34.174
343.92	34.455
344.28	35.184
344.65	34.542
345.01	33.103
345.37	34.399
345.73	34.895
346.10	34.254
346.46	34.735
346.82	33.633
347.19	33.416
347.55	33.835
347.91	34.871
348.27	33.953
348.63	35.690
349.00	34.372
349.36	35.328
349.72	35.158
350.08	34.016
350.45	35.355
350.81	35.382
351.17	34.528
351.53	35.592
351.89	35.095
352.26	35.200
352.62	35.726
352.98	34.618
353.34	34.783
353.70	36.974
354.07	34.677
354.43	34.347
354.79	35.508
355.15	36.032
355.51	35.285
355.87	36.246
356.24	34.258
356.60	35.247
356.96	36.587
357.32	36.901
357.68	36.591
358.04	35.460
358.40	36.576
358.77	36.443
359.13	35.949
359.49	35.439
359.85	36.739
360.21	36.842
360.57	36.037
360.93	38.048
361.29	36.103
361.66	37.304
362.02	37.424
362.38	37.471
362.74	37.623
363.10	37.698
363.46	37.954
363.82	38.392
364.18	38.450
364.54	37.647
364.90	38.351
365.26	38.937
365.62	38.394
365.98	38.270
366.35	39.039
366.71	39.320
367.07	40.566
367.43	38.821
367.79	38.728
368.15	39.555
368.51	39.767
368.87	40.057
369.23	39.278
369.59	40.671
369.95	40.616
370.31	41.113
370.67	40.299
371.03	41.598
371.39	42.232
371.75	40.586
372.11	41.726
372.47	42.751
372.83	41.306
373.19	40.870
373.55	41.661
373.91	42.549
374.27	42.948
374.63	42.785
374.99	42.199
375.35	43.454
375.71	44.336
376.07	45.154
376.42	44.150
376.78	44.631
377.14	45.227
377.50	45.286
377.86	45.917
378.22	45.820
378.58	45.449
378.94	45.495
379.30	46.725
379.66	46.834
380.02	47.762
380.38	46.500
380.74	47.696
381.09	48.896
381.45	47.339
381.81	47.995
382.17	47.652
382.53	48.844
382.89	48.776
383.25	51.213
383.61	49.695
383.97	49.333
384.32	48.968
384.68	49.164
385.04	50.306
385.40	50.529
385.76	51.447
386.12	53.428
386.48	52.682
386.83	51.680
387.19	51.832
387.55	53.890
387.91	52.873
388.27	52.869
388.62	54.940
388.98	53.223
389.34	54.778
389.70	55.749
390.06	52.801
390.42	53.303
390.77	55.461
391.13	54.161
391.49	56.210
391.85	56.660
392.20	56.246
392.56	54.736
392.92	55.549
393.28	56.368
393.64	55.676
393.99	58.182
394.35	57.495
394.71	58.365
395.07	55.563
395.42	56.102
395.78	58.306
396.14	57.818
396.50	57.895
396.85	57.502
397.21	58.145
397.57	57.931
397.92	57.579
398.28	57.931
398.64	57.289
399.00	58.352
399.35	58.126
399.71	58.128
400.07	58.646
400.42	58.323
400.78	59.767
401.14	58.197
401.49	59.142
401.85	59.232
402.21	59.458
402.57	59.312
402.92	58.407
403.28	60.338
403.63	60.025
403.99	59.375
404.35	59.400
404.70	59.226
405.06	58.519
405.42	59.664
405.77	58.687
406.13	60.303
406.49	59.266
406.84	60.819
407.20	61.168
407.55	59.691
407.91	60.294
408.27	59.720
408.62	59.754
408.98	59.643
409.34	60.471
409.69	58.850
410.05	59.667
410.40	59.444
410.76	60.253
411.11	60.062
411.47	60.355
411.83	59.699
412.18	61.068
412.54	58.989
412.89	59.975
413.25	60.830
413.60	60.621
413.96	58.589
414.31	60.915
414.67	59.846
415.03	61.318
415.38	59.595
415.74	61.694
416.09	61.071
416.45	60.770
416.80	61.269
417.16	61.809
417.51	60.959
417.87	61.669
418.22	61.658
418.58	62.207
418.93	61.317
419.29	59.731
419.64	61.115
420.00	61.713
420.35	61.194
420.71	61.847
421.06	62.308
421.42	61.839
421.77	62.081
422.12	62.543
422.48	62.047
422.83	62.181
423.19	61.287
423.54	61.728
423.90	61.543
424.25	63.261
424.61	61.689
424.96	61.672
425.31	63.778
425.67	63.556
426.02	64.252
426.38	64.371
426.73	65.073
427.09	64.114
427.44	62.647
427.79	62.876
428.15	63.410
428.50	63.537
428.85	62.469
429.21	63.045
429.56	64.420
429.92	62.661
430.27	63.108
430.62	63.199
430.98	63.535
431.33	63.565
431.68	63.579
432.04	63.108
432.39	63.092
432.74	61.515
433.10	63.966
433.45	63.381
433.80	64.248
434.16	62.992
434.51	64.409
434.86	64.402
435.22	64.049
435.57	65.003
435.92	64.311
436.28	62.612
436.63	64.689
436.98	62.804
437.34	64.126
437.69	65.474
438.04	63.305
438.39	65.669
438.75	65.877
439.10	64.573
439.45	65.916
439.81	63.792
440.16	65.439
440.51	65.373
440.86	67.069
441.22	65.498
441.57	66.115
441.92	66.579
442.27	66.186
442.63	66.006
442.98	67.490
443.33	65.442
443.68	66.419
444.03	66.816
444.39	64.978
444.74	68.506
445.09	66.314
445.44	67.578
445.79	68.179
446.15	65.859
446.50	66.223
446.85	66.844
447.20	66.215
447.55	66.853
447.91	66.159
448.26	67.900
448.61	66.206
448.96	68.904
449.31	67.168
449.66	67.538
450.02	67.541
450.37	68.168
450.72	67.698
451.07	68.228
451.42	65.730
451.77	67.631
452.12	67.584
452.47	67.160
452.83	66.726
453.18	68.058
453.53	66.245
453.88	66.545
454.23	68.285
454.58	68.262
454.93	66.881
455.28	65.079
455.63	67.018
455.98	66.987
456.34	67.561
456.69	68.869
457.04	66.478
457.39	66.525
457.74	67.956
458.09	65.686
458.44	66.589
458.79	66.331
459.14	67.220
459.49	68.119
459.84	67.118
460.19	67.233
460.54	67.787
460.89	66.875
461.24	67.826
461.59	68.468
461.94	65.975
462.29	67.793
462.64	66.445
462.99	66.215
463.34	66.134
463.69	67.503
464.04	67.857
464.39	66.101
464.74	67.301
465.09	67.748
465.44	68.205
465.79	65.703
466.14	67.161
466.49	66.647
466.84	66.330
467.19	65.770
467.54	65.390
467.89	67.214
468.24	65.450
468.59	66.730
468.94	67.238
469.29	66.492
469.64	65.619
469.99	68.115
470.34	65.870
470.68	66.070
471.03	67.021
471.38	66.690
471.73	67.157
472.08	66.689
472.43	67.315
472.78	65.661
473.13	66.735
473.48	66.710
473.83	65.691
474.17	67.422
474.52	66.560
474.87	66.970
475.22	66.382
475.57	66.460
475.92	67.471
476.27	66.065
476.61	67.188
476.96	65.421
477.31	66.468
477.66	65.618
478.01	65.918
478.36	65.850
478.70	67.863
479.05	67.857
479.40	65.554
479.75	65.746
480.10	66.871
480.45	66.500
480.79	67.221
481.14	67.213
481.49	65.123
481.84	67.761
482.19	65.388
482.53	66.091
482.88	66.205
483.23	66.123
483.58	65.943
483.92	66.312
484.27	64.904
484.62	65.397
484.97	66.211
485.31	65.860
485.66	65.905
486.01	67.590
486.36	66.800
486.70	67.027
487.05	66.853
487.40	66.365
487.75	65.831
488.09	64.153
488.44	63.239
488.79	64.849
489.13	65.144
489.48	65.113
489.83	64.439
490.17	65.528
490.52	66.282
490.87	64.044
491.22	65.521
491.56	64.042
491.91	65.440
492.26	67.088
492.60	64.971
492.95	67.388
493.30	65.266
493.64	66.159
493.99	66.087
494.34	66.117
494.68	65.143
495.03	65.839
495.37	65.702
495.72	65.321
496.07	65.756
496.41	65.094
496.76	66.145
497.11	64.741
497.45	64.582
497.80	65.439
498.14	64.630
498.49	64.804
498.84	64.621
499.18	65.964
499.53	65.228
499.87	64.737
500.22	64.095
500.56	65.557
500.91	65.261
501.26	65.002
501.60	66.257
501.95	66.715
502.29	65.182
502.64	64.672
502.98	66.157
503.33	64.217
503.67	64.386
504.02	64.956
504.36	65.611
504.71	64.293
505.06	64.368
505.40	65.635
505.75	66.546
506.09	65.839
506.44	65.606
506.78	66.173
507.13	65.822
507.47	64.230
507.82	65.385
508.16	65.293
508.51	64.376
508.85	64.940
509.19	64.290
509.54	64.933
509.88	66.019
510.23	66.326
510.57	65.633
510.92	64.499
511.26	65.194
511.61	64.961
511.95	65.041
512.30	65.521
512.64	64.162
512.98	65.076
513.33	65.473
513.67	65.833
514.02	66.648
514.36	66.171
514.70	66.608
515.05	68.801
515.39	65.289
515.74	65.808
516.08	66.766
516.42	65.901
516.77	65.477
517.11	66.053
517.46	64.871
517.80	65.137
518.14	65.279
518.49	64.543
518.83	66.100
519.17	64.160
519.52	64.772
519.86	64.706
520.20	65.006
520.55	66.354
520.89	66.374
521.23	64.218
521.58	65.552
521.92	66.474
522.26	65.192
522.61	66.234
522.95	67.881
523.29	66.074
523.64	67.281
523.98	67.466
524.32	66.366
524.66	67.222
525.01	66.753
525.35	65.068
525.69	67.003
526.04	66.799
526.38	66.537
526.72	65.402
527.06	66.213
527.41	65.831
527.75	66.086
528.09	65.183
528.43	67.725
528.78	67.459
529.12	66.645
529.46	65.432
529.80	65.358
530.15	67.525
530.49	67.475
530.83	68.331
531.17	65.615
531.51	66.211
531.86	64.786
532.20	65.205
532.54	66.372
532.88	65.161
533.22	66.734
533.57	67.104
533.91	65.405
534.25	68.490
534.59	66.068
534.93	67.086
535.27	65.609
535.62	66.170
535.96	66.928
536.30	67.348
536.64	66.161
536.98	66.411
537.32	68.208
537.66	67.041
538.01	66.364
538.35	67.198
538.69	66.511
539.03	66.370
539.37	67.564
539.71	67.076
540.05	64.766
540.39	66.551
540.73	67.643
541.07	66.713
541.42	66.868
541.76	67.584
542.10	66.758
542.44	67.130
542.78	65.107
543.12	66.209
543.46	67.107
543.80	66.551
544.14	64.286
544.48	66.622
544.82	67.464
545.16	67.486
545.50	65.955
545.84	66.997
546.18	67.092
546.52	67.340
546.86	66.786
547.20	67.167
547.54	65.936
547.88	66.712
548.22	65.417
548.56	66.755
548.90	66.846
549.24	65.496
549.58	66.784
549.92	65.690
550.26	66.520
550.60	67.509
550.94	66.019
551.28	66.074
551.62	66.846
551.96	67.444
552.30	67.032
552.64	66.150
552.98	66.104
553.32	65.478
553.66	67.054
554.00	67.518
554.34	67.725
554.68	66.077
555.02	68.229
555.36	65.669
555.69	66.667
556.03	66.667
556.37	65.552
556.71	65.993
557.05	67.412
557.39	65.725
557.73	65.067
558.07	66.365
558.41	67.228
558.75	66.875
559.08	66.745
559.42	67.619
559.76	67.014
560.10	65.749
560.44	66.642
560.78	66.503
561.12	67.842
561.45	66.550
561.79	67.507
562.13	67.353
562.47	65.612
562.81	66.859
563.15	65.797
563.48	66.620
563.82	68.360
564.16	68.872
564.50	67.568
564.84	66.533
565.17	65.929
565.51	68.374
565.85	68.930
566.19	67.905
566.52	68.968
566.86	67.288
567.20	68.244
567.54	69.586
567.88	70.240
568.21	69.005
568.55	68.804
568.89	70.380
569.23	69.331
569.56	68.651
569.90	71.498
570.24	68.366
570.57	70.509
570.91	70.617
571.25	70.141
571.59	69.137
571.92	67.585
572.26	68.841
572.60	67.814
572.93	67.964
573.27	68.025
573.61	68.884
573.95	68.815
574.28	68.724
574.62	67.328
574.96	68.038
575.29	67.542
575.63	66.779
575.97	67.471
576.30	68.288
576.64	67.735
576.98	69.035
577.31	69.034
577.65	69.197
577.98	69.358
578.32	69.385
578.66	67.978
578.99	67.993
579.33	67.924
579.67	67.726
580.00	68.456
580.34	68.259
580.67	68.076
581.01	67.699
581.35	69.035
581.68	69.750
582.02	68.875
582.35	69.006
582.69	69.673
583.02	68.212
583.36	69.009
583.70	69.133
584.03	68.974
584.37	68.859
584.70	67.940
585.04	68.109
585.37	68.256
585.71	68.551
586.04	68.583
586.38	68.632
586.72	68.752
587.05	69.122
587.39	69.192
587.72	70.831
588.06	68.254
588.39	68.527
588.73	68.284
589.06	69.309
589.40	68.510
589.73	69.295
590.07	68.958
590.40	69.543
590.73	69.687
591.07	68.490
591.40	69.323
591.74	68.733
592.07	69.620
592.41	69.788
592.74	69.494
593.08	69.403
593.41	69.390
593.75	68.924
594.08	68.658
594.41	68.013
594.75	68.321
595.08	69.164
595.42	69.562
595.75	69.471
596.09	69.429
596.42	69.740
596.75	68.384
597.09	67.882
597.42	69.964
597.75	70.774
598.09	66.772
598.42	68.276
598.76	68.855
599.09	69.832
599.42	67.867
599.76	70.391
600.09	69.118
600.42	68.120
600.76	68.351
601.09	69.160
601.42	68.077
601.76	68.956
602.09	68.977
602.42	70.345
602.76	69.525
603.09	70.141
603.42	71.154
603.76	69.153
604.09	70.109
604.42	69.289
604.76	69.381
605.09	68.967
605.42	68.623
605.75	69.615
606.09	69.214
606.42	68.349
606.75	69.004
607.09	69.978
607.42	67.169
607.75	68.739
608.08	68.509
608.42	66.560
608.75	69.205
609.08	70.404
609.41	69.695
609.75	69.254
610.08	70.844
610.41	69.275
610.74	69.673
611.07	69.612
611.41	69.019
611.74	70.416
612.07	68.308
612.40	69.748
612.73	69.944
613.07	69.516
613.40	69.530
613.73	69.782
614.06	69.004
614.39	69.769
614.72	68.067
615.06	69.944
615.39	68.668
615.72	68.891
616.05	69.050
616.38	67.863
616.71	69.664
617.05	69.117
617.38	69.390
617.71	70.189
618.04	70.286
618.37	70.681
618.70	70.495
619.03	70.486
619.36	68.886
619.69	69.674
620.03	71.658
620.36	70.100
620.69	69.807
621.02	68.807
621.35	70.207
621.68	70.408
622.01	72.167
622.34	70.231
622.67	68.691
623.00	69.832
623.33	71.799
623.66	70.232
623.99	69.818
624.32	70.266
624.65	70.376
624.99	70.053
625.32	70.053
625.65	71.092
625.98	70.669
626.31	68.828
626.64	70.451
626.97	71.117
627.30	70.228
627.63	69.757
627.96	68.733
628.29	69.843
628.62	69.813
628.95	69.739
629.28	72.681
629.61	69.093
629.94	70.381
630.26	69.368
630.59	70.656
630.92	68.615
631.25	68.000
631.58	70.044
631.91	71.272
632.24	70.413
632.57	69.773
632.90	71.293
633.23	68.471
633.56	71.914
633.89	69.297
634.22	71.358
634.55	71.410
634.88	70.370
635.20	70.256
635.53	71.067
635.86	69.051
636.19	71.022
636.52	72.321
636.85	69.727
637.18	70.818
637.51	69.560
637.83	68.068
638.16	75.034
638.49	68.120
638.82	71.711
639.15	69.471
639.48	70.151
639.81	69.596
640.13	72.006
640.46	68.367
640.79	69.219
641.12	68.685
641.45	71.772
641.77	68.296
642.10	71.406
642.43	67.524
642.76	72.112
643.09	71.405
643.41	68.447
643.74	70.016
644.07	68.966
644.40	70.270
644.73	70.753
645.05	68.289
645.38	71.429
645.71	70.390
646.04	72.531
646.36	73.759
646.69	69.604
647.02	72.401
647.35	73.507
647.67	70.750
648.00	72.201
648.33	68.601
648.66	69.492
648.98	70.017
649.31	73.884
649.64	68.917
649.96	71.961
650.29	69.847
650.62	70.085
650.94	70.741
651.27	71.695
651.60	70.090
651.92	68.182
652.25	73.179
652.58	71.667
652.90	72.041
653.23	71.597
653.56	69.712
653.88	70.790
654.21	69.702
654.54	70.798
654.86	70.628
655.19	70.029
655.52	76.393
655.84	76.413
656.17	84.808
656.49	100.000
656.82	100.000
657.15	100.000
657.47	71.783
657.80	47.282
658.13	45.902
658.45	70.300
658.78	68.230
659.10	65.657
659.43	64.629
659.75	64.973
660.08	64.207
660.41	66.599
660.73	68.094
661.06	70.191
661.38	66.536
661.71	64.476
662.03	71.888
662.36	71.429
662.68	71.239
663.01	68.559
663.33	68.677
663.66	71.628
663.98	70.233
664.31	67.804
664.63	71.889
664.96	66.739
665.28	67.550
665.61	72.294
665.93	72.174
666.26	71.367
666.58	69.128
666.91	72.000
667.23	69.104
667.56	71.801
667.88	70.264
668.21	70.167
668.53	70.213
668.86	67.217
669.18	68.632
669.50	70.702
669.83	66.744
670.15	67.366
670.48	69.378
670.80	69.355
671.13	70.246
671.45	66.210
671.77	68.455
672.10	69.901
672.42	74.345
672.75	70.160
673.07	72.987
673.39	71.560
673.72	67.850
674.04	69.375
674.37	72.034
674.69	70.664
675.01	70.667
675.34	68.694
675.66	71.528
675.98	70.067
676.31	72.018
676.63	73.634
676.95	68.182
677.28	73.412
677.60	72.289
677.92	70.183
678.25	67.834
678.57	71.645
678.89	71.008
679.22	75.839
679.54	72.289
679.86	70.974
680.18	71.650
680.51	70.455
680.83	70.378
681.15	73.200
681.48	69.877
681.80	70.248
682.12	71.169
682.44	68.410
682.77	72.406
683.09	70.709
683.41	68.864
683.73	71.198
684.06	70.133
684.38	72.688
684.70	75.381
685.02	69.710
685.34	71.937
685.67	71.107
685.99	71.248
686.31	73.451
686.63	71.614
686.96	68.631
687.28	71.111
687.60	69.202
687.92	73.535
688.24	70.161
688.56	74.236
688.89	71.652
689.21	69.333
689.53	71.230
689.85	69.535
690.17	70.536
690.49	72.340
690.82	71.602
691.14	71.667
691.46	74.065
691.78	72.973
692.10	75.484
692.42	73.160
692.74	67.949
693.06	72.297
693.39	69.683
693.71	66.968
694.03	67.667
694.35	71.262
694.67	69.192
694.99	69.452
695.31	71.540
695.63	72.250
695.95	68.182
696.27	68.653
696.59	70.278
696.91	72.549
697.23	69.409
697.56	77.228
697.88	73.548
698.20	68.793
698.52	72.000
698.84	66.986
699.16	71.250
699.48	73.434
699.80	66.253
700.12	70.620
700.44	75.630
700.76	70.640
701.08	68.485
701.40	72.892
701.72	71.914
702.04	74.257
702.36	75.920
702.68	69.369
703.00	76.061
703.32	70.674
703.64	70.056
703.96	69.855
704.28	71.472
704.60	73.016
704.91	67.508
705.23	71.761
705.55	75.972
705.87	74.368
706.19	71.852
706.51	69.416
706.83	68.810
707.15	70.093
707.47	75.070
707.79	68.750
708.11	70.500
708.43	70.750
708.74	69.767
709.06	74.648
709.38	73.394
709.70	67.751
710.02	71.019
710.34	66.873
710.66	66.667
710.98	68.874
711.29	71.475
711.61	73.220
711.93	71.336
712.25	73.540
712.57	74.725
712.89	73.134
713.20	72.664
713.52	67.247
713.84	69.625
714.16	73.883
714.48	73.548
714.80	76.603
715.11	68.389
715.43	70.846
715.75	71.000
716.07	66.445
716.39	72.483
716.70	67.528
717.02	67.557
717.34	74.899
717.66	76.549
717.97	70.870
718.29	71.130
718.61	69.291
718.93	72.868
719.24	72.624
719.56	70.683
719.88	65.636
720.20	73.106
720.51	69.349
720.83	72.201
721.15	76.050
721.46	79.032
721.78	71.146
722.10	67.658
722.42	67.635
722.73	66.939
723.05	73.878
723.37	77.542
723.68	76.126
724.00	68.803
724.32	68.889
724.63	73.636
724.95	71.179
725.27	76.498
725.58	70.763
725.90	65.476
726.22	69.112
726.53	67.797
726.85	77.154
727.16	73.585
727.48	64.777
727.80	76.113
728.11	73.305
728.43	70.588
728.74	66.935
729.06	74.400
729.38	73.308
729.69	73.307
730.01	68.077
730.32	76.119
730.64	67.845
730.96	71.321
731.27	71.000
731.59	76.271
731.90	67.834
732.22	76.025
732.53	76.744
732.85	74.113
733.16	71.044
733.48	70.863
733.80	75.725
734.11	71.864
734.43	80.069
734.74	72.121
735.06	74.267
735.37	69.486
735.69	70.034
736.00	72.474
736.32	69.128
736.63	76.408
736.95	71.672
737.26	75.089
737.58	72.148
737.89	71.429
738.21	72.556
738.52	77.778
738.83	74.672
739.15	75.109
739.46	72.441
739.78	68.132
740.09	63.399
740.41	75.725
740.72	73.228
741.04	70.445
741.35	66.809
741.66	71.564
741.98	70.918
742.29	67.822
742.61	74.346
742.92	65.877
743.23	61.111
743.55	71.493
743.86	71.292
744.18	67.464
744.49	75.000
744.80	67.391
745.12	84.492
745.43	71.707
745.74	80.729
746.06	73.659
746.37	73.822
746.68	68.720
747.00	71.277
747.31	72.637
747.62	71.359
747.94	73.206
748.25	72.772
748.56	77.049
748.88	70.157
749.19	79.787
749.50	72.906
749.82	67.925
750.13	70.642
750.44	71.429
750.75	74.627
751.07	74.453
751.38	75.862
751.69	74.118
752.01	73.256
752.32	73.307
752.63	67.589
752.94	72.414
753.26	71.548
753.57	72.851
753.88	69.469
754.19	72.083
754.51	75.207
754.82	70.850
755.13	75.417
755.44	71.774
755.75	74.609
756.07	73.152
756.38	72.075
756.69	65.134
757.00	71.667
757.31	70.915
757.63	69.817
757.94	70.278
758.25	71.507
758.56	72.872
758.87	66.856
759.18	65.732
759.50	68.727
759.81	70.569
760.12	72.903
760.43	68.788
760.74	76.235
761.05	72.308
761.36	70.170
761.67	75.152
761.99	73.469
762.30	68.727
762.61	65.613
762.92	73.756
763.23	71.622
763.54	73.832
763.85	74.153
764.16	65.975
764.47	68.952
764.78	66.667
765.10	73.064
765.41	71.609
765.72	73.333
766.03	70.677
766.34	70.073
766.65	66.932
766.96	77.778
767.27	70.213
767.58	65.517
767.89	72.340
768.20	61.932
768.51	74.176
768.82	71.921
769.13	67.281
769.44	67.382
769.75	69.863
770.06	71.121
770.37	67.308
770.68	71.574
770.99	67.421
771.30	81.863
771.61	75.113
771.92	69.828
772.23	79.310
772.54	76.882
772.85	74.691
773.16	69.663
773.47	78.431
773.78	74.510
774.09	65.868
774.39	63.333
774.70	66.879
775.01	75.172
775.32	59.286
775.63	69.421
775.94	62.595
776.25	68.504
776.56	67.500
776.87	76.923
777.18	72.650
777.48	79.310
777.79	67.826
778.10	70.476
778.41	75.676
778.72	70.635
779.03	84.211
779.34	80.851
779.65	73.288
779.95	66.438
780.26	66.207
780.57	65.041
780.88	62.992
781.19	75.862
781.50	75.194
781.80	63.905
782.11	66.667
782.42	81.538
782.73	66.906
783.04	67.407
783.34	63.889
783.65	73.504
783.96	66.393
784.27	73.103
784.57	72.358
784.88	54.688
785.19	77.000
785.50	72.000
785.81	73.276
786.11	65.517
786.42	61.165
786.73	80.000
787.04	68.367
787.34	67.857
787.65	67.619
787.96	64.602
788.26	76.364
788.57	58.120
788.88	63.281
789.19	61.905
789.49	65.217
789.80	78.571
790.11	66.667
790.41	60.909
790.72	70.652
791.03	65.909
791.33	72.500
791.64	63.750
791.95	62.791
792.25	67.021
792.56	59.551
792.87	73.973
793.17	75.362
793.48	50.667
793.79	58.750
794.09	68.750
794.40	65.094
794.70	67.961
795.01	65.041
795.32	61.538
795.62	69.524
795.93	61.765
796.23	71.698
796.54	63.542
796.85	66.176
797.15	53.521
797.46	65.278
797.76	65.152
798.07	44.186
798.37	64.474
798.68	59.091
798.99	71.605
799.29	78.571
799.60	63.768
799.90	68.000
800.21	72.131
800.51	76.923
800.82	61.017
801.12	53.623
801.43	75.410
801.73	77.778
802.04	82.000
802.34	49.254
802.65	71.154
802.95	64.286
803.26	67.308
803.56	54.902
803.87	52.174
804.17	50.667
804.48	57.143
804.78	57.407
805.09	60.870
805.39	42.222
805.70	72.222
806.00	35.088
806.30	61.972
806.61	64.286
806.91	61.111
807.22	78.947
807.52	64.000
807.83	65.455
808.13	51.389
808.43	77.941
808.74	70.149
809.04	74.576
809.35	61.538
809.65	56.250
809.95	48.649
810.26	45.455
810.56	58.904
810.86	76.190
811.17	82.000
811.47	57.143
811.77	68.421
812.08	86.364
812.38	73.585
812.69	62.500
812.99	48.485
813.29	63.158
813.59	48.571
813.90	52.273
814.20	110.256
814.50	51.923
814.81	52.830
815.11	53.191
815.41	52.542
815.72	57.143
816.02	47.059
816.32	56.250
816.62	70.732
816.93	54.054
817.23	51.429
817.53	50.000
817.84	58.696
818.14	51.923
818.44	52.632
818.74	63.043
819.04	32.500
819.35	37.838
819.65	35.294
819.95	58.333
820.25	59.524
820.56	67.500
820.86	41.379
821.16	80.000
821.46	59.574
821.76	65.000
822.07	51.163
822.37	13.514
822.67	75.000
822.97	33.333
823.27	85.714
823.57	80.000
823.88	59.259
824.18	53.571
824.48	52.941
824.78	38.710
825.08	113.043
825.38	42.424
825.69	45.833
825.99	63.158
826.29	52.778
826.59	106.667
826.89	19.048
827.19	39.130
827.49	70.000
827.79	82.857
828.09	67.857
828.39	81.818
828.70	72.973
829.00	50.000
829.30	61.905
829.60	66.667
829.90	59.375
830.20	28.947
830.50	44.444
830.80	43.478
831.10	72.727
831.40	69.697
831.70	58.065
832.00	28.571
832.30	61.905
832.60	16.667
832.90	37.931
833.20	10.000
833.50	63.636
833.80	55.556
834.10	50.000
834.40	68.750
834.70	77.778
835.00	73.684
835.30	115.385
835.60	140.000
835.90	48.387
836.20	72.727
836.50	82.143
836.80	19.231
837.10	42.857
837.40	-200.000
837.70	27.273
838.00	18.182
838.30	78.261
838.60	61.538
838.90	40.909
839.19	28.571
839.49	46.667
839.79	84.615
840.09	-41.667
840.39	42.857
840.69	64.286
840.99	30.769
841.29	52.632
841.59	50.000
841.88	18.182
842.18	60.000
842.48	87.500
842.78	60.000
843.08	25.926
843.38	-100.000
843.68	78.261
843.97	66.667
844.27	40.000
844.57	40.000
844.87	66.667
845.17	33.333
845.47	120.000
845.76	19.048
846.06	11.765
846.36	120.000
846.66	71.429
846.96	26.667
847.25	-50.000
847.55	85.714
847.85	125.000
848.15	13.636
848.44	-300.000
848.74	65.000
849.04	59.259
849.34	54.545
849.63	216.667
849.93	-40.000
850.23	-11.111
850.53	110.000
850.82	-61.538
851.12	11.111
851.42	66.667
851.71	23.077
852.01	-14.286
852.31	-225.000
852.61	36.364
852.90	60.000
853.20	94.737
853.50	50.000
853.79	39.130
854.09	79.167
854.39	47.368
854.68	45.833
854.98	61.290
855.28	30.769
855.57	65.000
855.87	50.000
856.17	55.556
856.46	7.143
856.76	26.667
857.05	211.111
857.35	32.000
857.65	55.556
857.94	53.846
858.24	58.621
858.53	55.556
858.83	55.556
859.13	-4.545
859.42	13.043
859.72	275.000
860.01	533.333
860.31	60.000
860.60	14.286
860.90	33.333
861.20	66.667
861.49	200.000
861.79	80.000
862.08	50.000
862.38	93.333
862.67	-140.000
862.97	-133.333
863.26	58.333
863.56	88.889
863.85	33.333
864.15	61.111
864.44	0.000
864.74	92.857
865.03	-125.000
865.33	180.000
865.62	133.333
865.92	0.000
866.21	-83.333
866.51	-18.750
866.80	81.818
867.10	-300.000
867.39	158.333
867.69	0.000
867.98	38.462
868.27	-66.667
868.57	86.667
868.86	61.111
869.16	23.077
869.45	86.667
869.75	-600.000
870.04	0.000
870.33	-114.286
870.63	33.333
870.92	300.000
871.22	-120.000
871.51	-700.000
871.80	111.111
872.10	166.667
>>>>>End Processed Spectral Data<<<<<
