SpectraSuite Data File
++++++++++++++++++++++++++++++++++++
Date: Fri May 15 20:01:54 PDT 2015
User: schluterlab
Dark Spectrum Present: Yes
Reference Spectrum Present: Yes
Number of Sampled Component Spectra: 1
Spectrometers: USB2E3373
Integration Time (usec): 3000 (USB2E3373)
Spectra Averaged: 3 (USB2E3373)
Boxcar Smoothing: 0 (USB2E3373)
Correct for Electrical Dark: No (USB2E3373)
Strobe/Lamp Enabled: No (USB2E3373)
Correct for Detector Non-linearity: No (USB2E3373)
Correct for Stray Light: No (USB2E3373)
Number of Pixels in Processed Spectrum: 2048
>>>>>Begin Processed Spectral Data<<<<<
178.53	0.000
178.91	0.000
179.29	0.000
179.67	-250.000
180.04	-0.000
180.42	0.000
180.80	-300.000
181.18	133.333
181.56	250.000
181.94	0.000
182.31	-0.000
182.69	60.000
183.07	-200.000
183.45	60.000
183.83	150.000
184.20	0.000
184.58	100.000
184.96	-350.000
185.34	133.333
185.72	-200.000
186.09	-7.692
186.47	500.000
186.85	-100.000
187.23	155.556
187.61	200.000
187.98	-133.333
188.36	144.444
188.74	-166.667
189.12	35.294
189.49	33.333
189.87	0.000
190.25	85.714
190.63	300.000
191.00	66.667
191.38	15.789
191.76	200.000
192.14	-75.000
192.51	450.000
192.89	11.111
193.27	-100.000
193.65	16.667
194.02	109.091
194.40	100.000
194.78	-150.000
195.15	50.000
195.53	-37.500
195.91	-100.000
196.29	50.000
196.66	30.769
197.04	-14.286
197.42	33.333
197.79	-366.667
198.17	-61.538
198.55	400.000
198.92	-100.000
199.30	-100.000
199.68	-20.000
200.05	-133.333
200.43	0.000
200.81	100.000
201.18	-166.667
201.56	-200.000
201.94	0.000
202.31	200.000
202.69	-240.000
203.07	150.000
203.44	600.000
203.82	0.000
204.19	0.000
204.57	-233.333
204.95	25.000
205.32	100.000
205.70	-42.857
206.08	0.000
206.45	133.333
206.83	128.571
207.20	14.286
207.58	-500.000
207.96	-166.667
208.33	-90.000
208.71	-75.000
209.08	-83.333
209.46	-700.000
209.84	-20.000
210.21	-200.000
210.59	100.000
210.96	-16.667
211.34	-50.000
211.71	46.667
212.09	0.000
212.46	-2100.000
212.84	0.000
213.22	-10.000
213.59	450.000
213.97	46.154
214.34	81.818
214.72	-83.333
215.09	75.000
215.47	-15.385
215.84	-45.455
216.22	66.667
216.59	75.000
216.97	250.000
217.34	0.000
217.72	-120.000
218.09	37.500
218.47	37.500
218.84	200.000
219.22	-88.889
219.59	0.000
219.97	166.667
220.34	150.000
220.72	85.714
221.09	50.000
221.47	200.000
221.84	-200.000
222.22	-700.000
222.59	36.364
222.97	75.000
223.34	-133.333
223.72	14.286
224.09	-38.095
224.46	35.714
224.84	333.333
225.21	0.000
225.59	33.333
225.96	-150.000
226.34	75.000
226.71	-14.286
227.08	0.000
227.46	87.500
227.83	-300.000
228.21	22.222
228.58	90.909
228.95	-25.000
229.33	-0.000
229.70	87.500
230.08	-37.500
230.45	-14.286
230.82	28.571
231.20	93.333
231.57	50.000
231.95	-28.571
232.32	-20.000
232.69	57.143
233.07	-333.333
233.44	-120.000
233.81	30.000
234.19	66.667
234.56	35.294
234.93	50.000
235.31	250.000
235.68	-260.000
236.05	-69.231
236.43	-55.000
236.80	-11.765
237.17	25.000
237.55	-15.000
237.92	11.111
238.29	25.000
238.67	10.000
239.04	0.000
239.41	-19.512
239.79	-6.667
240.16	-19.512
240.53	-21.053
240.91	-17.391
241.28	6.349
241.65	7.143
242.02	30.137
242.40	3.333
242.77	1.695
243.14	0.000
243.51	-1.250
243.89	21.839
244.26	8.046
244.63	8.333
245.00	10.309
245.38	12.371
245.75	-3.371
246.12	-3.448
246.49	1.653
246.87	-0.962
247.24	8.403
247.61	0.877
247.98	13.008
248.36	10.000
248.73	11.842
249.10	11.688
249.47	6.962
249.84	5.229
250.22	5.294
250.59	5.229
250.96	10.798
251.33	-2.326
251.70	3.529
252.08	3.553
252.45	5.941
252.82	0.000
253.19	5.069
253.56	4.206
253.94	2.703
254.31	8.696
254.68	6.579
255.05	3.937
255.42	4.803
255.79	4.247
256.16	3.502
256.54	7.090
256.91	5.323
257.28	3.717
257.65	2.996
258.02	2.837
258.39	7.071
258.76	5.495
259.14	9.302
259.51	7.443
259.88	1.375
260.25	5.882
260.62	3.125
260.99	-2.373
261.36	1.712
261.73	2.215
262.10	6.079
262.47	3.681
262.85	3.135
263.22	5.538
263.59	3.427
263.96	2.795
264.33	7.879
264.70	2.679
265.07	6.250
265.44	6.799
265.81	1.695
266.18	2.459
266.55	7.712
266.92	7.254
267.29	4.700
267.66	5.371
268.03	4.450
268.40	3.133
268.77	5.348
269.14	7.194
269.51	5.913
269.88	3.990
270.25	1.786
270.62	2.439
270.99	0.767
271.36	1.222
271.73	5.164
272.10	2.433
272.47	3.783
272.84	2.723
273.21	4.872
273.58	4.096
273.95	7.323
274.32	3.926
274.69	3.846
275.06	3.348
275.43	2.948
275.80	5.077
276.17	2.299
276.54	4.497
276.91	6.140
277.28	3.930
277.65	5.785
278.02	2.979
278.39	2.845
278.76	4.193
279.13	1.452
279.50	4.832
279.87	4.752
280.23	2.581
280.60	7.018
280.97	3.838
281.34	2.692
281.71	7.598
282.08	5.930
282.45	3.131
282.82	5.019
283.19	2.321
283.56	4.624
283.92	3.795
284.29	4.615
284.66	3.295
285.03	3.929
285.40	3.781
285.77	0.000
286.14	3.610
286.51	5.904
286.87	3.108
287.24	4.420
287.61	3.880
287.98	7.368
288.35	4.506
288.72	4.553
289.08	2.778
289.45	4.745
289.82	5.070
290.19	2.901
290.56	3.087
290.93	3.872
291.29	5.393
291.66	5.984
292.03	5.104
292.40	5.968
292.77	5.582
293.13	4.221
293.50	5.159
293.87	5.038
294.24	5.564
294.60	5.812
294.97	8.631
295.34	5.368
295.71	6.855
296.08	6.428
296.44	5.405
296.81	6.667
297.18	7.971
297.55	8.537
297.91	7.534
298.28	8.971
298.65	8.548
299.02	8.895
299.38	5.472
299.75	7.034
300.12	7.984
300.48	9.091
300.85	9.759
301.22	9.610
301.59	8.421
301.95	11.266
302.32	10.246
302.69	11.070
303.05	9.777
303.42	11.208
303.79	11.916
304.15	10.036
304.52	9.037
304.89	10.409
305.25	11.017
305.62	9.685
305.99	10.409
306.35	10.173
306.72	10.911
307.09	11.859
307.45	11.711
307.82	10.648
308.19	11.498
308.55	11.996
308.92	12.309
309.29	9.944
309.65	12.487
310.02	11.771
310.38	11.636
310.75	12.896
311.12	11.087
311.48	11.241
311.85	11.518
312.22	11.498
312.58	13.482
312.95	10.779
313.31	12.319
313.68	11.728
314.05	12.449
314.41	11.856
314.78	11.443
315.14	11.922
315.51	12.215
315.87	12.500
316.24	13.246
316.61	11.713
316.97	12.004
317.34	11.035
317.70	11.759
318.07	11.827
318.43	12.255
318.80	10.795
319.16	10.352
319.53	12.251
319.89	11.319
320.26	11.437
320.62	12.237
320.99	12.213
321.35	12.127
321.72	11.111
322.08	11.581
322.45	11.269
322.81	11.002
323.18	11.482
323.54	9.846
323.91	11.198
324.27	12.793
324.64	12.828
325.00	12.591
325.37	11.938
325.73	11.242
326.10	12.443
326.46	11.570
326.83	11.636
327.19	11.595
327.56	11.642
327.92	11.884
328.29	10.804
328.65	10.472
329.01	11.489
329.38	11.889
329.74	10.482
330.11	12.141
330.47	11.317
330.84	9.231
331.20	11.502
331.56	10.926
331.93	11.324
332.29	10.816
332.66	10.950
333.02	11.617
333.38	10.541
333.75	11.081
334.11	11.101
334.48	10.426
334.84	11.355
335.20	10.247
335.57	9.610
335.93	12.014
336.29	10.773
336.66	10.263
337.02	9.294
337.38	10.093
337.75	9.636
338.11	11.542
338.47	11.405
338.84	9.519
339.20	9.689
339.56	10.275
339.93	11.101
340.29	10.183
340.65	11.290
341.02	9.929
341.38	9.558
341.74	10.159
342.11	10.225
342.47	9.786
342.83	10.294
343.20	9.669
343.56	9.304
343.92	10.629
344.28	10.589
344.65	10.017
345.01	8.729
345.37	10.177
345.73	10.209
346.10	10.785
346.46	10.597
346.82	8.920
347.19	8.645
347.55	11.028
347.91	9.871
348.27	10.105
348.63	10.647
349.00	9.516
349.36	10.141
349.72	9.867
350.08	9.344
350.45	10.934
350.81	9.884
351.17	9.283
351.53	10.939
351.89	9.001
352.26	9.200
352.62	9.597
352.98	9.317
353.34	9.098
353.70	9.951
354.07	10.565
354.43	8.887
354.79	9.083
355.15	10.476
355.51	9.968
355.87	9.709
356.24	9.625
356.60	9.620
356.96	9.921
357.32	9.665
357.68	8.913
358.04	8.724
358.40	9.727
358.77	10.447
359.13	9.287
359.49	9.014
359.85	8.970
360.21	9.809
360.57	9.870
360.93	9.909
361.29	8.157
361.66	10.502
362.02	9.091
362.38	9.825
362.74	9.614
363.10	10.233
363.46	9.637
363.82	10.518
364.18	8.192
364.54	9.559
364.90	8.530
365.26	8.006
365.62	10.438
365.98	8.798
366.35	11.071
366.71	9.682
367.07	10.377
367.43	9.561
367.79	9.399
368.15	8.615
368.51	9.395
368.87	8.256
369.23	9.097
369.59	9.257
369.95	10.191
370.31	9.538
370.67	9.254
371.03	8.215
371.39	8.534
371.75	9.817
372.11	9.130
372.47	9.393
372.83	9.368
373.19	8.702
373.55	8.375
373.91	9.215
374.27	9.001
374.63	8.758
374.99	8.723
375.35	9.262
375.71	9.510
376.07	8.497
376.42	9.456
376.78	9.060
377.14	8.125
377.50	8.831
377.86	9.371
378.22	9.190
378.58	8.013
378.94	9.389
379.30	8.983
379.66	9.342
380.02	8.277
380.38	9.069
380.74	8.318
381.09	9.202
381.45	7.951
381.81	8.390
382.17	8.693
382.53	8.370
382.89	8.851
383.25	9.147
383.61	9.146
383.97	8.444
384.32	8.255
384.68	8.235
385.04	6.924
385.40	8.090
385.76	9.434
386.12	8.409
386.48	8.365
386.83	7.990
387.19	8.669
387.55	9.222
387.91	7.763
388.27	7.875
388.62	8.370
388.98	8.103
389.34	7.995
389.70	8.888
390.06	7.552
390.42	8.031
390.77	7.717
391.13	7.755
391.49	7.503
391.85	7.862
392.20	7.470
392.56	7.819
392.92	8.045
393.28	7.252
393.64	8.168
393.99	8.464
394.35	7.211
394.71	8.238
395.07	7.605
395.42	7.225
395.78	7.818
396.14	7.881
396.50	7.483
396.85	7.276
397.21	6.830
397.57	6.897
397.92	7.010
398.28	7.011
398.64	7.108
399.00	7.619
399.35	6.264
399.71	7.122
400.07	7.255
400.42	7.160
400.78	7.348
401.14	7.260
401.49	7.504
401.85	6.825
402.21	6.325
402.57	6.750
402.92	6.023
403.28	6.830
403.63	6.557
403.99	6.186
404.35	6.996
404.70	6.310
405.06	5.875
405.42	6.899
405.77	5.578
406.13	5.763
406.49	5.210
406.84	6.296
407.20	6.502
407.55	5.795
407.91	5.749
408.27	5.163
408.62	7.015
408.98	6.161
409.34	6.010
409.69	6.008
410.05	5.172
410.40	5.864
410.76	6.454
411.11	6.187
411.47	5.654
411.83	4.959
412.18	5.405
412.54	4.869
412.89	5.049
413.25	6.017
413.60	5.590
413.96	5.521
414.31	5.610
414.67	5.196
415.03	5.260
415.38	5.548
415.74	6.124
416.09	5.683
416.45	5.537
416.80	5.023
417.16	5.249
417.51	6.396
417.87	4.759
418.22	5.246
418.58	5.418
418.93	6.270
419.29	5.378
419.64	4.990
420.00	6.549
420.35	5.672
420.71	6.683
421.06	5.770
421.42	6.611
421.77	6.127
422.12	6.470
422.48	5.685
422.83	5.684
423.19	5.982
423.54	5.761
423.90	5.948
424.25	6.028
424.61	6.854
424.96	6.794
425.31	6.759
425.67	6.808
426.02	6.773
426.38	6.137
426.73	6.961
427.09	7.595
427.44	7.765
427.79	7.484
428.15	7.767
428.50	6.844
428.85	6.265
429.21	7.527
429.56	7.871
429.92	6.985
430.27	7.669
430.62	7.318
430.98	7.325
431.33	8.307
431.68	8.216
432.04	6.931
432.39	7.245
432.74	8.178
433.10	8.046
433.45	7.766
433.80	7.777
434.16	7.202
434.51	7.849
434.86	8.130
435.22	8.301
435.57	7.923
435.92	7.904
436.28	7.633
436.63	7.929
436.98	8.459
437.34	7.864
437.69	8.348
438.04	7.806
438.39	7.941
438.75	7.832
439.10	8.546
439.45	8.338
439.81	8.807
440.16	8.432
440.51	9.433
440.86	9.305
441.22	9.050
441.57	9.437
441.92	9.234
442.27	9.368
442.63	9.208
442.98	9.305
443.33	9.460
443.68	9.125
444.03	9.836
444.39	9.100
444.74	10.033
445.09	9.577
445.44	8.889
445.79	9.696
446.15	9.637
446.50	9.207
446.85	9.989
447.20	9.333
447.55	10.045
447.91	9.701
448.26	9.732
448.61	10.363
448.96	9.753
449.31	9.538
449.66	9.930
450.02	9.641
450.37	10.433
450.72	9.966
451.07	10.316
451.42	9.613
451.77	9.765
452.12	9.270
452.47	9.466
452.83	10.424
453.18	10.183
453.53	10.367
453.88	9.897
454.23	10.080
454.58	10.516
454.93	10.631
455.28	9.206
455.63	10.415
455.98	10.944
456.34	10.728
456.69	10.673
457.04	10.775
457.39	10.814
457.74	9.976
458.09	10.477
458.44	10.240
458.79	9.412
459.14	10.412
459.49	10.507
459.84	10.998
460.19	10.619
460.54	10.452
460.89	10.170
461.24	10.683
461.59	10.333
461.94	9.434
462.29	10.856
462.64	11.296
462.99	10.697
463.34	9.944
463.69	9.974
464.04	10.654
464.39	10.491
464.74	10.123
465.09	11.291
465.44	10.444
465.79	9.921
466.14	10.604
466.49	10.753
466.84	10.946
467.19	10.826
467.54	10.600
467.89	10.044
468.24	10.401
468.59	11.175
468.94	10.794
469.29	10.885
469.64	10.253
469.99	10.932
470.34	10.717
470.68	11.111
471.03	11.960
471.38	10.984
471.73	10.994
472.08	10.244
472.43	10.336
472.78	10.829
473.13	10.000
473.48	10.749
473.83	11.083
474.17	10.622
474.52	11.295
474.87	10.424
475.22	10.189
475.57	10.503
475.92	10.916
476.27	10.361
476.61	11.343
476.96	10.876
477.31	10.708
477.66	10.449
478.01	10.668
478.36	11.166
478.70	10.984
479.05	11.429
479.40	11.500
479.75	11.366
480.10	10.548
480.45	10.650
480.79	11.631
481.14	11.168
481.49	10.345
481.84	10.183
482.19	10.477
482.53	10.887
482.88	10.597
483.23	10.653
483.58	10.613
483.92	10.649
484.27	10.346
484.62	10.982
484.97	10.489
485.31	10.477
485.66	10.666
486.01	10.528
486.36	10.366
486.70	10.847
487.05	10.565
487.40	10.419
487.75	10.169
488.09	10.260
488.44	10.351
488.79	9.787
489.13	10.937
489.48	10.646
489.83	10.807
490.17	10.247
490.52	10.531
490.87	10.134
491.22	10.697
491.56	9.867
491.91	11.233
492.26	11.133
492.60	11.084
492.95	11.215
493.30	10.699
493.64	10.707
493.99	10.725
494.34	10.146
494.68	10.905
495.03	9.878
495.37	10.991
495.72	10.904
496.07	11.024
496.41	11.132
496.76	11.700
497.11	10.573
497.45	11.313
497.80	11.705
498.14	11.128
498.49	10.411
498.84	11.178
499.18	10.944
499.53	11.111
499.87	10.895
500.22	10.336
500.56	11.498
500.91	10.743
501.26	10.578
501.60	11.510
501.95	11.402
502.29	10.412
502.64	10.907
502.98	10.903
503.33	10.279
503.67	10.602
504.02	11.144
504.36	10.935
504.71	10.758
505.06	10.871
505.40	10.558
505.75	10.309
506.09	10.948
506.44	11.345
506.78	11.071
507.13	11.013
507.47	10.496
507.82	10.256
508.16	10.777
508.51	11.438
508.85	10.884
509.19	10.963
509.54	10.992
509.88	11.273
510.23	11.404
510.57	11.170
510.92	10.075
511.26	10.747
511.61	10.671
511.95	11.342
512.30	10.976
512.64	11.018
512.98	11.173
513.33	11.752
513.67	10.915
514.02	12.071
514.36	11.600
514.70	12.005
515.05	11.163
515.39	11.747
515.74	11.916
516.08	11.357
516.42	11.896
516.77	11.995
517.11	10.979
517.46	11.311
517.80	11.621
518.14	11.145
518.49	11.659
518.83	11.665
519.17	11.158
519.52	11.545
519.86	11.104
520.20	11.604
520.55	10.319
520.89	11.669
521.23	10.893
521.58	12.555
521.92	11.474
522.26	10.930
522.61	11.039
522.95	11.722
523.29	10.864
523.64	11.563
523.98	11.406
524.32	10.503
524.66	11.268
525.01	12.143
525.35	11.601
525.69	10.842
526.04	10.780
526.38	12.451
526.72	10.530
527.06	11.414
527.41	12.005
527.75	12.265
528.09	11.030
528.43	11.951
528.78	10.891
529.12	11.613
529.46	10.656
529.80	11.590
530.15	11.419
530.49	11.044
530.83	11.149
531.17	11.551
531.51	11.491
531.86	10.877
532.20	11.343
532.54	10.756
532.88	11.704
533.22	11.492
533.57	11.337
533.91	10.444
534.25	11.393
534.59	10.904
534.93	10.384
535.27	10.723
535.62	10.888
535.96	11.807
536.30	11.939
536.64	11.509
536.98	10.871
537.32	11.593
537.66	12.553
538.01	10.699
538.35	11.442
538.69	11.385
539.03	10.390
539.37	11.709
539.71	11.179
540.05	11.066
540.39	10.734
540.73	11.158
541.07	11.671
541.42	12.702
541.76	11.838
542.10	11.769
542.44	10.980
542.78	9.979
543.12	10.783
543.46	11.266
543.80	11.173
544.14	9.746
544.48	11.659
544.82	11.005
545.16	11.202
545.50	12.350
545.84	11.190
546.18	11.702
546.52	11.824
546.86	10.784
547.20	11.087
547.54	11.025
547.88	11.209
548.22	10.980
548.56	11.016
548.90	11.792
549.24	11.570
549.58	11.142
549.92	10.936
550.26	11.355
550.60	11.524
550.94	11.352
551.28	10.587
551.62	11.154
551.96	11.429
552.30	10.746
552.64	10.578
552.98	11.392
553.32	11.127
553.66	11.248
554.00	10.949
554.34	11.669
554.68	11.431
555.02	12.054
555.36	10.995
555.69	11.136
556.03	10.564
556.37	10.391
556.71	11.480
557.05	11.260
557.39	10.632
557.73	10.645
558.07	10.935
558.41	11.409
558.75	11.613
559.08	10.559
559.42	11.905
559.76	11.129
560.10	11.315
560.44	10.499
560.78	12.168
561.12	11.707
561.45	11.033
561.79	11.835
562.13	11.852
562.47	10.647
562.81	11.095
563.15	11.777
563.48	11.881
563.82	12.423
564.16	10.655
564.50	11.351
564.84	11.513
565.17	10.798
565.51	12.363
565.85	11.728
566.19	11.406
566.52	11.461
566.86	12.596
567.20	10.834
567.54	10.949
567.88	10.896
568.21	11.595
568.55	10.598
568.89	11.550
569.23	10.977
569.56	10.858
569.90	11.165
570.24	10.644
570.57	10.727
570.91	11.189
571.25	10.424
571.59	10.713
571.92	9.896
572.26	10.507
572.60	10.357
572.93	10.323
573.27	10.282
573.61	10.352
573.95	10.814
574.28	10.222
574.62	9.967
574.96	9.948
575.29	10.172
575.63	10.003
575.97	9.867
576.30	10.290
576.64	10.013
576.98	10.296
577.31	10.273
577.65	10.298
577.98	10.799
578.32	10.532
578.66	10.359
578.99	10.178
579.33	10.067
579.67	10.346
580.00	10.253
580.34	10.299
580.67	9.916
581.01	10.279
581.35	10.379
581.68	10.293
582.02	10.204
582.35	10.121
582.69	10.070
583.02	10.147
583.36	10.338
583.70	10.488
584.03	10.370
584.37	10.870
584.70	10.440
585.04	10.233
585.37	10.737
585.71	10.886
586.04	10.338
586.38	10.003
586.72	10.674
587.05	10.745
587.39	10.707
587.72	10.744
588.06	10.296
588.39	10.852
588.73	10.836
589.06	10.828
589.40	10.923
589.73	11.355
590.07	11.292
590.40	11.184
590.73	11.491
591.07	10.984
591.40	10.997
591.74	11.629
592.07	11.456
592.41	11.926
592.74	11.350
593.08	11.002
593.41	11.104
593.75	11.187
594.08	11.054
594.41	11.063
594.75	11.107
595.08	11.048
595.42	10.710
595.75	11.228
596.09	10.946
596.42	11.079
596.75	11.679
597.09	11.390
597.42	11.292
597.75	10.948
598.09	11.453
598.42	11.462
598.76	10.768
599.09	11.418
599.42	10.913
599.76	10.873
600.09	11.161
600.42	11.638
600.76	10.847
601.09	10.992
601.42	11.085
601.76	10.441
602.09	11.056
602.42	11.415
602.76	10.781
603.09	11.005
603.42	11.455
603.76	10.927
604.09	10.895
604.42	10.914
604.76	11.482
605.09	11.792
605.42	11.783
605.75	11.559
606.09	11.040
606.42	11.301
606.75	11.515
607.09	11.473
607.42	10.855
607.75	11.590
608.08	11.366
608.42	11.741
608.75	11.518
609.08	11.161
609.41	11.472
609.75	11.240
610.08	11.283
610.41	10.580
610.74	11.117
611.07	11.473
611.41	10.950
611.74	10.821
612.07	11.028
612.40	11.597
612.73	10.565
613.07	11.417
613.40	11.707
613.73	11.192
614.06	12.465
614.39	11.732
614.72	11.429
615.06	11.341
615.39	11.190
615.72	11.518
616.05	11.788
616.38	11.225
616.71	11.254
617.05	10.933
617.38	11.879
617.71	11.321
618.04	12.254
618.37	12.043
618.70	11.485
619.03	12.083
619.36	11.433
619.69	12.813
620.03	12.272
620.36	11.803
620.69	11.991
621.02	11.850
621.35	11.950
621.68	11.565
622.01	11.833
622.34	12.849
622.67	11.672
623.00	11.792
623.33	12.119
623.66	11.518
623.99	12.103
624.32	12.243
624.65	11.203
624.99	12.190
625.32	10.690
625.65	12.097
625.98	11.684
626.31	11.554
626.64	12.478
626.97	12.827
627.30	12.522
627.63	12.392
627.96	12.040
628.29	12.396
628.62	13.176
628.95	12.826
629.28	11.895
629.61	11.765
629.94	12.708
630.26	11.660
630.59	12.903
630.92	13.026
631.25	12.308
631.58	12.004
631.91	11.294
632.24	11.124
632.57	11.705
632.90	11.981
633.23	13.294
633.56	11.209
633.89	11.837
634.22	10.494
634.55	11.436
634.88	10.983
635.20	10.641
635.53	12.800
635.86	11.183
636.19	13.066
636.52	11.862
636.85	11.290
637.18	12.075
637.51	12.453
637.83	12.615
638.16	12.415
638.49	11.308
638.82	13.289
639.15	11.940
639.48	11.417
639.81	11.715
640.13	12.554
640.46	11.953
640.79	12.224
641.12	12.851
641.45	11.562
641.77	12.889
642.10	13.112
642.43	13.666
642.76	12.211
643.09	13.409
643.41	12.136
643.74	12.026
644.07	13.136
644.40	11.149
644.73	12.785
645.05	13.591
645.38	10.935
645.71	12.411
646.04	14.363
646.36	13.121
646.69	14.748
647.02	12.098
647.35	13.993
647.67	11.700
648.00	13.433
648.33	14.334
648.66	12.881
648.98	11.725
649.31	13.388
649.64	10.832
649.96	12.642
650.29	13.458
650.62	13.675
650.94	14.074
651.27	9.125
651.60	16.036
651.92	15.035
652.25	12.611
652.58	12.500
652.90	13.894
653.23	12.605
653.56	11.506
653.88	12.543
654.21	11.208
654.54	13.073
654.86	14.771
655.19	10.380
655.52	12.461
655.84	10.701
656.17	12.075
656.49	16.192
656.82	16.721
657.15	12.567
657.47	9.437
657.80	7.064
658.13	6.812
658.45	10.444
658.78	10.845
659.10	10.522
659.43	10.922
659.75	11.495
660.08	10.621
660.41	11.645
660.73	10.497
661.06	14.038
661.38	11.742
661.71	10.472
662.03	15.880
662.36	14.286
662.68	13.274
663.01	14.410
663.33	10.441
663.66	11.395
663.98	12.326
664.31	14.925
664.63	9.908
664.96	11.957
665.28	9.051
665.61	14.502
665.93	15.435
666.26	11.931
666.58	10.962
666.91	10.824
667.23	15.094
667.56	14.692
667.88	12.230
668.21	14.797
668.53	12.293
668.86	14.151
669.18	14.151
669.50	12.833
669.83	13.023
670.15	11.422
670.48	9.569
670.80	11.751
671.13	10.515
671.45	10.274
671.77	13.305
672.10	14.455
672.42	11.985
672.75	13.854
673.07	15.385
673.39	13.028
673.72	11.045
674.04	11.667
674.37	13.771
674.69	13.704
675.01	13.333
675.34	11.486
675.66	13.657
675.98	11.752
676.31	12.156
676.63	12.114
676.95	12.727
677.28	17.176
677.60	12.771
677.92	9.633
678.25	13.567
678.57	14.502
678.89	11.975
679.22	13.199
679.54	13.454
679.86	10.736
680.18	13.204
680.51	11.364
680.83	11.928
681.15	11.600
681.48	15.164
681.80	16.322
682.12	11.492
682.44	12.971
682.77	14.349
683.09	13.730
683.41	9.318
683.73	14.055
684.06	12.389
684.38	10.538
684.70	11.329
685.02	12.033
685.34	11.265
685.67	10.694
685.99	11.212
686.31	12.743
686.63	11.317
686.96	9.506
687.28	11.111
687.60	12.548
687.92	14.343
688.24	12.500
688.56	13.974
688.89	12.723
689.21	15.556
689.53	11.369
689.85	12.791
690.17	12.723
690.49	11.111
690.82	11.650
691.14	9.286
691.46	12.850
691.78	12.613
692.10	15.484
692.42	10.823
692.74	14.957
693.06	11.036
693.39	11.086
693.71	8.597
694.03	10.162
694.35	12.850
694.67	9.848
694.99	13.577
695.31	13.316
695.63	15.500
695.95	14.141
696.27	10.104
696.59	13.333
696.91	12.325
697.23	10.026
697.56	12.376
697.88	13.548
698.20	10.251
698.52	13.412
698.84	11.483
699.16	9.000
699.48	15.038
699.80	14.888
700.12	14.016
700.44	15.966
700.76	15.116
701.08	11.515
701.40	7.831
701.72	16.358
702.04	11.881
702.36	15.385
702.68	11.111
703.00	13.333
703.32	13.196
703.64	11.299
703.96	11.884
704.28	12.270
704.60	14.603
704.91	10.095
705.23	10.299
705.55	14.488
705.87	14.801
706.19	11.111
706.51	13.058
706.83	16.399
707.15	8.723
707.47	14.566
707.79	10.677
708.11	14.000
708.43	14.750
708.74	13.953
709.06	13.803
709.38	10.092
709.70	15.976
710.02	12.102
710.34	14.861
710.66	11.218
710.98	11.589
711.29	15.738
711.61	11.864
711.93	13.355
712.25	15.808
712.57	12.088
712.89	9.328
713.20	12.111
713.52	10.453
713.84	15.358
714.16	13.058
714.48	13.226
714.80	12.500
715.11	13.678
715.43	10.345
715.75	11.667
716.07	10.963
716.39	13.423
716.70	12.177
717.02	13.740
717.34	17.004
717.66	8.850
717.97	8.261
718.29	12.971
718.61	12.598
718.93	17.054
719.24	14.449
719.56	14.056
719.88	10.997
720.20	11.742
720.51	10.728
720.83	14.672
721.15	16.807
721.46	11.290
721.78	12.648
722.10	10.409
722.42	6.639
722.73	11.837
723.05	20.000
723.37	14.407
723.68	16.216
724.00	10.684
724.32	16.000
724.63	13.182
724.95	12.664
725.27	14.286
725.58	13.136
725.90	9.524
726.22	11.583
726.53	16.949
726.85	14.232
727.16	14.340
727.48	10.121
727.80	17.814
728.11	12.288
728.43	11.765
728.74	8.871
729.06	12.400
729.38	18.045
729.69	13.147
730.01	8.462
730.32	15.672
730.64	13.428
730.96	12.830
731.27	12.000
731.59	9.492
731.90	13.694
732.22	16.088
732.53	14.286
732.85	13.121
733.16	15.152
733.48	14.029
733.80	13.043
734.11	10.169
734.43	9.278
734.74	13.939
735.06	10.749
735.37	11.178
735.69	15.152
736.00	12.195
736.32	11.745
736.63	13.380
736.95	16.382
737.26	8.541
737.58	14.094
737.89	13.919
738.21	14.662
738.52	12.346
738.83	13.100
739.15	6.114
739.46	14.173
739.78	10.989
740.09	12.092
740.41	17.029
740.72	8.661
741.04	8.097
741.35	11.915
741.66	13.744
741.98	14.796
742.29	14.851
742.61	13.613
742.92	5.213
743.23	12.500
743.55	13.575
743.86	10.526
744.18	15.789
744.49	13.298
744.80	7.609
745.12	16.578
745.43	11.707
745.74	18.229
746.06	16.098
746.37	11.518
746.68	15.640
747.00	6.915
747.31	14.428
747.62	11.650
747.94	14.354
748.25	9.406
748.56	9.836
748.88	10.995
749.19	18.617
749.50	14.778
749.82	6.604
750.13	8.257
750.44	12.406
750.75	16.418
751.07	14.964
751.38	13.410
751.69	9.020
752.01	12.016
752.32	9.960
752.63	10.672
752.94	14.655
753.26	16.318
753.57	14.027
753.88	12.832
754.19	10.000
754.51	12.397
754.82	10.526
755.13	15.833
755.44	13.306
755.75	16.016
756.07	16.342
756.38	15.094
756.69	11.877
757.00	12.667
757.31	12.745
757.63	11.585
757.94	10.278
758.25	12.055
758.56	9.574
758.87	10.198
759.18	12.150
759.50	10.545
759.81	12.709
760.12	11.935
760.43	9.697
760.74	15.123
761.05	13.231
761.36	9.091
761.67	15.758
761.99	13.946
762.30	6.909
762.61	10.672
762.92	9.502
763.23	11.712
763.54	11.215
763.85	16.949
764.16	10.373
764.47	12.903
764.78	12.821
765.10	16.835
765.41	11.041
765.72	12.063
766.03	9.023
766.34	11.679
766.65	12.749
766.96	14.646
767.27	9.574
767.58	10.920
767.89	5.674
768.20	11.364
768.51	13.736
768.82	9.852
769.13	9.217
769.44	12.876
769.75	8.676
770.06	13.793
770.37	10.577
770.68	7.107
770.99	13.122
771.30	14.706
771.61	11.312
771.92	12.931
772.23	16.256
772.54	14.516
772.85	11.111
773.16	8.427
773.47	13.072
773.78	16.993
774.09	10.180
774.39	16.667
774.70	14.650
775.01	18.621
775.32	12.857
775.63	9.917
775.94	15.267
776.25	12.598
776.56	9.167
776.87	13.462
777.18	13.675
777.48	18.103
777.79	6.087
778.10	8.571
778.41	10.811
778.72	11.905
779.03	9.774
779.34	22.695
779.65	19.178
779.95	13.014
780.26	11.724
780.57	13.008
780.88	9.449
781.19	14.655
781.50	9.302
781.80	11.243
782.11	3.145
782.42	13.077
782.73	17.986
783.04	10.370
783.34	13.194
783.65	3.419
783.96	9.016
784.27	15.862
784.57	8.130
784.88	8.594
785.19	24.000
785.50	15.000
785.81	22.414
786.11	15.517
786.42	7.767
786.73	18.182
787.04	9.184
787.34	16.964
787.65	21.905
787.96	11.504
788.26	13.636
788.57	9.402
788.88	15.625
789.19	12.698
789.49	12.174
789.80	10.204
790.11	6.061
790.41	7.273
790.72	13.043
791.03	9.091
791.33	15.000
791.64	12.500
791.95	6.977
792.25	21.277
792.56	13.483
792.87	-2.740
793.17	0.000
793.48	8.000
793.79	7.500
794.09	20.000
794.40	-5.660
794.70	7.767
795.01	8.130
795.32	11.111
795.62	16.190
795.93	13.725
796.23	29.245
796.54	13.542
796.85	8.824
797.15	14.085
797.46	12.500
797.76	16.667
798.07	8.140
798.37	6.579
798.68	6.061
798.99	13.580
799.29	14.286
799.60	18.841
799.90	17.333
800.21	27.869
800.51	15.385
800.82	5.085
801.12	24.638
801.43	13.115
801.73	12.698
802.04	-8.000
802.34	5.970
802.65	17.308
802.95	10.714
803.26	0.000
803.56	15.686
803.87	-8.696
804.17	17.333
804.48	20.635
804.78	11.111
805.09	21.739
805.39	-15.556
805.70	9.259
806.00	-5.263
806.30	-8.451
806.61	24.286
806.91	0.000
807.22	22.368
807.52	13.333
807.83	-9.091
808.13	13.889
808.43	17.647
808.74	0.000
809.04	-3.390
809.35	5.769
809.65	14.062
809.95	-13.514
810.26	6.818
810.56	8.219
810.86	-2.381
811.17	12.000
811.47	12.245
811.77	21.053
812.08	0.000
812.38	13.208
812.69	-12.500
812.99	0.000
813.29	23.684
813.59	-17.143
813.90	2.273
814.20	5.128
814.50	25.000
814.81	32.075
815.11	2.128
815.41	11.864
815.72	14.286
816.02	52.941
816.32	6.250
816.62	7.317
816.93	21.622
817.23	14.286
817.53	29.167
817.84	8.696
818.14	-1.923
818.44	-10.526
818.74	30.435
819.04	-17.500
819.35	37.838
819.65	11.765
819.95	16.667
820.25	9.524
820.56	7.500
820.86	-20.690
821.16	12.500
821.46	38.298
821.76	-2.500
822.07	16.279
822.37	2.703
822.67	-9.375
822.97	23.810
823.27	10.714
823.57	-32.000
823.88	-22.222
824.18	14.286
824.48	-5.882
824.78	35.484
825.08	21.739
825.38	30.303
825.69	-25.000
825.99	23.684
826.29	19.444
826.59	-13.333
826.89	0.000
827.19	45.652
827.49	5.000
827.79	31.429
828.09	14.286
828.39	30.303
828.70	54.054
829.00	10.714
829.30	19.048
829.60	-16.667
829.90	31.250
830.20	-5.263
830.50	0.000
830.80	0.000
831.10	27.273
831.40	69.697
831.70	25.806
832.00	61.905
832.30	-14.286
832.60	33.333
832.90	6.897
833.20	-5.000
833.50	18.182
833.80	25.926
834.10	23.077
834.40	31.250
834.70	22.222
835.00	-21.053
835.30	30.769
835.60	73.333
835.90	61.290
836.20	27.273
836.50	32.143
836.80	-34.615
837.10	3.571
837.40	166.667
837.70	0.000
838.00	-45.455
838.30	39.130
838.60	-15.385
838.90	36.364
839.19	0.000
839.49	36.667
839.79	7.692
840.09	-16.667
840.39	42.857
840.69	-21.429
840.99	19.231
841.29	-26.316
841.59	-10.000
841.88	-18.182
842.18	20.000
842.48	25.000
842.78	-20.000
843.08	7.407
843.38	90.000
843.68	52.174
843.97	26.667
844.27	-13.333
844.57	0.000
844.87	-22.222
845.17	-33.333
845.47	46.667
845.76	-28.571
846.06	41.176
846.36	-50.000
846.66	-28.571
846.96	-20.000
847.25	-100.000
847.55	92.857
847.85	-162.500
848.15	-4.545
848.44	-533.333
848.74	20.000
849.04	66.667
849.34	-18.182
849.63	83.333
849.93	-260.000
850.23	5.556
850.53	30.000
850.82	-7.692
851.12	22.222
851.42	33.333
851.71	19.231
852.01	28.571
852.31	25.000
852.61	-9.091
852.90	10.000
853.20	26.316
853.50	-116.667
853.79	78.261
854.09	58.333
854.39	42.105
854.68	12.500
854.98	54.839
855.28	46.154
855.57	-20.000
855.87	11.111
856.17	62.963
856.46	71.429
856.76	46.667
857.05	77.778
857.35	24.000
857.65	27.778
857.94	15.385
858.24	48.276
858.53	-11.111
858.83	25.926
859.13	-4.545
859.42	13.043
859.72	150.000
860.01	-266.667
860.31	60.000
860.60	33.333
860.90	-233.333
861.20	-13.333
861.49	-300.000
861.79	-13.333
862.08	-5.000
862.38	66.667
862.67	-280.000
862.97	-50.000
863.26	91.667
863.56	38.889
863.85	-266.667
864.15	50.000
864.44	-10.000
864.74	35.714
865.03	100.000
865.33	-80.000
865.62	166.667
865.92	33.333
866.21	-200.000
866.51	43.750
866.80	45.455
867.10	0.000
867.39	16.667
867.69	0.000
867.98	7.692
868.27	-100.000
868.57	-13.333
868.86	83.333
869.16	-38.462
869.45	53.333
869.75	-1500.000
870.04	0.000
870.33	-128.571
870.63	19.048
870.92	266.667
871.22	-240.000
871.51	300.000
871.80	100.000
872.10	233.333
>>>>>End Processed Spectral Data<<<<<
