SpectraSuite Data File
++++++++++++++++++++++++++++++++++++
Date: Fri May 15 17:10:56 PDT 2015
User: schluterlab
Dark Spectrum Present: Yes
Reference Spectrum Present: Yes
Number of Sampled Component Spectra: 1
Spectrometers: USB2E3373
Integration Time (usec): 3000 (USB2E3373)
Spectra Averaged: 3 (USB2E3373)
Boxcar Smoothing: 0 (USB2E3373)
Correct for Electrical Dark: No (USB2E3373)
Strobe/Lamp Enabled: No (USB2E3373)
Correct for Detector Non-linearity: No (USB2E3373)
Correct for Stray Light: No (USB2E3373)
Number of Pixels in Processed Spectrum: 2048
>>>>>Begin Processed Spectral Data<<<<<
178.53	0.000
178.91	0.000
179.29	187.500
179.67	-200.000
180.04	-14.286
180.42	425.000
180.80	-200.000
181.18	-33.333
181.56	250.000
181.94	300.000
182.31	-800.000
182.69	180.000
183.07	-66.667
183.45	180.000
183.83	-50.000
184.20	36.364
184.58	22.222
184.96	-400.000
185.34	-266.667
185.72	-150.000
186.09	23.077
186.47	400.000
186.85	166.667
187.23	77.778
187.61	-800.000
187.98	-66.667
188.36	77.778
188.74	-33.333
189.12	47.059
189.49	133.333
189.87	0.000
190.25	92.857
190.63	200.000
191.00	433.333
191.38	26.316
191.76	650.000
192.14	-50.000
192.51	500.000
192.89	-33.333
193.27	-28.571
193.65	50.000
194.02	100.000
194.40	40.000
194.78	-12.500
195.15	91.667
195.53	-100.000
195.91	225.000
196.29	-25.000
196.66	107.692
197.04	28.571
197.42	-111.111
197.79	-433.333
198.17	-38.462
198.55	900.000
198.92	166.667
199.30	-200.000
199.68	-160.000
200.05	-33.333
200.43	0.000
200.81	-366.667
201.18	233.333
201.56	-300.000
201.94	350.000
202.31	-66.667
202.69	-20.000
203.07	-50.000
203.44	300.000
203.82	0.000
204.19	71.429
204.57	-500.000
204.95	87.500
205.32	90.000
205.70	28.571
206.08	0.000
206.45	200.000
206.83	35.714
207.20	85.714
207.58	-200.000
207.96	133.333
208.33	0.000
208.71	-100.000
209.08	-16.667
209.46	-400.000
209.84	-240.000
210.21	-200.000
210.59	85.714
210.96	66.667
211.34	25.000
211.71	0.000
212.09	-185.714
212.46	-800.000
212.84	0.000
213.22	20.000
213.59	-150.000
213.97	107.692
214.34	45.455
214.72	50.000
215.09	425.000
215.47	7.692
215.84	9.091
216.22	100.000
216.59	-25.000
216.97	900.000
217.34	100.000
217.72	-120.000
218.09	50.000
218.47	62.500
218.84	300.000
219.22	33.333
219.59	60.000
219.97	366.667
220.34	50.000
220.72	200.000
221.09	50.000
221.47	150.000
221.84	-300.000
222.22	-350.000
222.59	27.273
222.97	100.000
223.34	-66.667
223.72	-28.571
224.09	66.667
224.46	17.857
224.84	366.667
225.21	-50.000
225.59	126.667
225.96	250.000
226.34	-75.000
226.71	100.000
227.08	0.000
227.46	100.000
227.83	-650.000
228.21	-33.333
228.58	-145.455
228.95	100.000
229.33	30.000
229.70	-6.250
230.08	50.000
230.45	71.429
230.82	100.000
231.20	40.000
231.57	107.143
231.95	0.000
232.32	-70.000
232.69	71.429
233.07	0.000
233.44	60.000
233.81	70.000
234.19	88.889
234.56	35.294
234.93	300.000
235.31	350.000
235.68	-120.000
236.05	-15.385
236.43	25.000
236.80	29.412
237.17	37.500
237.55	45.000
237.92	44.444
238.29	19.444
238.67	63.333
239.04	20.588
239.41	2.439
239.79	13.333
240.16	29.268
240.53	21.053
240.91	0.000
241.28	17.460
241.65	44.643
242.02	41.096
242.40	35.000
242.77	23.729
243.14	27.273
243.51	18.750
243.89	43.678
244.26	28.736
244.63	25.000
245.00	23.711
245.38	32.990
245.75	20.225
246.12	19.828
246.49	29.752
246.87	26.923
247.24	25.210
247.61	22.807
247.98	30.894
248.36	27.500
248.73	32.237
249.10	31.169
249.47	26.582
249.84	23.529
250.22	29.412
250.59	26.144
250.96	26.761
251.33	25.581
251.70	26.471
252.08	30.964
252.45	29.703
252.82	29.146
253.19	27.189
253.56	26.636
253.94	24.775
254.31	30.000
254.68	30.263
255.05	26.378
255.42	29.258
255.79	26.255
256.16	26.459
256.54	27.985
256.91	24.335
257.28	25.279
257.65	25.843
258.02	24.468
258.39	28.620
258.76	32.967
259.14	27.243
259.51	26.214
259.88	28.866
260.25	27.124
260.62	29.167
260.99	24.746
261.36	27.397
261.73	24.684
262.10	26.140
262.47	26.074
262.85	28.213
263.22	26.462
263.59	29.595
263.96	32.298
264.33	30.303
264.70	25.298
265.07	26.786
265.44	28.895
265.81	27.966
266.18	28.689
266.55	29.306
266.92	29.534
267.29	26.632
267.66	27.366
268.03	27.749
268.40	25.849
268.77	30.214
269.14	29.976
269.51	27.249
269.88	24.190
270.25	25.255
270.62	26.341
270.99	28.133
271.36	23.227
271.73	24.413
272.10	25.547
272.47	26.478
272.84	26.238
273.21	28.074
273.58	27.229
273.95	27.460
274.32	25.404
274.69	25.113
275.06	26.562
275.43	25.850
275.80	25.828
276.17	27.816
276.54	25.054
276.91	26.316
277.28	25.546
277.65	27.479
278.02	22.553
278.39	23.851
278.76	24.738
279.13	24.689
279.50	28.571
279.87	25.054
280.23	26.452
280.60	27.096
280.97	24.242
281.34	22.500
281.71	27.105
282.08	25.562
282.45	24.462
282.82	23.938
283.19	24.565
283.56	24.085
283.92	26.565
284.29	22.308
284.66	26.550
285.03	24.754
285.40	25.142
285.77	22.671
286.14	23.466
286.51	26.937
286.87	21.024
287.24	25.230
287.61	22.751
287.98	24.561
288.35	23.570
288.72	25.044
289.08	25.000
289.45	25.483
289.82	23.077
290.19	21.672
290.56	23.499
290.93	21.886
291.29	20.801
291.66	22.205
292.03	21.850
292.40	20.645
292.77	20.574
293.13	17.370
293.50	19.423
293.87	21.221
294.24	19.938
294.60	20.715
294.97	19.196
295.34	20.092
295.71	21.013
296.08	20.329
296.44	17.923
296.81	18.889
297.18	18.986
297.55	19.106
297.91	18.356
298.28	19.657
298.65	17.503
299.02	18.194
299.38	17.237
299.75	16.828
300.12	18.717
300.48	18.709
300.85	16.603
301.22	17.403
301.59	17.763
301.95	19.620
302.32	19.585
302.69	17.289
303.05	18.069
303.42	18.804
303.79	17.407
304.15	16.965
304.52	16.647
304.89	17.310
305.25	17.191
305.62	14.469
305.99	16.491
306.35	17.110
306.72	15.636
307.09	16.648
307.45	17.107
307.82	16.898
308.19	17.886
308.55	16.467
308.92	18.083
309.29	15.307
309.65	15.931
310.02	15.292
310.38	16.905
310.75	16.721
311.12	16.685
311.48	15.376
311.85	15.497
312.22	16.350
312.58	16.985
312.95	16.222
313.31	15.735
313.68	15.079
314.05	14.796
314.41	16.289
314.78	16.907
315.14	17.575
315.51	16.046
315.87	15.984
316.24	17.088
316.61	15.059
316.97	16.766
317.34	16.113
317.70	16.635
318.07	16.058
318.43	16.078
318.80	15.057
319.16	16.602
319.53	17.189
319.89	14.862
320.26	16.700
320.62	16.148
320.99	14.927
321.35	15.211
321.72	16.926
322.08	14.199
322.45	16.548
322.81	15.324
323.18	15.211
323.54	15.058
323.91	14.508
324.27	16.113
324.64	15.075
325.00	16.241
325.37	16.162
325.73	16.228
326.10	15.259
326.46	16.143
326.83	16.885
327.19	16.216
327.56	17.202
327.92	17.254
328.29	15.536
328.65	16.226
329.01	14.982
329.38	16.406
329.74	14.825
330.11	15.570
330.47	14.842
330.84	14.904
331.20	17.205
331.56	14.352
331.93	15.525
332.29	16.682
332.66	16.109
333.02	16.450
333.38	14.940
333.75	17.949
334.11	15.219
334.48	15.322
334.84	16.209
335.20	16.285
335.57	13.871
335.93	16.531
336.29	15.562
336.66	15.895
337.02	14.870
337.38	14.444
337.75	15.273
338.11	15.149
338.47	15.328
338.84	14.880
339.20	15.631
339.56	16.606
339.93	16.025
340.29	16.330
340.65	15.771
341.02	15.337
341.38	15.310
341.74	14.399
342.11	14.558
342.47	15.569
342.83	15.657
343.20	15.331
343.56	16.174
343.92	16.386
344.28	16.225
344.65	14.853
345.01	15.990
345.37	14.886
345.73	16.402
346.10	15.272
346.46	15.812
346.82	15.139
347.19	13.965
347.55	15.455
347.91	15.210
348.27	14.390
348.63	15.417
349.00	15.176
349.36	15.711
349.72	15.755
350.08	15.000
350.45	15.882
350.81	14.037
351.17	13.762
351.53	15.755
351.89	13.625
352.26	14.560
352.62	14.758
352.98	14.137
353.34	15.459
353.70	14.482
354.07	14.274
354.43	14.572
354.79	14.451
355.15	16.190
355.51	15.665
355.87	14.725
356.24	13.866
356.60	15.117
356.96	15.238
357.32	14.457
357.68	14.230
358.04	15.105
358.40	14.711
358.77	14.912
359.13	14.652
359.49	13.636
359.85	14.509
360.21	14.753
360.57	13.849
360.93	13.540
361.29	14.577
361.66	15.674
362.02	14.545
362.38	15.385
362.74	15.140
363.10	15.801
363.46	14.381
363.82	15.627
364.18	14.022
364.54	13.897
364.90	14.409
365.26	14.265
365.62	14.964
365.98	14.223
366.35	14.494
366.71	14.339
367.07	15.094
367.43	13.803
367.79	14.417
368.15	13.783
368.51	14.639
368.87	14.070
369.23	14.007
369.59	13.411
369.95	14.809
370.31	14.451
370.67	13.881
371.03	14.040
371.39	13.567
371.75	14.139
372.11	14.194
372.47	13.905
372.83	13.840
373.19	14.479
373.55	13.791
373.91	14.039
374.27	14.387
374.63	14.645
374.99	14.681
375.35	14.067
375.71	15.035
376.07	14.045
376.42	14.422
376.78	14.698
377.14	14.286
377.50	14.608
377.86	14.123
378.22	14.678
378.58	13.269
378.94	13.548
379.30	14.348
379.66	15.361
380.02	13.857
380.38	13.877
380.74	14.063
381.09	15.031
381.45	14.128
381.81	14.250
382.17	14.277
382.53	14.928
382.89	14.689
383.25	14.499
383.61	15.183
383.97	14.413
384.32	14.822
384.68	14.985
385.04	14.032
385.40	14.375
385.76	15.220
386.12	14.489
386.48	15.517
386.83	14.268
387.19	14.835
387.55	15.684
387.91	14.487
388.27	15.018
388.62	15.607
388.98	14.426
389.34	15.678
389.70	15.103
390.06	14.663
390.42	15.415
390.77	14.977
391.13	13.871
391.49	14.554
391.85	14.880
392.20	14.878
392.56	15.194
392.92	15.443
393.28	14.976
393.64	15.195
393.99	15.925
394.35	15.497
394.71	16.028
395.07	14.393
395.42	15.422
395.78	14.593
396.14	14.187
396.50	15.472
396.85	15.647
397.21	14.474
397.57	14.420
397.92	15.219
398.28	14.598
398.64	14.518
399.00	15.068
399.35	15.745
399.71	14.991
400.07	15.175
400.42	15.300
400.78	16.228
401.14	15.608
401.49	15.545
401.85	14.991
402.21	15.120
402.57	15.062
402.92	14.617
403.28	16.040
403.63	14.754
403.99	15.051
404.35	14.741
404.70	15.238
405.06	14.512
405.42	14.730
405.77	14.062
406.13	14.785
406.49	14.565
406.84	15.342
407.20	15.653
407.55	14.874
407.91	15.040
408.27	14.723
408.62	15.138
408.98	15.157
409.34	15.923
409.69	15.375
410.05	16.133
410.40	14.938
410.76	15.320
411.11	15.688
411.47	15.253
411.83	14.564
412.18	14.286
412.54	15.044
412.89	14.655
413.25	14.922
413.60	14.534
413.96	15.215
414.31	15.305
414.67	15.266
415.03	14.714
415.38	14.621
415.74	15.765
416.09	15.676
416.45	15.463
416.80	16.061
417.16	16.091
417.51	15.523
417.87	15.776
418.22	15.285
418.58	16.120
418.93	16.552
419.29	14.661
419.64	14.517
420.00	16.184
420.35	15.761
420.71	16.221
421.06	14.917
421.42	15.805
421.77	15.260
422.12	15.040
422.48	15.539
422.83	15.197
423.19	15.519
423.54	15.755
423.90	16.078
424.25	16.016
424.61	15.912
424.96	15.331
425.31	16.176
425.67	15.962
426.02	16.078
426.38	15.780
426.73	16.102
427.09	16.076
427.44	16.176
427.79	15.910
428.15	16.019
428.50	15.809
428.85	15.295
429.21	15.959
429.56	16.550
429.92	15.511
430.27	16.391
430.62	15.369
430.98	15.446
431.33	16.036
431.68	15.751
432.04	15.372
432.39	15.916
432.74	15.695
433.10	17.069
433.45	16.069
433.80	15.496
434.16	15.623
434.51	15.430
434.86	16.318
435.22	17.218
435.57	16.282
435.92	16.707
436.28	16.398
436.63	15.630
436.98	16.107
437.34	15.850
437.69	16.339
438.04	15.670
438.39	16.432
438.75	17.122
439.10	16.016
439.45	17.225
439.81	16.086
440.16	16.508
440.51	16.358
440.86	17.644
441.22	16.572
441.57	16.611
441.92	17.261
442.27	16.075
442.63	17.505
442.98	17.117
443.33	16.249
443.68	17.294
444.03	16.791
444.39	16.822
444.74	16.722
445.09	16.927
445.44	17.151
445.79	17.586
446.15	16.685
446.50	16.528
446.85	17.003
447.20	17.153
447.55	16.964
447.91	16.864
448.26	17.075
448.61	17.789
448.96	17.326
449.31	17.457
449.66	16.725
450.02	16.942
450.37	17.190
450.72	16.552
451.07	18.165
451.42	17.478
451.77	17.058
452.12	16.806
452.47	17.193
452.83	18.433
453.18	17.204
453.53	17.826
453.88	17.061
454.23	18.009
454.58	17.506
454.93	18.750
455.28	17.270
455.63	17.483
455.98	18.160
456.34	18.582
456.69	17.980
457.04	18.652
457.39	17.801
457.74	17.594
458.09	16.951
458.44	17.145
458.79	17.311
459.14	18.078
459.49	18.507
459.84	17.654
460.19	17.476
460.54	18.215
460.89	18.239
461.24	19.006
461.59	17.874
461.94	17.044
462.29	18.335
462.64	17.874
462.99	17.874
463.34	17.872
463.69	18.082
464.04	17.978
464.39	18.072
464.74	18.160
465.09	17.966
465.44	18.292
465.79	17.290
466.14	18.529
466.49	17.884
466.84	17.906
467.19	19.462
467.54	17.625
467.89	17.814
468.24	18.127
468.59	18.667
468.94	18.032
469.29	19.410
469.64	17.977
469.99	19.411
470.34	17.679
470.68	19.090
471.03	18.188
471.38	19.401
471.73	19.468
472.08	18.725
472.43	17.651
472.78	18.300
473.13	19.116
473.48	19.023
473.83	18.244
474.17	18.912
474.52	19.783
474.87	17.576
475.22	19.036
475.57	18.690
475.92	18.541
476.27	18.917
476.61	18.981
476.96	17.680
477.31	18.551
477.66	18.483
478.01	19.315
478.36	19.118
478.70	18.543
479.05	18.626
479.40	18.442
479.75	17.935
480.10	18.228
480.45	19.050
480.79	18.479
481.14	18.648
481.49	18.867
481.84	18.726
482.19	18.195
482.53	19.568
482.88	18.759
483.23	18.378
483.58	19.104
483.92	18.780
484.27	18.459
484.62	17.750
484.97	18.449
485.31	18.100
485.66	17.706
486.01	17.344
486.36	17.076
486.70	17.315
487.05	17.154
487.40	17.528
487.75	17.859
488.09	17.213
488.44	18.363
488.79	18.379
489.13	18.309
489.48	18.854
489.83	19.193
490.17	19.326
490.52	18.707
490.87	18.926
491.22	18.863
491.56	18.738
491.91	19.503
492.26	18.571
492.60	19.146
492.95	19.429
493.30	18.661
493.64	19.990
493.99	19.372
494.34	19.272
494.68	19.429
495.03	18.881
495.37	19.578
495.72	19.182
496.07	19.366
496.41	18.585
496.76	18.977
497.11	18.398
497.45	19.570
497.80	20.131
498.14	19.473
498.49	19.299
498.84	19.012
499.18	20.231
499.53	19.544
499.87	19.018
500.22	19.238
500.56	19.869
500.91	19.829
501.26	18.487
501.60	19.429
501.95	19.505
502.29	19.855
502.64	19.643
502.98	19.832
503.33	18.540
503.67	18.988
504.02	19.746
504.36	20.188
504.71	19.444
505.06	19.175
505.40	19.543
505.75	19.845
506.09	20.172
506.44	20.688
506.78	20.306
507.13	19.752
507.47	18.799
507.82	19.925
508.16	20.232
508.51	20.094
508.85	20.460
509.19	19.425
509.54	20.375
509.88	20.173
510.23	20.065
510.57	19.615
510.92	18.977
511.26	20.185
511.61	19.802
511.95	20.110
512.30	20.067
512.64	20.646
512.98	20.213
513.33	20.761
513.67	19.727
514.02	21.739
514.36	20.343
514.70	21.096
515.05	20.858
515.39	20.661
515.74	21.557
516.08	20.801
516.42	21.731
516.77	20.889
517.11	21.662
517.46	21.005
517.80	20.441
518.14	20.086
518.49	20.913
518.83	21.142
519.17	20.012
519.52	19.657
519.86	20.588
520.20	20.778
520.55	20.513
520.89	22.271
521.23	21.723
521.58	21.956
521.92	20.833
522.26	21.470
522.61	21.169
522.95	21.921
523.29	21.410
523.64	21.347
523.98	21.841
524.32	20.619
524.66	22.151
525.01	21.494
525.35	22.165
525.69	20.808
526.04	22.024
526.38	23.346
526.72	20.929
527.06	20.817
527.41	21.504
527.75	20.710
528.09	21.993
528.43	22.147
528.78	21.452
529.12	21.613
529.46	21.118
529.80	21.723
530.15	22.310
530.49	20.943
530.83	21.614
531.17	21.424
531.51	21.067
531.86	21.686
532.20	20.946
532.54	21.307
532.88	22.313
533.22	20.766
533.57	20.904
533.91	21.084
534.25	21.289
534.59	20.911
534.93	20.768
535.27	19.670
535.62	20.674
535.96	21.592
536.30	22.164
536.64	22.192
536.98	20.836
537.32	21.408
537.66	21.950
538.01	22.098
538.35	21.221
538.69	21.172
539.03	21.736
539.37	21.669
539.71	21.677
540.05	21.385
540.39	21.953
540.73	21.409
541.07	22.583
541.42	21.640
541.76	21.817
542.10	21.817
542.44	21.890
542.78	20.647
543.12	20.879
543.46	21.627
543.80	22.346
544.14	20.160
544.48	21.719
544.82	21.668
545.16	21.995
545.50	21.629
545.84	22.450
546.18	22.128
546.52	22.350
546.86	21.352
547.20	21.245
547.54	20.919
547.88	21.060
548.22	21.105
548.56	21.702
548.90	21.968
549.24	21.970
549.58	21.086
549.92	21.515
550.26	21.612
550.60	21.561
550.94	21.434
551.28	22.257
551.62	22.538
551.96	22.556
552.30	22.222
552.64	21.368
552.98	21.660
553.32	21.826
553.66	21.263
554.00	21.679
554.34	22.304
554.68	21.313
555.02	22.545
555.36	21.840
555.69	21.465
556.03	21.699
556.37	21.708
556.71	21.444
557.05	21.626
557.39	21.115
557.73	22.789
558.07	23.228
558.41	21.822
558.75	23.149
559.08	22.301
559.42	22.222
559.76	22.578
560.10	22.248
560.44	21.072
560.78	21.818
561.12	22.214
561.45	22.207
561.79	22.059
562.13	22.569
562.47	21.799
562.81	22.046
563.15	21.932
563.48	22.065
563.82	21.551
564.16	21.309
564.50	21.554
564.84	21.486
565.17	21.529
565.51	21.995
565.85	22.359
566.19	21.552
566.52	22.051
566.86	22.494
567.20	20.361
567.54	20.255
567.88	20.680
568.21	20.305
568.55	19.728
568.89	20.893
569.23	19.933
569.56	20.009
569.90	20.341
570.24	18.980
570.57	18.982
570.91	19.066
571.25	18.152
571.59	18.437
571.92	18.015
572.26	19.022
572.60	18.791
572.93	18.701
573.27	18.150
573.61	18.467
573.95	18.487
574.28	17.956
574.62	18.205
574.96	18.250
575.29	18.400
575.63	17.569
575.97	17.945
576.30	17.936
576.64	18.013
576.98	17.941
577.31	18.211
577.65	18.188
577.98	17.773
578.32	17.539
578.66	17.451
578.99	17.431
579.33	18.036
579.67	17.764
580.00	18.127
580.34	17.612
580.67	17.186
581.01	17.867
581.35	17.657
581.68	17.713
582.02	17.067
582.35	17.103
582.69	17.608
583.02	17.154
583.36	17.648
583.70	18.017
584.03	18.182
584.37	18.210
584.70	18.159
585.04	17.565
585.37	17.666
585.71	17.650
586.04	17.549
586.38	17.765
586.72	18.451
587.05	18.486
587.39	18.311
587.72	18.644
588.06	17.963
588.39	18.086
588.73	18.742
589.06	18.819
589.40	18.597
589.73	19.569
590.07	19.637
590.40	19.195
590.73	19.728
591.07	19.423
591.40	19.902
591.74	19.638
592.07	20.223
592.41	20.141
592.74	19.434
593.08	18.512
593.41	18.814
593.75	18.678
594.08	18.469
594.41	18.705
594.75	18.855
595.08	19.296
595.42	18.992
595.75	19.377
596.09	19.273
596.42	19.388
596.75	19.671
597.09	20.364
597.42	19.467
597.75	20.156
598.09	19.602
598.42	18.998
598.76	19.691
599.09	19.551
599.42	18.795
599.76	19.150
600.09	18.816
600.42	19.143
600.76	18.834
601.09	18.588
601.42	18.841
601.76	18.698
602.09	19.101
602.42	19.587
602.76	19.482
603.09	19.186
603.42	19.732
603.76	18.750
604.09	18.915
604.42	20.051
604.76	20.427
605.09	20.475
605.42	19.774
605.75	20.096
606.09	19.533
606.42	19.600
606.75	19.221
607.09	20.000
607.42	19.406
607.75	19.094
608.08	19.317
608.42	19.415
608.75	19.855
609.08	19.283
609.41	19.695
609.75	20.060
610.08	19.870
610.41	19.614
610.74	19.600
611.07	19.793
611.41	20.135
611.74	21.109
612.07	19.379
612.40	20.678
612.73	19.548
613.07	20.079
613.40	20.350
613.73	20.369
614.06	20.256
614.39	20.699
614.72	19.888
615.06	20.615
615.39	20.688
615.72	19.752
616.05	20.615
616.38	20.228
616.71	19.878
617.05	20.383
617.38	20.679
617.71	20.063
618.04	21.333
618.37	22.383
618.70	21.716
619.03	21.875
619.36	20.695
619.69	21.531
620.03	21.695
620.36	22.461
620.69	21.627
621.02	21.942
621.35	23.568
621.68	22.449
622.01	22.500
622.34	22.346
622.67	22.319
623.00	22.129
623.33	21.646
623.66	21.466
623.99	21.785
624.32	22.738
624.65	21.729
624.99	22.197
625.32	21.228
625.65	22.781
625.98	22.885
626.31	21.613
626.64	22.530
626.97	24.869
627.30	22.942
627.63	22.444
627.96	22.372
628.29	23.034
628.62	24.287
628.95	23.848
629.28	22.984
629.61	23.430
629.94	24.340
630.26	23.221
630.59	24.558
630.92	23.590
631.25	24.205
631.58	24.449
631.91	24.232
632.24	23.050
632.57	25.000
632.90	24.674
633.23	26.000
633.56	24.811
633.89	24.538
634.22	25.679
634.55	25.413
634.88	24.010
635.20	24.872
635.53	24.933
635.86	24.447
636.19	26.261
636.52	25.255
636.85	24.442
637.18	24.906
637.51	24.780
637.83	24.573
638.16	25.102
638.49	25.886
638.82	26.053
639.15	23.474
639.48	26.135
639.81	25.802
640.13	25.541
640.46	26.093
640.79	24.890
641.12	24.963
641.45	26.126
641.77	27.407
642.10	28.594
642.43	27.653
642.76	29.868
643.09	27.625
643.41	26.699
643.74	26.524
644.07	26.929
644.40	27.703
644.73	26.795
645.05	27.852
645.38	28.042
645.71	25.887
646.04	27.469
646.36	28.191
646.69	28.417
647.02	29.490
647.35	26.493
647.67	27.239
648.00	30.037
648.33	27.474
648.66	26.949
648.98	25.293
649.31	23.471
649.64	25.589
649.96	24.959
650.29	26.576
650.62	27.521
650.94	28.148
651.27	25.512
651.60	27.928
651.92	27.972
652.25	26.465
652.58	27.333
652.90	26.930
653.23	26.050
653.56	25.212
653.88	28.179
654.21	25.744
654.54	25.467
654.86	24.958
655.19	24.708
655.52	22.291
655.84	18.045
656.17	19.203
656.49	25.674
656.82	26.550
657.15	20.261
657.47	15.118
657.80	11.154
658.13	11.111
658.45	16.909
658.78	17.534
659.10	17.256
659.43	18.228
659.75	19.388
660.08	19.862
660.41	24.311
660.73	23.895
661.06	26.863
661.38	27.006
661.71	24.641
662.03	28.541
662.36	27.692
662.68	27.876
663.01	28.384
663.33	26.682
663.66	29.302
663.98	27.674
664.31	26.439
664.63	26.498
664.96	25.217
665.28	24.724
665.61	27.273
665.93	28.478
666.26	26.247
666.58	26.174
666.91	27.765
667.23	28.538
667.56	29.384
667.88	27.338
668.21	29.594
668.53	28.369
668.86	29.953
669.18	29.717
669.50	26.877
669.83	26.512
670.15	27.739
670.48	26.316
670.80	28.341
671.13	26.174
671.45	26.941
671.77	29.185
672.10	27.723
672.42	23.034
672.75	25.933
673.07	26.655
673.39	28.073
673.72	22.682
674.04	25.625
674.37	28.178
674.69	26.124
675.01	26.222
675.34	29.054
675.66	27.546
675.98	28.381
676.31	25.688
676.63	28.266
676.95	25.000
677.28	29.647
677.60	26.265
677.92	28.440
678.25	28.665
678.57	24.459
678.89	26.471
679.22	27.964
679.54	22.892
679.86	23.459
680.18	26.602
680.51	26.894
680.83	24.652
681.15	24.400
681.48	24.385
681.80	27.273
682.12	24.798
682.44	25.732
682.77	26.049
683.09	29.062
683.41	26.818
683.73	26.498
684.06	25.442
684.38	25.806
684.70	27.233
685.02	24.896
685.34	25.692
685.67	25.516
685.99	25.859
686.31	24.956
686.63	24.490
686.96	22.624
687.28	23.030
687.60	22.433
687.92	25.657
688.24	26.008
688.56	26.856
688.89	25.223
689.21	29.333
689.53	26.682
689.85	23.953
690.17	26.116
690.49	27.423
690.82	23.058
691.14	25.952
691.46	27.570
691.78	26.126
692.10	27.312
692.42	27.056
692.74	27.778
693.06	24.775
693.39	24.887
693.71	22.624
694.03	25.404
694.35	26.636
694.67	26.515
694.99	23.760
695.31	23.499
695.63	27.000
695.95	23.737
696.27	26.943
696.59	31.389
696.91	24.090
697.23	26.478
697.56	26.238
697.88	24.946
698.20	25.968
698.52	25.647
698.84	23.923
699.16	23.750
699.48	27.820
699.80	26.799
700.12	25.606
700.44	26.050
700.76	22.674
701.08	26.061
701.40	25.000
701.72	29.321
702.04	28.383
702.36	30.769
702.68	21.622
703.00	26.364
703.32	30.499
703.64	21.469
703.96	28.696
704.28	28.221
704.60	29.206
704.91	26.814
705.23	31.561
705.55	24.735
705.87	33.574
706.19	28.148
706.51	27.148
706.83	27.974
707.15	23.053
707.47	28.852
707.79	23.438
708.11	27.250
708.43	23.250
708.74	26.098
709.06	28.169
709.38	26.911
709.70	26.923
710.02	29.618
710.34	27.245
710.66	23.397
710.98	23.841
711.29	31.803
711.61	25.763
711.93	28.664
712.25	33.677
712.57	26.740
712.89	25.000
713.20	26.990
713.52	24.739
713.84	27.304
714.16	25.430
714.48	26.452
714.80	22.436
715.11	29.483
715.43	28.527
715.75	25.333
716.07	26.910
716.39	29.195
716.70	25.461
717.02	27.099
717.34	29.150
717.66	33.628
717.97	26.957
718.29	27.615
718.61	27.559
718.93	27.907
719.24	30.798
719.56	28.514
719.88	27.835
720.20	28.409
720.51	24.904
720.83	27.799
721.15	29.832
721.46	25.403
721.78	27.273
722.10	27.509
722.42	24.896
722.73	24.898
723.05	28.571
723.37	32.627
723.68	32.432
724.00	27.778
724.32	28.889
724.63	24.091
724.95	31.004
725.27	23.963
725.58	33.051
725.90	25.397
726.22	28.958
726.53	26.441
726.85	27.715
727.16	29.811
727.48	25.101
727.80	30.364
728.11	25.000
728.43	23.529
728.74	25.806
729.06	23.600
729.38	35.714
729.69	22.311
730.01	25.000
730.32	28.358
730.64	23.675
730.96	26.792
731.27	28.000
731.59	24.746
731.90	27.389
732.22	26.814
732.53	28.571
732.85	27.305
733.16	28.956
733.48	20.504
733.80	28.261
734.11	25.763
734.43	24.055
734.74	25.758
735.06	22.801
735.37	25.680
735.69	28.956
736.00	21.603
736.32	25.503
736.63	23.239
736.95	25.597
737.26	26.335
737.58	21.477
737.89	26.740
738.21	26.316
738.52	25.103
738.83	25.328
739.15	22.707
739.46	27.953
739.78	20.879
740.09	24.183
740.41	27.536
740.72	25.197
741.04	27.530
741.35	25.532
741.66	28.436
741.98	29.082
742.29	28.713
742.61	33.508
742.92	18.483
743.23	20.833
743.55	27.602
743.86	23.923
744.18	27.273
744.49	30.319
744.80	26.087
745.12	24.064
745.43	20.488
745.74	32.292
746.06	26.829
746.37	34.031
746.68	30.806
747.00	29.787
747.31	32.836
747.62	32.039
747.94	23.445
748.25	24.257
748.56	27.322
748.88	27.225
749.19	31.383
749.50	33.990
749.82	14.623
750.13	23.853
750.44	33.083
750.75	26.119
751.07	28.832
751.38	26.437
751.69	21.176
752.01	26.744
752.32	24.303
752.63	28.854
752.94	23.707
753.26	33.054
753.57	23.982
753.88	26.549
754.19	25.833
754.51	28.512
754.82	26.721
755.13	32.083
755.44	21.371
755.75	26.953
756.07	23.346
756.38	23.396
756.69	24.521
757.00	22.333
757.31	22.549
757.63	23.171
757.94	23.333
758.25	23.014
758.56	21.809
758.87	20.113
759.18	23.053
759.50	23.273
759.81	25.084
760.12	24.194
760.43	20.909
760.74	20.062
761.05	20.000
761.36	24.148
761.67	22.121
761.99	24.490
762.30	18.909
762.61	25.296
762.92	22.624
763.23	26.577
763.54	21.963
763.85	26.271
764.16	26.971
764.47	24.597
764.78	24.908
765.10	24.916
765.41	23.028
765.72	21.905
766.03	21.429
766.34	22.263
766.65	23.108
766.96	24.242
767.27	27.128
767.58	24.713
767.89	24.823
768.20	26.136
768.51	26.374
768.82	23.153
769.13	25.346
769.44	21.030
769.75	18.265
770.06	29.310
770.37	24.519
770.68	25.888
770.99	22.172
771.30	26.961
771.61	24.434
771.92	21.552
772.23	25.616
772.54	25.806
772.85	25.926
773.16	23.034
773.47	31.373
773.78	30.719
774.09	31.138
774.39	25.333
774.70	23.567
775.01	35.172
775.32	34.286
775.63	23.967
775.94	25.954
776.25	25.984
776.56	30.000
776.87	25.962
777.18	20.513
777.48	25.862
777.79	25.217
778.10	16.190
778.41	29.730
778.72	26.984
779.03	34.586
779.34	29.787
779.65	24.658
779.95	21.233
780.26	26.207
780.57	23.577
780.88	29.921
781.19	22.414
781.50	27.132
781.80	24.260
782.11	18.239
782.42	36.154
782.73	25.899
783.04	22.222
783.34	23.611
783.65	11.966
783.96	22.131
784.27	31.724
784.57	29.268
784.88	32.031
785.19	28.000
785.50	31.000
785.81	26.724
786.11	25.000
786.42	27.184
786.73	27.273
787.04	19.388
787.34	43.750
787.65	30.476
787.96	14.159
788.26	40.000
788.57	29.915
788.88	29.687
789.19	23.016
789.49	30.435
789.80	22.449
790.11	37.374
790.41	20.909
790.72	31.522
791.03	34.091
791.33	32.500
791.64	31.250
791.95	26.744
792.25	30.851
792.56	32.584
792.87	30.137
793.17	20.290
793.48	28.000
793.79	28.750
794.09	48.750
794.40	22.642
794.70	18.447
795.01	17.886
795.32	26.496
795.62	14.286
795.93	24.510
796.23	22.642
796.54	31.250
796.85	33.824
797.15	30.986
797.46	30.556
797.76	40.909
798.07	26.744
798.37	14.474
798.68	22.727
798.99	24.691
799.29	32.857
799.60	36.232
799.90	37.333
800.21	21.311
800.51	24.615
800.82	27.119
801.12	34.783
801.43	42.623
801.73	30.159
802.04	32.000
802.34	25.373
802.65	44.231
802.95	26.786
803.26	30.769
803.56	13.725
803.87	19.565
804.17	29.333
804.48	36.508
804.78	16.667
805.09	13.043
805.39	35.556
805.70	31.481
806.00	1.754
806.30	35.211
806.61	24.286
806.91	8.333
807.22	31.579
807.52	26.667
807.83	23.636
808.13	13.889
808.43	38.235
808.74	22.388
809.04	23.729
809.35	30.769
809.65	39.063
809.95	2.703
810.26	-4.545
810.56	30.137
810.86	16.667
811.17	28.000
811.47	36.735
811.77	21.053
812.08	11.364
812.38	5.660
812.69	35.000
812.99	21.212
813.29	23.684
813.59	11.429
813.90	54.545
814.20	28.205
814.50	30.769
814.81	28.302
815.11	8.511
815.41	37.288
815.72	35.714
816.02	21.569
816.32	27.083
816.62	26.829
816.93	16.216
817.23	28.571
817.53	35.417
817.84	26.087
818.14	32.692
818.44	23.684
818.74	28.261
819.04	0.000
819.35	5.405
819.65	29.412
819.95	19.444
820.25	30.952
820.56	32.500
820.86	-3.448
821.16	35.000
821.46	31.915
821.76	25.000
822.07	37.209
822.37	10.811
822.67	9.375
822.97	42.857
823.27	35.714
823.57	16.000
823.88	11.111
824.18	7.143
824.48	35.294
824.78	35.484
825.08	21.739
825.38	42.424
825.69	0.000
825.99	15.789
826.29	30.556
826.59	120.000
826.89	19.048
827.19	28.261
827.49	25.000
827.79	34.286
828.09	67.857
828.39	36.364
828.70	56.757
829.00	60.714
829.30	4.762
829.60	33.333
829.90	18.750
830.20	31.579
830.50	-3.704
830.80	13.043
831.10	9.091
831.40	54.545
831.70	58.065
832.00	71.429
832.30	47.619
832.60	8.333
832.90	55.172
833.20	10.000
833.50	51.515
833.80	29.630
834.10	34.615
834.40	40.625
834.70	-11.111
835.00	63.158
835.30	26.923
835.60	126.667
835.90	29.032
836.20	31.818
836.50	35.714
836.80	0.000
837.10	25.000
837.40	166.667
837.70	63.636
838.00	-36.364
838.30	21.739
838.60	69.231
838.90	63.636
839.19	35.714
839.49	26.667
839.79	130.769
840.09	-25.000
840.39	32.143
840.69	3.571
840.99	7.692
841.29	-10.526
841.59	-90.000
841.88	54.545
842.18	60.000
842.48	18.750
842.78	60.000
843.08	48.148
843.38	-110.000
843.68	21.739
843.97	66.667
844.27	26.667
844.57	25.000
844.87	44.444
845.17	28.571
845.47	-6.667
845.76	38.095
846.06	70.588
846.36	90.000
846.66	-14.286
846.96	-6.667
847.25	-37.500
847.55	50.000
847.85	137.500
848.15	-50.000
848.44	-33.333
848.74	115.000
849.04	66.667
849.34	81.818
849.63	-100.000
849.93	20.000
850.23	-33.333
850.53	140.000
850.82	30.769
851.12	22.222
851.42	66.667
851.71	11.538
852.01	64.286
852.31	225.000
852.61	0.000
852.90	0.000
853.20	52.632
853.50	83.333
853.79	43.478
854.09	58.333
854.39	42.105
854.68	16.667
854.98	12.903
855.28	92.308
855.57	-20.000
855.87	44.444
856.17	29.630
856.46	85.714
856.76	-53.333
857.05	188.889
857.35	36.000
857.65	16.667
857.94	-38.462
858.24	68.966
858.53	77.778
858.83	25.926
859.13	36.364
859.42	39.130
859.72	-75.000
860.01	-266.667
860.31	52.000
860.60	42.857
860.90	33.333
861.20	-13.333
861.49	150.000
861.79	-13.333
862.08	90.000
862.38	86.667
862.67	80.000
862.97	-16.667
863.26	16.667
863.56	38.889
863.85	-366.667
864.15	44.444
864.44	60.000
864.74	57.143
865.03	225.000
865.33	-20.000
865.62	133.333
865.92	133.333
866.21	0.000
866.51	25.000
866.80	9.091
867.10	400.000
867.39	116.667
867.69	0.000
867.98	107.692
868.27	33.333
868.57	53.333
868.86	11.111
869.16	-15.385
869.45	113.333
869.75	400.000
870.04	0.000
870.33	-42.857
870.63	61.905
870.92	-200.000
871.22	-100.000
871.51	-100.000
871.80	100.000
872.10	400.000
>>>>>End Processed Spectral Data<<<<<
