SpectraSuite Data File
++++++++++++++++++++++++++++++++++++
Date: Fri May 15 20:08:43 PDT 2015
User: schluterlab
Dark Spectrum Present: Yes
Reference Spectrum Present: Yes
Number of Sampled Component Spectra: 1
Spectrometers: USB2E3373
Integration Time (usec): 3000 (USB2E3373)
Spectra Averaged: 3 (USB2E3373)
Boxcar Smoothing: 0 (USB2E3373)
Correct for Electrical Dark: No (USB2E3373)
Strobe/Lamp Enabled: No (USB2E3373)
Correct for Detector Non-linearity: No (USB2E3373)
Correct for Stray Light: No (USB2E3373)
Number of Pixels in Processed Spectrum: 2048
>>>>>Begin Processed Spectral Data<<<<<
178.53	0.000
178.91	0.000
179.29	100.000
179.67	-300.000
180.04	-14.286
180.42	50.000
180.80	300.000
181.18	-133.333
181.56	-350.000
181.94	0.000
182.31	600.000
182.69	-100.000
183.07	-300.000
183.45	-60.000
183.83	133.333
184.20	18.182
184.58	-0.000
184.96	75.000
185.34	-233.333
185.72	0.000
186.09	46.154
186.47	-600.000
186.85	166.667
187.23	100.000
187.61	-200.000
187.98	-166.667
188.36	55.556
188.74	-333.333
189.12	58.824
189.49	66.667
189.87	0.000
190.25	100.000
190.63	50.000
191.00	200.000
191.38	-10.526
191.76	450.000
192.14	-0.000
192.51	-50.000
192.89	44.444
193.27	-42.857
193.65	166.667
194.02	54.545
194.40	90.000
194.78	-212.500
195.15	-8.333
195.53	-100.000
195.91	225.000
196.29	-50.000
196.66	53.846
197.04	157.143
197.42	-77.778
197.79	-433.333
198.17	-53.846
198.55	500.000
198.92	-266.667
199.30	400.000
199.68	100.000
200.05	-166.667
200.43	0.000
200.81	-333.333
201.18	133.333
201.56	1000.000
201.94	200.000
202.31	-333.333
202.69	-280.000
203.07	75.000
203.44	700.000
203.82	0.000
204.19	42.857
204.57	-333.333
204.95	37.500
205.32	30.000
205.70	0.000
206.08	0.000
206.45	200.000
206.83	-21.429
207.20	-100.000
207.58	800.000
207.96	-100.000
208.33	-80.000
208.71	-125.000
209.08	-50.000
209.46	-300.000
209.84	100.000
210.21	100.000
210.59	42.857
210.96	150.000
211.34	-100.000
211.71	80.000
212.09	0.000
212.46	-1500.000
212.84	0.000
213.22	90.000
213.59	400.000
213.97	15.385
214.34	54.545
214.72	33.333
215.09	275.000
215.47	30.769
215.84	-72.727
216.22	-200.000
216.59	50.000
216.97	250.000
217.34	175.000
217.72	-100.000
218.09	75.000
218.47	112.500
218.84	-1100.000
219.22	-33.333
219.59	120.000
219.97	266.667
220.34	-25.000
220.72	-57.143
221.09	-100.000
221.47	50.000
221.84	-600.000
222.22	-550.000
222.59	145.455
222.97	58.333
223.34	266.667
223.72	-7.143
224.09	-23.810
224.46	39.286
224.84	166.667
225.21	20.000
225.59	53.333
225.96	150.000
226.34	425.000
226.71	-28.571
227.08	116.667
227.46	0.000
227.83	500.000
228.21	11.111
228.58	72.727
228.95	62.500
229.33	130.000
229.70	-12.500
230.08	0.000
230.45	14.286
230.82	71.429
231.20	20.000
231.57	35.714
231.95	85.714
232.32	-30.000
232.69	71.429
233.07	-166.667
233.44	160.000
233.81	-40.000
234.19	55.556
234.56	23.529
234.93	-0.000
235.31	300.000
235.68	-80.000
236.05	-46.154
236.43	20.000
236.80	0.000
237.17	46.875
237.55	45.000
237.92	18.519
238.29	25.000
238.67	56.667
239.04	41.176
239.41	29.268
239.79	40.000
240.16	43.902
240.53	44.737
240.91	45.652
241.28	30.159
241.65	55.357
242.02	35.616
242.40	60.000
242.77	45.763
243.14	51.515
243.51	52.500
243.89	56.322
244.26	24.138
244.63	54.762
245.00	54.639
245.38	59.794
245.75	41.573
246.12	36.207
246.49	47.107
246.87	54.808
247.24	38.655
247.61	35.088
247.98	40.650
248.36	34.375
248.73	41.447
249.10	37.662
249.47	40.506
249.84	48.366
250.22	41.765
250.59	42.484
250.96	43.192
251.33	41.279
251.70	46.471
252.08	44.670
252.45	42.079
252.82	42.714
253.19	49.770
253.56	40.654
253.94	41.441
254.31	44.783
254.68	43.421
255.05	42.126
255.42	44.978
255.79	46.332
256.16	45.136
256.54	49.627
256.91	41.825
257.28	42.379
257.65	41.573
258.02	41.135
258.39	46.801
258.76	47.985
259.14	43.522
259.51	44.660
259.88	41.581
260.25	45.752
260.62	47.569
260.99	40.678
261.36	42.466
261.73	44.304
262.10	44.681
262.47	43.865
262.85	43.574
263.22	43.077
263.59	45.171
263.96	48.758
264.33	43.333
264.70	44.643
265.07	44.345
265.44	45.042
265.81	46.893
266.18	45.902
266.55	44.216
266.92	44.819
267.29	45.953
267.66	41.688
268.03	45.812
268.40	42.037
268.77	46.524
269.14	45.564
269.51	46.015
269.88	44.140
270.25	41.837
270.62	41.707
270.99	43.734
271.36	42.054
271.73	40.610
272.10	45.742
272.47	43.972
272.84	43.564
273.21	42.923
273.58	43.614
273.95	41.876
274.32	42.263
274.69	41.176
275.06	42.188
275.43	43.764
275.80	43.709
276.17	44.368
276.54	39.829
276.91	41.667
277.28	39.956
277.65	44.008
278.02	40.638
278.39	42.451
278.76	43.396
279.13	40.664
279.50	42.017
279.87	39.309
280.23	40.215
280.60	40.156
280.97	43.434
281.34	38.077
281.71	44.969
282.08	42.331
282.45	40.509
282.82	43.050
283.19	40.039
283.56	42.004
283.92	37.951
284.29	41.346
284.66	37.209
285.03	40.079
285.40	40.454
285.77	39.543
286.14	40.072
286.51	39.483
286.87	38.757
287.24	42.541
287.61	39.683
287.98	40.351
288.35	39.168
288.72	41.856
289.08	38.368
289.45	40.422
289.82	39.860
290.19	37.372
290.56	37.221
290.93	35.859
291.29	34.515
291.66	35.276
292.03	35.247
292.40	36.290
292.77	35.726
293.13	33.929
293.50	31.259
293.87	32.519
294.24	36.476
294.60	32.787
294.97	34.077
295.34	34.356
295.71	33.532
296.08	32.735
296.44	31.294
296.81	31.806
297.18	31.014
297.55	31.301
297.91	31.644
298.28	31.662
298.65	30.801
299.02	30.863
299.38	28.454
299.75	30.759
300.12	31.414
300.48	30.303
300.85	29.278
301.22	28.961
301.59	29.342
301.95	31.139
302.32	32.166
302.69	29.726
303.05	30.446
303.42	29.141
303.79	29.089
304.15	27.957
304.52	27.943
304.89	29.006
305.25	27.240
305.62	27.655
305.99	29.240
306.35	27.977
306.72	27.672
307.09	27.936
307.45	28.473
307.82	28.125
308.19	29.036
308.55	25.845
308.92	27.778
309.29	28.715
309.65	27.664
310.02	27.723
310.38	27.881
310.75	27.760
311.12	27.557
311.48	26.723
311.85	26.597
312.22	28.270
312.58	27.070
312.95	26.894
313.31	27.743
313.68	27.330
314.05	26.020
314.41	27.835
314.78	27.423
315.14	28.160
315.51	27.640
315.87	25.615
316.24	28.109
316.61	26.969
316.97	27.282
317.34	27.051
317.70	27.725
318.07	27.115
318.43	27.157
318.80	28.030
319.16	27.441
319.53	27.255
319.89	27.953
320.26	28.543
320.62	28.084
320.99	27.557
321.35	27.441
321.72	28.972
322.08	29.809
322.45	29.543
322.81	29.273
323.18	28.459
323.54	29.344
323.91	27.264
324.27	29.004
324.64	28.558
325.00	29.197
325.37	30.119
325.73	28.558
326.10	28.701
326.46	28.879
326.83	30.446
327.19	28.160
327.56	30.148
327.92	30.370
328.29	30.268
328.65	30.377
329.01	31.158
329.38	30.599
329.74	30.406
330.11	30.120
330.47	30.056
330.84	30.288
331.20	31.559
331.56	30.556
331.93	31.324
332.29	31.897
332.66	30.950
333.02	30.204
333.38	29.698
333.75	29.853
334.11	29.364
334.48	32.366
334.84	31.136
335.20	32.022
335.57	30.462
335.93	31.527
336.29	30.295
336.66	31.244
337.02	31.041
337.38	30.926
337.75	31.364
338.11	32.191
338.47	32.026
338.84	31.608
339.20	30.165
339.56	32.202
339.93	31.334
340.29	31.284
340.65	31.093
341.02	30.851
341.38	31.504
341.74	30.389
342.11	29.636
342.47	30.961
342.83	30.709
343.20	30.836
343.56	31.565
343.92	31.444
344.28	31.341
344.65	31.088
345.01	31.201
345.37	30.530
345.73	30.962
346.10	31.924
346.46	31.287
346.82	30.933
347.19	29.177
347.55	29.407
347.91	30.259
348.27	30.073
348.63	30.579
349.00	30.025
349.36	30.590
349.72	30.182
350.08	30.738
350.45	30.646
350.81	30.399
351.17	30.293
351.53	30.939
351.89	29.645
352.26	29.920
352.62	30.565
352.98	29.719
353.34	30.757
353.70	31.311
354.07	30.161
354.43	30.104
354.79	31.049
355.15	31.270
355.51	30.142
355.87	29.935
356.24	30.750
356.60	29.830
356.96	31.190
357.32	30.591
357.68	29.398
358.04	30.614
358.40	28.617
358.77	30.303
359.13	30.104
359.49	28.814
359.85	29.797
360.21	29.745
360.57	28.921
360.93	29.047
361.29	30.136
361.66	29.859
362.02	30.530
362.38	29.931
362.74	29.826
363.10	30.399
363.46	29.133
363.82	30.053
364.18	30.258
364.54	28.897
364.90	29.032
365.26	29.549
365.62	29.635
365.98	29.985
366.35	31.318
366.71	31.116
367.07	30.189
367.43	29.835
367.79	29.823
368.15	29.935
368.51	31.391
368.87	28.930
369.23	29.242
369.59	30.029
369.95	30.425
370.31	30.636
370.67	30.597
371.03	29.350
371.39	29.249
371.75	29.597
372.11	30.171
372.47	31.287
372.83	30.092
373.19	30.599
373.55	30.181
373.91	29.950
374.27	29.979
374.63	30.151
374.99	29.929
375.35	30.432
375.71	30.909
376.07	30.969
376.42	30.884
376.78	31.477
377.14	30.129
377.50	30.279
377.86	30.321
378.22	30.440
378.58	30.577
378.94	30.624
379.30	30.256
379.66	31.285
380.02	30.901
380.38	30.250
380.74	31.239
381.09	32.209
381.45	31.131
381.81	31.277
382.17	31.345
382.53	30.543
382.89	31.011
383.25	32.172
383.61	31.463
383.97	31.302
384.32	31.582
384.68	31.146
385.04	31.189
385.40	30.492
385.76	33.019
386.12	33.247
386.48	32.248
386.83	31.642
387.19	31.807
387.55	32.309
387.91	32.090
388.27	31.319
388.62	32.410
388.98	32.228
389.34	31.855
389.70	32.132
390.06	31.278
390.42	32.707
390.77	32.701
391.13	32.976
391.49	32.471
391.85	32.943
392.20	32.517
392.56	31.786
392.92	32.590
393.28	31.486
393.64	32.372
393.99	32.978
394.35	32.195
394.71	32.822
395.07	32.370
395.42	32.787
395.78	32.443
396.14	33.039
396.50	33.291
396.85	32.389
397.21	32.268
397.57	33.041
397.92	32.355
398.28	32.299
398.64	32.169
399.00	33.521
399.35	32.449
399.71	32.797
400.07	32.709
400.42	32.803
400.78	33.558
401.14	32.184
401.49	32.460
401.85	32.419
402.21	32.289
402.57	32.188
402.92	32.371
403.28	33.333
403.63	33.039
403.99	33.036
404.35	33.292
404.70	32.560
405.06	32.667
405.42	32.753
405.77	32.249
406.13	31.839
406.49	31.439
406.84	32.885
407.20	33.113
407.55	32.067
407.91	32.888
408.27	32.632
408.62	33.538
408.98	32.224
409.34	32.714
409.69	31.912
410.05	32.266
410.40	32.469
410.76	32.328
411.11	33.312
411.47	32.479
411.83	31.764
412.18	32.175
412.54	32.772
412.89	31.712
413.25	33.333
413.60	32.795
413.96	31.902
414.31	33.659
414.67	32.200
415.03	32.091
415.38	32.963
415.74	32.508
416.09	33.573
416.45	32.613
416.80	32.452
417.16	32.459
417.51	32.245
417.87	31.877
418.22	33.161
418.58	33.110
418.93	33.354
419.29	32.138
419.64	33.441
420.00	33.186
420.35	32.597
420.71	33.718
421.06	33.456
421.42	33.654
421.77	33.237
422.12	32.179
422.48	33.351
422.83	33.527
423.19	33.691
423.54	32.569
423.90	32.568
424.25	32.893
424.61	33.660
424.96	33.043
425.31	33.622
425.67	34.214
426.02	34.511
426.38	34.502
426.73	33.838
427.09	34.747
427.44	34.412
427.79	34.296
428.15	33.981
428.50	34.767
428.85	32.924
429.21	34.805
429.56	33.208
429.92	34.258
430.27	33.584
430.62	32.985
430.98	34.289
431.33	35.489
431.68	34.432
432.04	34.992
432.39	33.542
432.74	33.494
433.10	34.943
433.45	34.229
433.80	34.939
434.16	32.964
434.51	34.785
434.86	34.204
435.22	34.324
435.57	34.685
435.92	34.671
436.28	34.526
436.63	34.170
436.98	34.531
437.34	33.878
437.69	34.943
438.04	34.644
438.39	35.064
438.75	35.883
439.10	35.201
439.45	35.606
439.81	34.740
440.16	35.689
440.51	35.463
440.86	36.314
441.22	35.464
441.57	35.320
441.92	35.887
442.27	35.532
442.63	35.707
442.98	36.071
443.33	35.003
443.68	35.491
444.03	35.171
444.39	35.514
444.74	36.343
445.09	36.915
445.44	36.182
445.79	37.081
446.15	36.564
446.50	35.053
446.85	36.557
447.20	36.861
447.55	36.440
447.91	36.492
448.26	36.540
448.61	36.557
448.96	36.087
449.31	36.821
449.66	36.643
450.02	36.281
450.37	36.218
450.72	35.796
451.07	36.835
451.42	35.456
451.77	35.986
452.12	34.928
452.47	35.158
452.83	35.984
453.18	36.559
453.53	36.536
453.88	37.280
454.23	37.923
454.58	36.839
454.93	36.534
455.28	35.238
455.63	36.578
455.98	36.621
456.34	36.271
456.69	37.039
457.04	37.492
457.39	36.209
457.74	36.276
458.09	35.433
458.44	36.805
458.79	35.686
459.14	37.014
459.49	38.149
459.84	36.605
460.19	36.468
460.54	37.408
460.89	37.443
461.24	37.143
461.59	37.292
461.94	35.849
462.29	37.153
462.64	36.611
462.99	36.696
463.34	36.787
463.69	35.907
464.04	36.683
464.39	36.568
464.74	37.239
465.09	37.430
465.44	36.353
465.79	35.941
466.14	36.887
466.49	36.458
466.84	36.347
467.19	37.359
467.54	36.015
467.89	37.587
468.24	37.470
468.59	37.016
468.94	37.143
469.29	36.787
469.64	37.321
469.99	38.402
470.34	36.997
470.68	37.435
471.03	37.013
471.38	37.946
471.73	37.885
472.08	36.364
472.43	36.242
472.78	36.189
473.13	37.483
473.48	37.524
473.83	37.671
474.17	38.731
474.52	36.503
474.87	37.091
475.22	38.072
475.57	36.872
475.92	38.014
476.27	38.475
476.61	37.963
476.96	36.866
477.31	37.101
477.66	36.798
478.01	37.339
478.36	37.092
478.70	38.390
479.05	37.802
479.40	37.255
479.75	37.226
480.10	37.276
480.45	37.750
480.79	38.218
481.14	38.422
481.49	37.438
481.84	37.403
482.19	37.184
482.53	37.554
482.88	37.613
483.23	37.524
483.58	37.642
483.92	37.028
484.27	37.192
484.62	36.486
484.97	37.065
485.31	37.645
485.66	35.975
486.01	36.987
486.36	36.605
486.70	37.640
487.05	37.614
487.40	37.410
487.75	37.634
488.09	38.072
488.44	37.758
488.79	38.513
489.13	38.702
489.48	37.666
489.83	37.534
490.17	36.854
490.52	37.367
490.87	37.668
491.22	38.204
491.56	37.619
491.91	38.050
492.26	38.600
492.60	37.044
492.95	38.564
493.30	38.202
493.64	38.703
493.99	38.116
494.34	37.282
494.68	37.714
495.03	37.859
495.37	38.420
495.72	38.011
496.07	38.390
496.41	38.113
496.76	38.462
497.11	37.261
497.45	39.093
497.80	38.799
498.14	36.910
498.49	38.344
498.84	37.325
499.18	37.299
499.53	37.946
499.87	38.035
500.22	38.378
500.56	38.174
500.91	38.102
501.26	38.359
501.60	37.432
501.95	38.476
502.29	38.547
502.64	37.934
502.98	38.333
503.33	38.761
503.67	37.880
504.02	37.830
504.36	39.139
504.71	38.384
505.06	37.292
505.40	38.782
505.75	37.938
506.09	38.064
506.44	38.655
506.78	38.673
507.13	38.573
507.47	37.546
507.82	37.821
508.16	37.137
508.51	38.667
508.85	38.043
509.19	38.691
509.54	37.962
509.88	38.457
510.23	39.753
510.57	38.429
510.92	38.326
511.26	38.516
511.61	38.999
511.95	37.973
512.30	38.581
512.64	39.844
512.98	37.900
513.33	38.892
513.67	38.658
514.02	39.588
514.36	39.086
514.70	40.152
515.05	39.130
515.39	38.312
515.74	40.719
516.08	39.151
516.42	39.812
516.77	40.316
517.11	39.881
517.46	39.617
517.80	38.319
518.14	38.396
518.49	39.363
518.83	39.854
519.17	38.387
519.52	38.307
519.86	38.595
520.20	39.429
520.55	38.899
520.89	39.084
521.23	38.315
521.58	40.631
521.92	38.205
522.26	39.688
522.61	40.260
522.95	40.199
523.29	39.390
523.64	38.945
523.98	40.959
524.32	37.822
524.66	40.845
525.01	40.584
525.35	40.181
525.69	40.000
526.04	38.161
526.38	41.051
526.72	38.718
527.06	39.624
527.41	41.227
527.75	39.879
528.09	39.468
528.43	40.378
528.78	39.802
529.12	38.968
529.46	39.116
529.80	39.392
530.15	41.980
530.49	40.404
530.83	40.698
531.17	39.154
531.51	40.424
531.86	39.565
532.20	40.084
532.54	39.142
532.88	40.589
533.22	40.457
533.57	40.564
533.91	41.319
534.25	40.560
534.59	39.833
534.93	39.270
535.27	39.277
535.62	40.311
535.96	41.096
536.30	39.776
536.64	42.109
536.98	40.209
537.32	40.043
537.66	40.182
538.01	40.629
538.35	38.974
538.69	40.013
539.03	40.396
539.37	39.502
539.71	39.127
540.05	40.122
540.39	39.889
540.73	40.795
541.07	38.950
541.42	39.583
541.76	40.468
542.10	40.262
542.44	41.348
542.78	39.092
543.12	39.080
543.46	40.612
543.80	40.874
544.14	39.252
544.48	40.107
544.82	40.738
545.16	41.462
545.50	39.987
545.84	40.935
546.18	41.489
546.52	41.961
546.86	39.756
547.20	41.273
547.54	39.859
547.88	40.557
548.22	38.396
548.56	40.765
548.90	40.903
549.24	39.807
549.58	40.056
549.92	39.671
550.26	39.853
550.60	42.156
550.94	41.150
551.28	39.722
551.62	41.077
551.96	40.451
552.30	40.424
552.64	40.480
552.98	40.788
553.32	40.228
553.66	40.348
554.00	41.679
554.34	40.620
554.68	39.454
555.02	41.443
555.36	40.464
555.69	39.853
556.03	41.399
556.37	40.142
556.71	40.289
557.05	40.716
557.39	40.372
557.73	41.454
558.07	41.327
558.41	41.041
558.75	41.543
559.08	40.189
559.42	41.746
559.76	40.913
560.10	40.979
560.44	41.028
560.78	40.280
561.12	40.621
561.45	42.446
561.79	42.157
562.13	42.654
562.47	41.007
562.81	40.634
563.15	41.396
563.48	42.150
563.82	41.455
564.16	42.270
564.50	41.419
564.84	39.692
565.17	41.784
565.51	42.145
565.85	41.495
566.19	40.650
566.52	41.086
566.86	41.581
567.20	41.220
567.54	42.518
567.88	41.711
568.21	42.025
568.55	41.522
568.89	42.094
569.23	40.924
569.56	41.637
569.90	40.601
570.24	39.970
570.57	40.509
570.91	40.746
571.25	40.250
571.59	40.206
571.92	39.496
572.26	40.670
572.60	40.031
572.93	40.477
573.27	39.875
573.61	40.274
573.95	40.606
574.28	40.175
574.62	39.817
574.96	39.791
575.29	39.955
575.63	39.440
575.97	39.686
576.30	39.696
576.64	39.868
576.98	40.901
577.31	40.329
577.65	40.321
577.98	40.850
578.32	40.188
578.66	39.695
578.99	40.431
579.33	39.745
579.67	40.273
580.00	40.734
580.34	40.522
580.67	40.381
581.01	40.634
581.35	40.009
581.68	40.130
582.02	39.750
582.35	40.167
582.69	40.534
583.02	40.568
583.36	40.596
583.70	41.719
584.03	42.035
584.37	41.446
584.70	40.879
585.04	39.767
585.37	40.811
585.71	40.311
586.04	40.368
586.38	40.331
586.72	41.377
587.05	41.161
587.39	40.677
587.72	41.525
588.06	40.908
588.39	40.302
588.73	40.965
589.06	42.564
589.40	40.684
589.73	41.950
590.07	41.881
590.40	41.254
590.73	42.586
591.07	41.815
591.40	42.119
591.74	41.538
592.07	41.605
592.41	41.034
592.74	40.820
593.08	39.399
593.41	40.527
593.75	40.170
594.08	40.302
594.41	40.429
594.75	40.763
595.08	40.749
595.42	40.707
595.75	41.607
596.09	41.009
596.42	40.637
596.75	41.563
597.09	41.549
597.42	41.283
597.75	42.419
598.09	40.788
598.42	41.291
598.76	41.828
599.09	41.506
599.42	40.584
599.76	40.895
600.09	40.498
600.42	41.130
600.76	39.562
601.09	39.962
601.42	40.306
601.76	39.857
602.09	40.965
602.42	42.544
602.76	41.511
603.09	41.528
603.42	42.015
603.76	41.250
604.09	41.677
604.42	41.117
604.76	41.967
605.09	41.362
605.42	41.580
605.75	41.112
606.09	40.977
606.42	40.033
606.75	41.082
607.09	41.626
607.42	40.496
607.75	41.119
608.08	41.285
608.42	40.795
608.75	41.687
609.08	41.754
609.41	42.234
609.75	41.784
610.08	41.638
610.41	40.242
610.74	40.468
611.07	42.326
611.41	42.398
611.74	41.951
612.07	40.364
612.40	42.013
612.73	42.316
613.07	42.182
613.40	42.505
613.73	40.907
614.06	42.237
614.39	42.188
614.72	41.120
615.06	41.844
615.39	40.611
615.72	41.712
616.05	41.341
616.38	41.368
616.71	41.346
617.05	41.507
617.38	42.929
617.71	43.208
618.04	43.238
618.37	42.812
618.70	43.300
619.03	42.431
619.36	43.415
619.69	43.973
620.03	43.024
620.36	42.346
620.69	42.398
621.02	43.884
621.35	44.066
621.68	43.112
622.01	44.167
622.34	42.378
622.67	42.981
623.00	43.109
623.33	43.140
623.66	42.633
623.99	41.982
624.32	42.129
624.65	42.556
624.99	42.889
625.32	42.305
625.65	43.519
625.98	43.433
626.31	42.311
626.64	43.934
626.97	42.757
627.30	43.608
627.63	43.241
627.96	43.037
628.29	42.923
628.62	41.888
628.95	43.387
629.28	44.355
629.61	42.871
629.94	45.455
630.26	43.281
630.59	46.202
630.92	43.897
631.25	43.590
631.58	45.044
631.91	43.750
632.24	44.266
632.57	44.318
632.90	45.196
633.23	43.059
633.56	44.207
633.89	43.896
634.22	44.568
634.55	45.870
634.88	45.722
635.20	43.974
635.53	45.467
635.86	44.863
636.19	45.278
636.52	45.026
636.85	42.556
637.18	42.767
637.51	44.403
637.83	43.101
638.16	46.248
638.49	45.232
638.82	44.737
639.15	44.233
639.48	44.979
639.81	45.049
640.13	46.898
640.46	46.210
640.79	42.563
641.12	44.313
641.45	45.195
641.77	45.333
642.10	45.182
642.43	45.016
642.76	46.370
643.09	46.204
643.41	43.366
643.74	44.152
644.07	44.499
644.40	45.101
644.73	47.636
645.05	43.960
645.38	45.855
645.71	45.035
646.04	45.422
646.36	45.745
646.69	47.482
647.02	47.826
647.35	47.948
647.67	45.338
648.00	47.948
648.33	45.051
648.66	45.763
648.98	42.714
649.31	45.785
649.64	45.526
649.96	43.274
650.29	47.700
650.62	46.154
650.94	47.963
651.27	45.624
651.60	46.667
651.92	45.804
652.25	45.115
652.58	44.167
652.90	46.827
653.23	46.555
653.56	44.332
653.88	45.361
654.21	45.884
654.54	46.350
654.86	44.312
655.19	42.544
655.52	43.498
655.84	39.554
656.17	44.120
656.49	60.437
656.82	63.697
657.15	49.766
657.47	37.007
657.80	28.136
658.13	27.968
658.45	43.366
658.78	43.706
659.10	43.687
659.43	44.412
659.75	46.769
660.08	44.414
660.41	46.578
660.73	43.370
661.06	48.354
661.38	45.205
661.71	45.791
662.03	48.927
662.36	47.473
662.68	45.354
663.01	46.943
663.33	48.492
663.66	44.651
663.98	44.186
664.31	43.710
664.63	45.392
664.96	41.957
665.28	42.605
665.61	47.619
665.93	45.217
666.26	49.458
666.58	44.966
666.91	46.588
667.23	45.991
667.56	46.919
667.88	46.043
668.21	49.403
668.53	47.991
668.86	49.292
669.18	45.991
669.50	43.584
669.83	45.349
670.15	45.455
670.48	48.804
670.80	47.465
671.13	46.309
671.45	42.009
671.77	45.923
672.10	46.733
672.42	44.195
672.75	44.227
673.07	44.902
673.39	47.706
673.72	44.181
674.04	47.500
674.37	47.246
674.69	45.610
675.01	45.556
675.34	47.748
675.66	49.074
675.98	48.337
676.31	52.064
676.63	47.981
676.95	46.364
677.28	49.412
677.60	49.639
677.92	46.101
678.25	44.858
678.57	43.939
678.89	43.697
679.22	48.993
679.54	44.578
679.86	43.738
680.18	43.883
680.51	46.780
680.83	43.539
681.15	47.800
681.48	46.926
681.80	46.488
682.12	43.750
682.44	46.025
682.77	47.903
683.09	47.368
683.41	42.727
683.73	46.774
684.06	41.814
684.38	43.656
684.70	47.712
685.02	43.983
685.34	39.526
685.67	45.403
685.99	44.665
686.31	45.133
686.63	44.341
686.96	43.726
687.28	42.222
687.60	43.536
687.92	48.485
688.24	44.758
688.56	46.288
688.89	49.554
689.21	43.556
689.53	45.708
689.85	47.209
690.17	43.750
690.49	48.227
690.82	46.117
691.14	45.714
691.46	48.598
691.78	47.297
692.10	46.882
692.42	44.805
692.74	45.513
693.06	44.369
693.39	45.023
693.71	40.950
694.03	44.804
694.35	47.430
694.67	45.455
694.99	44.909
695.31	48.825
695.63	46.500
695.95	43.939
696.27	45.596
696.59	48.611
696.91	43.417
697.23	47.301
697.56	47.772
697.88	44.086
698.20	47.380
698.52	46.353
698.84	47.129
699.16	43.500
699.48	44.862
699.80	43.176
700.12	48.248
700.44	47.339
700.76	46.512
701.08	45.152
701.40	51.205
701.72	49.691
702.04	51.815
702.36	51.505
702.68	47.147
703.00	47.576
703.32	47.214
703.64	46.610
703.96	46.377
704.28	49.693
704.60	44.762
704.91	43.849
705.23	50.498
705.55	51.590
705.87	51.625
706.19	50.741
706.51	47.423
706.83	48.875
707.15	47.352
707.47	45.658
707.79	45.052
708.11	47.500
708.43	45.500
708.74	45.220
709.06	52.113
709.38	48.930
709.70	50.888
710.02	49.045
710.34	52.322
710.66	46.474
710.98	46.358
711.29	47.869
711.61	46.441
711.93	46.580
712.25	49.485
712.57	48.718
712.89	46.642
713.20	48.443
713.52	45.993
713.84	49.147
714.16	50.515
714.48	44.194
714.80	49.679
715.11	49.240
715.43	43.887
715.75	51.333
716.07	45.847
716.39	45.973
716.70	47.232
717.02	46.947
717.34	50.202
717.66	53.097
717.97	43.913
718.29	42.678
718.61	49.606
718.93	49.225
719.24	47.909
719.56	50.602
719.88	46.392
720.20	47.348
720.51	46.743
720.83	49.035
721.15	48.319
721.46	43.952
721.78	45.455
722.10	43.866
722.42	49.378
722.73	46.122
723.05	50.612
723.37	47.034
723.68	57.658
724.00	47.863
724.32	45.778
724.63	50.000
724.95	52.838
725.27	47.926
725.58	49.576
725.90	44.048
726.22	45.174
726.53	47.797
726.85	47.191
727.16	48.302
727.48	42.915
727.80	49.798
728.11	46.610
728.43	45.098
728.74	43.145
729.06	52.400
729.38	51.128
729.69	49.004
730.01	48.846
730.32	51.493
730.64	48.057
730.96	48.679
731.27	44.333
731.59	46.102
731.90	46.815
732.22	45.110
732.53	46.844
732.85	49.291
733.16	48.148
733.48	43.885
733.80	47.464
734.11	51.186
734.43	49.141
734.74	49.394
735.06	42.345
735.37	47.432
735.69	46.801
736.00	45.993
736.32	43.624
736.63	50.000
736.95	46.758
737.26	46.975
737.58	45.973
737.89	50.183
738.21	48.120
738.52	46.914
738.83	51.528
739.15	45.415
739.46	49.606
739.78	45.421
740.09	47.059
740.41	47.826
740.72	46.457
741.04	44.534
741.35	44.255
741.66	49.289
741.98	47.959
742.29	52.475
742.61	46.597
742.92	43.128
743.23	43.519
743.55	49.774
743.86	49.761
744.18	45.933
744.49	47.872
744.80	47.283
745.12	58.824
745.43	45.854
745.74	52.604
746.06	48.780
746.37	45.026
746.68	43.128
747.00	46.277
747.31	52.239
747.62	50.000
747.94	46.411
748.25	46.535
748.56	54.098
748.88	48.691
749.19	48.404
749.50	54.680
749.82	49.057
750.13	44.495
750.44	50.752
750.75	52.239
751.07	49.635
751.38	51.724
751.69	50.196
752.01	50.388
752.32	42.629
752.63	48.617
752.94	50.000
753.26	56.485
753.57	52.036
753.88	49.558
754.19	51.250
754.51	45.868
754.82	50.202
755.13	58.333
755.44	49.597
755.75	48.437
756.07	47.860
756.38	46.038
756.69	49.808
757.00	45.000
757.31	45.425
757.63	42.378
757.94	45.556
758.25	43.562
758.56	42.819
758.87	38.244
759.18	46.417
759.50	45.091
759.81	50.167
760.12	44.839
760.43	47.273
760.74	48.148
761.05	49.538
761.36	47.443
761.67	47.879
761.99	48.299
762.30	49.818
762.61	45.059
762.92	50.679
763.23	47.748
763.54	44.860
763.85	48.729
764.16	48.548
764.47	48.387
764.78	42.491
765.10	48.485
765.41	46.372
765.72	45.714
766.03	45.113
766.34	43.796
766.65	52.590
766.96	48.485
767.27	55.851
767.58	47.126
767.89	56.028
768.20	44.886
768.51	48.901
768.82	47.291
769.13	48.387
769.44	41.202
769.75	44.292
770.06	48.276
770.37	49.038
770.68	50.254
770.99	42.534
771.30	51.961
771.61	45.249
771.92	48.707
772.23	50.739
772.54	46.774
772.85	54.321
773.16	52.809
773.47	57.516
773.78	53.595
774.09	51.497
774.39	50.000
774.70	45.223
775.01	48.276
775.32	45.000
775.63	48.760
775.94	54.198
776.25	46.457
776.56	54.167
776.87	48.077
777.18	52.137
777.48	49.138
777.79	47.826
778.10	42.857
778.41	44.144
778.72	46.032
779.03	47.368
779.34	49.645
779.65	43.151
779.95	45.205
780.26	46.207
780.57	49.593
780.88	51.969
781.19	50.862
781.50	58.915
781.80	49.112
782.11	42.138
782.42	50.769
782.73	51.799
783.04	54.815
783.34	43.750
783.65	38.462
783.96	58.197
784.27	56.552
784.57	51.220
784.88	50.000
785.19	42.000
785.50	58.000
785.81	43.103
786.11	50.862
786.42	54.369
786.73	56.364
787.04	53.061
787.34	42.857
787.65	53.333
787.96	46.018
788.26	56.364
788.57	50.427
788.88	48.437
789.19	43.651
789.49	49.565
789.80	45.918
790.11	38.384
790.41	39.091
790.72	63.043
791.03	42.045
791.33	58.750
791.64	56.250
791.95	43.023
792.25	41.489
792.56	60.674
792.87	58.904
793.17	55.072
793.48	37.333
793.79	37.500
794.09	58.750
794.40	39.623
794.70	49.515
795.01	48.780
795.32	47.009
795.62	57.143
795.93	51.961
796.23	50.943
796.54	46.875
796.85	47.059
797.15	33.803
797.46	61.111
797.76	71.212
798.07	48.837
798.37	30.263
798.68	36.364
798.99	51.852
799.29	61.429
799.60	46.377
799.90	44.000
800.21	44.262
800.51	52.308
800.82	61.017
801.12	50.725
801.43	54.098
801.73	60.317
802.04	64.000
802.34	32.836
802.65	53.846
802.95	37.500
803.26	38.462
803.56	60.784
803.87	50.000
804.17	54.667
804.48	58.730
804.78	40.741
805.09	47.826
805.39	26.667
805.70	62.963
806.00	24.561
806.30	46.479
806.61	51.429
806.91	54.167
807.22	44.737
807.52	36.000
807.83	61.818
808.13	47.222
808.43	57.353
808.74	59.701
809.04	44.068
809.35	40.385
809.65	43.750
809.95	32.432
810.26	40.909
810.56	47.945
810.86	59.524
811.17	62.000
811.47	46.939
811.77	28.947
812.08	63.636
812.38	47.170
812.69	47.500
812.99	60.606
813.29	26.316
813.59	22.857
813.90	50.000
814.20	51.282
814.50	55.769
814.81	49.057
815.11	27.660
815.41	61.017
815.72	80.952
816.02	50.980
816.32	35.417
816.62	43.902
816.93	43.243
817.23	42.857
817.53	52.083
817.84	39.130
818.14	46.154
818.44	55.263
818.74	58.696
819.04	-2.500
819.35	72.973
819.65	52.941
819.95	50.000
820.25	35.714
820.56	72.500
820.86	37.931
821.16	90.000
821.46	61.702
821.76	67.500
822.07	41.860
822.37	43.243
822.67	40.625
822.97	52.381
823.27	3.571
823.57	88.000
823.88	22.222
824.18	64.286
824.48	52.941
824.78	58.065
825.08	8.696
825.38	36.364
825.69	4.167
825.99	21.053
826.29	30.556
826.59	86.667
826.89	42.857
827.19	47.826
827.49	35.000
827.79	45.714
828.09	28.571
828.39	51.515
828.70	75.676
829.00	42.857
829.30	61.905
829.60	66.667
829.90	37.500
830.20	44.737
830.50	33.333
830.80	21.739
831.10	40.909
831.40	57.576
831.70	54.839
832.00	76.190
832.30	-4.762
832.60	75.000
832.90	-6.897
833.20	45.000
833.50	60.606
833.80	29.630
834.10	50.000
834.40	40.625
834.70	22.222
835.00	68.421
835.30	69.231
835.60	166.667
835.90	16.129
836.20	9.091
836.50	64.286
836.80	-23.077
837.10	46.429
837.40	200.000
837.70	72.727
838.00	45.455
838.30	34.783
838.60	53.846
838.90	72.727
839.19	57.143
839.49	36.667
839.79	69.231
840.09	0.000
840.39	53.571
840.69	35.714
840.99	23.077
841.29	36.842
841.59	20.000
841.88	100.000
842.18	10.000
842.48	75.000
842.78	93.333
843.08	40.741
843.38	-30.000
843.68	26.087
843.97	60.000
844.27	6.667
844.57	45.000
844.87	72.222
845.17	28.571
845.47	80.000
845.76	57.143
846.06	70.588
846.36	-50.000
846.66	21.429
846.96	100.000
847.25	-137.500
847.55	78.571
847.85	-75.000
848.15	22.727
848.44	-633.333
848.74	55.000
849.04	55.556
849.34	81.818
849.63	-33.333
849.93	-180.000
850.23	44.444
850.53	80.000
850.82	38.462
851.12	-11.111
851.42	20.000
851.71	19.231
852.01	28.571
852.31	100.000
852.61	81.818
852.90	45.000
853.20	21.053
853.50	25.000
853.79	39.130
854.09	33.333
854.39	21.053
854.68	66.667
854.98	35.484
855.28	57.692
855.57	-25.000
855.87	77.778
856.17	55.556
856.46	50.000
856.76	13.333
857.05	111.111
857.35	32.000
857.65	88.889
857.94	123.077
858.24	65.517
858.53	22.222
858.83	51.852
859.13	59.091
859.42	39.130
859.72	100.000
860.01	-366.667
860.31	16.000
860.60	52.381
860.90	-266.667
861.20	-40.000
861.49	0.000
861.79	20.000
862.08	-10.000
862.38	73.333
862.67	-80.000
862.97	0.000
863.26	16.667
863.56	83.333
863.85	-133.333
864.15	11.111
864.44	60.000
864.74	107.143
865.03	50.000
865.33	-140.000
865.62	-33.333
865.92	16.667
866.21	-50.000
866.51	25.000
866.80	-81.818
867.10	50.000
867.39	83.333
867.69	0.000
867.98	115.385
868.27	-33.333
868.57	6.667
868.86	0.000
869.16	-30.769
869.45	53.333
869.75	-1400.000
870.04	0.000
870.33	-128.571
870.63	19.048
870.92	33.333
871.22	-180.000
871.51	-500.000
871.80	133.333
872.10	-233.333
>>>>>End Processed Spectral Data<<<<<
