SpectraSuite Data File
++++++++++++++++++++++++++++++++++++
Date: Fri May 15 17:08:57 PDT 2015
User: schluterlab
Dark Spectrum Present: Yes
Reference Spectrum Present: Yes
Number of Sampled Component Spectra: 1
Spectrometers: USB2E3373
Integration Time (usec): 3000 (USB2E3373)
Spectra Averaged: 3 (USB2E3373)
Boxcar Smoothing: 0 (USB2E3373)
Correct for Electrical Dark: No (USB2E3373)
Strobe/Lamp Enabled: No (USB2E3373)
Correct for Detector Non-linearity: No (USB2E3373)
Correct for Stray Light: No (USB2E3373)
Number of Pixels in Processed Spectrum: 2048
>>>>>Begin Processed Spectral Data<<<<<
178.53	0.000
178.91	0.000
179.29	225.000
179.67	-100.000
180.04	-57.143
180.42	375.000
180.80	300.000
181.18	-366.667
181.56	-450.000
181.94	150.000
182.31	-400.000
182.69	200.000
183.07	33.333
183.45	60.000
183.83	-0.000
184.20	9.091
184.58	88.889
184.96	-150.000
185.34	166.667
185.72	-50.000
186.09	7.692
186.47	800.000
186.85	-50.000
187.23	-0.000
187.61	-1300.000
187.98	200.000
188.36	111.111
188.74	166.667
189.12	117.647
189.49	83.333
189.87	0.000
190.25	85.714
190.63	450.000
191.00	-100.000
191.38	115.789
191.76	200.000
192.14	-425.000
192.51	700.000
192.89	77.778
193.27	14.286
193.65	-100.000
194.02	72.727
194.40	120.000
194.78	62.500
195.15	41.667
195.53	75.000
195.91	50.000
196.29	175.000
196.66	46.154
197.04	28.571
197.42	155.556
197.79	-233.333
198.17	15.385
198.55	600.000
198.92	0.000
199.30	-300.000
199.68	220.000
200.05	166.667
200.43	0.000
200.81	266.667
201.18	300.000
201.56	1000.000
201.94	500.000
202.31	-133.333
202.69	-80.000
203.07	-150.000
203.44	1400.000
203.82	0.000
204.19	121.429
204.57	-166.667
204.95	-62.500
205.32	0.000
205.70	157.143
206.08	125.000
206.45	211.111
206.83	128.571
207.20	157.143
207.58	200.000
207.96	-133.333
208.33	-10.000
208.71	175.000
209.08	-100.000
209.46	800.000
209.84	60.000
210.21	700.000
210.59	228.571
210.96	16.667
211.34	0.000
211.71	140.000
212.09	-14.286
212.46	-700.000
212.84	0.000
213.22	160.000
213.59	350.000
213.97	53.846
214.34	127.273
214.72	133.333
215.09	175.000
215.47	53.846
215.84	81.818
216.22	-233.333
216.59	212.500
216.97	550.000
217.34	175.000
217.72	-80.000
218.09	50.000
218.47	62.500
218.84	600.000
219.22	255.556
219.59	200.000
219.97	-200.000
220.34	-125.000
220.72	185.714
221.09	125.000
221.47	550.000
221.84	50.000
222.22	-450.000
222.59	63.636
222.97	58.333
223.34	400.000
223.72	78.571
224.09	9.524
224.46	39.286
224.84	500.000
225.21	160.000
225.59	40.000
225.96	-50.000
226.34	-100.000
226.71	-14.286
227.08	66.667
227.46	112.500
227.83	350.000
228.21	144.444
228.58	63.636
228.95	75.000
229.33	-60.000
229.70	6.250
230.08	-25.000
230.45	71.429
230.82	0.000
231.20	13.333
231.57	92.857
231.95	185.714
232.32	50.000
232.69	107.143
233.07	-100.000
233.44	200.000
233.81	100.000
234.19	22.222
234.56	82.353
234.93	-500.000
235.31	200.000
235.68	-100.000
236.05	38.462
236.43	15.000
236.80	82.353
237.17	65.625
237.55	80.000
237.92	29.630
238.29	47.222
238.67	60.000
239.04	35.294
239.41	21.951
239.79	36.667
240.16	63.415
240.53	15.789
240.91	50.000
241.28	44.444
241.65	53.571
242.02	47.945
242.40	48.333
242.77	45.763
243.14	37.879
243.51	37.500
243.89	44.828
244.26	32.184
244.63	46.429
245.00	38.144
245.38	29.897
245.75	21.348
246.12	27.586
246.49	29.752
246.87	43.269
247.24	31.933
247.61	24.561
247.98	42.276
248.36	26.250
248.73	32.895
249.10	31.169
249.47	32.911
249.84	37.255
250.22	39.412
250.59	38.562
250.96	35.211
251.33	25.000
251.70	40.000
252.08	30.964
252.45	33.168
252.82	31.156
253.19	32.258
253.56	26.636
253.94	36.486
254.31	30.870
254.68	32.895
255.05	25.197
255.42	30.568
255.79	32.432
256.16	31.518
256.54	29.851
256.91	34.221
257.28	25.651
257.65	32.210
258.02	30.496
258.39	30.640
258.76	29.304
259.14	37.542
259.51	30.744
259.88	27.148
260.25	33.987
260.62	35.417
260.99	29.831
261.36	29.452
261.73	29.114
262.10	30.091
262.47	29.448
262.85	31.034
263.22	32.308
263.59	32.399
263.96	35.404
264.33	30.000
264.70	28.869
265.07	31.845
265.44	33.711
265.81	29.944
266.18	31.148
266.55	31.877
266.92	32.642
267.29	31.070
267.66	30.435
268.03	32.461
268.40	26.632
268.77	33.155
269.14	26.859
269.51	33.676
269.88	27.182
270.25	28.827
270.62	29.268
270.99	26.854
271.36	31.051
271.73	27.230
272.10	29.684
272.47	30.496
272.84	30.941
273.21	30.626
273.58	31.325
273.95	29.748
274.32	27.021
274.69	29.186
275.06	30.804
275.43	26.304
275.80	29.801
276.17	28.736
276.54	28.480
276.91	32.018
277.28	27.948
277.65	25.620
278.02	28.936
278.39	29.322
278.76	28.092
279.13	25.104
279.50	30.252
279.87	28.510
280.23	28.172
280.60	27.875
280.97	30.505
281.34	27.115
281.71	29.979
282.08	26.380
282.45	27.789
282.82	25.483
283.19	27.853
283.56	27.553
283.92	28.083
284.29	25.769
284.66	29.264
285.03	24.165
285.40	28.544
285.77	24.780
286.14	26.534
286.51	29.336
286.87	25.960
287.24	25.967
287.61	25.220
287.98	28.772
288.35	25.650
288.72	28.021
289.08	26.042
289.45	26.538
289.82	24.825
290.19	24.232
290.56	22.642
290.93	23.906
291.29	24.807
291.66	24.724
292.03	22.648
292.40	22.742
292.77	22.807
293.13	17.857
293.50	21.700
293.87	22.595
294.24	21.947
294.60	22.802
294.97	23.065
295.34	20.859
295.71	22.653
296.08	21.226
296.44	20.910
296.81	20.556
297.18	21.304
297.55	20.867
297.91	19.589
298.28	21.240
298.65	20.081
299.02	20.620
299.38	18.741
299.75	17.931
300.12	20.681
300.48	19.763
300.85	19.518
301.22	19.091
301.59	19.474
301.95	20.253
302.32	19.974
302.69	19.652
303.05	17.946
303.42	19.427
303.79	18.692
304.15	20.191
304.52	18.549
304.89	17.778
305.25	17.918
305.62	18.670
305.99	18.129
306.35	18.035
306.72	18.448
307.09	18.130
307.45	18.255
307.82	18.519
308.19	18.931
308.55	16.467
308.92	18.083
309.29	18.212
309.65	16.900
310.02	17.492
310.38	18.002
310.75	18.579
311.12	17.115
311.48	17.073
311.85	18.220
312.22	18.565
312.58	19.214
312.95	16.862
313.31	17.495
313.68	17.906
314.05	17.551
314.41	17.938
314.78	17.629
315.14	19.938
315.51	18.116
315.87	17.725
316.24	20.526
316.61	19.390
316.97	18.056
317.34	19.141
317.70	20.268
318.07	19.327
318.43	19.020
318.80	19.318
319.16	19.531
319.53	20.323
319.89	19.783
320.26	20.040
320.62	20.963
320.99	20.146
321.35	21.686
321.72	21.599
322.08	22.256
322.45	21.218
322.81	21.709
323.18	22.179
323.54	22.876
323.91	22.980
324.27	23.926
324.64	24.813
325.00	23.631
325.37	25.712
325.73	24.841
326.10	24.977
326.46	27.623
326.83	26.422
327.19	26.765
327.56	27.541
327.92	27.817
328.29	26.964
328.65	28.585
329.01	29.136
329.38	28.940
329.74	29.367
330.11	30.306
330.47	30.056
330.84	29.712
331.20	31.749
331.56	29.074
331.93	30.502
332.29	31.439
332.66	29.955
333.02	31.320
333.38	29.606
333.75	34.249
334.11	31.603
334.48	33.817
334.84	32.143
335.20	31.290
335.57	31.732
335.93	32.972
336.29	33.794
336.66	34.242
337.02	32.156
337.38	32.685
337.75	33.182
338.11	35.077
338.47	34.307
338.84	35.120
339.20	34.369
339.56	35.413
339.93	34.109
340.29	34.220
340.65	34.677
341.02	35.284
341.38	34.425
341.74	35.159
342.11	33.362
342.47	34.520
342.83	34.948
343.20	34.582
343.56	34.957
343.92	34.632
344.28	34.842
344.65	33.938
345.01	35.350
345.37	35.156
345.73	36.569
346.10	37.015
346.46	35.576
346.82	34.861
347.19	33.500
347.55	36.174
347.91	35.841
348.27	34.923
348.63	35.690
349.00	33.306
349.36	35.910
349.72	35.904
350.08	36.148
350.45	37.111
350.81	36.379
351.17	34.121
351.53	35.673
351.89	35.012
352.26	34.560
352.62	35.161
352.98	34.699
353.34	35.507
353.70	36.489
354.07	36.532
354.43	35.068
354.79	36.499
355.15	36.746
355.51	35.364
355.87	37.217
356.24	35.889
356.60	35.408
356.96	35.556
357.32	35.543
357.68	34.558
358.04	35.703
358.40	35.611
358.77	37.241
359.13	37.070
359.49	36.672
359.85	36.895
360.21	37.480
360.57	36.037
360.93	37.670
361.29	36.254
361.66	38.088
362.02	37.045
362.38	37.167
362.74	38.304
363.10	37.698
363.46	38.102
363.82	38.993
364.18	37.491
364.54	36.985
364.90	38.781
365.26	37.846
365.62	38.686
365.98	38.563
366.35	38.456
366.71	39.098
367.07	38.679
367.43	38.965
367.79	39.293
368.15	38.693
368.51	38.019
368.87	38.981
369.23	38.484
369.59	38.994
369.95	39.370
370.31	39.812
370.67	39.701
371.03	39.283
371.39	40.700
371.75	39.927
372.11	40.228
372.47	39.941
372.83	41.448
373.19	39.230
373.55	39.278
373.91	39.669
374.27	40.609
374.63	41.062
374.99	41.489
375.35	40.599
375.71	41.608
376.07	40.660
376.42	41.905
376.78	42.215
377.14	41.165
377.50	41.434
377.86	42.570
378.22	42.183
378.58	41.603
378.94	42.407
379.30	42.109
379.66	42.508
380.02	42.060
380.38	42.362
380.74	43.268
381.09	43.129
381.45	43.853
381.81	42.443
382.17	42.386
382.53	43.785
382.89	44.507
383.25	44.368
383.61	45.122
383.97	44.508
384.32	44.278
384.68	44.706
385.04	43.811
385.40	43.622
385.76	46.352
386.12	45.537
386.48	46.232
386.83	46.100
387.19	46.337
387.55	44.981
387.91	45.966
388.27	46.276
388.62	47.137
388.98	44.506
389.34	46.034
389.70	46.116
390.06	45.752
390.42	46.114
390.77	47.678
391.13	46.721
391.49	47.413
391.85	47.238
392.20	46.328
392.56	47.743
392.92	46.917
393.28	46.816
393.64	47.808
393.99	47.524
394.35	48.008
394.71	48.148
395.07	47.077
395.42	47.480
395.78	48.404
396.14	48.108
396.50	48.637
396.85	48.616
397.21	47.744
397.57	47.900
397.92	47.753
398.28	48.678
398.64	47.530
399.00	48.646
399.35	48.138
399.71	48.306
400.07	49.335
400.42	48.164
400.78	48.990
401.14	49.123
401.49	49.672
401.85	48.934
402.21	48.133
402.57	49.437
402.92	47.992
403.28	49.436
403.63	48.739
403.99	49.043
404.35	49.219
404.70	48.512
405.06	48.472
405.42	49.720
405.77	49.041
406.13	49.360
406.49	50.799
406.84	50.122
407.20	50.090
407.55	48.744
407.91	49.332
408.27	49.841
408.62	49.415
408.98	48.737
409.34	50.062
409.69	50.388
410.05	48.522
410.40	50.000
410.76	51.146
411.11	51.250
411.47	49.441
411.83	49.906
412.18	50.450
412.54	49.813
412.89	49.631
413.25	51.444
413.60	50.000
413.96	49.755
414.31	50.427
414.67	50.289
415.03	50.200
415.38	50.196
415.74	51.792
416.09	50.425
416.45	51.182
416.80	50.430
417.16	51.450
417.51	51.566
417.87	51.173
418.22	52.785
418.58	52.977
418.93	52.539
419.29	51.024
419.64	52.430
420.00	52.456
420.35	50.567
420.71	52.126
421.06	52.548
421.42	53.005
421.77	52.601
422.12	51.476
422.48	52.247
422.83	52.610
423.19	51.524
423.54	53.086
423.90	52.768
424.25	53.617
424.61	54.223
424.96	52.787
425.31	55.113
425.67	53.169
426.02	54.299
426.38	54.477
426.73	54.843
427.09	54.937
427.44	54.824
427.79	55.038
428.15	54.976
428.50	55.482
428.85	55.037
429.21	54.726
429.56	55.040
429.92	54.956
430.27	54.486
430.62	54.940
430.98	55.892
431.33	55.310
431.68	56.044
432.04	55.282
432.39	55.448
432.74	55.081
433.10	56.782
433.45	55.914
433.80	56.645
434.16	55.346
434.51	56.882
434.86	56.911
435.22	55.973
435.57	58.391
435.92	57.126
436.28	57.126
436.63	57.387
436.98	57.010
437.34	57.290
437.69	57.305
438.04	57.892
438.39	57.666
438.75	59.320
439.10	56.876
439.45	58.491
439.81	56.942
440.16	58.373
440.51	58.448
440.86	58.912
441.22	58.032
441.57	57.837
441.92	57.293
442.27	57.262
442.63	58.672
442.98	58.702
443.33	58.264
443.68	58.674
444.03	58.917
444.39	58.633
444.74	59.365
445.09	57.684
445.44	59.430
445.79	60.289
446.15	58.370
446.50	59.235
446.85	58.980
447.20	58.707
447.55	60.435
447.91	59.165
448.26	59.704
448.61	59.298
448.96	59.897
449.31	59.075
449.66	58.246
450.02	58.813
450.37	58.980
450.72	59.908
451.07	60.633
451.42	58.677
451.77	59.253
452.12	57.835
452.47	58.210
452.83	59.658
453.18	59.077
453.53	60.809
453.88	59.563
454.23	59.127
454.58	58.879
454.93	59.923
455.28	57.651
455.63	59.206
455.98	60.553
456.34	59.515
456.69	58.259
457.04	59.987
457.39	59.235
457.74	58.888
458.09	58.564
458.44	59.099
458.79	58.039
459.14	59.554
459.49	58.806
459.84	58.883
460.19	58.799
460.54	58.680
460.89	59.716
461.24	59.503
461.59	59.026
461.94	58.302
462.29	59.107
462.64	59.468
462.99	60.122
463.34	58.971
463.69	58.816
464.04	57.869
464.39	60.643
464.74	57.914
465.09	60.012
465.44	59.723
465.79	58.844
466.14	59.920
466.49	58.367
466.84	58.180
467.19	58.698
467.54	59.195
467.89	59.255
468.24	59.246
468.59	58.921
468.94	58.032
469.29	57.443
469.64	57.895
469.99	60.897
470.34	57.679
470.68	61.298
471.03	58.953
471.38	60.699
471.73	59.244
472.08	58.141
472.43	58.792
472.78	57.779
473.13	59.116
473.48	58.567
473.83	57.534
474.17	58.420
474.52	58.137
474.87	58.242
475.22	58.084
475.57	59.063
475.92	58.310
476.27	57.509
476.61	58.681
476.96	56.944
477.31	58.031
477.66	56.742
478.01	58.001
478.36	57.353
478.70	58.999
479.05	58.681
479.40	57.234
479.75	56.986
480.10	57.757
480.45	57.850
480.79	57.855
481.14	57.992
481.49	56.650
481.84	57.674
482.19	56.782
482.53	58.897
482.88	56.611
483.23	58.061
483.58	57.453
483.92	57.260
484.27	55.697
484.62	55.849
484.97	56.882
485.31	56.900
485.66	56.314
486.01	57.160
486.36	56.301
486.70	56.306
487.05	55.595
487.40	56.618
487.75	56.310
488.09	55.501
488.44	55.605
488.79	55.996
489.13	56.811
489.48	56.947
489.83	55.695
490.17	55.236
490.52	56.166
490.87	55.946
491.22	56.160
491.56	55.882
491.91	55.019
492.26	56.928
492.60	55.470
492.95	57.501
493.30	55.447
493.64	56.778
493.99	55.990
494.34	55.874
494.68	56.286
495.03	56.253
495.37	56.133
495.72	55.780
496.07	56.829
496.41	56.934
496.76	56.840
497.11	55.380
497.45	56.181
497.80	57.518
498.14	54.893
498.49	55.663
498.84	55.988
499.18	55.422
499.53	56.498
499.87	55.788
500.22	56.182
500.56	55.774
500.91	55.823
501.26	55.264
501.60	55.534
501.95	56.429
502.29	55.981
502.64	56.226
502.98	57.129
503.33	54.899
503.67	55.036
504.02	56.647
504.36	55.764
504.71	55.253
505.06	55.108
505.40	54.975
505.75	57.216
506.09	55.651
506.44	56.828
506.78	55.408
507.13	56.463
507.47	55.405
507.82	55.342
508.16	55.626
508.51	55.561
508.85	56.201
509.19	55.136
509.54	55.550
509.88	55.502
510.23	55.675
510.57	56.066
510.92	54.211
511.26	55.265
511.61	56.986
511.95	55.507
512.30	55.931
512.64	55.092
512.98	55.531
513.33	55.624
513.67	55.202
514.02	56.178
514.36	56.343
514.70	55.711
515.05	57.227
515.39	55.254
515.74	56.886
516.08	57.501
516.42	56.537
516.77	57.109
517.11	57.033
517.46	56.373
517.80	55.423
518.14	56.032
518.49	54.507
518.83	56.379
519.17	56.277
519.52	54.944
519.86	54.502
520.20	55.043
520.55	55.285
520.89	56.274
521.23	55.668
521.58	56.088
521.92	55.321
522.26	56.799
522.61	56.948
522.95	57.815
523.29	55.527
523.64	56.226
523.98	56.967
524.32	55.348
524.66	56.914
525.01	56.364
525.35	55.282
525.69	57.104
526.04	55.026
526.38	56.420
526.72	55.199
527.06	55.837
527.41	55.871
527.75	56.032
528.09	56.013
528.43	56.853
528.78	56.370
529.12	55.806
529.46	56.465
529.80	55.478
530.15	56.502
530.49	56.364
530.83	56.498
531.17	55.473
531.51	56.498
531.86	55.472
532.20	55.324
532.54	56.773
532.88	55.715
533.22	55.780
533.57	55.570
533.91	56.201
534.25	56.250
534.59	55.420
534.93	55.632
535.27	54.695
535.62	54.699
535.96	56.099
536.30	55.013
536.64	56.720
536.98	55.819
537.32	56.543
537.66	54.698
538.01	56.364
538.35	55.548
538.69	56.325
539.03	55.707
539.37	55.989
539.71	54.942
540.05	55.669
540.39	54.917
540.73	56.485
541.07	56.768
541.42	54.973
541.76	55.953
542.10	56.779
542.44	56.915
542.78	54.783
543.12	55.426
543.46	55.702
543.80	55.448
544.14	55.007
544.48	54.430
544.82	56.596
545.16	56.626
545.50	56.075
545.84	56.728
546.18	56.454
546.52	56.957
546.86	55.500
547.20	56.223
547.54	54.488
547.88	56.793
548.22	55.161
548.56	55.211
548.90	57.008
549.24	55.096
549.58	55.430
549.92	54.825
550.26	55.897
550.60	56.431
550.94	56.609
551.28	56.182
551.62	58.000
551.96	56.917
552.30	56.067
552.64	56.135
552.98	56.048
553.32	56.134
553.66	55.733
554.00	56.642
554.34	57.238
554.68	56.047
555.02	57.440
555.36	56.470
555.69	55.751
556.03	55.103
556.37	55.231
556.71	56.606
557.05	56.674
557.39	56.803
557.73	58.021
558.07	57.466
558.41	57.274
558.75	57.366
559.08	56.580
559.42	56.984
559.76	58.367
560.10	57.416
560.44	56.813
560.78	56.503
561.12	57.052
561.45	57.273
561.79	56.022
562.13	58.197
562.47	56.619
562.81	56.412
563.15	57.898
563.48	57.921
563.82	57.447
564.16	57.103
564.50	55.811
564.84	56.693
565.17	55.600
565.51	58.470
565.85	58.505
566.19	57.162
566.52	57.842
566.86	57.841
567.20	57.410
567.54	57.968
567.88	57.469
568.21	58.880
568.55	57.500
568.89	58.214
569.23	58.402
569.56	56.436
569.90	58.871
570.24	56.122
570.57	56.873
570.91	57.442
571.25	56.791
571.59	55.559
571.92	55.111
572.26	55.888
572.60	55.721
572.93	55.977
573.27	56.082
573.61	56.116
573.95	56.281
574.28	56.753
574.62	54.666
574.96	55.547
575.29	55.931
575.63	55.481
575.97	55.137
576.30	55.384
576.64	55.179
576.98	56.448
577.31	56.574
577.65	56.651
577.98	56.150
578.32	55.746
578.66	55.040
578.99	55.218
579.33	54.934
579.67	54.504
580.00	55.949
580.34	56.368
580.67	55.218
581.01	56.388
581.35	56.158
581.68	56.800
582.02	56.414
582.35	55.970
582.69	56.623
583.02	55.800
583.36	55.997
583.70	56.049
584.03	56.686
584.37	57.228
584.70	56.676
585.04	55.440
585.37	56.806
585.71	56.776
586.04	56.531
586.38	56.495
586.72	57.331
587.05	58.001
587.39	57.730
587.72	58.639
588.06	58.013
588.39	57.619
588.73	57.631
589.06	58.350
589.40	57.760
589.73	58.415
590.07	58.988
590.40	58.978
590.73	59.679
591.07	58.015
591.40	59.038
591.74	59.774
592.07	60.111
592.41	59.187
592.74	58.542
593.08	57.527
593.41	58.913
593.75	58.783
594.08	58.359
594.41	58.224
594.75	58.473
595.08	59.402
595.42	59.404
595.75	59.594
596.09	59.226
596.42	59.653
596.75	59.503
597.09	58.405
597.42	59.259
597.75	59.780
598.09	58.126
598.42	57.852
598.76	58.988
599.09	59.095
599.42	58.772
599.76	58.578
600.09	59.125
600.42	59.363
600.76	58.618
601.09	58.740
601.42	58.598
601.76	59.587
602.09	59.695
602.42	59.899
602.76	60.272
603.09	60.174
603.42	61.371
603.76	59.879
604.09	59.660
604.42	60.956
604.76	60.525
605.09	60.283
605.42	60.000
605.75	59.063
606.09	60.297
606.42	58.465
606.75	59.524
607.09	58.813
607.42	59.548
607.75	60.036
608.08	60.288
608.42	60.302
608.75	60.723
609.08	61.335
609.41	60.254
609.75	60.433
610.08	61.508
610.41	59.662
610.74	60.215
611.07	60.155
611.41	60.457
611.74	61.087
612.07	61.242
612.40	61.433
612.73	61.582
613.07	59.505
613.40	60.449
613.73	61.444
614.06	60.545
614.39	60.857
614.72	60.728
615.06	60.391
615.39	59.389
615.72	60.657
616.05	61.285
616.38	59.829
616.71	60.612
617.05	61.519
617.38	60.591
617.71	61.950
618.04	62.857
618.37	62.421
618.70	62.046
619.03	62.569
619.36	61.143
619.69	63.760
620.03	63.039
620.36	62.876
620.69	63.383
621.02	61.927
621.35	63.402
621.68	64.286
622.01	63.417
622.34	64.405
622.67	62.224
623.00	60.873
623.33	63.491
623.66	62.827
623.99	61.346
624.32	63.194
624.65	62.707
624.99	63.807
625.32	63.078
625.65	63.629
625.98	64.948
626.31	63.591
626.64	63.865
626.97	63.438
627.30	64.799
627.63	62.738
627.96	65.678
628.29	62.720
628.62	64.110
628.95	62.926
629.28	65.524
629.61	66.002
629.94	63.930
630.26	65.909
630.59	65.036
630.92	64.000
631.25	64.103
631.58	67.511
631.91	65.022
632.24	65.596
632.57	64.773
632.90	67.141
633.23	66.941
633.56	65.743
633.89	64.982
634.22	66.914
634.55	67.726
634.88	67.944
635.20	65.385
635.53	67.733
635.86	65.020
636.19	68.435
636.52	64.541
636.85	66.129
637.18	66.792
637.51	65.535
637.83	64.652
638.16	67.394
638.49	64.850
638.82	66.579
639.15	68.250
639.48	68.088
639.81	66.527
640.13	67.388
640.46	66.618
640.79	66.568
641.12	67.947
641.45	67.267
641.77	67.111
642.10	70.300
642.43	69.775
642.76	69.307
643.09	66.236
643.41	68.608
643.74	65.733
644.07	68.473
644.40	68.750
644.73	68.301
645.05	66.779
645.38	68.607
645.71	66.312
646.04	70.736
646.36	68.972
646.69	68.525
647.02	70.699
647.35	69.403
647.67	67.824
648.00	70.336
648.33	69.283
648.66	70.508
648.98	65.494
649.31	69.421
649.64	66.248
649.96	66.126
650.29	70.528
650.62	69.231
650.94	68.704
651.27	71.322
651.60	69.009
651.92	70.455
652.25	69.805
652.58	68.333
652.90	71.184
653.23	69.412
653.56	65.144
653.88	70.103
654.21	66.550
654.54	67.742
654.86	70.289
655.19	67.982
655.52	70.666
655.84	66.451
656.17	74.138
656.49	98.883
656.82	100.000
657.15	80.378
657.47	58.019
657.80	43.243
658.13	42.765
658.45	66.004
658.78	64.306
659.10	64.254
659.43	63.544
659.75	64.726
660.08	64.138
660.41	66.292
660.73	66.436
661.06	69.151
661.38	68.493
661.71	69.610
662.03	72.103
662.36	70.769
662.68	71.018
663.01	72.489
663.33	71.694
663.66	67.674
663.98	71.628
664.31	69.936
664.63	72.581
664.96	66.087
665.28	73.731
665.61	70.996
665.93	73.696
666.26	71.584
666.58	73.154
666.91	75.294
667.23	72.170
667.56	73.460
667.88	72.422
668.21	73.747
668.53	72.577
668.86	69.104
669.18	73.113
669.50	72.397
669.83	70.000
670.15	72.727
670.48	72.010
670.80	71.429
671.13	67.114
671.45	70.548
671.77	71.674
672.10	70.693
672.42	71.910
672.75	72.824
673.07	75.134
673.39	73.578
673.72	68.047
674.04	70.625
674.37	73.093
674.69	73.019
675.01	72.667
675.34	72.973
675.66	74.537
675.98	72.284
676.31	71.789
676.63	76.485
676.95	74.545
677.28	74.588
677.60	74.940
677.92	74.083
678.25	75.930
678.57	72.727
678.89	72.899
679.22	76.957
679.54	70.884
679.86	75.348
680.18	74.951
680.51	71.970
680.83	71.769
681.15	74.800
681.48	75.410
681.80	74.587
682.12	72.581
682.44	71.757
682.77	77.263
683.09	76.201
683.41	74.318
683.73	71.429
684.06	71.681
684.38	74.624
684.70	74.946
685.02	76.556
685.34	73.913
685.67	75.422
685.99	75.588
686.31	73.628
686.63	73.469
686.96	70.722
687.28	71.919
687.60	71.293
687.92	78.384
688.24	72.581
688.56	75.109
688.89	74.554
689.21	73.333
689.53	72.390
689.85	72.326
690.17	73.661
690.49	76.359
690.82	75.728
691.14	75.000
691.46	76.168
691.78	73.423
692.10	76.774
692.42	75.541
692.74	74.359
693.06	76.126
693.39	73.756
693.71	71.719
694.03	75.289
694.35	76.168
694.67	76.515
694.99	72.846
695.31	75.457
695.63	76.500
695.95	73.232
696.27	75.389
696.59	75.278
696.91	77.031
697.23	72.237
697.56	76.733
697.88	73.978
698.20	77.221
698.52	76.941
698.84	73.445
699.16	76.000
699.48	77.193
699.80	73.697
700.12	79.245
700.44	74.790
700.76	73.837
701.08	77.576
701.40	77.108
701.72	82.099
702.04	83.498
702.36	83.278
702.68	78.378
703.00	79.394
703.32	76.540
703.64	71.469
703.96	78.261
704.28	80.368
704.60	82.222
704.91	76.025
705.23	80.731
705.55	86.926
705.87	83.394
706.19	83.704
706.51	79.725
706.83	81.350
707.15	81.308
707.47	77.591
707.79	77.083
708.11	79.500
708.43	78.250
708.74	76.227
709.06	80.845
709.38	80.734
709.70	77.515
710.02	81.847
710.34	76.780
710.66	76.923
710.98	80.132
711.29	82.623
711.61	80.000
711.93	79.153
712.25	77.320
712.57	82.418
712.89	79.478
713.20	77.855
713.52	79.443
713.84	83.276
714.16	84.536
714.48	81.290
714.80	81.090
715.11	82.371
715.43	76.803
715.75	79.333
716.07	79.070
716.39	80.201
716.70	80.443
717.02	72.901
717.34	84.615
717.66	80.531
717.97	87.391
718.29	82.427
718.61	85.039
718.93	75.581
719.24	80.989
719.56	87.149
719.88	74.227
720.20	85.227
720.51	74.713
720.83	84.942
721.15	84.454
721.46	79.839
721.78	81.818
722.10	79.926
722.42	83.817
722.73	77.551
723.05	84.898
723.37	86.017
723.68	84.685
724.00	84.188
724.32	82.667
724.63	84.091
724.95	83.843
725.27	86.175
725.58	83.898
725.90	78.968
726.22	85.328
726.53	80.339
726.85	81.273
727.16	84.906
727.48	81.377
727.80	82.996
728.11	86.017
728.43	79.216
728.74	79.032
729.06	86.000
729.38	80.827
729.69	84.064
730.01	82.692
730.32	82.836
730.64	81.979
730.96	88.679
731.27	80.000
731.59	81.695
731.90	84.713
732.22	79.495
732.53	86.379
732.85	83.688
733.16	84.512
733.48	79.856
733.80	87.319
734.11	81.695
734.43	86.254
734.74	81.212
735.06	84.365
735.37	81.571
735.69	87.205
736.00	85.714
736.32	84.899
736.63	82.042
736.95	83.959
737.26	86.121
737.58	78.859
737.89	87.912
738.21	90.977
738.52	88.889
738.83	89.956
739.15	89.083
739.46	85.433
739.78	79.121
740.09	85.294
740.41	87.319
740.72	81.102
741.04	91.903
741.35	85.957
741.66	83.886
741.98	86.735
742.29	89.109
742.61	93.194
742.92	81.043
743.23	81.481
743.55	85.973
743.86	83.732
744.18	84.689
744.49	87.234
744.80	92.935
745.12	95.187
745.43	81.463
745.74	90.625
746.06	92.195
746.37	96.859
746.68	89.100
747.00	88.298
747.31	92.537
747.62	87.379
747.94	88.517
748.25	90.594
748.56	100.000
748.88	87.958
749.19	93.085
749.50	84.236
749.82	82.547
750.13	94.495
750.44	91.353
750.75	89.552
751.07	87.226
751.38	88.889
751.69	81.569
752.01	87.984
752.32	91.235
752.63	83.399
752.94	86.207
753.26	89.958
753.57	86.425
753.88	92.035
754.19	87.917
754.51	90.496
754.82	87.045
755.13	96.667
755.44	81.452
755.75	85.547
756.07	85.603
756.38	85.283
756.69	86.207
757.00	85.333
757.31	85.294
757.63	85.061
757.94	85.278
758.25	85.205
758.56	84.840
758.87	81.303
759.18	79.439
759.50	89.091
759.81	86.622
760.12	87.419
760.43	80.000
760.74	86.111
761.05	86.154
761.36	82.102
761.67	88.788
761.99	87.415
762.30	85.091
762.61	83.004
762.92	87.783
763.23	84.234
763.54	87.850
763.85	89.407
764.16	85.062
764.47	89.919
764.78	79.853
765.10	90.572
765.41	86.435
765.72	87.937
766.03	87.970
766.34	87.591
766.65	88.048
766.96	93.434
767.27	94.149
767.58	88.506
767.89	97.872
768.20	82.955
768.51	86.813
768.82	82.266
769.13	82.488
769.44	84.120
769.75	92.237
770.06	83.190
770.37	89.904
770.68	91.371
770.99	91.403
771.30	94.608
771.61	90.045
771.92	93.534
772.23	96.059
772.54	90.860
772.85	90.741
773.16	87.640
773.47	105.229
773.78	97.386
774.09	86.228
774.39	94.000
774.70	88.535
775.01	91.724
775.32	85.714
775.63	97.521
775.94	91.603
776.25	90.551
776.56	104.167
776.87	97.115
777.18	91.453
777.48	84.483
777.79	86.957
778.10	88.571
778.41	90.991
778.72	94.444
779.03	90.977
779.34	95.035
779.65	95.205
779.95	88.356
780.26	82.069
780.57	92.683
780.88	87.402
781.19	93.103
781.50	89.922
781.80	82.840
782.11	87.421
782.42	100.769
782.73	101.439
783.04	91.852
783.34	84.722
783.65	88.034
783.96	92.623
784.27	88.966
784.57	100.000
784.88	80.469
785.19	106.000
785.50	102.000
785.81	88.793
786.11	87.931
786.42	91.262
786.73	98.182
787.04	93.878
787.34	87.500
787.65	93.333
787.96	84.956
788.26	97.273
788.57	89.744
788.88	87.500
789.19	85.714
789.49	86.087
789.80	109.184
790.11	92.929
790.41	81.818
790.72	91.304
791.03	93.182
791.33	101.250
791.64	90.000
791.95	81.395
792.25	85.106
792.56	104.494
792.87	87.671
793.17	81.159
793.48	80.000
793.79	90.000
794.09	111.250
794.40	89.623
794.70	98.058
795.01	82.114
795.32	97.436
795.62	95.238
795.93	99.020
796.23	90.566
796.54	89.583
796.85	102.941
797.15	92.958
797.46	104.167
797.76	95.455
798.07	68.605
798.37	90.789
798.68	104.545
798.99	74.074
799.29	100.000
799.60	98.551
799.90	90.667
800.21	111.475
800.51	118.462
800.82	77.966
801.12	91.304
801.43	96.721
801.73	88.889
802.04	114.000
802.34	80.597
802.65	105.769
802.95	89.286
803.26	76.923
803.56	105.882
803.87	97.826
804.17	89.333
804.48	98.413
804.78	96.296
805.09	84.783
805.39	104.444
805.70	81.481
806.00	80.702
806.30	85.915
806.61	80.000
806.91	88.889
807.22	89.474
807.52	92.000
807.83	107.273
808.13	84.722
808.43	92.647
808.74	65.672
809.04	84.746
809.35	119.231
809.65	84.375
809.95	91.892
810.26	93.182
810.56	67.123
810.86	116.667
811.17	78.000
811.47	81.633
811.77	102.632
812.08	102.273
812.38	86.792
812.69	100.000
812.99	93.939
813.29	86.842
813.59	68.571
813.90	84.091
814.20	112.821
814.50	96.154
814.81	103.774
815.11	102.128
815.41	83.051
815.72	102.381
816.02	86.275
816.32	102.083
816.62	75.610
816.93	70.270
817.23	77.143
817.53	106.250
817.84	89.130
818.14	88.462
818.44	60.526
818.74	78.261
819.04	57.500
819.35	110.811
819.65	117.647
819.95	77.778
820.25	76.190
820.56	95.000
820.86	86.207
821.16	127.500
821.46	112.766
821.76	90.000
822.07	90.698
822.37	48.649
822.67	81.250
822.97	85.714
823.27	92.857
823.57	128.000
823.88	62.963
824.18	132.143
824.48	91.176
824.78	93.548
825.08	100.000
825.38	106.061
825.69	108.333
825.99	78.947
826.29	91.667
826.59	206.667
826.89	133.333
827.19	69.565
827.49	82.500
827.79	80.000
828.09	117.857
828.39	124.242
828.70	121.622
829.00	103.571
829.30	133.333
829.60	120.000
829.90	100.000
830.20	84.211
830.50	111.111
830.80	121.739
831.10	104.545
831.40	109.091
831.70	93.548
832.00	114.286
832.30	123.810
832.60	175.000
832.90	106.897
833.20	75.000
833.50	118.182
833.80	59.259
834.10	92.308
834.40	100.000
834.70	166.667
835.00	105.263
835.30	111.538
835.60	120.000
835.90	80.645
836.20	100.000
836.50	135.714
836.80	53.846
837.10	96.429
837.40	400.000
837.70	95.455
838.00	145.455
838.30	86.957
838.60	146.154
838.90	100.000
839.19	71.429
839.49	73.333
839.79	123.077
840.09	75.000
840.39	114.286
840.69	75.000
840.99	80.769
841.29	57.895
841.59	30.000
841.88	118.182
842.18	150.000
842.48	106.250
842.78	160.000
843.08	66.667
843.38	80.000
843.68	91.304
843.97	173.333
844.27	73.333
844.57	80.000
844.87	94.444
845.17	90.476
845.47	120.000
845.76	100.000
846.06	82.353
846.36	100.000
846.66	57.143
846.96	80.000
847.25	125.000
847.55	121.429
847.85	112.500
848.15	90.909
848.44	-133.333
848.74	70.000
849.04	92.593
849.34	127.273
849.63	116.667
849.93	40.000
850.23	105.556
850.53	240.000
850.82	115.385
851.12	155.556
851.42	-20.000
851.71	107.692
852.01	135.714
852.31	375.000
852.61	136.364
852.90	60.000
853.20	121.053
853.50	75.000
853.79	91.304
854.09	112.500
854.39	100.000
854.68	70.833
854.98	93.548
855.28	76.923
855.57	125.000
855.87	150.000
856.17	111.111
856.46	207.143
856.76	140.000
857.05	177.778
857.35	120.000
857.65	150.000
857.94	107.692
858.24	65.517
858.53	122.222
858.83	92.593
859.13	140.909
859.42	60.870
859.72	300.000
860.01	0.000
860.31	100.000
860.60	76.190
860.90	66.667
861.20	60.000
861.49	-150.000
861.79	80.000
862.08	70.000
862.38	166.667
862.67	240.000
862.97	233.333
863.26	150.000
863.56	133.333
863.85	133.333
864.15	111.111
864.44	140.000
864.74	157.143
865.03	-300.000
865.33	-100.000
865.62	133.333
865.92	41.667
866.21	-116.667
866.51	156.250
866.80	109.091
867.10	50.000
867.39	150.000
867.69	0.000
867.98	192.308
868.27	33.333
868.57	80.000
868.86	122.222
869.16	69.231
869.45	120.000
869.75	-500.000
870.04	0.000
870.33	42.857
870.63	57.143
870.92	-300.000
871.22	40.000
871.51	-100.000
871.80	166.667
872.10	-133.333
>>>>>End Processed Spectral Data<<<<<
