SpectraSuite Data File
++++++++++++++++++++++++++++++++++++
Date: Fri May 15 17:23:57 PDT 2015
User: schluterlab
Dark Spectrum Present: Yes
Reference Spectrum Present: Yes
Number of Sampled Component Spectra: 1
Spectrometers: USB2E3373
Integration Time (usec): 3000 (USB2E3373)
Spectra Averaged: 3 (USB2E3373)
Boxcar Smoothing: 0 (USB2E3373)
Correct for Electrical Dark: No (USB2E3373)
Strobe/Lamp Enabled: No (USB2E3373)
Correct for Detector Non-linearity: No (USB2E3373)
Correct for Stray Light: No (USB2E3373)
Number of Pixels in Processed Spectrum: 2048
>>>>>Begin Processed Spectral Data<<<<<
178.53	0.000
178.91	0.000
179.29	187.500
179.67	-100.000
180.04	28.571
180.42	150.000
180.80	100.000
181.18	-366.667
181.56	-200.000
181.94	300.000
182.31	-600.000
182.69	120.000
183.07	100.000
183.45	20.000
183.83	66.667
184.20	18.182
184.58	-33.333
184.96	-150.000
185.34	-333.333
185.72	-100.000
186.09	46.154
186.47	-300.000
186.85	83.333
187.23	133.333
187.61	-1300.000
187.98	233.333
188.36	22.222
188.74	0.000
189.12	47.059
189.49	88.889
189.87	0.000
190.25	7.143
190.63	200.000
191.00	-233.333
191.38	21.053
191.76	100.000
192.14	25.000
192.51	250.000
192.89	-55.556
193.27	-200.000
193.65	-166.667
194.02	127.273
194.40	80.000
194.78	-112.500
195.15	66.667
195.53	25.000
195.91	200.000
196.29	100.000
196.66	-0.000
197.04	71.429
197.42	-44.444
197.79	-200.000
198.17	-76.923
198.55	900.000
198.92	-133.333
199.30	-700.000
199.68	-20.000
200.05	-300.000
200.43	0.000
200.81	133.333
201.18	0.000
201.56	900.000
201.94	-250.000
202.31	-33.333
202.69	-120.000
203.07	275.000
203.44	1400.000
203.82	0.000
204.19	121.429
204.57	-100.000
204.95	150.000
205.32	170.000
205.70	85.714
206.08	275.000
206.45	144.444
206.83	85.714
207.20	14.286
207.58	-800.000
207.96	-100.000
208.33	-70.000
208.71	25.000
209.08	-133.333
209.46	-500.000
209.84	-180.000
210.21	-500.000
210.59	71.429
210.96	116.667
211.34	75.000
211.71	106.667
212.09	-142.857
212.46	-1300.000
212.84	0.000
213.22	-40.000
213.59	450.000
213.97	92.308
214.34	100.000
214.72	100.000
215.09	100.000
215.47	15.385
215.84	54.545
216.22	33.333
216.59	75.000
216.97	-100.000
217.34	200.000
217.72	-60.000
218.09	75.000
218.47	175.000
218.84	100.000
219.22	22.222
219.59	-40.000
219.97	133.333
220.34	175.000
220.72	-42.857
221.09	50.000
221.47	100.000
221.84	-450.000
222.22	-500.000
222.59	27.273
222.97	100.000
223.34	-166.667
223.72	-7.143
224.09	9.524
224.46	0.000
224.84	366.667
225.21	140.000
225.59	93.333
225.96	150.000
226.34	150.000
226.71	-14.286
227.08	66.667
227.46	25.000
227.83	150.000
228.21	66.667
228.58	36.364
228.95	12.500
229.33	120.000
229.70	56.250
230.08	-50.000
230.45	-100.000
230.82	42.857
231.20	26.667
231.57	78.571
231.95	142.857
232.32	-20.000
232.69	42.857
233.07	0.000
233.44	80.000
233.81	-10.000
234.19	155.556
234.56	47.059
234.93	600.000
235.31	-150.000
235.68	-20.000
236.05	-38.462
236.43	-20.000
236.80	23.529
237.17	25.000
237.55	25.000
237.92	-7.407
238.29	-5.556
238.67	20.000
239.04	-8.824
239.41	-12.195
239.79	13.333
240.16	7.317
240.53	5.263
240.91	13.043
241.28	17.460
241.65	19.643
242.02	30.137
242.40	0.000
242.77	-8.475
243.14	10.606
243.51	3.750
243.89	14.943
244.26	11.494
244.63	-1.190
245.00	2.062
245.38	13.402
245.75	5.618
246.12	7.759
246.49	14.050
246.87	4.808
247.24	-4.202
247.61	0.000
247.98	6.504
248.36	5.000
248.73	0.658
249.10	5.195
249.47	1.899
249.84	2.614
250.22	6.471
250.59	7.190
250.96	8.920
251.33	1.744
251.70	11.765
252.08	4.061
252.45	7.426
252.82	4.020
253.19	6.912
253.56	3.271
253.94	9.009
254.31	5.217
254.68	6.140
255.05	5.118
255.42	6.550
255.79	5.792
256.16	7.004
256.54	10.075
256.91	2.662
257.28	4.833
257.65	4.869
258.02	3.546
258.39	7.744
258.76	8.059
259.14	7.973
259.51	5.502
259.88	3.780
260.25	5.229
260.62	4.514
260.99	4.407
261.36	4.110
261.73	5.380
262.10	5.167
262.47	5.521
262.85	6.270
263.22	2.462
263.59	7.788
263.96	6.832
264.33	4.242
264.70	3.869
265.07	3.869
265.44	7.082
265.81	4.237
266.18	5.464
266.55	10.540
266.92	4.145
267.29	6.527
267.66	6.905
268.03	3.403
268.40	0.783
268.77	6.952
269.14	8.873
269.51	2.828
269.88	4.738
270.25	2.041
270.62	5.366
270.99	2.813
271.36	5.134
271.73	4.460
272.10	5.109
272.47	4.728
272.84	4.208
273.21	9.745
273.58	7.711
273.95	7.780
274.32	4.850
274.69	2.262
275.06	6.696
275.43	4.082
275.80	4.857
276.17	3.218
276.54	4.711
276.91	5.702
277.28	4.585
277.65	5.785
278.02	7.660
278.39	4.595
278.76	2.935
279.13	2.697
279.50	6.303
279.87	4.968
280.23	3.656
280.60	7.212
280.97	7.071
281.34	3.269
281.71	7.392
282.08	3.885
282.45	2.740
282.82	2.896
283.19	6.770
283.56	4.432
283.92	4.364
284.29	5.000
284.66	3.682
285.03	5.108
285.40	4.159
285.77	3.866
286.14	2.888
286.51	5.535
286.87	3.291
287.24	5.341
287.61	5.291
287.98	7.544
288.35	3.813
288.72	6.305
289.08	5.035
289.45	4.921
289.82	8.392
290.19	3.242
290.56	3.945
290.93	2.694
291.29	3.082
291.66	5.984
292.03	5.742
292.40	6.452
292.77	2.711
293.13	2.597
293.50	3.338
293.87	5.344
294.24	4.019
294.60	5.663
294.97	5.952
295.34	3.988
295.71	4.173
296.08	3.737
296.44	1.707
296.81	3.333
297.18	3.043
297.55	7.182
297.91	4.521
298.28	5.277
298.65	3.664
299.02	5.391
299.38	2.326
299.75	2.897
300.12	3.272
300.48	3.557
300.85	5.070
301.22	4.286
301.59	4.605
301.95	5.949
302.32	5.707
302.69	3.980
303.05	2.970
303.42	4.608
303.79	4.790
304.15	4.540
304.52	3.092
304.89	4.561
305.25	5.085
305.62	4.667
305.99	3.158
306.35	3.237
306.72	3.262
307.09	2.965
307.45	5.166
307.82	2.546
308.19	4.413
308.55	3.599
308.92	5.664
309.29	3.575
309.65	3.767
310.02	4.290
310.38	4.391
310.75	4.590
311.12	5.274
311.48	4.030
311.85	5.654
312.22	3.586
312.58	4.565
312.95	5.870
313.31	3.106
313.68	4.398
314.05	4.388
314.41	5.773
314.78	4.639
315.14	5.653
315.51	5.590
315.87	4.918
316.24	6.471
316.61	5.512
316.97	6.052
317.34	6.152
317.70	4.780
318.07	6.827
318.43	7.549
318.80	6.534
319.16	7.617
319.53	7.882
319.89	6.791
320.26	9.109
320.62	8.626
320.99	8.038
321.35	8.119
321.72	8.204
322.08	10.373
322.45	10.254
322.81	10.216
323.18	10.010
323.54	9.266
323.91	11.295
324.27	11.816
324.64	10.955
325.00	13.412
325.37	13.682
325.73	13.418
326.10	13.351
326.46	14.709
326.83	15.223
327.19	15.170
327.56	15.552
327.92	17.782
328.29	15.625
328.65	15.849
329.01	17.923
329.38	17.788
329.74	16.997
330.11	17.702
330.47	18.924
330.84	18.077
331.20	20.817
331.56	18.889
331.93	20.548
332.29	21.357
332.66	20.362
333.02	21.654
333.38	20.165
333.75	21.612
334.11	22.113
334.48	22.665
334.84	22.619
335.20	22.141
335.57	21.668
335.93	23.487
336.29	23.389
336.66	23.070
337.02	21.654
337.38	22.130
337.75	24.182
338.11	23.625
338.47	24.270
338.84	23.567
339.20	23.218
339.56	24.312
339.93	24.709
340.29	25.138
340.65	24.731
341.02	24.202
341.38	23.274
341.74	21.731
342.11	23.830
342.47	23.932
342.83	24.048
343.20	24.042
343.56	23.565
343.92	23.826
344.28	25.619
344.65	23.489
345.01	24.028
345.37	22.876
345.73	24.017
346.10	24.676
346.46	25.063
346.82	23.077
347.19	23.857
347.55	24.645
347.91	23.544
348.27	23.767
348.63	25.383
349.00	24.364
349.36	24.439
349.72	24.544
350.08	24.426
350.45	24.820
350.81	23.173
351.17	22.557
351.53	24.163
351.89	23.204
352.26	23.760
352.62	24.516
352.98	23.936
353.34	23.671
353.70	24.515
354.07	24.758
354.43	24.339
354.79	24.525
355.15	25.079
355.51	24.209
355.87	24.272
356.24	24.144
356.60	23.525
356.96	24.921
357.32	24.760
357.68	23.925
358.04	24.637
358.40	24.518
358.77	26.316
359.13	22.898
359.49	23.575
359.85	24.883
360.21	23.923
360.57	25.631
360.93	25.492
361.29	25.000
361.66	25.549
362.02	25.303
362.38	25.362
362.74	24.981
363.10	25.207
363.46	26.686
363.82	25.394
364.18	25.018
364.54	25.441
364.90	25.161
365.26	24.745
365.62	25.839
365.98	24.780
366.35	25.419
366.71	25.425
367.07	25.254
367.43	25.306
367.79	25.512
368.15	25.844
368.51	26.074
368.87	25.341
369.23	25.126
369.59	25.364
369.95	25.806
370.31	27.023
370.67	25.896
371.03	25.541
371.39	26.185
371.75	26.081
372.11	26.248
372.47	26.036
372.83	27.466
373.19	26.748
373.55	26.065
373.91	27.142
374.27	26.931
374.63	27.782
374.99	25.957
375.35	27.019
375.71	26.993
376.07	27.528
376.42	26.531
376.78	27.919
377.14	26.676
377.50	26.760
377.86	27.510
378.22	27.824
378.58	27.756
378.94	27.473
379.30	28.883
379.66	28.088
380.02	27.223
380.38	27.267
380.74	28.306
381.09	28.650
381.45	28.257
381.81	28.192
382.17	27.982
382.53	27.858
382.89	28.311
383.25	28.687
383.61	29.024
383.97	28.571
384.32	28.893
384.68	29.164
385.04	28.309
385.40	28.563
385.76	30.629
386.12	29.301
386.48	30.077
386.83	28.789
387.19	29.609
387.55	29.799
387.91	29.523
388.27	28.938
388.62	30.837
388.98	29.650
389.34	29.794
389.70	30.329
390.06	29.515
390.42	29.598
390.77	30.020
391.13	30.013
391.49	29.819
391.85	30.084
392.20	29.755
392.56	29.371
392.92	29.419
393.28	30.601
393.64	29.309
393.99	30.031
394.35	29.032
394.71	29.693
395.07	29.478
395.42	28.415
395.78	30.163
396.14	30.013
396.50	30.564
396.85	30.779
397.21	29.950
397.57	29.592
397.92	30.198
398.28	29.828
398.64	29.759
399.00	30.587
399.35	28.837
399.71	29.581
400.07	29.927
400.42	28.825
400.78	29.455
401.14	29.462
401.49	30.197
401.85	29.372
402.21	29.337
402.57	30.375
402.92	28.984
403.28	29.198
403.63	28.752
403.99	28.699
404.35	30.169
404.70	27.798
405.06	29.025
405.42	28.776
405.77	28.414
406.13	28.813
406.49	28.597
406.84	28.606
407.20	28.958
407.55	28.461
407.91	28.476
408.27	28.489
408.62	30.031
408.98	29.020
409.34	28.129
409.69	28.618
410.05	28.264
410.40	28.642
410.76	29.855
411.11	30.000
411.47	29.060
411.83	28.374
412.18	28.443
412.54	27.466
412.89	28.510
413.25	28.099
413.60	28.323
413.96	27.791
414.31	28.537
414.67	29.250
415.03	29.361
415.38	28.068
415.74	29.902
416.09	29.197
416.45	29.845
416.80	28.619
417.16	29.420
417.51	29.181
417.87	28.618
418.22	29.210
418.58	28.227
418.93	29.530
419.29	28.553
419.64	29.358
420.00	30.542
420.35	29.791
420.71	29.587
421.06	29.957
421.42	29.507
421.77	30.462
422.12	28.717
422.48	28.695
422.83	29.582
423.19	29.966
423.54	29.101
423.90	28.269
424.25	30.195
424.61	31.151
424.96	29.559
425.31	30.098
425.67	29.930
426.02	31.037
426.38	31.371
426.73	29.600
427.09	31.456
427.44	31.706
427.79	30.701
428.15	30.643
428.50	30.951
428.85	30.221
429.21	31.409
429.56	31.806
429.92	31.536
430.27	30.426
430.62	29.430
430.98	31.157
431.33	30.862
431.68	30.769
432.04	31.638
432.39	31.603
432.74	31.088
433.10	32.414
433.45	31.661
433.80	31.399
434.16	30.970
434.51	32.097
434.86	31.649
435.22	32.866
435.57	33.125
435.92	31.796
436.28	32.141
436.63	31.945
436.98	31.750
437.34	32.547
437.69	33.512
438.04	33.105
438.39	32.560
438.75	33.151
439.10	32.824
439.45	32.988
439.81	32.905
440.16	33.432
440.51	34.090
440.86	35.468
441.22	33.032
441.57	33.609
441.92	33.683
442.27	34.035
442.63	34.475
442.98	32.740
443.33	33.834
443.68	33.740
444.03	34.128
444.39	34.235
444.74	34.615
445.09	34.521
445.44	34.530
445.79	34.812
446.15	33.260
446.50	34.276
446.85	34.591
447.20	35.454
447.55	35.324
447.91	34.292
448.26	33.978
448.61	35.233
448.96	35.571
449.31	34.624
449.66	34.611
450.02	34.569
450.37	35.092
450.72	35.510
451.07	35.696
451.42	34.707
451.77	34.418
452.12	34.151
452.47	35.093
452.83	34.923
453.18	34.156
453.53	35.209
453.88	35.216
454.23	34.726
454.58	36.272
454.93	36.856
455.28	34.413
455.63	36.702
455.98	36.741
456.34	35.632
456.69	36.023
457.04	36.421
457.39	36.270
457.74	35.127
458.09	35.550
458.44	35.752
458.79	35.630
459.14	37.014
459.49	36.896
459.84	36.943
460.19	35.862
460.54	37.103
460.89	36.648
461.24	36.087
461.59	36.936
461.94	35.975
462.29	36.912
462.64	37.342
462.99	36.967
463.34	36.509
463.69	37.066
464.04	36.864
464.39	36.628
464.74	36.380
465.09	37.555
465.44	36.930
465.79	35.488
466.14	36.944
466.49	35.998
466.84	37.121
467.19	37.297
467.54	36.462
467.89	36.766
468.24	37.470
468.59	37.651
468.94	37.270
469.29	37.049
469.64	37.662
469.99	38.893
470.34	36.997
470.68	37.808
471.03	37.792
471.38	37.874
471.73	37.605
472.08	37.585
472.43	37.852
472.78	37.286
473.13	39.320
473.48	37.850
473.83	38.169
474.17	37.435
474.52	37.652
474.87	38.606
475.22	37.889
475.57	38.227
475.92	39.166
476.27	39.057
476.61	38.889
476.96	37.981
477.31	37.534
477.66	38.258
478.01	38.181
478.36	39.270
478.70	39.913
479.05	39.066
479.40	39.110
479.75	37.591
480.10	37.788
480.45	37.500
480.79	38.822
481.14	38.781
481.49	38.079
481.84	39.624
482.19	38.681
482.53	39.185
482.88	38.425
483.23	39.587
483.58	39.057
483.92	38.432
484.27	38.560
484.62	39.175
484.97	38.060
485.31	38.042
485.66	36.916
486.01	36.555
486.36	36.405
486.70	37.315
487.05	37.101
487.40	37.590
487.75	37.296
488.09	37.361
488.44	37.964
488.79	38.625
489.13	39.423
489.48	38.777
489.83	38.834
490.17	39.596
490.52	39.815
490.87	39.426
491.22	39.589
491.56	39.326
491.91	39.532
492.26	41.663
492.60	39.923
492.95	40.285
493.30	39.814
493.64	40.373
493.99	40.048
494.34	39.078
494.68	39.857
495.03	39.416
495.37	40.530
495.72	40.485
496.07	40.049
496.41	40.094
496.76	39.843
497.11	39.870
497.45	40.573
497.80	40.716
498.14	40.586
498.49	41.036
498.84	39.770
499.18	41.064
499.53	39.831
499.87	40.175
500.22	39.960
500.56	41.301
500.91	39.859
501.26	40.386
501.60	41.367
501.95	40.757
502.29	40.436
502.64	41.023
502.98	41.835
503.33	40.298
503.67	40.434
504.02	41.007
504.36	40.426
504.71	40.556
505.06	41.470
505.40	41.574
505.75	41.753
506.09	40.598
506.44	41.427
506.78	41.939
507.13	41.986
507.47	41.201
507.82	41.132
508.16	42.102
508.51	41.605
508.85	41.497
509.19	41.458
509.54	41.877
509.88	41.802
510.23	41.581
510.57	42.010
510.92	41.471
511.26	43.044
511.61	42.354
511.95	41.808
512.30	42.184
512.64	42.348
512.98	42.953
513.33	42.138
513.67	42.467
514.02	42.735
514.36	43.600
514.70	44.114
515.05	43.067
515.39	43.329
515.74	44.192
516.08	44.053
516.42	43.816
516.77	43.710
517.11	43.442
517.46	43.806
517.80	43.385
518.14	43.968
518.49	43.630
518.83	44.228
519.17	42.874
519.52	43.458
519.86	43.818
520.20	43.499
520.55	43.652
520.89	44.668
521.23	43.952
521.58	45.047
521.92	45.128
522.26	45.283
522.61	44.740
522.95	46.291
523.29	43.774
523.64	44.091
523.98	46.079
524.32	43.879
524.66	45.391
525.01	44.351
525.35	44.718
525.69	45.791
526.04	46.693
526.38	45.201
526.72	43.427
527.06	45.266
527.41	44.921
527.75	43.432
528.09	44.718
528.43	45.780
528.78	44.356
529.12	44.903
529.46	45.159
529.80	44.079
530.15	44.620
530.49	45.522
530.83	45.349
531.17	45.870
531.51	46.170
531.86	45.139
532.20	45.233
532.54	45.405
532.88	46.201
533.22	45.497
533.57	44.233
533.91	43.930
534.25	45.638
534.59	44.644
534.93	44.682
535.27	43.972
535.62	44.783
535.96	45.140
536.30	45.383
536.64	45.968
536.98	44.739
537.32	46.871
537.66	46.143
538.01	47.133
538.35	45.215
538.69	45.340
539.03	45.181
539.37	45.087
539.71	44.785
540.05	44.603
540.39	45.706
540.73	46.025
541.07	45.994
541.42	46.707
541.76	46.111
542.10	45.630
542.44	44.267
542.78	44.460
543.12	45.124
543.46	45.828
543.80	46.149
544.14	43.391
544.48	45.370
544.82	45.660
545.16	45.902
545.50	44.793
545.84	46.884
546.18	45.603
546.52	46.359
546.86	45.938
547.20	45.994
547.54	44.099
547.88	45.380
548.22	44.050
548.56	44.723
548.90	45.081
549.24	45.041
549.58	45.063
549.92	45.247
550.26	46.007
550.60	45.651
550.94	46.677
551.28	45.904
551.62	46.538
551.96	46.466
552.30	44.737
552.64	46.474
552.98	46.343
553.32	45.720
553.66	45.573
554.00	46.131
554.34	46.529
554.68	45.501
555.02	47.917
555.36	46.746
555.69	46.447
556.03	46.181
556.37	45.480
556.71	44.188
557.05	46.532
557.39	46.320
557.73	46.702
558.07	45.626
558.41	45.865
558.75	46.376
559.08	46.651
559.42	46.825
559.76	47.318
560.10	45.795
560.44	45.272
560.78	45.175
561.12	47.250
561.45	45.678
561.79	46.429
562.13	46.416
562.47	46.691
562.81	45.965
563.15	47.038
563.48	46.181
563.82	46.603
564.16	45.752
564.50	45.135
564.84	47.323
565.17	45.741
565.51	47.678
565.85	45.816
566.19	46.286
566.52	47.654
566.86	45.951
567.20	45.268
567.54	45.985
567.88	46.221
568.21	45.305
568.55	44.783
568.89	45.329
569.23	44.921
569.56	44.046
569.90	44.011
570.24	41.980
570.57	42.655
570.91	43.709
571.25	41.631
571.59	41.794
571.92	40.267
572.26	41.516
572.60	41.209
572.93	41.167
573.27	41.787
573.61	41.766
573.95	40.715
574.28	41.049
574.62	40.453
574.96	40.489
575.29	40.712
575.63	39.570
575.97	40.363
576.30	40.905
576.64	39.947
576.98	41.133
577.31	40.600
577.65	39.839
577.98	40.025
578.32	39.750
578.66	39.351
578.99	40.384
579.33	40.020
579.67	40.626
580.00	40.253
580.34	40.373
580.67	39.960
581.01	40.418
581.35	39.858
581.68	39.992
582.02	39.714
582.35	39.870
582.69	40.066
583.02	39.821
583.36	40.856
583.70	41.147
584.03	41.785
584.37	41.954
584.70	40.989
585.04	40.000
585.37	39.754
585.71	40.558
586.04	40.595
586.38	40.277
586.72	41.636
587.05	41.652
587.39	41.264
587.72	41.607
588.06	41.295
588.39	41.698
588.73	41.575
589.06	42.661
589.40	42.102
589.73	42.461
590.07	42.674
590.40	42.415
590.73	43.657
591.07	43.511
591.40	44.568
591.74	43.620
592.07	43.692
592.41	42.800
592.74	42.174
593.08	41.006
593.41	41.878
593.75	40.726
594.08	40.714
594.41	41.557
594.75	41.832
595.08	41.998
595.42	42.068
595.75	43.522
596.09	42.690
596.42	43.282
596.75	42.851
597.09	43.417
597.42	43.586
597.75	43.518
598.09	42.191
598.42	42.148
598.76	42.214
599.09	41.667
599.42	41.493
599.76	41.535
600.09	42.044
600.42	41.471
600.76	41.270
601.09	41.527
601.42	41.755
601.76	42.358
602.09	42.409
602.42	43.008
602.76	42.275
603.09	43.355
603.42	43.813
603.76	41.573
604.09	42.608
604.42	42.682
604.76	43.302
605.09	42.687
605.42	42.077
605.75	42.250
606.09	42.335
606.42	41.660
606.75	41.991
607.09	42.505
607.42	42.490
607.75	43.028
608.08	42.049
608.42	41.846
608.75	43.036
609.08	44.544
609.41	44.162
609.75	43.649
610.08	43.884
610.41	42.947
610.74	42.857
611.07	44.134
611.41	44.629
611.74	43.710
612.07	42.184
612.40	43.381
612.73	43.333
613.07	43.926
613.40	45.077
613.73	43.872
614.06	43.517
614.39	44.670
614.72	43.417
615.06	43.855
615.39	44.214
615.72	43.003
616.05	43.352
616.38	43.248
616.71	44.465
617.05	44.781
617.38	44.186
617.71	44.465
618.04	45.714
618.37	46.217
618.70	46.733
619.03	46.528
619.36	45.514
619.69	47.763
620.03	47.918
620.36	45.637
620.69	46.039
621.02	44.954
621.35	47.386
621.68	48.469
622.01	47.167
622.34	46.209
622.67	46.924
623.00	44.870
623.33	45.198
623.66	45.400
623.99	44.554
624.32	46.844
624.65	44.586
624.99	45.974
625.32	45.716
625.65	47.054
625.98	46.011
626.31	46.218
626.64	47.314
626.97	47.382
627.30	48.511
627.63	46.707
627.96	47.978
628.29	46.901
628.62	49.164
628.95	48.998
629.28	48.992
629.61	48.554
629.94	50.049
630.26	48.221
630.59	49.428
630.92	49.128
631.25	46.667
631.58	49.339
631.91	48.355
632.24	50.803
632.57	51.136
632.90	49.822
633.23	49.882
633.56	51.385
633.89	51.788
634.22	51.728
634.55	50.699
634.88	50.192
635.20	49.487
635.53	53.733
635.86	49.935
636.19	50.970
636.52	50.128
636.85	50.868
637.18	50.818
637.51	49.434
637.83	50.854
638.16	52.115
638.49	48.093
638.82	51.316
639.15	51.153
639.48	52.407
639.81	50.767
640.13	52.958
640.46	50.875
640.79	51.988
641.12	51.256
641.45	51.351
641.77	53.333
642.10	51.975
642.43	51.929
642.76	51.155
643.09	53.150
643.41	50.485
643.74	51.730
644.07	51.888
644.40	53.378
644.73	54.466
645.05	52.181
645.38	54.674
645.71	54.255
646.04	53.860
646.36	50.887
646.69	55.576
647.02	55.955
647.35	55.970
647.67	55.759
648.00	53.545
648.33	52.218
648.66	51.695
648.98	50.419
649.31	52.727
649.64	48.195
649.96	48.947
650.29	53.492
650.62	52.650
650.94	52.963
651.27	53.818
651.60	52.252
651.92	50.699
652.25	51.510
652.58	51.833
652.90	53.002
653.23	50.588
653.56	52.961
653.88	53.780
654.21	49.737
654.54	50.255
654.86	49.236
655.19	47.661
655.52	43.963
655.84	36.582
656.17	40.135
656.49	54.025
656.82	56.601
657.15	43.657
657.47	33.200
657.80	24.847
658.13	24.884
658.45	38.830
658.78	39.271
659.10	39.422
659.43	39.711
659.75	41.885
660.08	42.621
660.41	46.782
660.73	47.238
661.06	51.646
661.38	51.468
661.71	47.228
662.03	54.936
662.36	54.945
662.68	53.761
663.01	53.930
663.33	53.828
663.66	51.628
663.98	52.791
664.31	54.797
664.63	53.456
664.96	47.391
665.28	52.318
665.61	52.814
665.93	54.565
666.26	54.013
666.58	51.007
666.91	53.882
667.23	55.660
667.56	49.526
667.88	57.074
668.21	54.893
668.53	55.792
668.86	56.368
669.18	53.538
669.50	52.785
669.83	52.326
670.15	51.515
670.48	52.871
670.80	51.843
671.13	53.020
671.45	50.913
671.77	53.004
672.10	48.317
672.42	49.064
672.75	48.313
673.07	47.764
673.39	48.440
673.72	46.746
674.04	49.167
674.37	50.424
674.69	49.251
675.01	53.333
675.34	50.676
675.66	50.926
675.98	50.776
676.31	55.046
676.63	52.494
676.95	51.818
677.28	54.353
677.60	52.771
677.92	49.083
678.25	50.766
678.57	48.485
678.89	49.790
679.22	48.546
679.54	48.996
679.86	47.714
680.18	45.825
680.51	48.295
680.83	47.316
681.15	48.200
681.48	48.566
681.80	50.207
682.12	48.185
682.44	45.816
682.77	49.227
683.09	52.403
683.41	49.318
683.73	48.387
684.06	50.221
684.38	44.516
684.70	50.980
685.02	47.510
685.34	44.466
685.67	45.591
685.99	46.293
686.31	45.841
686.63	46.197
686.96	44.487
687.28	44.444
687.60	47.148
687.92	49.495
688.24	47.379
688.56	47.162
688.89	46.429
689.21	50.000
689.53	45.940
689.85	44.186
690.17	49.777
690.49	46.099
690.82	45.146
691.14	46.667
691.46	46.729
691.78	45.946
692.10	48.172
692.42	44.589
692.74	47.222
693.06	46.622
693.39	48.190
693.71	44.570
694.03	44.804
694.35	43.692
694.67	45.707
694.99	50.392
695.31	49.608
695.63	48.750
695.95	46.970
696.27	45.337
696.59	51.389
696.91	47.899
697.23	44.730
697.56	44.554
697.88	44.946
698.20	45.786
698.52	46.353
698.84	43.062
699.16	44.750
699.48	48.371
699.80	45.658
700.12	43.935
700.44	48.179
700.76	47.965
701.08	42.727
701.40	48.193
701.72	53.395
702.04	47.855
702.36	52.843
702.68	48.348
703.00	46.364
703.32	49.560
703.64	48.023
703.96	45.797
704.28	50.307
704.60	48.889
704.91	41.640
705.23	47.841
705.55	50.530
705.87	51.264
706.19	52.593
706.51	43.643
706.83	49.196
707.15	40.498
707.47	46.218
707.79	42.448
708.11	45.250
708.43	42.500
708.74	44.186
709.06	45.915
709.38	50.459
709.70	46.450
710.02	44.268
710.34	47.368
710.66	44.872
710.98	44.040
711.29	44.918
711.61	44.068
711.93	44.625
712.25	49.828
712.57	43.590
712.89	45.149
713.20	49.481
713.52	45.296
713.84	43.686
714.16	39.175
714.48	48.387
714.80	47.756
715.11	42.249
715.43	41.379
715.75	45.000
716.07	40.532
716.39	43.960
716.70	39.852
717.02	46.183
717.34	45.749
717.66	50.000
717.97	45.652
718.29	41.841
718.61	47.244
718.93	44.186
719.24	49.049
719.56	46.586
719.88	40.893
720.20	44.697
720.51	39.464
720.83	50.193
721.15	47.479
721.46	45.565
721.78	44.269
722.10	39.033
722.42	39.419
722.73	48.571
723.05	48.163
723.37	46.186
723.68	49.550
724.00	44.872
724.32	44.444
724.63	39.091
724.95	44.978
725.27	39.171
725.58	41.949
725.90	39.286
726.22	44.402
726.53	41.695
726.85	42.697
727.16	43.396
727.48	40.891
727.80	41.296
728.11	45.339
728.43	46.275
728.74	40.726
729.06	44.000
729.38	48.496
729.69	42.629
730.01	34.231
730.32	43.657
730.64	40.636
730.96	44.151
731.27	42.000
731.59	37.966
731.90	39.172
732.22	37.539
732.53	42.857
732.85	41.844
733.16	44.108
733.48	37.410
733.80	38.768
734.11	40.339
734.43	38.144
734.74	39.394
735.06	35.179
735.37	39.577
735.69	41.077
736.00	35.540
736.32	43.960
736.63	39.085
736.95	39.590
737.26	39.502
737.58	36.577
737.89	42.125
738.21	38.346
738.52	39.918
738.83	44.105
739.15	37.991
739.46	41.732
739.78	36.264
740.09	37.582
740.41	40.580
740.72	38.583
741.04	41.700
741.35	41.702
741.66	40.284
741.98	41.327
742.29	43.069
742.61	43.979
742.92	32.701
743.23	36.574
743.55	43.891
743.86	40.670
744.18	37.321
744.49	42.553
744.80	43.478
745.12	41.711
745.43	34.146
745.74	48.958
746.06	35.122
746.37	40.314
746.68	40.284
747.00	43.085
747.31	46.269
747.62	39.320
747.94	38.278
748.25	40.594
748.56	39.344
748.88	40.838
749.19	45.745
749.50	42.857
749.82	39.623
750.13	37.615
750.44	39.098
750.75	38.433
751.07	43.066
751.38	35.632
751.69	36.471
752.01	38.760
752.32	34.661
752.63	36.364
752.94	41.810
753.26	46.444
753.57	39.819
753.88	37.168
754.19	32.083
754.51	37.190
754.82	39.271
755.13	43.750
755.44	32.661
755.75	44.141
756.07	36.187
756.38	33.208
756.69	35.632
757.00	32.000
757.31	33.660
757.63	33.232
757.94	32.500
758.25	30.959
758.56	30.319
758.87	30.595
759.18	34.579
759.50	33.091
759.81	34.114
760.12	37.097
760.43	34.545
760.74	35.802
761.05	34.462
761.36	30.682
761.67	35.152
761.99	37.415
762.30	32.364
762.61	34.783
762.92	34.842
763.23	34.685
763.54	34.579
763.85	39.407
764.16	35.270
764.47	33.468
764.78	34.432
765.10	36.700
765.41	30.915
765.72	34.603
766.03	31.203
766.34	31.022
766.65	35.857
766.96	40.404
767.27	38.830
767.58	41.379
767.89	34.752
768.20	39.205
768.51	35.714
768.82	38.916
769.13	33.641
769.44	32.618
769.75	33.333
770.06	32.328
770.37	36.058
770.68	38.071
770.99	31.222
771.30	36.275
771.61	30.769
771.92	36.207
772.23	34.975
772.54	32.258
772.85	35.802
773.16	33.146
773.47	47.712
773.78	40.523
774.09	39.521
774.39	31.333
774.70	33.758
775.01	40.690
775.32	40.714
775.63	30.579
775.94	25.954
776.25	40.945
776.56	30.000
776.87	44.231
777.18	31.624
777.48	43.966
777.79	31.304
778.10	22.857
778.41	39.640
778.72	38.889
779.03	39.850
779.34	36.879
779.65	41.781
779.95	36.986
780.26	35.172
780.57	34.146
780.88	37.008
781.19	37.069
781.50	34.109
781.80	33.728
782.11	28.302
782.42	34.615
782.73	30.216
783.04	37.037
783.34	30.556
783.65	25.641
783.96	40.164
784.27	35.862
784.57	36.585
784.88	34.375
785.19	39.000
785.50	35.000
785.81	37.069
786.11	36.207
786.42	36.893
786.73	37.273
787.04	43.878
787.34	34.821
787.65	31.429
787.96	33.628
788.26	30.909
788.57	28.205
788.88	32.813
789.19	40.476
789.49	32.174
789.80	30.612
790.11	27.273
790.41	37.273
790.72	34.783
791.03	31.818
791.33	33.750
791.64	32.500
791.95	29.070
792.25	38.298
792.56	43.820
792.87	28.767
793.17	30.435
793.48	25.333
793.79	28.750
794.09	31.250
794.40	32.075
794.70	35.922
795.01	26.829
795.32	30.769
795.62	47.619
795.93	27.451
796.23	32.075
796.54	47.917
796.85	42.647
797.15	28.169
797.46	34.722
797.76	53.030
798.07	30.233
798.37	21.053
798.68	16.667
798.99	37.037
799.29	34.286
799.60	44.928
799.90	38.667
800.21	36.066
800.51	32.308
800.82	38.983
801.12	39.130
801.43	52.459
801.73	28.571
802.04	52.000
802.34	40.299
802.65	44.231
802.95	42.857
803.26	34.615
803.56	31.373
803.87	-2.174
804.17	24.000
804.48	44.444
804.78	24.074
805.09	28.261
805.39	46.667
805.70	48.148
806.00	17.544
806.30	36.620
806.61	38.571
806.91	27.778
807.22	28.947
807.52	34.667
807.83	27.273
808.13	20.833
808.43	29.412
808.74	28.358
809.04	23.729
809.35	30.769
809.65	29.688
809.95	-2.703
810.26	29.545
810.56	24.658
810.86	45.238
811.17	24.000
811.47	42.857
811.77	34.211
812.08	31.818
812.38	35.849
812.69	37.500
812.99	-6.061
813.29	34.211
813.59	31.429
813.90	36.364
814.20	20.513
814.50	32.692
814.81	43.396
815.11	25.532
815.41	35.593
815.72	45.238
816.02	39.216
816.32	35.417
816.62	14.634
816.93	54.054
817.23	34.286
817.53	66.667
817.84	23.913
818.14	30.769
818.44	36.842
818.74	26.087
819.04	-10.000
819.35	56.757
819.65	23.529
819.95	11.111
820.25	47.619
820.56	45.000
820.86	-17.241
821.16	22.500
821.46	36.170
821.76	37.500
822.07	41.860
822.37	-2.703
822.67	37.500
822.97	35.714
823.27	14.286
823.57	12.000
823.88	14.815
824.18	50.000
824.48	20.588
824.78	41.935
825.08	39.130
825.38	36.364
825.69	-33.333
825.99	2.632
826.29	36.111
826.59	6.667
826.89	38.095
827.19	28.261
827.49	15.000
827.79	74.286
828.09	28.571
828.39	33.333
828.70	54.054
829.00	3.571
829.30	28.571
829.60	46.667
829.90	34.375
830.20	28.947
830.50	3.704
830.80	0.000
831.10	40.909
831.40	42.424
831.70	70.968
832.00	66.667
832.30	4.762
832.60	-41.667
832.90	48.276
833.20	35.000
833.50	51.515
833.80	40.741
834.10	7.692
834.40	31.250
834.70	0.000
835.00	10.526
835.30	76.923
835.60	53.333
835.90	32.258
836.20	45.455
836.50	28.571
836.80	-34.615
837.10	28.571
837.40	300.000
837.70	40.909
838.00	72.727
838.30	43.478
838.60	0.000
838.90	63.636
839.19	14.286
839.49	73.333
839.79	30.769
840.09	-41.667
840.39	71.429
840.69	46.429
840.99	7.692
841.29	-31.579
841.59	-20.000
841.88	100.000
842.18	160.000
842.48	0.000
842.78	6.667
843.08	62.963
843.38	10.000
843.68	39.130
843.97	100.000
844.27	20.000
844.57	20.000
844.87	27.778
845.17	4.762
845.47	126.667
845.76	19.048
846.06	17.647
846.36	30.000
846.66	14.286
846.96	-6.667
847.25	-62.500
847.55	78.571
847.85	162.500
848.15	-18.182
848.44	-300.000
848.74	30.000
849.04	66.667
849.34	18.182
849.63	0.000
849.93	-160.000
850.23	-27.778
850.53	120.000
850.82	-53.846
851.12	-11.111
851.42	33.333
851.71	7.692
852.01	50.000
852.31	-75.000
852.61	18.182
852.90	15.000
853.20	10.526
853.50	16.667
853.79	26.087
854.09	83.333
854.39	21.053
854.68	16.667
854.98	35.484
855.28	50.000
855.57	-30.000
855.87	16.667
856.17	44.444
856.46	0.000
856.76	13.333
857.05	77.778
857.35	52.000
857.65	5.556
857.94	-15.385
858.24	31.034
858.53	61.111
858.83	70.370
859.13	54.545
859.42	8.696
859.72	0.000
860.01	233.333
860.31	40.000
860.60	14.286
860.90	-166.667
861.20	-93.333
861.49	-300.000
861.79	-46.667
862.08	0.000
862.38	100.000
862.67	-140.000
862.97	-16.667
863.26	50.000
863.56	83.333
863.85	-166.667
864.15	44.444
864.44	20.000
864.74	64.286
865.03	100.000
865.33	-140.000
865.62	50.000
865.92	8.333
866.21	-100.000
866.51	31.250
866.80	-45.455
867.10	100.000
867.39	83.333
867.69	0.000
867.98	15.385
868.27	-133.333
868.57	46.667
868.86	50.000
869.16	-15.385
869.45	46.667
869.75	-1300.000
870.04	0.000
870.33	-85.714
870.63	0.000
870.92	66.667
871.22	-40.000
871.51	300.000
871.80	277.778
872.10	266.667
>>>>>End Processed Spectral Data<<<<<
