SpectraSuite Data File
++++++++++++++++++++++++++++++++++++
Date: Fri May 15 20:16:47 PDT 2015
User: schluterlab
Dark Spectrum Present: Yes
Reference Spectrum Present: Yes
Number of Sampled Component Spectra: 1
Spectrometers: USB2E3373
Integration Time (usec): 3000 (USB2E3373)
Spectra Averaged: 3 (USB2E3373)
Boxcar Smoothing: 0 (USB2E3373)
Correct for Electrical Dark: No (USB2E3373)
Strobe/Lamp Enabled: No (USB2E3373)
Correct for Detector Non-linearity: No (USB2E3373)
Correct for Stray Light: No (USB2E3373)
Number of Pixels in Processed Spectrum: 2048
>>>>>Begin Processed Spectral Data<<<<<
178.53	0.000
178.91	0.000
179.29	-75.000
179.67	-800.000
180.04	-57.143
180.42	50.000
180.80	200.000
181.18	66.667
181.56	550.000
181.94	-150.000
182.31	-100.000
182.69	-240.000
183.07	-133.333
183.45	-40.000
183.83	216.667
184.20	0.000
184.58	100.000
184.96	-350.000
185.34	133.333
185.72	-250.000
186.09	46.154
186.47	-100.000
186.85	133.333
187.23	100.000
187.61	-300.000
187.98	-200.000
188.36	66.667
188.74	-366.667
189.12	47.059
189.49	55.556
189.87	0.000
190.25	50.000
190.63	-350.000
191.00	-500.000
191.38	36.842
191.76	250.000
192.14	350.000
192.51	250.000
192.89	-111.111
193.27	28.571
193.65	166.667
194.02	127.273
194.40	110.000
194.78	-275.000
195.15	50.000
195.53	-200.000
195.91	250.000
196.29	100.000
196.66	46.154
197.04	300.000
197.42	-66.667
197.79	-466.667
198.17	-100.000
198.55	1000.000
198.92	-133.333
199.30	-1000.000
199.68	-60.000
200.05	-533.333
200.43	0.000
200.81	-100.000
201.18	-200.000
201.56	1200.000
201.94	100.000
202.31	-66.667
202.69	-80.000
203.07	150.000
203.44	300.000
203.82	0.000
204.19	28.571
204.57	-200.000
204.95	125.000
205.32	60.000
205.70	14.286
206.08	-50.000
206.45	155.556
206.83	50.000
207.20	-142.857
207.58	800.000
207.96	-266.667
208.33	-80.000
208.71	-300.000
209.08	-66.667
209.46	-100.000
209.84	-60.000
210.21	-900.000
210.59	-42.857
210.96	-66.667
211.34	25.000
211.71	-26.667
212.09	-171.429
212.46	-1100.000
212.84	0.000
213.22	30.000
213.59	300.000
213.97	7.692
214.34	18.182
214.72	-100.000
215.09	350.000
215.47	-46.154
215.84	0.000
216.22	-300.000
216.59	-62.500
216.97	-550.000
217.34	-200.000
217.72	-240.000
218.09	0.000
218.47	125.000
218.84	-1100.000
219.22	33.333
219.59	60.000
219.97	366.667
220.34	200.000
220.72	-85.714
221.09	-225.000
221.47	150.000
221.84	100.000
222.22	-1050.000
222.59	9.091
222.97	-8.333
223.34	-100.000
223.72	-14.286
224.09	0.000
224.46	-7.143
224.84	666.667
225.21	20.000
225.59	6.667
225.96	-550.000
226.34	300.000
226.71	-100.000
227.08	-16.667
227.46	-62.500
227.83	-300.000
228.21	-88.889
228.58	18.182
228.95	-37.500
229.33	50.000
229.70	-56.250
230.08	-62.500
230.45	-28.571
230.82	71.429
231.20	-6.667
231.57	21.429
231.95	85.714
232.32	-50.000
232.69	21.429
233.07	0.000
233.44	-120.000
233.81	-130.000
234.19	66.667
234.56	-58.824
234.93	500.000
235.31	50.000
235.68	-20.000
236.05	-30.769
236.43	-15.000
236.80	23.529
237.17	9.375
237.55	20.000
237.92	22.222
238.29	-8.333
238.67	0.000
239.04	11.765
239.41	-26.829
239.79	-36.667
240.16	17.073
240.53	0.000
240.91	-15.217
241.28	9.524
241.65	16.071
242.02	13.699
242.40	6.667
242.77	10.169
243.14	6.061
243.51	1.250
243.89	29.885
244.26	14.943
244.63	11.905
245.00	5.155
245.38	12.371
245.75	6.742
246.12	2.586
246.49	10.744
246.87	19.231
247.24	13.445
247.61	15.789
247.98	13.821
248.36	15.000
248.73	11.184
249.10	14.935
249.47	13.924
249.84	15.033
250.22	14.118
250.59	16.993
250.96	18.310
251.33	11.628
251.70	14.118
252.08	19.797
252.45	19.802
252.82	15.075
253.19	18.433
253.56	15.888
253.94	19.820
254.31	19.565
254.68	19.737
255.05	21.654
255.42	22.271
255.79	19.691
256.16	16.732
256.54	19.030
256.91	17.871
257.28	16.357
257.65	16.854
258.02	18.085
258.39	17.845
258.76	18.681
259.14	17.276
259.51	16.828
259.88	15.808
260.25	16.013
260.62	20.486
260.99	16.271
261.36	20.205
261.73	15.823
262.10	19.757
262.47	14.724
262.85	18.495
263.22	16.000
263.59	17.134
263.96	20.807
264.33	16.061
264.70	16.369
265.07	18.155
265.44	15.864
265.81	14.972
266.18	18.033
266.55	19.023
266.92	21.244
267.29	20.104
267.66	17.391
268.03	19.110
268.40	18.277
268.77	21.123
269.14	20.144
269.51	17.738
269.88	20.698
270.25	16.582
270.62	16.341
270.99	17.136
271.36	16.870
271.73	18.075
272.10	17.275
272.47	20.804
272.84	18.317
273.21	18.561
273.58	19.036
273.95	18.307
274.32	16.628
274.69	15.611
275.06	19.866
275.43	19.274
275.80	19.868
276.17	17.471
276.54	17.987
276.91	17.763
277.28	18.559
277.65	19.835
278.02	19.149
278.39	17.287
278.76	20.545
279.13	14.730
279.50	16.387
279.87	20.086
280.23	17.849
280.60	18.129
280.97	19.192
281.34	17.500
281.71	21.355
282.08	19.836
282.45	16.047
282.82	16.023
283.19	18.569
283.56	17.341
283.92	17.647
284.29	16.346
284.66	16.085
285.03	15.128
285.40	17.013
285.77	16.872
286.14	17.690
286.51	18.819
286.87	17.733
287.24	15.285
287.61	16.931
287.98	17.544
288.35	15.598
288.72	16.813
289.08	15.972
289.45	15.993
289.82	18.182
290.19	15.358
290.56	14.923
290.93	14.815
291.29	14.638
291.66	15.906
292.03	14.673
292.40	14.516
292.77	14.035
293.13	13.312
293.50	14.416
293.87	13.893
294.24	13.601
294.60	15.201
294.97	14.881
295.34	12.883
295.71	11.923
296.08	14.200
296.44	11.807
296.81	13.889
297.18	13.188
297.55	13.821
297.91	14.658
298.28	13.456
298.65	12.619
299.02	13.612
299.38	12.038
299.75	13.103
300.12	12.173
300.48	12.516
300.85	13.688
301.22	13.636
301.59	12.632
301.95	14.557
302.32	13.230
302.69	12.687
303.05	11.634
303.42	13.076
303.79	13.084
304.15	12.784
304.52	12.366
304.89	11.696
305.25	12.470
305.62	11.085
305.99	11.228
306.35	11.445
306.72	11.136
307.09	12.885
307.45	10.907
307.82	11.111
308.19	12.776
308.55	11.668
308.92	12.636
309.29	12.067
309.65	11.302
310.02	10.231
310.38	11.416
310.75	11.257
311.12	10.764
311.48	10.923
311.85	11.099
312.22	12.236
312.58	10.828
312.95	10.459
313.31	10.973
313.68	11.309
314.05	10.408
314.41	11.031
314.78	12.165
315.14	11.614
315.51	11.698
315.87	11.066
316.24	11.830
316.61	11.909
316.97	11.310
317.34	10.742
317.70	11.185
318.07	11.058
318.43	10.686
318.80	11.080
319.16	11.816
319.53	11.206
319.89	11.319
320.26	11.235
320.62	12.337
320.99	11.587
321.35	10.689
321.72	10.592
322.08	11.380
322.45	11.777
322.81	12.181
323.18	10.304
323.54	10.521
323.91	10.906
324.27	10.254
324.64	11.610
325.00	11.496
325.37	12.213
325.73	11.151
326.10	11.353
326.46	11.570
326.83	11.899
327.19	10.811
327.56	10.773
327.92	12.588
328.29	9.732
328.65	10.943
329.01	11.397
329.38	11.336
329.74	11.048
330.11	11.956
330.47	11.781
330.84	10.385
331.20	12.167
331.56	10.648
331.93	11.507
332.29	12.374
332.66	11.584
333.02	11.431
333.38	9.624
333.75	10.714
334.11	10.564
334.48	11.695
334.84	12.179
335.20	11.802
335.57	11.061
335.93	10.840
336.29	11.602
336.66	10.808
337.02	10.688
337.38	11.204
337.75	11.455
338.11	10.640
338.47	11.679
338.84	10.074
339.20	11.517
339.56	11.835
339.93	11.459
340.29	11.101
340.65	10.932
341.02	10.461
341.38	10.796
341.74	9.717
342.11	9.792
342.47	9.875
342.83	11.592
343.20	9.930
343.56	11.913
343.92	9.300
344.28	10.504
344.65	10.276
345.01	10.631
345.37	10.093
345.73	10.711
346.10	10.181
346.46	11.186
346.82	9.984
347.19	10.058
347.55	11.028
347.91	10.518
348.27	10.186
348.63	10.733
349.00	10.254
349.36	9.726
349.72	10.365
350.08	10.574
350.45	11.413
350.81	9.718
351.17	10.179
351.53	10.286
351.89	10.322
352.26	9.760
352.62	9.758
352.98	10.924
353.34	9.984
353.70	10.113
354.07	10.645
354.43	9.768
354.79	9.909
355.15	10.952
355.51	10.997
355.87	10.032
356.24	9.625
356.60	10.752
356.96	10.714
357.32	10.942
357.68	10.321
358.04	9.532
358.40	9.887
358.77	10.207
359.13	9.207
359.49	10.632
359.85	9.906
360.21	10.128
360.57	10.329
360.93	9.607
361.29	9.743
361.66	10.658
362.02	10.530
362.38	9.216
362.74	10.144
363.10	10.534
363.46	11.490
363.82	11.645
364.18	9.963
364.54	9.706
364.90	9.534
365.26	9.898
365.62	10.584
365.98	10.557
366.35	10.051
366.71	10.273
367.07	10.305
367.43	9.849
367.79	8.834
368.15	10.266
368.51	10.269
368.87	9.620
369.23	10.397
369.59	9.767
369.95	10.777
370.31	10.188
370.67	10.075
371.03	9.186
371.39	9.482
371.75	10.183
372.11	10.628
372.47	10.577
372.83	10.007
373.19	10.485
373.55	10.108
373.91	9.431
374.27	10.843
374.63	10.840
374.99	10.142
375.35	10.515
375.71	10.210
376.07	9.972
376.42	9.388
376.78	10.067
377.14	11.510
377.50	11.155
377.86	11.245
378.22	9.636
378.58	10.064
378.94	9.893
379.30	10.293
379.66	11.097
380.02	9.442
380.38	9.799
380.74	10.353
381.09	10.798
381.45	10.765
381.81	11.104
382.17	10.025
382.53	9.931
382.89	9.981
383.25	9.832
383.61	10.427
383.97	9.651
384.32	10.694
384.68	10.279
385.04	9.498
385.40	10.205
385.76	11.006
386.12	11.061
386.48	10.920
386.83	10.590
387.19	10.745
387.55	10.853
387.91	10.575
388.27	10.623
388.62	11.265
388.98	10.129
389.34	10.806
389.70	10.938
390.06	9.943
390.42	10.363
390.77	10.595
391.13	9.899
391.49	10.285
391.85	10.656
392.20	10.860
392.56	10.299
392.92	11.274
393.28	10.790
393.64	10.330
393.99	10.909
394.35	9.930
394.71	11.303
395.07	10.937
395.42	10.140
395.78	10.489
396.14	10.845
396.50	10.907
396.85	11.333
397.21	11.216
397.57	11.223
397.92	10.845
398.28	10.977
398.64	10.181
399.00	11.456
399.35	10.158
399.71	10.856
400.07	10.641
400.42	10.955
400.78	11.513
401.14	11.010
401.49	10.780
401.85	10.420
402.21	11.325
402.57	10.625
402.92	11.292
403.28	11.028
403.63	10.593
403.99	10.778
404.35	11.805
404.70	10.952
405.06	10.576
405.42	10.317
405.77	10.285
406.13	10.594
406.49	11.664
406.84	10.758
407.20	11.017
407.55	10.882
407.91	10.896
408.27	10.835
408.62	11.877
408.98	11.152
409.34	10.657
409.69	11.111
410.05	10.961
410.40	11.173
410.76	11.339
411.11	11.250
411.47	10.980
411.83	10.986
412.18	11.390
412.54	11.111
412.89	10.899
413.25	11.071
413.60	11.180
413.96	11.411
414.31	11.646
414.67	11.353
415.03	10.919
415.38	11.162
415.74	11.596
416.09	11.692
416.45	11.141
416.80	11.368
417.16	10.843
417.51	11.992
417.87	10.691
418.22	11.593
418.58	11.037
418.93	11.599
419.29	9.795
419.64	10.693
420.00	12.594
420.35	11.522
420.71	11.604
421.06	11.602
421.42	11.959
421.77	11.214
422.12	11.294
422.48	11.478
422.83	11.833
423.19	11.456
423.54	10.582
423.90	11.366
424.25	11.137
424.61	10.832
424.96	11.672
425.31	11.323
425.67	12.148
426.02	12.073
426.38	11.522
426.73	12.167
427.09	12.152
427.44	11.941
427.79	11.078
428.15	12.379
428.50	11.448
428.85	10.504
429.21	12.337
429.56	11.914
429.92	11.813
430.27	12.130
430.62	10.925
430.98	11.677
431.33	11.514
431.68	11.460
432.04	10.732
432.39	10.724
432.74	11.245
433.10	12.356
433.45	11.470
433.80	11.608
434.16	11.690
434.51	12.097
434.86	12.195
435.22	11.778
435.57	10.792
435.92	11.796
436.28	11.330
436.63	10.782
436.98	11.703
437.34	10.950
437.69	12.642
438.04	11.567
438.39	10.690
438.75	11.840
439.10	11.488
439.45	11.929
439.81	12.477
440.16	11.639
440.51	12.418
440.86	12.810
441.22	11.934
441.57	11.865
441.92	12.539
442.27	11.918
442.63	12.741
442.98	11.775
443.33	11.853
443.68	11.671
444.03	12.668
444.39	12.297
444.74	11.873
445.09	12.249
445.44	11.567
445.79	12.481
446.15	12.775
446.50	12.035
446.85	12.168
447.20	12.148
447.55	11.998
447.91	11.675
448.26	12.123
448.61	12.550
448.96	12.106
449.31	12.081
449.66	11.963
450.02	12.265
450.37	12.092
450.72	11.913
451.07	12.722
451.42	11.860
451.77	12.899
452.12	11.782
452.47	11.590
452.83	12.544
453.18	11.891
453.53	11.757
453.88	12.265
454.23	12.784
454.58	11.776
454.93	13.015
455.28	11.429
455.63	12.585
455.98	12.447
456.34	13.091
456.69	12.262
457.04	13.359
457.39	12.940
457.74	11.729
458.09	12.478
458.44	12.405
458.79	12.045
459.14	13.444
459.49	13.134
459.84	13.198
460.19	12.318
460.54	13.386
460.89	12.216
461.24	12.484
461.59	13.183
461.94	11.761
462.29	13.872
462.64	13.355
462.99	12.458
463.34	11.822
463.69	12.806
464.04	12.954
464.39	13.038
464.74	12.638
465.09	12.913
465.44	13.791
465.79	12.812
466.14	12.771
466.49	12.536
466.84	12.255
467.19	13.329
467.54	12.835
467.89	12.634
468.24	11.861
468.59	12.952
468.94	13.079
469.29	13.508
469.64	13.671
469.99	12.754
470.34	11.741
470.68	13.647
471.03	13.447
471.38	13.552
471.73	14.216
472.08	12.754
472.43	12.752
472.78	12.063
473.13	12.993
473.48	12.704
473.83	12.453
474.17	12.953
474.52	13.019
474.87	13.758
475.22	13.362
475.57	13.552
475.92	13.933
476.27	13.679
476.61	13.484
476.96	12.828
477.31	13.575
477.66	13.652
478.01	13.700
478.36	12.527
478.70	13.322
479.05	14.505
479.40	13.302
479.75	12.826
480.10	12.801
480.45	13.000
480.79	13.897
481.14	13.422
481.49	12.759
481.84	13.272
482.19	13.143
482.53	12.950
482.88	13.795
483.23	13.100
483.58	13.255
483.92	12.197
484.27	13.263
484.62	13.626
484.97	13.184
485.31	13.078
485.66	12.225
486.01	12.512
486.36	12.936
486.70	12.649
487.05	13.000
487.40	12.849
487.75	13.127
488.09	12.608
488.44	12.758
488.79	12.925
489.13	13.862
489.48	13.467
489.83	13.587
490.17	13.034
490.52	13.072
490.87	13.373
491.22	13.754
491.56	13.947
491.91	13.384
492.26	13.418
492.60	13.772
492.95	14.265
493.30	13.483
493.64	13.556
493.99	13.913
494.34	13.107
494.68	14.048
495.03	12.993
495.37	13.494
495.72	13.781
496.07	14.293
496.41	13.679
496.76	13.358
497.11	13.507
497.45	15.036
497.80	14.884
498.14	13.264
498.49	13.357
498.84	13.922
499.18	14.056
499.53	14.087
499.87	13.765
500.22	13.897
500.56	13.918
500.91	14.157
501.26	14.039
501.60	13.871
501.95	14.022
502.29	14.189
502.64	13.176
502.98	14.060
503.33	13.881
503.67	13.880
504.02	14.663
504.36	14.003
504.71	13.737
505.06	14.092
505.40	14.112
505.75	14.072
506.09	13.989
506.44	14.374
506.78	14.694
507.13	14.529
507.47	14.047
507.82	13.301
508.16	13.893
508.51	14.428
508.85	14.495
509.19	13.784
509.54	14.209
509.88	13.430
510.23	15.169
510.57	14.965
510.92	13.220
511.26	13.693
511.61	14.466
511.95	13.973
512.30	14.967
512.64	14.302
512.98	13.700
513.33	14.550
513.67	14.781
514.02	15.217
514.36	15.714
514.70	15.559
515.05	15.041
515.39	14.227
515.74	15.509
516.08	14.764
516.42	14.782
516.77	14.862
517.11	14.777
517.46	14.363
517.80	14.601
518.14	15.126
518.49	14.123
518.83	14.095
519.17	14.251
519.52	14.387
519.86	14.646
520.20	15.492
520.55	14.447
520.89	15.496
521.23	14.630
521.58	16.467
521.92	15.769
522.26	14.509
522.61	16.039
522.95	16.358
523.29	15.057
523.64	15.438
523.98	16.332
524.32	14.755
524.66	15.813
525.01	15.714
525.35	15.619
525.69	15.488
526.04	15.278
526.38	17.121
526.72	15.108
527.06	15.045
527.41	15.303
527.75	15.147
528.09	14.817
528.43	16.678
528.78	15.380
529.12	15.226
529.46	15.465
529.80	16.086
530.15	15.776
530.49	15.690
530.83	15.595
531.17	15.917
531.51	15.663
531.86	14.956
532.20	14.335
532.54	15.997
532.88	16.427
533.22	15.524
533.57	16.579
533.91	15.927
534.25	14.909
534.59	15.394
534.93	15.544
535.27	15.799
535.62	15.230
535.96	16.243
536.30	15.699
536.64	15.644
536.98	16.237
537.32	16.856
537.66	16.339
538.01	16.853
538.35	15.465
538.69	16.045
539.03	15.038
539.37	16.285
539.71	16.292
540.05	15.275
540.39	15.997
540.73	16.039
541.07	15.746
541.42	16.935
541.76	16.311
542.10	15.967
542.44	15.497
542.78	14.591
543.12	14.286
543.46	16.273
543.80	14.643
544.14	14.686
544.48	14.923
544.82	15.038
545.16	15.984
545.50	16.155
545.84	16.431
546.18	16.454
546.52	15.934
546.86	15.888
547.20	15.808
547.54	15.265
547.88	15.693
548.22	15.122
548.56	15.831
548.90	16.442
549.24	15.152
549.58	16.079
549.92	16.011
550.26	15.604
550.60	16.803
550.94	16.729
551.28	15.765
551.62	17.077
551.96	16.767
552.30	14.985
552.64	16.150
552.98	16.596
553.32	15.621
553.66	15.385
554.00	15.182
554.34	17.134
554.68	14.749
555.02	16.220
555.36	15.632
555.69	16.117
556.03	15.346
556.37	15.374
556.71	15.957
557.05	15.436
557.39	15.836
557.73	16.117
558.07	17.421
558.41	15.926
558.75	15.433
559.08	16.391
559.42	15.952
559.76	15.612
560.10	15.520
560.44	15.413
560.78	16.434
561.12	16.432
561.45	16.655
561.79	16.036
562.13	17.104
562.47	15.108
562.81	15.994
563.15	16.784
563.48	16.761
563.82	17.296
564.16	16.365
564.50	16.554
564.84	16.667
565.17	15.828
565.51	16.940
565.85	15.706
566.19	16.313
566.52	16.287
566.86	16.324
567.20	15.878
567.54	15.450
567.88	16.403
568.21	16.233
568.55	14.348
568.89	15.657
569.23	15.262
569.56	14.930
569.90	14.901
570.24	14.626
570.57	14.582
570.91	14.674
571.25	14.272
571.59	13.672
571.92	14.193
572.26	13.527
572.60	14.109
572.93	14.371
573.27	13.856
573.61	13.962
573.95	13.845
574.28	13.904
574.62	13.476
574.96	13.513
575.29	13.503
575.63	13.475
575.97	13.337
576.30	13.804
576.64	13.377
576.98	14.080
577.31	14.033
577.65	13.968
577.98	13.926
578.32	13.556
578.66	13.368
578.99	13.407
579.33	13.640
579.67	13.323
580.00	13.823
580.34	13.483
580.67	13.675
581.01	13.713
581.35	13.953
581.68	13.127
582.02	13.012
582.35	13.445
582.69	13.946
583.02	13.672
583.36	13.532
583.70	14.071
584.03	13.789
584.37	14.314
584.70	14.231
585.04	13.446
585.37	13.956
585.71	13.848
586.04	13.288
586.38	13.390
586.72	14.146
587.05	14.154
587.39	14.174
587.72	14.215
588.06	13.507
588.39	13.956
588.73	14.164
589.06	14.155
589.40	14.414
589.73	15.078
590.07	15.181
590.40	14.474
590.73	14.827
591.07	14.970
591.40	14.826
591.74	14.842
592.07	14.703
592.41	15.680
592.74	14.496
593.08	13.692
593.41	14.366
593.75	14.197
594.08	13.869
594.41	15.029
594.75	14.237
595.08	14.340
595.42	14.354
595.75	14.232
596.09	14.034
596.42	14.800
596.75	15.187
597.09	15.216
597.42	15.718
597.75	15.208
598.09	14.124
598.42	14.892
598.76	14.801
599.09	14.463
599.42	14.096
599.76	14.296
600.09	13.914
600.42	14.481
600.76	13.893
601.09	13.855
601.42	13.944
601.76	14.728
602.09	14.604
602.42	14.996
602.76	14.643
603.09	15.116
603.42	15.301
603.76	13.750
604.09	14.621
604.42	15.017
604.76	14.686
605.09	15.174
605.42	15.034
605.75	13.748
606.09	14.225
606.42	14.345
606.75	14.848
607.09	15.604
607.42	14.222
607.75	14.121
608.08	14.286
608.42	14.207
608.75	15.518
609.08	14.898
609.41	15.025
609.75	14.315
610.08	14.928
610.41	15.411
610.74	15.066
611.07	14.574
611.41	15.049
611.74	15.725
612.07	14.615
612.40	15.317
612.73	15.085
613.07	14.736
613.40	14.880
613.73	14.997
614.06	15.526
614.39	15.623
614.72	14.454
615.06	15.475
615.39	15.120
615.72	15.447
616.05	14.804
616.38	14.986
616.71	14.312
617.05	14.392
617.38	15.399
617.71	15.723
618.04	16.127
618.37	17.087
618.70	15.842
619.03	16.319
619.36	15.051
619.69	16.528
620.03	16.947
620.36	15.451
620.69	15.418
621.02	15.673
621.35	16.266
621.68	16.327
622.01	16.917
622.34	17.079
622.67	16.956
623.00	16.233
623.33	16.540
623.66	16.006
623.99	16.112
624.32	16.426
624.65	14.586
624.99	16.554
625.32	15.542
625.65	17.046
625.98	17.083
626.31	15.794
626.64	16.378
626.97	16.928
627.30	16.550
627.63	17.158
627.96	16.891
628.29	16.281
628.62	17.011
628.95	17.936
629.28	16.431
629.61	16.451
629.94	18.084
630.26	16.206
630.59	17.794
630.92	17.641
631.25	18.051
631.58	17.070
631.91	17.105
632.24	16.858
632.57	18.523
632.90	16.133
633.23	17.176
633.56	17.632
633.89	17.509
634.22	18.025
634.55	18.806
634.88	18.008
635.20	18.333
635.53	17.333
635.86	16.645
636.19	17.853
636.52	19.770
636.85	18.114
637.18	16.352
637.51	17.233
637.83	18.134
638.16	18.554
638.49	16.485
638.82	19.342
639.15	18.453
639.48	18.845
639.81	18.689
640.13	18.470
640.46	19.534
640.79	17.084
641.12	17.873
641.45	17.117
641.77	18.370
642.10	18.483
642.43	19.293
642.76	19.472
643.09	19.548
643.41	18.447
643.74	18.781
644.07	19.048
644.40	19.595
644.73	19.790
645.05	19.966
645.38	18.166
645.71	17.021
646.04	19.749
646.36	20.745
646.69	19.964
647.02	20.794
647.35	19.776
647.67	18.464
648.00	18.097
648.33	19.283
648.66	19.661
648.98	17.588
649.31	17.190
649.64	19.309
649.96	16.370
650.29	18.228
650.62	18.803
650.94	17.407
651.27	17.318
651.60	19.459
651.92	19.580
652.25	17.229
652.58	20.167
652.90	19.554
653.23	17.479
653.56	19.120
653.88	17.010
654.21	16.112
654.54	16.129
654.86	18.676
655.19	19.006
655.52	17.105
655.84	14.011
656.17	14.758
656.49	19.210
656.82	20.077
657.15	15.319
657.47	11.498
657.80	8.478
658.13	8.492
658.45	12.910
658.78	13.121
659.10	13.468
659.43	14.213
659.75	14.208
660.08	14.069
660.41	15.628
660.73	17.127
661.06	17.851
661.38	19.569
661.71	17.659
662.03	22.103
662.36	18.901
662.68	16.593
663.01	22.489
663.33	20.186
663.66	16.512
663.98	18.605
664.31	19.616
664.63	20.737
664.96	18.478
665.28	16.777
665.61	19.481
665.93	18.478
666.26	20.607
666.58	15.884
666.91	16.706
667.23	22.877
667.56	21.090
667.88	21.583
668.21	20.764
668.53	21.513
668.86	18.868
669.18	17.453
669.50	19.370
669.83	16.279
670.15	21.911
670.48	17.943
670.80	17.742
671.13	19.687
671.45	19.406
671.77	20.601
672.10	20.594
672.42	16.105
672.75	17.762
673.07	18.605
673.39	18.349
673.72	16.765
674.04	16.667
674.37	20.975
674.69	17.773
675.01	18.889
675.34	19.369
675.66	20.833
675.98	19.734
676.31	17.661
676.63	16.152
676.95	16.136
677.28	21.882
677.60	21.928
677.92	18.349
678.25	17.943
678.57	17.316
678.89	16.387
679.22	15.660
679.54	15.863
679.86	17.694
680.18	16.893
680.51	15.909
680.83	19.483
681.15	19.400
681.48	18.033
681.80	15.909
682.12	17.540
682.44	18.828
682.77	18.102
683.09	19.680
683.41	17.045
683.73	17.512
684.06	17.920
684.38	17.634
684.70	17.865
685.02	17.635
685.34	14.427
685.67	16.323
685.99	15.552
686.31	16.106
686.63	15.028
686.96	15.779
687.28	16.566
687.60	17.490
687.92	17.778
688.24	17.540
688.56	18.341
688.89	14.286
689.21	20.667
689.53	16.241
689.85	16.047
690.17	17.634
690.49	16.312
690.82	16.505
691.14	17.619
691.46	16.121
691.78	15.090
692.10	19.140
692.42	15.368
692.74	19.444
693.06	15.766
693.39	16.742
693.71	13.801
694.03	15.473
694.35	18.224
694.67	17.172
694.99	18.799
695.31	19.321
695.63	18.500
695.95	14.899
696.27	15.803
696.59	18.056
696.91	18.207
697.23	16.967
697.56	16.089
697.88	18.280
698.20	15.490
698.52	16.941
698.84	13.636
699.16	17.750
699.48	15.539
699.80	17.866
700.12	18.059
700.44	18.207
700.76	16.570
701.08	17.576
701.40	17.470
701.72	19.444
702.04	17.822
702.36	19.398
702.68	20.120
703.00	17.879
703.32	19.062
703.64	15.537
703.96	19.420
704.28	12.883
704.60	18.095
704.91	17.035
705.23	18.937
705.55	18.375
705.87	18.773
706.19	17.407
706.51	19.931
706.83	18.650
707.15	18.069
707.47	18.207
707.79	18.490
708.11	17.250
708.43	18.750
708.74	18.605
709.06	21.690
709.38	18.654
709.70	20.710
710.02	15.924
710.34	20.433
710.66	18.269
710.98	13.576
711.29	18.361
711.61	15.254
711.93	18.567
712.25	19.244
712.57	19.780
712.89	17.537
713.20	23.183
713.52	17.073
713.84	21.160
714.16	12.715
714.48	16.129
714.80	15.705
715.11	18.237
715.43	13.480
715.75	14.667
716.07	13.621
716.39	16.779
716.70	13.284
717.02	15.649
717.34	23.077
717.66	21.239
717.97	14.783
718.29	19.247
718.61	16.535
718.93	20.543
719.24	19.011
719.56	20.080
719.88	17.182
720.20	15.530
720.51	12.644
720.83	16.216
721.15	18.908
721.46	14.113
721.78	19.368
722.10	19.703
722.42	12.033
722.73	13.878
723.05	16.327
723.37	15.678
723.68	19.369
724.00	17.949
724.32	15.111
724.63	17.727
724.95	16.594
725.27	17.972
725.58	13.983
725.90	14.683
726.22	17.375
726.53	20.339
726.85	17.228
727.16	16.604
727.48	16.194
727.80	15.385
728.11	15.678
728.43	20.392
728.74	9.274
729.06	16.400
729.38	18.421
729.69	15.936
730.01	17.308
730.32	15.672
730.64	19.788
730.96	17.736
731.27	15.000
731.59	13.559
731.90	15.605
732.22	15.457
732.53	19.269
732.85	16.667
733.16	20.875
733.48	10.072
733.80	13.768
734.11	14.237
734.43	15.808
734.74	17.879
735.06	11.726
735.37	19.033
735.69	18.855
736.00	17.073
736.32	13.758
736.63	14.789
736.95	13.652
737.26	11.388
737.58	13.087
737.89	14.652
738.21	12.782
738.52	16.049
738.83	17.467
739.15	16.157
739.46	14.173
739.78	17.949
740.09	16.993
740.41	17.754
740.72	12.992
741.04	16.599
741.35	15.319
741.66	18.957
741.98	13.265
742.29	14.356
742.61	17.801
742.92	9.953
743.23	12.037
743.55	19.005
743.86	15.311
744.18	12.919
744.49	16.489
744.80	16.304
745.12	18.182
745.43	14.146
745.74	11.979
746.06	16.585
746.37	19.895
746.68	17.062
747.00	16.489
747.31	20.896
747.62	18.932
747.94	17.225
748.25	12.871
748.56	17.486
748.88	18.848
749.19	19.149
749.50	15.271
749.82	9.434
750.13	11.009
750.44	19.173
750.75	17.910
751.07	16.058
751.38	17.241
751.69	11.765
752.01	15.891
752.32	16.335
752.63	9.881
752.94	16.379
753.26	23.013
753.57	16.742
753.88	17.699
754.19	17.500
754.51	12.810
754.82	12.551
755.13	19.583
755.44	18.145
755.75	18.359
756.07	12.451
756.38	14.340
756.69	11.494
757.00	14.333
757.31	16.993
757.63	10.061
757.94	15.278
758.25	11.233
758.56	14.096
758.87	11.898
759.18	15.888
759.50	17.091
759.81	14.381
760.12	14.839
760.43	12.727
760.74	14.198
761.05	14.462
761.36	10.227
761.67	16.061
761.99	21.088
762.30	11.636
762.61	16.996
762.92	16.742
763.23	10.811
763.54	9.813
763.85	16.102
764.16	11.618
764.47	13.306
764.78	14.286
765.10	14.141
765.41	16.719
765.72	11.746
766.03	9.398
766.34	12.774
766.65	19.920
766.96	14.646
767.27	12.766
767.58	12.069
767.89	9.929
768.20	17.045
768.51	10.989
768.82	15.764
769.13	11.060
769.44	14.592
769.75	10.959
770.06	15.086
770.37	18.750
770.68	8.122
770.99	14.027
771.30	21.569
771.61	12.670
771.92	15.948
772.23	18.227
772.54	13.441
772.85	16.049
773.16	14.607
773.47	20.915
773.78	22.222
774.09	14.970
774.39	11.333
774.70	14.650
775.01	22.759
775.32	24.286
775.63	5.785
775.94	12.977
776.25	17.323
776.56	18.333
776.87	20.192
777.18	8.547
777.48	7.759
777.79	10.435
778.10	0.952
778.41	13.514
778.72	22.222
779.03	18.045
779.34	19.858
779.65	13.014
779.95	8.904
780.26	13.793
780.57	9.756
780.88	18.898
781.19	15.517
781.50	17.054
781.80	13.609
782.11	5.660
782.42	9.231
782.73	17.986
783.04	8.148
783.34	10.417
783.65	4.274
783.96	13.934
784.27	19.310
784.57	15.447
784.88	17.188
785.19	12.000
785.50	14.000
785.81	18.103
786.11	9.483
786.42	9.709
786.73	12.727
787.04	9.184
787.34	21.429
787.65	3.810
787.96	5.310
788.26	21.818
788.57	14.530
788.88	23.438
789.19	7.937
789.49	6.087
789.80	4.082
790.11	11.111
790.41	15.455
790.72	18.478
791.03	13.636
791.33	20.000
791.64	25.000
791.95	3.488
792.25	17.021
792.56	10.112
792.87	-4.110
793.17	5.797
793.48	-1.333
793.79	6.250
794.09	17.500
794.40	11.321
794.70	8.738
795.01	15.447
795.32	9.402
795.62	3.810
795.93	10.784
796.23	18.868
796.54	7.292
796.85	5.882
797.15	19.718
797.46	9.722
797.76	9.091
798.07	10.465
798.37	6.579
798.68	18.182
798.99	13.580
799.29	2.857
799.60	-4.348
799.90	25.333
800.21	14.754
800.51	18.462
800.82	10.169
801.12	17.391
801.43	26.230
801.73	20.635
802.04	0.000
802.34	1.493
802.65	30.769
802.95	3.571
803.26	17.308
803.56	5.882
803.87	-19.565
804.17	12.000
804.48	31.746
804.78	5.556
805.09	2.174
805.39	0.000
805.70	5.556
806.00	-3.509
806.30	14.085
806.61	-1.429
806.91	6.944
807.22	7.895
807.52	22.667
807.83	9.091
808.13	0.000
808.43	19.118
808.74	19.403
809.04	0.000
809.35	-9.615
809.65	4.687
809.95	-24.324
810.26	-18.182
810.56	15.068
810.86	16.667
811.17	6.000
811.47	20.408
811.77	-26.316
812.08	11.364
812.38	13.208
812.69	17.500
812.99	-3.030
813.29	23.684
813.59	-14.286
813.90	2.273
814.20	-7.692
814.50	7.692
814.81	15.094
815.11	-4.255
815.41	16.949
815.72	2.381
816.02	19.608
816.32	12.500
816.62	4.878
816.93	-21.622
817.23	11.429
817.53	14.583
817.84	19.565
818.14	15.385
818.44	-10.526
818.74	34.783
819.04	0.000
819.35	5.405
819.65	23.529
819.95	0.000
820.25	-9.524
820.56	32.500
820.86	-37.931
821.16	37.500
821.46	12.766
821.76	20.000
822.07	6.977
822.37	-13.514
822.67	-9.375
822.97	26.190
823.27	-32.143
823.57	0.000
823.88	-33.333
824.18	17.857
824.48	-23.529
824.78	6.452
825.08	-47.826
825.38	9.091
825.69	-29.167
825.99	7.895
826.29	0.000
826.59	-66.667
826.89	-28.571
827.19	23.913
827.49	5.000
827.79	25.714
828.09	25.000
828.39	30.303
828.70	24.324
829.00	-14.286
829.30	-14.286
829.60	0.000
829.90	12.500
830.20	7.895
830.50	-18.519
830.80	13.043
831.10	13.636
831.40	57.576
831.70	64.516
832.00	47.619
832.30	-14.286
832.60	-50.000
832.90	24.138
833.20	-20.000
833.50	18.182
833.80	3.704
834.10	-15.385
834.40	-6.250
834.70	-11.111
835.00	0.000
835.30	30.769
835.60	-20.000
835.90	19.355
836.20	9.091
836.50	-17.857
836.80	-34.615
837.10	-10.714
837.40	-200.000
837.70	0.000
838.00	-9.091
838.30	8.696
838.60	0.000
838.90	9.091
839.19	3.571
839.49	26.667
839.79	-107.692
840.09	41.667
840.39	32.143
840.69	-28.571
840.99	-61.538
841.29	-47.368
841.59	-90.000
841.88	-63.636
842.18	-60.000
842.48	-25.000
842.78	-46.667
843.08	18.519
843.38	-90.000
843.68	-4.348
843.97	0.000
844.27	-6.667
844.57	25.000
844.87	27.778
845.17	-42.857
845.47	73.333
845.76	-9.524
846.06	41.176
846.36	-50.000
846.66	-42.857
846.96	80.000
847.25	-225.000
847.55	7.143
847.85	-37.500
848.15	-9.091
848.44	-566.667
848.74	0.000
849.04	3.704
849.34	-36.364
849.63	-116.667
849.93	-240.000
850.23	-16.667
850.53	50.000
850.82	-23.077
851.12	-33.333
851.42	-73.333
851.71	-11.538
852.01	-35.714
852.31	-25.000
852.61	-27.273
852.90	25.000
853.20	-42.105
853.50	-116.667
853.79	-47.826
854.09	25.000
854.39	-42.105
854.68	-20.833
854.98	0.000
855.28	15.385
855.57	-65.000
855.87	-44.444
856.17	11.111
856.46	21.429
856.76	-46.667
857.05	22.222
857.35	20.000
857.65	-11.111
857.94	15.385
858.24	48.276
858.53	33.333
858.83	14.815
859.13	4.545
859.42	8.696
859.72	-275.000
860.01	-433.333
860.31	12.000
860.60	-23.810
860.90	-33.333
861.20	13.333
861.49	-400.000
861.79	33.333
862.08	20.000
862.38	26.667
862.67	-240.000
862.97	100.000
863.26	-33.333
863.56	-5.556
863.85	-500.000
864.15	-11.111
864.44	-60.000
864.74	28.571
865.03	200.000
865.33	-200.000
865.62	-66.667
865.92	-50.000
866.21	-133.333
866.51	12.500
866.80	-36.364
867.10	-150.000
867.39	91.667
867.69	0.000
867.98	38.462
868.27	-100.000
868.57	-60.000
868.86	-11.111
869.16	-7.692
869.45	60.000
869.75	-1900.000
870.04	0.000
870.33	-71.429
870.63	9.524
870.92	-0.000
871.22	-240.000
871.51	-400.000
871.80	-11.111
872.10	200.000
>>>>>End Processed Spectral Data<<<<<
