SpectraSuite Data File
++++++++++++++++++++++++++++++++++++
Date: Fri May 15 20:05:11 PDT 2015
User: schluterlab
Dark Spectrum Present: Yes
Reference Spectrum Present: Yes
Number of Sampled Component Spectra: 1
Spectrometers: USB2E3373
Integration Time (usec): 3000 (USB2E3373)
Spectra Averaged: 3 (USB2E3373)
Boxcar Smoothing: 0 (USB2E3373)
Correct for Electrical Dark: No (USB2E3373)
Strobe/Lamp Enabled: No (USB2E3373)
Correct for Detector Non-linearity: No (USB2E3373)
Correct for Stray Light: No (USB2E3373)
Number of Pixels in Processed Spectrum: 2048
>>>>>Begin Processed Spectral Data<<<<<
178.53	0.000
178.91	0.000
179.29	50.000
179.67	-400.000
180.04	-57.143
180.42	-100.000
180.80	-300.000
181.18	233.333
181.56	650.000
181.94	-500.000
182.31	-0.000
182.69	100.000
183.07	-300.000
183.45	-140.000
183.83	300.000
184.20	-27.273
184.58	111.111
184.96	-25.000
185.34	-33.333
185.72	0.000
186.09	46.154
186.47	-900.000
186.85	16.667
187.23	133.333
187.61	200.000
187.98	-33.333
188.36	44.444
188.74	-266.667
189.12	41.176
189.49	16.667
189.87	0.000
190.25	71.429
190.63	-150.000
191.00	-233.333
191.38	-10.526
191.76	500.000
192.14	-100.000
192.51	50.000
192.89	55.556
193.27	-142.857
193.65	-0.000
194.02	172.727
194.40	90.000
194.78	-112.500
195.15	-75.000
195.53	-75.000
195.91	-25.000
196.29	125.000
196.66	38.462
197.04	114.286
197.42	-11.111
197.79	-233.333
198.17	-46.154
198.55	-300.000
198.92	-266.667
199.30	-900.000
199.68	-160.000
200.05	-500.000
200.43	0.000
200.81	-133.333
201.18	66.667
201.56	1200.000
201.94	50.000
202.31	66.667
202.69	-180.000
203.07	150.000
203.44	300.000
203.82	0.000
204.19	57.143
204.57	-333.333
204.95	75.000
205.32	50.000
205.70	128.571
206.08	-125.000
206.45	155.556
206.83	71.429
207.20	71.429
207.58	-100.000
207.96	-266.667
208.33	-80.000
208.71	-175.000
209.08	-133.333
209.46	0.000
209.84	-40.000
210.21	-1400.000
210.59	-71.429
210.96	-66.667
211.34	-100.000
211.71	46.667
212.09	-128.571
212.46	-1800.000
212.84	0.000
213.22	90.000
213.59	150.000
213.97	0.000
214.34	54.545
214.72	0.000
215.09	100.000
215.47	7.692
215.84	27.273
216.22	-333.333
216.59	12.500
216.97	0.000
217.34	125.000
217.72	-80.000
218.09	-62.500
218.47	137.500
218.84	-800.000
219.22	-33.333
219.59	-120.000
219.97	233.333
220.34	125.000
220.72	-14.286
221.09	-50.000
221.47	400.000
221.84	150.000
222.22	-700.000
222.59	81.818
222.97	33.333
223.34	-266.667
223.72	14.286
224.09	19.048
224.46	-7.143
224.84	433.333
225.21	-10.000
225.59	86.667
225.96	-500.000
226.34	275.000
226.71	-142.857
227.08	50.000
227.46	-12.500
227.83	-300.000
228.21	-111.111
228.58	0.000
228.95	-12.500
229.33	110.000
229.70	-43.750
230.08	-50.000
230.45	-85.714
230.82	128.571
231.20	20.000
231.57	71.429
231.95	-42.857
232.32	-80.000
232.69	35.714
233.07	-233.333
233.44	40.000
233.81	-10.000
234.19	66.667
234.56	-11.765
234.93	300.000
235.31	-150.000
235.68	-100.000
236.05	-92.308
236.43	-45.000
236.80	64.706
237.17	3.125
237.55	-20.000
237.92	-22.222
238.29	19.444
238.67	33.333
239.04	-2.941
239.41	-12.195
239.79	-36.667
240.16	19.512
240.53	13.158
240.91	-4.348
241.28	-7.937
241.65	25.000
242.02	16.438
242.40	13.333
242.77	16.949
243.14	7.576
243.51	11.250
243.89	21.839
244.26	6.897
244.63	10.714
245.00	19.588
245.38	23.711
245.75	5.618
246.12	12.069
246.49	14.876
246.87	17.308
247.24	15.966
247.61	12.281
247.98	16.260
248.36	13.750
248.73	15.789
249.10	8.442
249.47	16.456
249.84	18.301
250.22	10.588
250.59	17.647
250.96	17.840
251.33	9.884
251.70	16.471
252.08	12.183
252.45	13.366
252.82	16.583
253.19	19.355
253.56	12.617
253.94	14.865
254.31	20.000
254.68	19.737
255.05	18.504
255.42	16.157
255.79	13.127
256.16	19.066
256.54	17.910
256.91	11.787
257.28	15.242
257.65	13.858
258.02	15.603
258.39	16.835
258.76	15.385
259.14	16.944
259.51	16.828
259.88	12.371
260.25	13.725
260.62	15.278
260.99	14.237
261.36	6.849
261.73	14.873
262.10	16.717
262.47	16.564
262.85	14.734
263.22	16.615
263.59	14.953
263.96	15.217
264.33	13.030
264.70	17.560
265.07	14.881
265.44	16.714
265.81	20.621
266.18	14.754
266.55	16.967
266.92	15.803
267.29	17.493
267.66	15.601
268.03	19.110
268.40	14.883
268.77	20.588
269.14	14.628
269.51	17.481
269.88	13.965
270.25	14.031
270.62	15.610
270.99	15.090
271.36	16.137
271.73	16.901
272.10	17.032
272.47	13.712
272.84	14.851
273.21	16.241
273.58	14.940
273.95	16.247
274.32	13.395
274.69	14.253
275.06	17.411
275.43	14.286
275.80	15.673
276.17	15.402
276.54	16.060
276.91	17.105
277.28	14.847
277.65	14.876
278.02	12.979
278.39	13.786
278.76	13.417
279.13	12.033
279.50	16.807
279.87	16.199
280.23	15.914
280.60	17.154
280.97	13.333
281.34	14.808
281.71	16.632
282.08	13.292
282.45	12.524
282.82	15.058
283.19	15.280
283.56	15.029
283.92	15.370
284.29	13.846
284.66	15.116
285.03	16.110
285.40	15.123
285.77	12.127
286.14	13.357
286.51	16.974
286.87	14.625
287.24	14.733
287.61	14.109
287.98	13.860
288.35	14.211
288.72	17.688
289.08	15.451
289.45	13.357
289.82	13.811
290.19	12.287
290.56	13.036
290.93	14.478
291.29	12.018
291.66	12.598
292.03	14.514
292.40	12.581
292.77	13.397
293.13	9.740
293.50	12.443
293.87	11.908
294.24	13.601
294.60	13.562
294.97	13.690
295.34	11.503
295.71	12.519
296.08	12.108
296.44	10.100
296.81	13.472
297.18	11.449
297.55	13.279
297.91	12.740
298.28	12.269
298.65	11.262
299.02	11.456
299.38	8.482
299.75	9.379
300.12	8.901
300.48	10.804
300.85	12.421
301.22	10.390
301.59	11.053
301.95	10.633
302.32	10.506
302.69	10.448
303.05	12.871
303.42	10.585
303.79	11.215
304.15	11.828
304.52	8.442
304.89	9.474
305.25	10.654
305.62	8.985
305.99	10.292
306.35	9.711
306.72	9.224
307.09	11.060
307.45	10.448
307.82	8.565
308.19	9.872
308.55	9.160
308.92	11.765
309.29	10.168
309.65	10.441
310.02	9.131
310.38	10.209
310.75	10.164
311.12	11.948
311.48	9.650
311.85	9.634
312.22	10.021
312.58	10.616
312.95	8.645
313.31	9.317
313.68	9.634
314.05	9.898
314.41	10.206
314.78	10.309
315.14	10.277
315.51	10.455
315.87	9.426
316.24	11.527
316.61	11.122
316.97	9.921
317.34	9.668
317.70	9.369
318.07	9.712
318.43	11.078
318.80	10.038
319.16	9.277
319.53	11.396
319.89	11.811
320.26	9.514
320.62	11.133
320.99	9.290
321.35	8.839
321.72	10.073
322.08	9.869
322.45	9.746
322.81	10.904
323.18	9.912
323.54	9.459
323.91	10.029
324.27	9.473
324.64	9.738
325.00	10.584
325.37	11.295
325.73	9.973
326.10	10.808
326.46	11.031
326.83	10.324
327.19	10.985
327.56	9.818
327.92	10.915
328.29	10.357
328.65	10.660
329.01	10.937
329.38	10.783
329.74	8.687
330.11	11.399
330.47	10.668
330.84	10.481
331.20	11.122
331.56	9.259
331.93	10.411
332.29	11.091
332.66	9.502
333.02	10.595
333.38	9.991
333.75	11.355
334.11	9.937
334.48	10.879
334.84	11.355
335.20	10.704
335.57	10.789
335.93	10.750
336.29	9.853
336.66	9.446
337.02	9.480
337.38	9.537
337.75	10.636
338.11	11.452
338.47	9.672
338.84	10.628
339.20	12.157
339.56	10.734
339.93	11.280
340.29	10.183
340.65	12.097
341.02	10.550
341.38	10.000
341.74	10.336
342.11	9.099
342.47	10.320
342.83	10.554
343.20	11.324
343.56	10.870
343.92	10.097
344.28	11.443
344.65	10.794
345.01	10.631
345.37	10.177
345.73	11.297
346.10	10.699
346.46	10.513
346.82	9.656
347.19	9.726
347.55	11.111
347.91	10.761
348.27	10.994
348.63	9.710
349.00	10.172
349.36	9.559
349.72	10.697
350.08	10.492
350.45	10.375
350.81	9.053
351.17	10.668
351.53	11.347
351.89	9.166
352.26	10.240
352.62	11.935
352.98	10.040
353.34	10.306
353.70	10.194
354.07	9.839
354.43	10.969
354.79	9.909
355.15	11.111
355.51	9.968
355.87	10.275
356.24	9.380
356.60	11.075
356.96	11.111
357.32	11.262
357.68	10.790
358.04	11.147
358.40	10.209
358.77	10.925
359.13	10.168
359.49	9.553
359.85	10.530
360.21	9.569
360.57	10.406
360.93	11.422
361.29	10.498
361.66	10.502
362.02	11.136
362.38	10.815
362.74	9.463
363.10	11.136
363.46	11.119
363.82	11.420
364.18	10.258
364.54	9.853
364.90	10.538
365.26	10.917
365.62	11.168
365.98	10.777
366.35	11.580
366.71	11.234
367.07	11.248
367.43	10.712
367.79	11.095
368.15	11.271
368.51	10.415
368.87	9.763
369.23	10.108
369.59	10.860
369.95	10.777
370.31	10.910
370.67	10.746
371.03	10.157
371.39	9.920
371.75	11.429
372.11	10.770
372.47	11.021
372.83	11.710
373.19	10.414
373.55	10.758
373.91	11.087
374.27	10.631
374.63	11.127
374.99	10.355
375.35	11.490
375.71	11.678
376.07	10.604
376.42	12.245
376.78	11.342
377.14	11.374
377.50	11.288
377.86	11.245
378.22	11.359
378.58	11.282
378.94	11.594
379.30	10.917
379.66	12.038
380.02	11.036
380.38	10.286
380.74	11.011
381.09	12.454
381.45	11.804
381.81	11.289
382.17	11.929
382.53	11.430
382.89	11.111
383.25	11.512
383.61	12.378
383.97	11.048
384.32	12.508
384.68	13.189
385.04	11.949
385.40	12.383
385.76	12.642
386.12	12.354
386.48	12.580
386.83	12.936
387.19	12.759
387.55	12.673
387.91	12.347
388.27	12.210
388.62	12.964
388.98	13.014
389.34	13.367
389.70	13.300
390.06	12.083
390.42	12.759
390.77	12.623
391.13	13.493
391.49	12.807
391.85	12.411
392.20	12.806
392.56	12.715
392.92	13.858
393.28	13.325
393.64	13.273
393.99	14.420
394.35	12.713
394.71	13.729
395.07	14.142
395.42	13.843
395.78	13.616
396.14	13.745
396.50	14.014
396.85	14.166
397.21	13.471
397.57	13.417
397.92	13.901
398.28	13.908
398.64	13.313
399.00	13.770
399.35	13.770
399.71	14.245
400.07	13.966
400.42	13.953
400.78	14.207
401.14	13.914
401.49	14.175
401.85	14.199
402.21	14.880
402.57	14.375
402.92	13.488
403.28	13.722
403.63	14.376
403.99	13.967
404.35	14.991
404.70	14.226
405.06	14.042
405.42	13.424
405.77	14.178
406.13	14.494
406.49	15.335
406.84	15.342
407.20	15.051
407.55	14.359
407.91	13.503
408.27	14.723
408.62	14.769
408.98	14.726
409.34	14.746
409.69	13.307
410.05	13.793
410.40	14.259
410.76	15.440
411.11	14.312
411.47	14.530
411.83	14.626
412.18	14.543
412.54	14.856
412.89	13.978
413.25	14.380
413.60	14.472
413.96	15.337
414.31	15.366
414.67	14.689
415.03	15.246
415.38	14.491
415.74	14.984
416.09	14.827
416.45	14.855
416.80	14.408
417.16	15.884
417.51	15.057
417.87	14.081
418.22	15.479
418.58	15.987
418.93	15.737
419.29	15.045
419.64	15.295
420.00	16.121
420.35	15.284
420.71	16.221
421.06	15.531
421.42	15.805
421.77	15.087
422.12	15.323
422.48	15.539
422.83	15.139
423.19	15.745
423.54	15.050
423.90	15.135
424.25	15.901
424.61	16.034
424.96	16.086
425.31	15.656
425.67	16.432
426.02	16.490
426.38	16.281
426.73	16.102
427.09	16.646
427.44	16.353
427.79	15.852
428.15	16.566
428.50	16.233
428.85	15.848
429.21	17.148
429.56	16.173
429.92	17.206
430.27	16.040
430.62	16.257
430.98	16.189
431.33	16.404
431.68	15.542
432.04	16.601
432.39	16.144
432.74	16.055
433.10	17.299
433.45	16.308
433.80	16.715
434.16	15.845
434.51	16.935
434.86	17.712
435.22	17.218
435.57	16.719
435.92	17.066
436.28	15.921
436.63	17.056
436.98	16.338
437.34	16.999
437.69	17.591
438.04	17.379
438.39	16.005
438.75	17.061
439.10	16.299
439.45	17.590
439.81	17.248
440.16	17.221
440.51	17.612
440.86	18.308
441.22	17.590
441.57	17.329
441.92	17.838
442.27	17.905
442.63	18.522
442.98	17.231
443.33	16.973
443.68	17.347
444.03	17.784
444.39	17.167
444.74	17.726
445.09	17.483
445.44	18.177
445.79	18.412
446.15	17.621
446.50	17.360
446.85	17.960
447.20	17.831
447.55	18.025
447.91	18.105
448.26	18.953
448.61	17.789
448.96	18.187
449.31	17.457
449.66	17.654
450.02	17.741
450.37	18.139
450.72	18.270
451.07	18.608
451.42	18.165
451.77	18.505
452.12	17.823
452.47	17.579
452.83	18.198
453.18	18.153
453.53	18.458
453.88	17.729
454.23	19.176
454.58	19.081
454.93	19.008
455.28	17.397
455.63	19.095
455.98	19.242
456.34	18.582
456.69	18.742
457.04	18.841
457.39	18.469
457.74	18.924
458.09	18.658
458.44	18.022
458.79	18.039
459.14	19.451
459.49	18.746
459.84	19.120
460.19	18.871
460.54	19.377
460.89	19.034
461.24	18.447
461.59	19.181
461.94	18.365
462.29	19.361
462.64	19.136
462.99	19.160
463.34	18.428
463.69	18.983
464.04	18.341
464.39	18.860
464.74	18.098
465.09	18.902
465.44	19.273
465.79	18.424
466.14	19.270
466.49	17.999
466.84	18.917
467.19	18.961
467.54	18.710
467.89	18.762
468.24	19.465
468.59	19.429
468.94	18.095
469.29	18.820
469.64	19.617
469.99	18.851
470.34	19.044
470.68	19.314
471.03	19.250
471.38	17.974
471.73	19.748
472.08	19.403
472.43	18.054
472.78	18.849
473.13	19.320
473.48	18.436
473.83	18.120
474.17	18.782
474.52	19.081
474.87	19.394
475.22	19.463
475.57	18.972
475.92	19.583
476.27	19.558
476.61	19.618
476.96	18.349
477.31	19.145
477.66	18.371
478.01	19.427
478.36	19.118
478.70	19.413
479.05	19.231
479.40	18.654
479.75	18.509
480.10	18.996
480.45	19.000
480.79	19.386
481.14	19.160
481.49	19.163
481.84	19.112
482.19	18.616
482.53	18.849
482.88	19.570
483.23	18.810
483.58	19.292
483.92	19.361
484.27	18.642
484.62	18.960
484.97	18.242
485.31	18.605
485.66	18.082
486.01	18.287
486.36	18.394
486.70	18.739
487.05	19.209
487.40	18.899
487.75	18.986
488.09	19.252
488.44	19.635
488.79	18.827
489.13	19.191
489.48	18.982
489.83	18.879
490.17	18.742
490.52	18.476
490.87	19.065
491.22	19.436
491.56	18.975
491.91	18.738
492.26	19.494
492.60	19.002
492.95	19.725
493.30	19.834
493.64	19.106
493.99	19.517
494.34	18.398
494.68	19.143
495.03	18.297
495.37	18.744
495.72	18.980
496.07	19.610
496.41	18.868
496.76	19.023
497.11	19.050
497.45	19.332
497.80	19.223
498.14	19.225
498.49	19.655
498.84	19.261
499.18	19.478
499.53	19.395
499.87	18.482
500.22	19.535
500.56	19.163
500.91	18.976
501.26	18.784
501.60	19.528
501.95	19.893
502.29	19.128
502.64	19.353
502.98	19.043
503.33	18.588
503.67	18.699
504.02	19.355
504.36	19.149
504.71	19.040
505.06	19.678
505.40	19.391
505.75	19.794
506.09	19.260
506.44	20.175
506.78	19.133
507.13	19.855
507.47	18.799
507.82	18.910
508.16	19.070
508.51	19.360
508.85	19.048
509.19	18.574
509.54	19.678
509.88	20.011
510.23	19.957
510.57	19.508
510.92	18.977
511.26	19.531
511.61	18.592
511.95	18.849
512.30	19.346
512.64	19.978
512.98	18.922
513.33	19.474
513.67	19.898
514.02	20.195
514.36	19.657
514.70	19.639
515.05	20.682
515.39	19.008
515.74	20.659
516.08	19.904
516.42	20.082
516.77	19.602
517.11	19.288
517.46	20.048
517.80	20.143
518.14	19.290
518.49	19.171
518.83	20.170
519.17	18.860
519.52	19.005
519.86	19.088
520.20	20.292
520.55	19.450
520.89	20.201
521.23	19.316
521.58	19.685
521.92	19.872
522.26	20.104
522.61	19.481
522.95	20.066
523.29	19.632
523.64	19.504
523.98	19.248
524.32	19.652
524.66	20.230
525.01	21.039
525.35	21.063
525.69	19.327
526.04	19.511
526.38	20.428
526.72	19.163
527.06	20.039
527.41	20.844
527.75	19.169
528.09	20.199
528.43	20.797
528.78	19.406
529.12	19.548
529.46	19.363
529.80	20.203
530.15	21.188
530.49	20.673
530.83	19.494
531.17	19.342
531.51	19.904
531.86	19.850
532.20	19.137
532.54	19.469
532.88	21.150
533.22	20.296
533.57	19.856
533.91	19.452
534.25	21.029
534.59	19.820
534.93	19.132
535.27	19.480
535.62	19.378
535.96	20.091
536.30	20.053
536.64	19.917
536.98	20.557
537.32	19.559
537.66	20.968
538.01	19.510
538.35	19.348
538.69	19.907
539.03	19.275
539.37	19.785
539.71	19.496
540.05	19.484
540.39	18.975
540.73	20.642
541.07	20.649
541.42	20.632
541.76	20.578
542.10	20.165
542.44	19.527
542.78	19.133
543.12	19.231
543.46	20.236
543.80	20.888
544.14	19.159
544.48	20.320
544.82	20.232
545.16	19.399
545.50	20.360
545.84	20.255
546.18	20.851
546.52	20.260
546.86	18.620
547.20	19.957
547.54	19.364
547.88	20.516
548.22	19.987
548.56	19.921
548.90	20.687
549.24	19.353
549.58	19.464
549.92	19.514
550.26	20.440
550.60	19.331
550.94	19.940
551.28	20.325
551.62	20.231
551.96	20.000
552.30	19.810
552.64	19.535
552.98	20.534
553.32	19.544
553.66	18.940
554.00	19.124
554.34	19.867
554.68	18.953
555.02	20.536
555.36	20.045
555.69	19.414
556.03	19.700
556.37	20.000
556.71	19.783
557.05	19.687
557.39	18.736
557.73	20.165
558.07	19.910
558.41	20.368
558.75	18.550
559.08	19.937
559.42	20.397
559.76	21.297
560.10	19.190
560.44	20.179
560.78	19.790
561.12	20.310
561.45	19.115
561.79	19.608
562.13	19.659
562.47	20.072
562.81	19.885
563.15	19.958
563.48	19.802
563.82	19.629
564.16	20.125
564.50	19.189
564.84	20.549
565.17	19.718
565.51	20.492
565.85	19.753
566.19	19.960
566.52	19.705
566.86	20.051
567.20	19.614
567.54	19.221
567.88	19.332
568.21	19.627
568.55	18.424
568.89	19.302
569.23	19.355
569.56	19.527
569.90	19.001
570.24	18.831
570.57	19.164
570.91	18.996
571.25	18.579
571.59	18.250
571.92	18.281
572.26	18.146
572.60	18.388
572.93	19.266
573.27	18.840
573.61	18.138
573.95	18.815
574.28	18.406
574.62	18.180
574.96	18.399
575.29	18.501
575.63	17.984
575.97	18.433
576.30	18.077
576.64	18.146
576.98	18.507
577.31	17.965
577.65	18.899
577.98	18.364
578.32	18.102
578.66	17.838
578.99	18.437
579.33	18.236
579.67	18.092
580.00	18.304
580.34	18.383
580.67	18.274
581.01	18.132
581.35	18.325
581.68	18.441
582.02	18.370
582.35	17.902
582.69	18.407
583.02	18.052
583.36	18.689
583.70	18.873
584.03	18.738
584.37	19.142
584.70	19.038
585.04	18.679
585.37	18.403
585.71	18.341
586.04	18.507
586.38	18.192
586.72	18.680
587.05	18.631
587.39	18.675
587.72	18.699
588.06	18.821
588.39	18.884
588.73	18.987
589.06	19.080
589.40	19.115
589.73	19.022
590.07	18.429
590.40	19.040
590.73	19.852
591.07	19.508
591.40	19.056
591.74	18.778
592.07	18.970
592.41	19.302
592.74	18.439
593.08	18.093
593.41	18.155
593.75	18.155
594.08	18.435
594.41	18.523
594.75	18.321
595.08	18.729
595.42	18.550
595.75	19.039
596.09	18.843
596.42	18.561
596.75	19.405
597.09	18.998
597.42	18.654
597.75	19.056
598.09	18.515
598.42	17.960
598.76	18.747
599.09	18.189
599.42	17.734
599.76	18.284
600.09	18.665
600.42	18.423
600.76	17.608
601.09	18.359
601.42	17.901
601.76	18.182
602.09	19.018
602.42	19.419
602.76	19.270
603.09	18.314
603.42	18.813
603.76	18.065
604.09	18.307
604.42	19.078
604.76	19.226
605.09	18.693
605.42	18.736
605.75	18.476
606.09	18.726
606.42	18.849
606.75	18.355
607.09	18.242
607.42	17.900
607.75	18.117
608.08	17.790
608.42	17.908
608.75	19.181
609.08	17.987
609.41	18.731
609.75	18.700
610.08	18.173
610.41	17.826
610.74	18.137
611.07	18.553
611.41	18.578
611.74	18.977
612.07	18.094
612.40	18.709
612.73	18.305
613.07	18.166
613.40	18.982
613.73	18.019
614.06	18.364
614.39	19.346
614.72	18.207
615.06	18.771
615.39	18.832
615.72	18.138
616.05	18.715
616.38	18.519
616.71	18.349
617.05	18.345
617.38	18.290
617.71	18.365
618.04	18.730
618.37	19.042
618.70	18.812
619.03	20.486
619.36	18.524
619.69	18.954
620.03	19.065
620.36	18.884
620.69	18.986
621.02	18.884
621.35	18.672
621.68	19.133
622.01	18.833
622.34	18.835
622.67	19.874
623.00	19.449
623.33	18.064
623.66	18.923
623.99	18.230
624.32	18.099
624.65	18.872
624.99	18.510
625.32	18.423
625.65	19.639
625.98	19.823
626.31	18.288
626.64	19.584
626.97	18.935
627.30	19.089
627.63	19.844
627.96	18.509
628.29	18.501
628.62	18.781
628.95	18.838
629.28	18.649
629.61	19.043
629.94	19.648
630.26	19.071
630.59	19.043
630.92	18.769
631.25	17.846
631.58	18.943
631.91	17.544
632.24	18.349
632.57	18.750
632.90	18.031
633.23	18.824
633.56	19.270
633.89	18.619
634.22	20.247
634.55	18.933
634.88	20.307
635.20	17.179
635.53	19.333
635.86	17.945
636.19	18.758
636.52	18.367
636.85	18.610
637.18	18.239
637.51	19.623
637.83	19.185
638.16	20.191
638.49	18.120
638.82	21.579
639.15	18.725
639.48	18.707
639.81	19.247
640.13	19.625
640.46	19.534
640.79	17.673
641.12	18.168
641.45	18.619
641.77	19.407
642.10	19.431
642.43	18.489
642.76	18.482
643.09	19.548
643.41	17.638
643.74	18.287
644.07	18.227
644.40	20.270
644.73	19.965
645.05	18.792
645.38	20.106
645.71	18.794
646.04	20.287
646.36	19.326
646.69	20.504
647.02	18.336
647.35	18.284
647.67	20.658
648.00	20.149
648.33	19.283
648.66	19.322
648.98	15.913
649.31	15.372
649.64	18.681
649.96	18.963
650.29	19.250
650.62	18.803
650.94	20.741
651.27	16.760
651.60	19.640
651.92	20.105
652.25	16.696
652.58	18.667
652.90	20.926
653.23	17.983
653.56	16.751
653.88	18.385
654.21	16.637
654.54	19.015
654.86	20.204
655.19	17.544
655.52	18.189
655.84	16.105
656.17	17.636
656.49	24.437
656.82	25.945
657.15	19.843
657.47	14.982
657.80	11.316
658.13	11.111
658.45	17.406
658.78	17.557
659.10	17.340
659.43	18.192
659.75	18.106
660.08	17.448
660.41	20.123
660.73	18.923
661.06	19.411
661.38	17.221
661.71	17.043
662.03	18.455
662.36	19.780
662.68	18.805
663.01	20.742
663.33	14.385
663.66	16.977
663.98	17.674
664.31	20.256
664.63	15.899
664.96	15.217
665.28	18.543
665.61	18.182
665.93	18.043
666.26	19.306
666.58	17.673
666.91	18.353
667.23	19.575
667.56	18.720
667.88	15.588
668.21	17.900
668.53	20.331
668.86	17.689
669.18	15.566
669.50	17.191
669.83	18.140
670.15	20.047
670.48	18.900
670.80	19.355
671.13	15.213
671.45	16.210
671.77	18.026
672.10	18.416
672.42	19.101
672.75	20.782
673.07	19.857
673.39	17.982
673.72	14.793
674.04	17.708
674.37	20.763
674.69	17.987
675.01	18.889
675.34	17.342
675.66	17.824
675.98	18.847
676.31	21.101
676.63	19.002
676.95	17.955
677.28	18.588
677.60	18.313
677.92	15.826
678.25	18.818
678.57	17.100
678.89	18.067
679.22	22.371
679.54	15.060
679.86	17.694
680.18	17.670
680.51	19.129
680.83	16.302
681.15	18.400
681.48	20.287
681.80	18.388
682.12	16.734
682.44	15.690
682.77	17.219
683.09	15.103
683.41	18.636
683.73	16.129
684.06	17.699
684.38	13.978
684.70	16.558
685.02	14.938
685.34	14.625
685.67	16.510
685.99	17.541
686.31	18.053
686.63	18.182
686.96	14.829
687.28	14.747
687.60	16.730
687.92	19.192
688.24	16.331
688.56	16.376
688.89	16.964
689.21	19.778
689.53	14.153
689.85	15.349
690.17	15.848
690.49	17.494
690.82	17.961
691.14	17.381
691.46	18.692
691.78	17.117
692.10	16.774
692.42	13.853
692.74	18.162
693.06	18.018
693.39	14.706
693.71	12.443
694.03	14.781
694.35	18.925
694.67	18.434
694.99	16.188
695.31	19.321
695.63	14.250
695.95	15.404
696.27	18.135
696.59	17.500
696.91	15.686
697.23	15.938
697.56	14.604
697.88	17.849
698.20	16.629
698.52	16.471
698.84	13.397
699.16	16.500
699.48	17.293
699.80	18.362
700.12	13.747
700.44	19.888
700.76	14.535
701.08	14.545
701.40	16.867
701.72	19.753
702.04	18.152
702.36	15.050
702.68	14.414
703.00	17.576
703.32	14.956
703.64	14.407
703.96	19.420
704.28	16.258
704.60	17.778
704.91	17.035
705.23	15.615
705.55	18.021
705.87	18.773
706.19	20.000
706.51	18.557
706.83	20.257
707.15	10.280
707.47	18.768
707.79	14.323
708.11	19.750
708.43	18.250
708.74	16.279
709.06	18.592
709.38	16.820
709.70	16.568
710.02	14.968
710.34	20.743
710.66	13.462
710.98	13.576
711.29	17.049
711.61	14.915
711.93	18.893
712.25	16.838
712.57	15.385
712.89	14.552
713.20	15.917
713.52	16.028
713.84	17.406
714.16	13.402
714.48	17.097
714.80	17.628
715.11	17.021
715.43	15.361
715.75	15.000
716.07	17.608
716.39	16.779
716.70	15.867
717.02	15.267
717.34	14.575
717.66	18.584
717.97	14.783
718.29	16.318
718.61	15.748
718.93	15.504
719.24	20.532
719.56	12.450
719.88	16.151
720.20	20.076
720.51	16.092
720.83	14.672
721.15	16.807
721.46	15.323
721.78	15.810
722.10	17.472
722.42	9.544
722.73	15.918
723.05	21.224
723.37	18.644
723.68	20.721
724.00	19.231
724.32	15.111
724.63	15.000
724.95	18.341
725.27	14.747
725.58	16.949
725.90	15.079
726.22	15.830
726.53	19.661
726.85	15.730
727.16	21.887
727.48	15.789
727.80	19.838
728.11	14.407
728.43	15.294
728.74	12.097
729.06	16.400
729.38	21.805
729.69	16.733
730.01	14.231
730.32	16.791
730.64	18.021
730.96	20.755
731.27	17.000
731.59	14.915
731.90	19.427
732.22	17.350
732.53	15.282
732.85	18.794
733.16	18.182
733.48	14.388
733.80	15.942
734.11	12.542
734.43	17.526
734.74	14.848
735.06	12.704
735.37	15.710
735.69	18.519
736.00	13.937
736.32	15.772
736.63	16.197
736.95	15.700
737.26	12.811
737.58	17.450
737.89	12.088
738.21	17.669
738.52	13.580
738.83	16.157
739.15	12.227
739.46	15.748
739.78	12.088
740.09	12.418
740.41	11.957
740.72	13.780
741.04	17.814
741.35	15.745
741.66	10.427
741.98	19.388
742.29	16.832
742.61	11.518
742.92	12.796
743.23	14.352
743.55	13.575
743.86	11.483
744.18	18.182
744.49	13.298
744.80	14.130
745.12	16.578
745.43	14.146
745.74	19.271
746.06	17.073
746.37	16.230
746.68	19.905
747.00	12.234
747.31	16.418
747.62	9.709
747.94	14.354
748.25	14.356
748.56	14.208
748.88	13.089
749.19	19.681
749.50	17.734
749.82	6.132
750.13	14.220
750.44	16.541
750.75	17.164
751.07	21.168
751.38	14.559
751.69	15.294
752.01	15.504
752.32	11.554
752.63	11.067
752.94	13.793
753.26	24.686
753.57	12.670
753.88	13.274
754.19	17.917
754.51	14.463
754.82	16.194
755.13	20.000
755.44	15.323
755.75	16.016
756.07	11.284
756.38	12.075
756.69	14.176
757.00	18.333
757.31	15.033
757.63	16.463
757.94	14.444
758.25	12.603
758.56	15.160
758.87	13.031
759.18	14.642
759.50	13.455
759.81	21.405
760.12	14.839
760.43	14.848
760.74	18.827
761.05	16.615
761.36	12.784
761.67	16.970
761.99	20.408
762.30	17.091
762.61	20.553
762.92	18.100
763.23	17.117
763.54	15.888
763.85	19.068
764.16	13.278
764.47	14.113
764.78	15.018
765.10	18.519
765.41	16.088
765.72	13.651
766.03	12.030
766.34	17.153
766.65	13.546
766.96	17.172
767.27	17.021
767.58	16.667
767.89	11.348
768.20	13.636
768.51	13.187
768.82	14.286
769.13	9.217
769.44	13.305
769.75	14.612
770.06	15.086
770.37	16.346
770.68	14.213
770.99	9.955
771.30	17.157
771.61	11.765
771.92	20.259
772.23	18.719
772.54	12.366
772.85	15.432
773.16	13.483
773.47	18.954
773.78	9.804
774.09	8.383
774.39	8.667
774.70	14.650
775.01	18.621
775.32	12.143
775.63	14.876
775.94	7.634
776.25	16.535
776.56	8.333
776.87	10.577
777.18	16.239
777.48	7.759
777.79	14.783
778.10	-2.857
778.41	4.505
778.72	9.524
779.03	16.541
779.34	19.858
779.65	13.699
779.95	15.068
780.26	12.414
780.57	16.260
780.88	12.598
781.19	6.897
781.50	10.078
781.80	19.527
782.11	14.465
782.42	15.385
782.73	10.791
783.04	10.370
783.34	12.500
783.65	7.692
783.96	17.213
784.27	19.310
784.57	16.260
784.88	15.625
785.19	24.000
785.50	13.000
785.81	12.069
786.11	10.345
786.42	5.825
786.73	16.364
787.04	14.286
787.34	4.464
787.65	19.048
787.96	14.159
788.26	11.818
788.57	20.513
788.88	19.531
789.19	17.460
789.49	8.696
789.80	4.082
790.11	11.111
790.41	8.182
790.72	20.652
791.03	9.091
791.33	23.750
791.64	16.250
791.95	6.977
792.25	17.021
792.56	25.843
792.87	13.699
793.17	-1.449
793.48	10.667
793.79	10.000
794.09	30.000
794.40	10.377
794.70	10.680
795.01	12.195
795.32	3.419
795.62	15.238
795.93	7.843
796.23	16.038
796.54	27.083
796.85	20.588
797.15	4.225
797.46	19.444
797.76	7.576
798.07	8.140
798.37	6.579
798.68	4.545
798.99	16.049
799.29	7.143
799.60	8.696
799.90	17.333
800.21	14.754
800.51	10.769
800.82	8.475
801.12	10.145
801.43	18.033
801.73	0.000
802.04	-8.000
802.34	-4.478
802.65	3.846
802.95	-3.571
803.26	3.846
803.56	5.882
803.87	13.043
804.17	12.000
804.48	25.397
804.78	9.259
805.09	21.739
805.39	-6.667
805.70	7.407
806.00	-17.544
806.30	28.169
806.61	14.286
806.91	4.167
807.22	23.684
807.52	17.333
807.83	-5.455
808.13	4.167
808.43	25.000
808.74	5.970
809.04	-18.644
809.35	1.923
809.65	10.938
809.95	-5.405
810.26	11.364
810.56	16.438
810.86	14.286
811.17	16.000
811.47	20.408
811.77	0.000
812.08	31.818
812.38	3.774
812.69	-5.000
812.99	9.091
813.29	5.263
813.59	-20.000
813.90	13.636
814.20	-7.692
814.50	-3.846
814.81	7.547
815.11	12.766
815.41	22.034
815.72	16.667
816.02	33.333
816.32	-8.333
816.62	2.439
816.93	-5.405
817.23	8.571
817.53	14.583
817.84	0.000
818.14	-1.923
818.44	-18.421
818.74	23.913
819.04	-12.500
819.35	16.216
819.65	-5.882
819.95	0.000
820.25	2.381
820.56	45.000
820.86	-34.483
821.16	40.000
821.46	-4.255
821.76	15.000
822.07	9.302
822.37	-37.838
822.67	0.000
822.97	0.000
823.27	-25.000
823.57	44.000
823.88	-22.222
824.18	35.714
824.48	0.000
824.78	3.226
825.08	0.000
825.38	15.152
825.69	-45.833
825.99	2.632
826.29	13.889
826.59	-80.000
826.89	-42.857
827.19	17.391
827.49	-2.500
827.79	28.571
828.09	35.714
828.39	24.242
828.70	43.243
829.00	7.143
829.30	14.286
829.60	-13.333
829.90	15.625
830.20	10.526
830.50	3.704
830.80	-8.696
831.10	-18.182
831.40	63.636
831.70	25.806
832.00	-4.762
832.30	-14.286
832.60	-83.333
832.90	31.034
833.20	-25.000
833.50	33.333
833.80	-14.815
834.10	34.615
834.40	31.250
834.70	-88.889
835.00	-26.316
835.30	15.385
835.60	53.333
835.90	3.226
836.20	13.636
836.50	17.857
836.80	-3.846
837.10	3.571
837.40	-200.000
837.70	22.727
838.00	-54.545
838.30	0.000
838.60	-38.462
838.90	40.909
839.19	3.571
839.49	33.333
839.79	-53.846
840.09	-116.667
840.39	35.714
840.69	-21.429
840.99	-30.769
841.29	-84.211
841.59	-120.000
841.88	-36.364
842.18	10.000
842.48	18.750
842.78	-20.000
843.08	22.222
843.38	-90.000
843.68	4.348
843.97	26.667
844.27	-26.667
844.57	5.000
844.87	-22.222
845.17	4.762
845.47	-60.000
845.76	-23.810
846.06	-35.294
846.36	-80.000
846.66	-50.000
846.96	20.000
847.25	-162.500
847.55	0.000
847.85	-37.500
848.15	-9.091
848.44	-566.667
848.74	25.000
849.04	33.333
849.34	-45.455
849.63	-200.000
849.93	-120.000
850.23	-5.556
850.53	30.000
850.82	-30.769
851.12	-122.222
851.42	13.333
851.71	-19.231
852.01	-7.143
852.31	-300.000
852.61	9.091
852.90	5.000
853.20	42.105
853.50	25.000
853.79	8.696
854.09	70.833
854.39	-10.526
854.68	4.167
854.98	9.677
855.28	0.000
855.57	-5.000
855.87	-16.667
856.17	37.037
856.46	-14.286
856.76	13.333
857.05	44.444
857.35	8.000
857.65	5.556
857.94	-7.692
858.24	27.586
858.53	27.778
858.83	0.000
859.13	36.364
859.42	-8.696
859.72	-200.000
860.01	-533.333
860.31	44.000
860.60	-52.381
860.90	-366.667
861.20	0.000
861.49	-250.000
861.79	-6.667
862.08	45.000
862.38	40.000
862.67	-140.000
862.97	-83.333
863.26	33.333
863.56	38.889
863.85	-300.000
864.15	33.333
864.44	-60.000
864.74	14.286
865.03	275.000
865.33	-40.000
865.62	-50.000
865.92	-133.333
866.21	16.667
866.51	31.250
866.80	-45.455
867.10	-200.000
867.39	75.000
867.69	0.000
867.98	-61.538
868.27	-100.000
868.57	46.667
868.86	22.222
869.16	-7.692
869.45	20.000
869.75	-1400.000
870.04	0.000
870.33	-71.429
870.63	57.143
870.92	666.667
871.22	-280.000
871.51	-300.000
871.80	55.556
872.10	566.667
>>>>>End Processed Spectral Data<<<<<
