SpectraSuite Data File
++++++++++++++++++++++++++++++++++++
Date: Fri May 15 17:17:44 PDT 2015
User: schluterlab
Dark Spectrum Present: Yes
Reference Spectrum Present: Yes
Number of Sampled Component Spectra: 1
Spectrometers: USB2E3373
Integration Time (usec): 3000 (USB2E3373)
Spectra Averaged: 3 (USB2E3373)
Boxcar Smoothing: 0 (USB2E3373)
Correct for Electrical Dark: No (USB2E3373)
Strobe/Lamp Enabled: No (USB2E3373)
Correct for Detector Non-linearity: No (USB2E3373)
Correct for Stray Light: No (USB2E3373)
Number of Pixels in Processed Spectrum: 2048
>>>>>Begin Processed Spectral Data<<<<<
178.53	0.000
178.91	0.000
179.29	112.500
179.67	-50.000
180.04	-114.286
180.42	475.000
180.80	100.000
181.18	233.333
181.56	200.000
181.94	150.000
182.31	100.000
182.69	260.000
183.07	133.333
183.45	160.000
183.83	-150.000
184.20	81.818
184.58	88.889
184.96	-100.000
185.34	-133.333
185.72	-200.000
186.09	38.462
186.47	-300.000
186.85	83.333
187.23	77.778
187.61	-700.000
187.98	333.333
188.36	33.333
188.74	300.000
189.12	76.471
189.49	83.333
189.87	0.000
190.25	92.857
190.63	150.000
191.00	-266.667
191.38	21.053
191.76	450.000
192.14	-100.000
192.51	500.000
192.89	0.000
193.27	-57.143
193.65	33.333
194.02	63.636
194.40	140.000
194.78	-25.000
195.15	58.333
195.53	50.000
195.91	150.000
196.29	-25.000
196.66	-23.077
197.04	-85.714
197.42	188.889
197.79	-266.667
198.17	-69.231
198.55	600.000
198.92	100.000
199.30	600.000
199.68	20.000
200.05	-133.333
200.43	0.000
200.81	233.333
201.18	133.333
201.56	100.000
201.94	-200.000
202.31	-233.333
202.69	-40.000
203.07	-125.000
203.44	700.000
203.82	0.000
204.19	71.429
204.57	-233.333
204.95	25.000
205.32	140.000
205.70	28.571
206.08	25.000
206.45	266.667
206.83	142.857
207.20	157.143
207.58	300.000
207.96	166.667
208.33	-50.000
208.71	100.000
209.08	0.000
209.46	-600.000
209.84	-180.000
210.21	-500.000
210.59	114.286
210.96	50.000
211.34	125.000
211.71	86.667
212.09	28.571
212.46	-400.000
212.84	0.000
213.22	210.000
213.59	150.000
213.97	84.615
214.34	118.182
214.72	16.667
215.09	25.000
215.47	84.615
215.84	72.727
216.22	33.333
216.59	0.000
216.97	-50.000
217.34	150.000
217.72	-40.000
218.09	87.500
218.47	-0.000
218.84	200.000
219.22	44.444
219.59	80.000
219.97	200.000
220.34	250.000
220.72	42.857
221.09	100.000
221.47	-50.000
221.84	-50.000
222.22	150.000
222.59	100.000
222.97	83.333
223.34	133.333
223.72	42.857
224.09	42.857
224.46	71.429
224.84	-33.333
225.21	60.000
225.59	93.333
225.96	200.000
226.34	-0.000
226.71	57.143
227.08	166.667
227.46	62.500
227.83	-350.000
228.21	144.444
228.58	36.364
228.95	0.000
229.33	50.000
229.70	100.000
230.08	-62.500
230.45	171.429
230.82	71.429
231.20	-40.000
231.57	128.571
231.95	242.857
232.32	50.000
232.69	7.143
233.07	133.333
233.44	100.000
233.81	10.000
234.19	66.667
234.56	-17.647
234.93	400.000
235.31	175.000
235.68	-120.000
236.05	-7.692
236.43	20.000
236.80	23.529
237.17	37.500
237.55	35.000
237.92	7.407
238.29	38.889
238.67	30.000
239.04	17.647
239.41	-4.878
239.79	-3.333
240.16	4.878
240.53	7.895
240.91	8.696
241.28	28.571
241.65	25.000
242.02	26.027
242.40	6.667
242.77	8.475
243.14	15.152
243.51	10.000
243.89	25.287
244.26	14.943
244.63	25.000
245.00	11.340
245.38	23.711
245.75	-1.124
246.12	12.931
246.49	8.264
246.87	24.038
247.24	11.765
247.61	5.263
247.98	11.382
248.36	13.750
248.73	17.763
249.10	3.247
249.47	14.557
249.84	7.190
250.22	12.353
250.59	18.954
250.96	11.737
251.33	8.721
251.70	11.176
252.08	9.645
252.45	11.881
252.82	10.553
253.19	14.747
253.56	3.271
253.94	15.315
254.31	8.261
254.68	13.596
255.05	8.661
255.42	7.860
255.79	10.811
256.16	14.397
256.54	14.552
256.91	12.928
257.28	9.294
257.65	10.487
258.02	9.220
258.39	10.438
258.76	12.454
259.14	12.957
259.51	12.298
259.88	8.935
260.25	14.052
260.62	9.375
260.99	10.847
261.36	8.219
261.73	10.127
262.10	13.070
262.47	9.509
262.85	7.210
263.22	6.462
263.59	9.034
263.96	12.733
264.33	10.909
264.70	8.036
265.07	11.905
265.44	9.915
265.81	11.299
266.18	8.197
266.55	10.797
266.92	11.399
267.29	11.488
267.66	9.974
268.03	12.042
268.40	10.705
268.77	9.893
269.14	8.873
269.51	11.568
269.88	8.978
270.25	7.398
270.62	9.024
270.99	5.882
271.36	8.313
271.73	9.859
272.10	9.246
272.47	12.530
272.84	10.149
273.21	9.513
273.58	13.253
273.95	9.840
274.32	7.621
274.69	8.597
275.06	12.277
275.43	10.658
275.80	9.051
276.17	9.195
276.54	8.994
276.91	11.184
277.28	8.952
277.65	10.744
278.02	10.000
278.39	6.565
278.76	6.918
279.13	5.187
279.50	10.714
279.87	9.071
280.23	7.742
280.60	11.696
280.97	9.899
281.34	11.154
281.71	12.115
282.08	8.589
282.45	10.959
282.82	7.336
283.19	10.445
283.56	9.249
283.92	8.159
284.29	7.115
284.66	8.915
285.03	9.037
285.40	11.531
285.77	7.733
286.14	6.679
286.51	9.041
286.87	8.958
287.24	7.551
287.61	6.173
287.98	10.877
288.35	9.012
288.72	10.158
289.08	9.201
289.45	9.666
289.82	8.566
290.19	6.997
290.56	7.376
290.93	8.418
291.29	8.320
291.66	8.819
292.03	6.539
292.40	8.548
292.77	8.612
293.13	5.195
293.50	6.980
293.87	7.023
294.24	7.883
294.60	7.452
294.97	10.268
295.34	6.135
295.71	6.706
296.08	6.876
296.44	6.686
296.81	7.083
297.18	7.246
297.55	8.537
297.91	7.534
298.28	8.047
298.65	6.649
299.02	7.278
299.38	6.156
299.75	7.586
300.12	6.545
300.48	7.246
300.85	6.591
301.22	7.143
301.59	6.974
301.95	6.962
302.32	7.652
302.69	7.338
303.05	6.683
303.42	7.721
303.79	7.827
304.15	7.288
304.52	5.470
304.89	5.848
305.25	5.811
305.62	5.601
305.99	5.848
306.35	5.202
306.72	6.974
307.09	7.070
307.45	6.659
307.82	4.977
308.19	6.852
308.55	5.453
308.92	6.754
309.29	5.922
309.65	6.997
310.02	6.161
310.38	5.488
310.75	6.448
311.12	6.781
311.48	6.363
311.85	7.016
312.22	4.641
312.58	6.369
312.95	5.123
313.31	6.522
313.68	6.178
314.05	5.204
314.41	7.423
314.78	6.289
315.14	6.783
315.51	6.625
315.87	6.455
316.24	7.280
316.61	7.283
316.97	7.242
317.34	6.152
317.70	7.266
318.07	7.885
318.43	7.451
318.80	8.144
319.16	7.324
319.53	8.927
319.89	7.776
320.26	8.806
320.62	9.529
320.99	8.559
321.35	8.839
321.72	9.450
322.08	9.869
322.45	9.442
322.81	10.118
323.18	9.814
323.54	10.811
323.91	11.295
324.27	12.012
324.64	12.828
325.00	13.777
325.37	15.243
325.73	13.962
326.10	15.441
326.46	16.951
326.83	16.885
327.19	17.001
327.56	17.029
327.92	18.486
328.29	18.393
328.65	19.623
329.01	19.761
329.38	21.567
329.74	20.869
330.11	22.428
330.47	22.635
330.84	22.596
331.20	25.095
331.56	25.000
331.93	25.023
332.29	25.573
332.66	25.882
333.02	25.651
333.38	26.306
333.75	27.106
334.11	27.126
334.48	27.289
334.84	26.648
335.20	27.539
335.57	26.564
335.93	27.823
336.29	29.098
336.66	28.247
337.02	27.602
337.38	27.315
337.75	29.636
338.11	30.298
338.47	29.653
338.84	30.037
339.20	29.250
339.56	29.450
339.93	29.275
340.29	31.009
340.65	30.197
341.02	29.078
341.38	30.000
341.74	29.682
342.11	29.029
342.47	30.160
342.83	31.401
343.20	31.098
343.56	31.478
343.92	31.444
344.28	30.231
344.65	30.743
345.01	30.337
345.37	30.025
345.73	30.126
346.10	32.010
346.46	29.100
346.82	30.687
347.19	29.676
347.55	31.662
347.91	31.634
348.27	30.558
348.63	31.942
349.00	31.091
349.36	32.003
349.72	32.172
350.08	31.721
350.45	30.886
350.81	31.312
351.17	30.619
351.53	31.592
351.89	30.801
352.26	31.120
352.62	33.226
352.98	31.486
353.34	31.643
353.70	32.362
354.07	33.065
354.43	30.745
354.79	31.544
355.15	32.222
355.51	33.386
355.87	31.958
356.24	31.403
356.60	31.770
356.96	32.857
357.32	33.946
357.68	32.525
358.04	31.664
358.40	33.601
358.77	33.971
359.13	33.227
359.49	31.125
359.85	33.931
360.21	33.014
360.57	33.512
360.93	33.132
361.29	32.704
361.66	33.386
362.02	32.652
362.38	33.206
362.74	34.217
363.10	33.935
363.46	33.136
363.82	34.335
364.18	34.465
364.54	33.382
364.90	34.122
365.26	33.843
365.62	35.547
365.98	33.871
366.35	35.834
366.71	34.442
367.07	34.398
367.43	34.292
367.79	35.194
368.15	34.817
368.51	35.688
368.87	34.530
369.23	34.368
369.59	37.026
369.95	36.877
370.31	36.199
370.67	35.896
371.03	36.146
371.39	35.667
371.75	35.678
372.11	34.736
372.47	36.095
372.83	36.693
373.19	36.591
373.55	37.329
373.91	37.221
374.27	37.279
374.63	37.688
374.99	37.376
375.35	36.072
375.71	37.832
376.07	38.483
376.42	38.163
376.78	37.718
377.14	38.727
377.50	39.044
377.86	38.353
378.22	39.566
378.58	38.782
378.94	38.563
379.30	39.613
379.66	39.749
380.02	39.240
380.38	37.675
380.74	39.258
381.09	39.877
381.45	39.633
381.81	39.297
382.17	39.404
382.53	40.162
382.89	40.427
383.25	40.137
383.61	41.524
383.97	40.571
384.32	40.213
384.68	41.610
385.04	40.135
385.40	40.448
385.76	41.572
386.12	42.173
386.48	42.784
386.83	41.408
387.19	42.186
387.55	42.472
387.91	42.054
388.27	41.209
388.62	42.668
388.98	42.234
389.34	43.098
389.70	43.070
390.06	41.473
390.42	42.422
390.77	42.577
391.13	42.434
391.49	42.367
391.85	43.535
392.20	42.185
392.56	44.437
392.92	42.924
393.28	43.691
393.64	41.982
393.99	44.702
394.35	42.948
394.71	43.423
395.07	43.180
395.42	43.412
395.78	42.345
396.14	43.380
396.50	43.056
396.85	43.335
397.21	43.922
397.57	43.197
397.92	43.919
398.28	43.736
398.64	42.229
399.00	43.679
399.35	42.889
399.71	42.447
400.07	43.954
400.42	42.717
400.78	43.784
401.14	43.799
401.49	43.359
401.85	43.327
402.21	43.313
402.57	44.000
402.92	42.095
403.28	43.045
403.63	43.380
403.99	42.283
404.35	44.285
404.70	42.976
405.06	42.009
405.42	42.573
405.77	42.301
406.13	42.666
406.49	41.918
406.84	43.276
407.20	43.588
407.55	43.593
407.91	41.778
408.27	42.639
408.62	42.215
408.98	41.713
409.34	42.813
409.69	41.344
410.05	41.010
410.40	41.667
410.76	43.185
411.11	42.062
411.47	42.932
411.83	41.933
412.18	42.535
412.54	41.199
412.89	40.764
413.25	41.637
413.60	41.739
413.96	41.718
414.31	42.805
414.67	42.399
415.03	41.877
415.38	42.102
415.74	41.498
416.09	42.195
416.45	42.809
416.80	41.375
417.16	42.610
417.51	41.306
417.87	41.199
418.22	40.933
418.58	40.870
418.93	42.571
419.29	41.101
419.64	42.903
420.00	43.073
420.35	41.731
420.71	42.284
421.06	42.419
421.42	42.788
421.77	42.197
422.12	41.998
422.48	41.527
422.83	40.661
423.19	41.140
423.54	42.269
423.90	41.166
424.25	41.160
424.61	42.166
424.96	41.463
425.31	42.808
425.67	43.016
426.02	42.697
426.38	42.580
426.73	42.433
427.09	43.544
427.44	43.176
427.79	42.192
428.15	43.083
428.50	42.459
428.85	42.998
429.21	42.049
429.56	44.043
429.92	42.886
430.27	41.604
430.62	42.446
430.98	42.144
431.33	43.060
431.68	42.125
432.04	42.873
432.39	42.327
432.74	41.371
433.10	43.046
433.45	43.369
433.80	42.194
434.16	42.327
434.51	42.634
434.86	42.625
435.22	42.737
435.57	42.670
435.92	42.275
436.28	42.934
436.63	43.240
436.98	42.874
437.34	42.166
437.69	43.769
438.04	43.020
438.39	41.784
438.75	43.594
439.10	41.539
439.45	42.970
439.81	43.425
440.16	44.774
440.51	43.104
440.86	44.169
441.22	42.930
441.57	43.377
441.92	45.226
442.27	43.459
442.63	43.737
442.98	43.136
443.33	42.738
443.68	42.281
444.03	43.269
444.39	43.532
444.74	44.036
445.09	44.933
445.44	43.476
445.79	44.198
446.15	42.566
446.50	43.594
446.85	44.474
447.20	43.274
447.55	43.973
447.91	44.050
448.26	43.426
448.61	43.696
448.96	44.349
449.31	44.220
449.66	43.786
450.02	43.697
450.37	45.228
450.72	42.440
451.07	44.241
451.42	43.258
451.77	43.761
452.12	43.182
452.47	42.820
452.83	43.110
453.18	42.631
453.53	43.047
453.88	43.898
454.23	42.963
454.58	43.766
454.93	43.557
455.28	42.286
455.63	43.149
455.98	44.799
456.34	41.379
456.69	43.774
457.04	44.297
457.39	42.953
457.74	43.168
458.09	41.672
458.44	42.539
458.79	42.129
459.14	43.707
459.49	42.985
459.84	42.978
460.19	43.325
460.54	42.787
460.89	42.784
461.24	43.043
461.59	42.933
461.94	42.013
462.29	42.400
462.64	42.126
462.99	41.571
463.34	42.629
463.69	41.634
464.04	43.462
464.39	42.147
464.74	42.515
465.09	43.606
465.44	43.393
465.79	41.667
466.14	43.501
466.49	42.496
466.84	42.475
467.19	42.491
467.54	41.826
467.89	41.693
468.24	41.606
468.59	43.111
468.94	42.603
469.29	41.639
469.64	41.627
469.99	42.747
470.34	40.956
470.68	42.729
471.03	42.109
471.38	40.799
471.73	41.737
472.08	40.434
472.43	41.678
472.78	40.987
473.13	40.884
473.48	41.629
473.83	41.034
474.17	41.192
474.52	41.608
474.87	41.879
475.22	40.818
475.57	40.711
475.92	41.031
476.27	42.841
476.61	41.667
476.96	40.100
477.31	40.562
477.66	40.337
478.01	40.988
478.36	41.285
478.70	40.892
479.05	41.429
479.40	41.494
479.75	39.833
480.10	40.655
480.45	40.650
480.79	41.893
481.14	41.137
481.49	40.936
481.84	41.168
482.19	40.599
482.53	40.959
482.88	41.289
483.23	39.635
483.58	40.377
483.92	40.174
484.27	39.745
484.62	39.444
484.97	39.801
485.31	40.462
485.66	41.671
486.01	41.740
486.36	41.462
486.70	40.685
487.05	40.876
487.40	39.943
487.75	40.225
488.09	39.926
488.44	39.959
488.79	39.821
489.13	40.264
489.48	39.675
489.83	39.193
490.17	40.000
490.52	39.169
490.87	39.010
491.22	40.258
491.56	38.852
491.91	38.193
492.26	38.600
492.60	38.772
492.95	39.646
493.30	37.909
493.64	39.686
493.99	39.469
494.34	39.175
494.68	39.048
495.03	38.394
495.37	39.009
495.72	39.273
496.07	38.585
496.41	39.151
496.76	38.462
497.11	38.426
497.45	39.093
497.80	39.203
498.14	38.500
498.49	38.090
498.84	38.673
499.18	39.558
499.53	39.187
499.87	38.619
500.22	39.416
500.56	38.729
500.91	38.604
501.26	38.705
501.60	38.711
501.95	38.234
502.29	38.402
502.64	38.948
502.98	39.369
503.33	38.136
503.67	38.506
504.02	38.856
504.36	38.545
504.71	38.535
505.06	38.500
505.40	39.137
505.75	37.784
506.09	37.912
506.44	38.912
506.78	38.724
507.13	38.676
507.47	37.493
507.82	38.194
508.16	37.559
508.51	39.087
508.85	38.828
509.19	38.212
509.54	37.802
509.88	38.403
510.23	38.515
510.57	38.375
510.92	37.687
511.26	38.298
511.61	38.009
511.95	38.411
512.30	37.583
512.64	37.841
512.98	37.170
513.33	38.780
513.67	37.749
514.02	38.215
514.36	39.200
514.70	37.937
515.05	38.073
515.39	37.839
515.74	39.162
516.08	38.314
516.42	38.751
516.77	38.034
517.11	38.398
517.46	38.061
517.80	38.200
518.14	37.722
518.49	38.281
518.83	37.849
519.17	37.780
519.52	38.011
519.86	37.515
520.20	37.606
520.55	36.648
520.89	37.578
521.23	37.429
521.58	39.054
521.92	38.077
522.26	37.215
522.61	37.468
522.95	39.205
523.29	36.912
523.64	38.437
523.98	38.496
524.32	37.371
524.66	37.196
525.01	38.571
525.35	38.756
525.69	37.441
526.04	37.368
526.38	38.132
526.72	37.606
527.06	37.289
527.41	37.137
527.75	36.662
528.09	38.272
528.43	38.825
528.78	37.294
529.12	39.161
529.46	37.492
529.80	37.175
530.15	37.822
530.49	37.845
530.83	39.193
531.17	37.340
531.51	37.825
531.86	37.729
532.20	38.831
532.54	37.577
532.88	38.741
533.22	37.836
533.57	38.204
533.91	38.577
534.25	38.151
534.59	37.845
534.93	37.508
535.27	36.802
535.62	38.367
535.96	38.487
536.30	39.116
536.64	39.421
536.98	36.864
537.32	38.407
537.66	38.359
538.01	38.671
538.35	38.696
538.69	38.216
539.03	36.364
539.37	38.493
539.71	35.924
540.05	38.018
540.39	37.535
540.73	38.145
541.07	38.950
541.42	37.970
541.76	38.059
542.10	38.541
542.44	38.082
542.78	36.545
543.12	37.843
543.46	39.221
543.80	38.168
544.14	36.449
544.48	37.175
544.82	38.414
545.16	38.456
545.50	37.650
545.84	37.748
546.18	40.000
546.52	39.077
546.86	37.527
547.20	37.697
547.54	36.961
547.88	37.704
548.22	37.475
548.56	37.533
548.90	38.073
549.24	38.912
549.58	38.364
549.92	36.526
550.26	37.875
550.60	38.141
550.94	38.088
551.28	37.017
551.62	38.077
551.96	38.797
552.30	38.670
552.64	36.953
552.98	37.553
553.32	38.231
553.66	36.792
554.00	38.467
554.34	38.035
554.68	36.947
555.02	38.095
555.36	38.743
555.69	37.656
556.03	37.616
556.37	37.722
556.71	37.184
557.05	37.136
557.39	36.357
557.73	38.606
558.07	37.406
558.41	38.361
558.75	37.880
559.08	36.643
559.42	37.619
559.76	37.870
560.10	37.538
560.44	37.751
560.78	37.832
561.12	38.434
561.45	38.791
561.79	38.445
562.13	37.686
562.47	37.914
562.81	38.256
563.15	38.011
563.48	38.331
563.82	39.465
564.16	38.162
564.50	37.365
564.84	38.487
565.17	38.095
565.51	38.730
565.85	39.026
566.19	38.528
566.52	38.740
566.86	39.460
567.20	38.107
567.54	39.538
567.88	40.246
568.21	39.423
568.55	40.054
568.89	40.195
569.23	39.817
569.56	39.536
569.90	40.438
570.24	39.635
570.57	40.473
570.91	40.467
571.25	39.428
571.59	40.143
571.92	38.904
572.26	39.100
572.60	39.504
572.93	39.504
573.27	39.216
573.61	39.916
573.95	40.333
574.28	40.413
574.62	40.020
574.96	39.491
575.29	39.854
575.63	38.974
575.97	39.360
576.30	39.218
576.64	38.914
576.98	39.871
577.31	40.305
577.65	40.252
577.98	40.828
578.32	40.688
578.66	39.781
578.99	38.956
579.33	39.345
579.67	39.061
580.00	40.127
580.34	40.149
580.67	39.318
581.01	40.154
581.35	40.181
581.68	40.701
582.02	40.356
582.35	39.851
582.69	40.397
583.02	40.120
583.36	39.461
583.70	40.369
584.03	40.645
584.37	40.683
584.70	40.907
585.04	39.482
585.37	40.172
585.71	40.805
586.04	40.192
586.38	39.717
586.72	40.029
587.05	41.132
587.39	40.453
587.72	41.061
588.06	40.742
588.39	40.103
588.73	40.232
589.06	41.194
589.40	40.166
589.73	39.467
590.07	39.615
590.40	40.286
590.73	40.980
591.07	40.797
591.40	40.205
591.74	40.498
592.07	41.466
592.41	40.945
592.74	40.263
593.08	39.853
593.41	40.560
593.75	40.857
594.08	40.165
594.41	40.575
594.75	40.267
595.08	40.749
595.42	41.480
595.75	41.495
596.09	41.400
596.42	41.381
596.75	41.163
597.09	40.957
597.42	41.780
597.75	40.953
598.09	40.244
598.42	39.756
598.76	40.197
599.09	40.865
599.42	39.901
599.76	40.971
600.09	40.498
600.42	40.561
600.76	39.636
601.09	39.771
601.42	40.266
601.76	40.056
602.09	40.512
602.42	41.575
602.76	40.832
603.09	41.528
603.42	41.931
603.76	40.968
604.09	41.353
604.42	41.159
604.76	42.145
605.09	41.088
605.42	40.451
605.75	40.630
606.09	40.807
606.42	40.784
606.75	40.130
607.09	40.835
607.42	39.965
607.75	41.297
608.08	40.386
608.42	40.475
608.75	41.253
609.08	41.854
609.41	40.964
609.75	40.827
610.08	41.588
610.41	40.435
610.74	40.712
611.07	41.344
611.41	40.944
611.74	41.098
612.07	40.257
612.40	41.575
612.73	41.864
613.07	41.114
613.40	41.521
613.73	39.787
614.06	41.625
614.39	41.117
614.72	39.608
615.06	41.173
615.39	40.284
615.72	39.774
616.05	40.559
616.38	39.316
616.71	41.407
617.05	41.013
617.38	40.415
617.71	41.509
618.04	42.349
618.37	41.551
618.70	41.650
619.03	41.111
619.36	40.955
619.69	41.622
620.03	42.367
620.36	41.059
620.69	41.113
621.02	41.208
621.35	41.577
621.68	41.327
622.01	41.917
622.34	40.543
622.67	40.773
623.00	40.429
623.33	41.768
623.66	39.791
623.99	40.318
624.32	41.141
624.65	39.549
624.99	41.836
625.32	40.409
625.65	41.477
625.98	41.821
626.31	40.565
626.64	40.295
626.97	40.401
627.30	41.769
627.63	41.421
627.96	40.701
628.29	41.628
628.62	41.101
628.95	40.982
629.28	42.036
629.61	39.482
629.94	40.567
630.26	42.391
630.59	42.144
630.92	40.513
631.25	38.667
631.58	40.859
631.91	39.912
632.24	40.482
632.57	40.227
632.90	39.858
633.23	41.294
633.56	39.673
633.89	41.430
634.22	40.741
634.55	40.661
634.88	41.635
635.20	39.487
635.53	40.667
635.86	39.012
636.19	41.527
636.52	40.051
636.85	39.454
637.18	41.635
637.51	38.113
637.83	40.079
638.16	40.382
638.49	38.420
638.82	40.395
639.15	39.077
639.48	40.028
639.81	41.562
640.13	41.558
640.46	42.420
640.79	41.679
641.12	41.507
641.45	39.640
641.77	40.593
642.10	42.654
642.43	40.032
642.76	41.419
643.09	40.872
643.41	40.291
643.74	39.539
644.07	38.752
644.40	41.723
644.73	41.506
645.05	40.268
645.38	41.975
645.71	38.121
646.04	43.627
646.36	41.489
646.69	42.086
647.02	40.832
647.35	40.485
647.67	38.757
648.00	42.537
648.33	41.468
648.66	41.864
648.98	37.856
649.31	40.165
649.64	40.345
649.96	41.815
650.29	41.227
650.62	39.316
650.94	41.481
651.27	39.292
651.60	41.081
651.92	40.559
652.25	39.787
652.58	42.000
652.90	44.597
653.23	42.017
653.56	39.255
653.88	38.832
654.21	39.580
654.54	39.728
654.86	41.935
655.19	40.789
655.52	44.272
655.84	44.911
656.17	50.200
656.49	68.648
656.82	70.417
657.15	53.157
657.47	39.596
657.80	29.226
658.13	28.264
658.45	43.465
658.78	43.265
659.10	43.238
659.43	43.508
659.75	44.154
660.08	43.655
660.41	43.309
660.73	42.541
661.06	42.634
661.38	40.705
661.71	37.782
662.03	43.562
662.36	41.319
662.68	40.708
663.01	40.175
663.33	40.139
663.66	39.535
663.98	39.535
664.31	39.232
664.63	37.788
664.96	38.261
665.28	38.852
665.61	41.558
665.93	41.304
666.26	39.262
666.58	39.374
666.91	39.529
667.23	42.453
667.56	40.521
667.88	38.849
668.21	42.482
668.53	39.716
668.86	43.396
669.18	37.264
669.50	42.131
669.83	39.302
670.15	39.161
670.48	41.627
670.80	38.710
671.13	38.926
671.45	37.900
671.77	42.918
672.10	40.396
672.42	40.824
672.75	41.030
673.07	43.470
673.39	42.752
673.72	41.026
674.04	41.042
674.37	40.466
674.69	37.687
675.01	41.778
675.34	41.892
675.66	43.981
675.98	42.350
676.31	43.349
676.63	41.330
676.95	40.000
677.28	42.824
677.60	44.578
677.92	40.367
678.25	42.888
678.57	40.693
678.89	42.017
679.22	45.414
679.54	39.157
679.86	41.551
680.18	43.301
680.51	42.992
680.83	37.575
681.15	40.400
681.48	44.672
681.80	43.182
682.12	40.927
682.44	39.331
682.77	40.397
683.09	42.563
683.41	41.136
683.73	39.862
684.06	41.150
684.38	37.634
684.70	42.484
685.02	42.116
685.34	41.107
685.67	41.651
685.99	42.495
686.31	41.593
686.63	41.744
686.96	40.875
687.28	42.222
687.60	41.445
687.92	41.616
688.24	42.137
688.56	46.507
688.89	39.509
689.21	44.667
689.53	43.387
689.85	41.628
690.17	42.634
690.49	43.026
690.82	41.990
691.14	37.381
691.46	42.991
691.78	43.018
692.10	43.441
692.42	42.424
692.74	42.949
693.06	41.216
693.39	38.914
693.71	40.950
694.03	40.185
694.35	39.953
694.67	42.929
694.99	40.731
695.31	42.037
695.63	41.750
695.95	40.909
696.27	38.342
696.59	43.889
696.91	40.616
697.23	39.846
697.56	39.604
697.88	39.570
698.20	45.558
698.52	39.765
698.84	36.603
699.16	43.000
699.48	40.100
699.80	39.454
700.12	45.283
700.44	41.737
700.76	38.663
701.08	40.000
701.40	41.265
701.72	43.519
702.04	40.924
702.36	44.482
702.68	42.042
703.00	44.545
703.32	43.109
703.64	38.418
703.96	38.261
704.28	41.411
704.60	44.444
704.91	38.486
705.23	41.528
705.55	42.756
705.87	46.209
706.19	44.074
706.51	44.330
706.83	44.051
707.15	39.875
707.47	40.056
707.79	38.021
708.11	40.500
708.43	40.750
708.74	41.085
709.06	44.789
709.38	45.260
709.70	39.941
710.02	41.083
710.34	43.963
710.66	39.744
710.98	42.384
711.29	40.984
711.61	46.780
711.93	39.739
712.25	42.955
712.57	41.758
712.89	44.776
713.20	42.907
713.52	43.902
713.84	43.003
714.16	39.519
714.48	43.548
714.80	42.308
715.11	39.210
715.43	36.991
715.75	40.000
716.07	38.206
716.39	43.289
716.70	37.638
717.02	37.023
717.34	42.510
717.66	41.150
717.97	41.739
718.29	43.515
718.61	44.488
718.93	41.473
719.24	43.726
719.56	44.980
719.88	39.863
720.20	42.803
720.51	39.464
720.83	45.560
721.15	39.916
721.46	40.726
721.78	35.573
722.10	37.546
722.42	39.419
722.73	46.122
723.05	48.163
723.37	47.034
723.68	46.396
724.00	42.735
724.32	47.111
724.63	40.909
724.95	47.162
725.27	43.779
725.58	47.034
725.90	36.508
726.22	46.718
726.53	43.729
726.85	44.944
727.16	45.660
727.48	38.057
727.80	42.510
728.11	41.102
728.43	40.784
728.74	39.516
729.06	43.200
729.38	43.985
729.69	44.223
730.01	38.846
730.32	45.522
730.64	45.583
730.96	49.057
731.27	42.000
731.59	42.373
731.90	42.994
732.22	44.164
732.53	44.518
732.85	47.518
733.16	46.801
733.48	38.489
733.80	46.739
734.11	42.034
734.43	40.206
734.74	42.727
735.06	45.603
735.37	44.109
735.69	44.781
736.00	41.463
736.32	42.617
736.63	41.901
736.95	40.273
737.26	42.349
737.58	42.953
737.89	43.223
738.21	41.353
738.52	43.621
738.83	48.035
739.15	37.555
739.46	44.094
739.78	40.659
740.09	43.464
740.41	43.841
740.72	44.094
741.04	43.725
741.35	36.596
741.66	43.128
741.98	41.837
742.29	47.030
742.61	45.026
742.92	37.441
743.23	35.185
743.55	45.249
743.86	42.105
744.18	43.062
744.49	39.894
744.80	42.391
745.12	44.920
745.43	36.585
745.74	44.792
746.06	43.415
746.37	52.356
746.68	45.024
747.00	40.957
747.31	42.289
747.62	41.262
747.94	46.890
748.25	49.010
748.56	49.727
748.88	43.979
749.19	47.872
749.50	40.394
749.82	39.623
750.13	40.826
750.44	45.113
750.75	44.776
751.07	46.715
751.38	44.444
751.69	38.431
752.01	41.085
752.32	43.825
752.63	42.688
752.94	40.086
753.26	49.791
753.57	43.891
753.88	42.035
754.19	41.667
754.51	42.149
754.82	44.534
755.13	42.500
755.44	41.129
755.75	40.625
756.07	43.191
756.38	41.132
756.69	40.230
757.00	45.333
757.31	39.869
757.63	40.854
757.94	40.833
758.25	42.466
758.56	40.160
758.87	38.527
759.18	41.121
759.50	45.091
759.81	44.147
760.12	39.355
760.43	42.727
760.74	45.679
761.05	43.385
761.36	41.193
761.67	45.152
761.99	44.218
762.30	36.000
762.61	43.478
762.92	38.462
763.23	41.441
763.54	40.187
763.85	39.831
764.16	40.249
764.47	37.903
764.78	38.095
765.10	43.098
765.41	41.956
765.72	38.730
766.03	44.737
766.34	37.591
766.65	44.223
766.96	47.980
767.27	43.617
767.58	35.632
767.89	38.298
768.20	38.636
768.51	42.857
768.82	46.798
769.13	40.553
769.44	41.631
769.75	42.009
770.06	39.224
770.37	40.865
770.68	39.086
770.99	36.652
771.30	50.490
771.61	43.891
771.92	45.690
772.23	50.739
772.54	42.473
772.85	43.827
773.16	43.258
773.47	54.902
773.78	52.941
774.09	44.910
774.39	36.000
774.70	41.401
775.01	49.655
775.32	46.429
775.63	29.752
775.94	37.405
776.25	34.646
776.56	39.167
776.87	41.346
777.18	52.991
777.48	43.103
777.79	37.391
778.10	22.857
778.41	31.532
778.72	50.794
779.03	36.842
779.34	42.553
779.65	41.096
779.95	40.411
780.26	49.655
780.57	35.772
780.88	40.945
781.19	37.931
781.50	50.388
781.80	31.361
782.11	33.962
782.42	48.462
782.73	46.043
783.04	37.778
783.34	42.361
783.65	32.479
783.96	44.262
784.27	46.207
784.57	43.089
784.88	46.875
785.19	42.000
785.50	56.000
785.81	42.241
786.11	42.241
786.42	36.893
786.73	48.182
787.04	39.796
787.34	38.393
787.65	39.048
787.96	45.133
788.26	44.545
788.57	35.897
788.88	34.375
789.19	46.825
789.49	46.087
789.80	40.816
790.11	48.485
790.41	30.000
790.72	47.826
791.03	35.227
791.33	45.000
791.64	41.250
791.95	44.186
792.25	34.043
792.56	40.449
792.87	43.836
793.17	53.623
793.48	33.333
793.79	40.000
794.09	50.000
794.40	36.792
794.70	35.922
795.01	41.463
795.32	47.863
795.62	33.333
795.93	38.235
796.23	42.453
796.54	47.917
796.85	36.765
797.15	30.986
797.46	30.556
797.76	45.455
798.07	39.535
798.37	18.421
798.68	36.364
798.99	28.395
799.29	44.286
799.60	43.478
799.90	46.667
800.21	42.623
800.51	53.846
800.82	50.847
801.12	43.478
801.43	60.656
801.73	34.921
802.04	32.000
802.34	50.746
802.65	50.000
802.95	46.429
803.26	40.385
803.56	52.941
803.87	41.304
804.17	44.000
804.48	46.032
804.78	40.741
805.09	50.000
805.39	46.667
805.70	46.296
806.00	28.070
806.30	50.704
806.61	38.571
806.91	41.667
807.22	50.000
807.52	45.333
807.83	30.909
808.13	31.944
808.43	32.353
808.74	35.821
809.04	38.983
809.35	36.538
809.65	39.063
809.95	24.324
810.26	2.273
810.56	26.027
810.86	28.571
811.17	42.000
811.47	28.571
811.77	57.895
812.08	36.364
812.38	20.755
812.69	20.000
812.99	24.242
813.29	50.000
813.59	22.857
813.90	52.273
814.20	38.462
814.50	40.385
814.81	50.943
815.11	29.787
815.41	57.627
815.72	52.381
816.02	35.294
816.32	37.500
816.62	51.220
816.93	43.243
817.23	20.000
817.53	35.417
817.84	30.435
818.14	34.615
818.44	31.579
818.74	52.174
819.04	-17.500
819.35	37.838
819.65	11.765
819.95	44.444
820.25	33.333
820.56	37.500
820.86	37.931
821.16	57.500
821.46	40.426
821.76	52.500
822.07	16.279
822.37	18.919
822.67	50.000
822.97	71.429
823.27	17.857
823.57	60.000
823.88	-22.222
824.18	35.714
824.48	55.882
824.78	70.968
825.08	30.435
825.38	33.333
825.69	-33.333
825.99	63.158
826.29	36.111
826.59	100.000
826.89	33.333
827.19	50.000
827.49	27.500
827.79	71.429
828.09	50.000
828.39	75.758
828.70	70.270
829.00	17.857
829.30	80.952
829.60	46.667
829.90	56.250
830.20	26.316
830.50	18.519
830.80	34.783
831.10	13.636
831.40	54.545
831.70	80.645
832.00	80.952
832.30	19.048
832.60	25.000
832.90	44.828
833.20	-25.000
833.50	36.364
833.80	44.444
834.10	57.692
834.40	34.375
834.70	33.333
835.00	47.368
835.30	61.538
835.60	86.667
835.90	54.839
836.20	27.273
836.50	67.857
836.80	26.923
837.10	21.429
837.40	166.667
837.70	36.364
838.00	81.818
838.30	30.435
838.60	0.000
838.90	118.182
839.19	28.571
839.49	46.667
839.79	23.077
840.09	-16.667
840.39	35.714
840.69	39.286
840.99	30.769
841.29	0.000
841.59	120.000
841.88	54.545
842.18	150.000
842.48	50.000
842.78	-20.000
843.08	14.815
843.38	-100.000
843.68	43.478
843.97	80.000
844.27	-6.667
844.57	45.000
844.87	33.333
845.17	9.524
845.47	66.667
845.76	71.429
846.06	70.588
846.36	60.000
846.66	-21.429
846.96	13.333
847.25	-62.500
847.55	107.143
847.85	87.500
848.15	-27.273
848.44	-333.333
848.74	-10.000
849.04	51.852
849.34	154.545
849.63	100.000
849.93	-40.000
850.23	0.000
850.53	90.000
850.82	7.692
851.12	88.889
851.42	73.333
851.71	7.692
852.01	42.857
852.31	25.000
852.61	45.455
852.90	10.000
853.20	42.105
853.50	100.000
853.79	56.522
854.09	41.667
854.39	31.579
854.68	45.833
854.98	51.613
855.28	103.846
855.57	50.000
855.87	38.889
856.17	44.444
856.46	50.000
856.76	80.000
857.05	155.556
857.35	24.000
857.65	66.667
857.94	61.538
858.24	51.724
858.53	72.222
858.83	48.148
859.13	63.636
859.42	8.696
859.72	100.000
860.01	-133.333
860.31	52.000
860.60	52.381
860.90	-133.333
861.20	-6.667
861.49	-250.000
861.79	-33.333
862.08	40.000
862.38	106.667
862.67	-20.000
862.97	150.000
863.26	-8.333
863.56	50.000
863.85	200.000
864.15	83.333
864.44	-10.000
864.74	100.000
865.03	100.000
865.33	0.000
865.62	66.667
865.92	8.333
866.21	16.667
866.51	43.750
866.80	9.091
867.10	200.000
867.39	158.333
867.69	0.000
867.98	69.231
868.27	66.667
868.57	6.667
868.86	88.889
869.16	-53.846
869.45	53.333
869.75	600.000
870.04	0.000
870.33	-14.286
870.63	109.524
870.92	266.667
871.22	100.000
871.51	100.000
871.80	-11.111
872.10	-200.000
>>>>>End Processed Spectral Data<<<<<
