SpectraSuite Data File
++++++++++++++++++++++++++++++++++++
Date: Tue May 12 16:40:24 PDT 2015
User: schluterlab
Dark Spectrum Present: Yes
Reference Spectrum Present: Yes
Number of Sampled Component Spectra: 1
Spectrometers: USB2E3373
Integration Time (usec): 3000 (USB2E3373)
Spectra Averaged: 3 (USB2E3373)
Boxcar Smoothing: 0 (USB2E3373)
Correct for Electrical Dark: No (USB2E3373)
Strobe/Lamp Enabled: No (USB2E3373)
Correct for Detector Non-linearity: No (USB2E3373)
Correct for Stray Light: No (USB2E3373)
Number of Pixels in Processed Spectrum: 2048
>>>>>Begin Processed Spectral Data<<<<<
178.53	0.000
178.91	-266.667
179.29	-500.000
179.67	-4200.000
180.04	-160.000
180.42	875.000
180.80	1350.000
181.18	0.000
181.56	-262.500
181.94	0.000
182.31	1033.333
182.69	-3200.000
183.07	542.857
183.45	-3000.000
183.83	-1750.000
184.20	310.000
184.58	500.000
184.96	-207.692
185.34	-133.333
185.72	1200.000
186.09	-625.000
186.47	-3200.000
186.85	1000.000
187.23	440.000
187.61	1350.000
187.98	500.000
188.36	214.286
188.74	308.333
189.12	308.333
189.49	925.000
189.87	0.000
190.25	437.500
190.63	2700.000
191.00	-200.000
191.38	-3600.000
191.76	-675.000
192.14	562.500
192.51	-4000.000
192.89	1700.000
193.27	1233.333
193.65	-1100.000
194.02	-920.000
194.40	514.286
194.78	-221.429
195.15	200.000
195.53	-3000.000
195.91	-540.000
196.29	4000.000
196.66	243.750
197.04	950.000
197.42	-1600.000
197.79	475.000
198.17	300.000
198.55	0.000
198.92	485.714
199.30	1200.000
199.68	1750.000
200.05	550.000
200.43	-366.667
200.81	233.333
201.18	4100.000
201.56	250.000
201.94	-725.000
202.31	-387.500
202.69	-400.000
203.07	2400.000
203.44	-450.000
203.82	308.333
204.19	680.000
204.57	-1300.000
204.95	-775.000
205.32	-580.000
205.70	433.333
206.08	675.000
206.45	-800.000
206.83	377.778
207.20	173.684
207.58	241.667
207.96	800.000
208.33	0.000
208.71	542.857
209.08	640.000
209.46	-2200.000
209.84	-600.000
210.21	720.000
210.59	-600.000
210.96	216.667
211.34	-825.000
211.71	309.091
212.09	800.000
212.46	1350.000
212.84	-383.333
213.22	411.111
213.59	-2900.000
213.97	300.000
214.34	1075.000
214.72	1066.667
215.09	966.667
215.47	-2500.000
215.84	-260.000
216.22	-287.500
216.59	0.000
216.97	0.000
217.34	1050.000
217.72	-1550.000
218.09	1066.667
218.47	450.000
218.84	950.000
219.22	1000.000
219.59	1033.333
219.97	528.571
220.34	366.667
220.72	1650.000
221.09	2700.000
221.47	216.667
221.84	833.333
222.22	290.000
222.59	177.778
222.97	185.714
223.34	268.750
223.72	-1650.000
224.09	1066.667
224.46	284.615
224.84	-650.000
225.21	322.222
225.59	213.333
225.96	1166.667
226.34	-700.000
226.71	-575.000
227.08	-560.000
227.46	0.000
227.83	-516.667
228.21	-2050.000
228.58	366.667
228.95	775.000
229.33	377.778
229.70	925.000
230.08	253.846
230.45	2800.000
230.82	-900.000
231.20	-733.333
231.57	-933.333
231.95	660.000
232.32	266.667
232.69	466.667
233.07	300.000
233.44	-1450.000
233.81	233.333
234.19	140.741
234.56	181.250
234.93	170.588
235.31	220.000
235.68	281.250
236.05	146.429
236.43	125.926
236.80	178.571
237.17	165.517
237.55	118.750
237.92	102.500
238.29	118.182
238.67	146.875
239.04	109.756
239.41	72.917
239.79	75.000
240.16	81.250
240.53	70.492
240.91	86.957
241.28	76.271
241.65	66.667
242.02	76.056
242.40	72.857
242.77	57.143
243.14	60.759
243.51	60.606
243.89	55.140
244.26	60.748
244.63	48.515
245.00	51.376
245.38	36.441
245.75	43.182
246.12	53.333
246.49	43.972
246.87	36.885
247.24	50.000
247.61	48.750
247.98	40.136
248.36	35.152
248.73	40.306
249.10	33.929
249.47	41.500
249.84	35.323
250.22	42.703
250.59	40.000
250.96	38.397
251.33	40.930
251.70	39.732
252.08	39.916
252.45	33.865
252.82	39.544
253.19	40.316
253.56	38.846
253.94	36.232
254.31	34.109
254.68	35.540
255.05	40.690
255.42	37.226
255.79	34.853
256.16	37.966
256.54	40.260
256.91	40.850
257.28	35.452
257.65	30.408
258.02	33.038
258.39	36.390
258.76	36.522
259.14	33.143
259.51	37.901
259.88	37.082
260.25	30.220
260.62	32.603
260.99	30.854
261.36	36.212
261.73	36.436
262.10	35.602
262.47	32.500
262.85	35.467
263.22	34.190
263.59	34.783
263.96	35.840
264.33	32.593
264.70	32.432
265.07	33.415
265.44	31.422
265.81	33.726
266.18	32.494
266.55	31.206
266.92	29.754
267.29	33.333
267.66	32.511
268.03	33.632
268.40	34.884
268.77	31.718
269.14	31.020
269.51	33.630
269.88	33.265
270.25	29.590
270.62	34.979
270.99	34.888
271.36	30.488
271.73	33.753
272.10	30.101
272.47	31.548
272.84	29.142
273.21	32.438
273.58	32.186
273.95	30.595
274.32	33.268
274.69	32.874
275.06	31.148
275.43	33.908
275.80	30.000
276.17	33.088
276.54	30.467
276.91	32.463
277.28	30.474
277.65	31.365
278.02	32.721
278.39	29.676
278.76	29.483
279.13	31.851
279.50	30.000
279.87	29.795
280.23	28.361
280.60	31.752
280.97	30.690
281.34	27.228
281.71	30.957
282.08	29.231
282.45	29.899
282.82	30.268
283.19	30.843
283.56	28.264
283.92	29.316
284.29	29.617
284.66	28.571
285.03	31.177
285.40	30.083
285.77	27.315
286.14	28.483
286.51	28.528
286.87	25.633
287.24	26.877
287.61	28.419
287.98	27.761
288.35	27.852
288.72	27.162
289.08	27.327
289.45	26.829
289.82	27.969
290.19	27.965
290.56	29.549
290.93	26.619
291.29	25.138
291.66	28.814
292.03	27.069
292.40	25.881
292.77	25.905
293.13	27.675
293.50	26.991
293.87	23.984
294.24	25.734
294.60	25.707
294.97	26.853
295.34	24.170
295.71	25.493
296.08	25.600
296.44	25.159
296.81	24.194
297.18	24.715
297.55	25.000
297.91	24.138
298.28	24.155
298.65	23.804
299.02	23.160
299.38	24.580
299.75	23.171
300.12	25.344
300.48	24.824
300.85	23.004
301.22	25.116
301.59	25.000
301.95	24.387
302.32	26.310
302.69	23.190
303.05	23.681
303.42	22.422
303.79	24.160
304.15	23.542
304.52	22.516
304.89	23.348
305.25	25.028
305.62	24.520
305.99	25.870
306.35	24.737
306.72	24.662
307.09	23.706
307.45	22.809
307.82	23.251
308.19	23.505
308.55	24.900
308.92	24.828
309.29	26.134
309.65	25.372
310.02	24.848
310.38	23.031
310.75	24.783
311.12	23.851
311.48	26.737
311.85	27.004
312.22	25.501
312.58	25.948
312.95	25.825
313.31	25.843
313.68	25.891
314.05	26.465
314.41	26.909
314.78	27.652
315.14	27.583
315.51	27.815
315.87	27.646
316.24	27.918
316.61	28.201
316.97	28.073
317.34	28.571
317.70	28.358
318.07	29.626
318.43	30.053
318.80	28.897
319.16	29.545
319.53	30.708
319.89	29.570
320.26	31.099
320.62	30.861
320.99	30.982
321.35	30.705
321.72	32.922
322.08	32.225
322.45	31.517
322.81	31.382
323.18	32.149
323.54	32.840
323.91	32.729
324.27	33.687
324.64	32.093
325.00	33.017
325.37	34.486
325.73	34.064
326.10	33.969
326.46	34.352
326.83	34.160
327.19	35.582
327.56	34.585
327.92	35.902
328.29	36.252
328.65	35.360
329.01	35.586
329.38	36.041
329.74	34.500
330.11	36.056
330.47	36.232
330.84	34.944
331.20	36.971
331.56	36.615
331.93	35.586
332.29	35.884
332.66	36.395
333.02	37.457
333.38	37.522
333.75	35.363
334.11	35.487
334.48	36.752
334.84	34.459
335.20	35.586
335.57	35.181
335.93	35.828
336.29	35.158
336.66	37.307
337.02	35.843
337.38	36.113
337.75	35.980
338.11	36.878
338.47	36.833
338.84	35.732
339.20	35.325
339.56	35.660
339.93	36.037
340.29	35.294
340.65	36.798
341.02	37.168
341.38	35.632
341.74	35.631
342.11	35.643
342.47	34.454
342.83	35.931
343.20	35.893
343.56	35.107
343.92	36.581
344.28	35.566
344.65	36.919
345.01	34.365
345.37	34.696
345.73	35.079
346.10	35.618
346.46	34.530
346.82	35.494
347.19	35.394
347.55	35.909
347.91	34.290
348.27	35.554
348.63	35.918
349.00	35.491
349.36	35.798
349.72	35.856
350.08	35.714
350.45	36.177
350.81	35.092
351.17	35.901
351.53	35.566
351.89	34.499
352.26	35.223
352.62	35.445
352.98	36.656
353.34	36.210
353.70	35.015
354.07	36.077
354.43	36.252
354.79	34.624
355.15	34.916
355.51	35.574
355.87	35.241
356.24	35.797
356.60	35.616
356.96	35.861
357.32	35.946
357.68	36.197
358.04	36.094
358.40	34.108
358.77	36.289
359.13	36.186
359.49	35.878
359.85	35.890
360.21	35.736
360.57	35.985
360.93	35.281
361.29	36.147
361.66	34.974
362.02	35.156
362.38	35.859
362.74	36.306
363.10	35.764
363.46	35.428
363.82	36.466
364.18	35.704
364.54	36.409
364.90	35.408
365.26	37.196
365.62	36.257
365.98	36.063
366.35	36.414
366.71	36.017
367.07	35.563
367.43	35.594
367.79	35.771
368.15	35.821
368.51	35.493
368.87	35.598
369.23	35.967
369.59	36.345
369.95	37.063
370.31	35.250
370.67	35.253
371.03	35.364
371.39	36.011
371.75	35.869
372.11	35.894
372.47	36.301
372.83	35.418
373.19	36.806
373.55	36.838
373.91	35.843
374.27	36.574
374.63	36.203
374.99	35.580
375.35	37.030
375.71	37.071
376.07	36.008
376.42	35.806
376.78	37.958
377.14	37.353
377.50	36.142
377.86	35.426
378.22	35.832
378.58	37.167
378.94	36.270
379.30	36.204
379.66	37.688
380.02	36.891
380.38	36.241
380.74	36.909
381.09	36.507
381.45	36.647
381.81	36.170
382.17	35.714
382.53	36.773
382.89	37.079
383.25	36.649
383.61	36.657
383.97	37.912
384.32	36.709
384.68	37.255
385.04	36.284
385.40	35.706
385.76	36.805
386.12	36.487
386.48	37.812
386.83	37.164
387.19	36.867
387.55	36.631
387.91	37.009
388.27	38.013
388.62	37.793
388.98	37.784
389.34	36.407
389.70	37.618
390.06	37.622
390.42	36.829
390.77	36.671
391.13	36.814
391.49	38.355
391.85	37.538
392.20	38.081
392.56	37.754
392.92	36.328
393.28	37.108
393.64	37.099
393.99	37.107
394.35	37.139
394.71	36.248
395.07	36.800
395.42	37.705
395.78	38.803
396.14	36.988
396.50	37.244
396.85	37.561
397.21	38.026
397.57	37.776
397.92	36.973
398.28	37.286
398.64	38.220
399.00	36.611
399.35	37.305
399.71	37.141
400.07	36.929
400.42	37.433
400.78	36.070
401.14	37.933
401.49	37.500
401.85	37.543
402.21	37.610
402.57	37.403
402.92	37.394
403.28	36.933
403.63	37.081
403.99	38.299
404.35	38.746
404.70	37.862
405.06	37.170
405.42	38.121
405.77	37.486
406.13	36.876
406.49	36.839
406.84	38.015
407.20	37.100
407.55	37.231
407.91	37.779
408.27	37.659
408.62	37.966
408.98	37.552
409.34	37.054
409.69	36.777
410.05	36.852
410.40	36.337
410.76	36.348
411.11	36.967
411.47	38.025
411.83	36.731
412.18	36.775
412.54	36.817
412.89	36.873
413.25	37.457
413.60	36.916
413.96	37.762
414.31	37.780
414.67	38.423
415.03	37.548
415.38	38.675
415.74	38.471
416.09	37.976
416.45	38.462
416.80	38.294
417.16	38.001
417.51	38.662
417.87	37.672
418.22	37.303
418.58	39.236
418.93	36.764
419.29	37.461
419.64	38.340
420.00	38.544
420.35	37.398
420.71	37.106
421.06	38.199
421.42	37.421
421.77	38.090
422.12	37.817
422.48	38.213
422.83	38.281
423.19	36.987
423.54	37.959
423.90	39.354
424.25	39.351
424.61	38.654
424.96	38.340
425.31	39.026
425.67	39.057
426.02	37.858
426.38	38.681
426.73	39.329
427.09	39.205
427.44	38.379
427.79	38.822
428.15	39.894
428.50	39.029
428.85	39.389
429.21	39.168
429.56	39.282
429.92	39.035
430.27	38.752
430.62	37.249
430.98	37.874
431.33	36.996
431.68	38.765
432.04	38.800
432.39	39.078
432.74	40.164
433.10	37.984
433.45	40.092
433.80	40.320
434.16	38.728
434.51	39.732
434.86	40.338
435.22	39.114
435.57	40.249
435.92	40.296
436.28	40.438
436.63	39.762
436.98	40.259
437.34	39.840
437.69	39.082
438.04	40.000
438.39	39.813
438.75	40.089
439.10	41.230
439.45	39.175
439.81	40.544
440.16	40.561
440.51	41.273
440.86	41.368
441.22	40.639
441.57	40.892
441.92	40.276
442.27	40.722
442.63	40.396
442.98	41.272
443.33	40.225
443.68	41.097
444.03	40.669
444.39	40.301
444.74	40.373
445.09	40.548
445.44	41.073
445.79	40.497
446.15	40.632
446.50	40.506
446.85	41.036
447.20	39.801
447.55	41.762
447.91	40.916
448.26	40.309
448.61	42.067
448.96	42.538
449.31	41.474
449.66	41.196
450.02	41.275
450.37	41.088
450.72	42.259
451.07	42.118
451.42	41.968
451.77	40.893
452.12	42.201
452.47	42.649
452.83	41.634
453.18	42.643
453.53	41.741
453.88	41.771
454.23	43.986
454.58	41.841
454.93	41.937
455.28	43.146
455.63	43.144
455.98	42.358
456.34	41.884
456.69	42.378
457.04	41.527
457.39	41.714
457.74	42.061
458.09	41.774
458.44	42.881
458.79	41.751
459.14	42.608
459.49	42.242
459.84	43.478
460.19	41.299
460.54	42.051
460.89	42.484
461.24	41.924
461.59	42.687
461.94	41.726
462.29	42.449
462.64	41.834
462.99	42.738
463.34	43.098
463.69	42.892
464.04	43.178
464.39	42.931
464.74	43.200
465.09	42.136
465.44	42.002
465.79	41.807
466.14	41.123
466.49	41.997
466.84	40.970
467.19	42.589
467.54	42.042
467.89	42.723
468.24	42.270
468.59	42.560
468.94	42.995
469.29	43.739
469.64	42.379
469.99	44.023
470.34	43.390
470.68	42.621
471.03	43.296
471.38	43.642
471.73	43.893
472.08	43.249
472.43	41.775
472.78	42.958
473.13	42.741
473.48	43.093
473.83	42.815
474.17	43.769
474.52	41.825
474.87	42.183
475.22	42.376
475.57	42.025
475.92	41.390
476.27	41.295
476.61	42.198
476.96	41.641
477.31	42.776
477.66	43.264
478.01	42.135
478.36	43.048
478.70	41.241
479.05	41.841
479.40	42.808
479.75	42.056
480.10	41.626
480.45	41.970
480.79	41.843
481.14	41.940
481.49	40.210
481.84	41.645
482.19	42.227
482.53	41.282
482.88	41.846
483.23	40.911
483.58	41.517
483.92	42.550
484.27	41.438
484.62	41.723
484.97	40.787
485.31	40.635
485.66	40.380
486.01	38.783
486.36	38.496
486.70	37.662
487.05	38.822
487.40	38.367
487.75	39.315
488.09	39.489
488.44	39.293
488.79	40.194
489.13	41.844
489.48	41.151
489.83	40.367
490.17	40.669
490.52	42.162
490.87	41.164
491.22	41.888
491.56	41.809
491.91	40.860
492.26	41.514
492.60	41.913
492.95	40.598
493.30	40.901
493.64	41.509
493.99	41.011
494.34	41.461
494.68	41.788
495.03	41.132
495.37	41.828
495.72	42.331
496.07	41.195
496.41	41.182
496.76	41.030
497.11	40.703
497.45	40.684
497.80	41.427
498.14	41.424
498.49	40.854
498.84	41.121
499.18	41.179
499.53	40.560
499.87	41.465
500.22	41.456
500.56	40.669
500.91	41.466
501.26	40.836
501.60	40.665
501.95	40.636
502.29	41.333
502.64	40.450
502.98	40.373
503.33	40.757
503.67	40.000
504.02	40.663
504.36	39.955
504.71	41.012
505.06	40.638
505.40	40.197
505.75	40.692
506.09	40.784
506.44	40.695
506.78	41.777
507.13	40.766
507.47	40.514
507.82	42.433
508.16	41.254
508.51	40.773
508.85	40.598
509.19	40.773
509.54	40.918
509.88	40.527
510.23	40.441
510.57	39.720
510.92	41.508
511.26	40.462
511.61	40.177
511.95	40.468
512.30	40.500
512.64	41.381
512.98	40.697
513.33	40.984
513.67	41.067
514.02	41.974
514.36	40.914
514.70	40.480
515.05	40.597
515.39	41.776
515.74	41.498
516.08	41.885
516.42	43.224
516.77	40.267
517.11	41.707
517.46	39.978
517.80	40.524
518.14	41.690
518.49	41.014
518.83	40.604
519.17	41.542
519.52	41.234
519.86	40.926
520.20	40.822
520.55	41.153
520.89	41.494
521.23	40.946
521.58	40.849
521.92	41.108
522.26	40.107
522.61	42.959
522.95	41.562
523.29	42.105
523.64	40.347
523.98	41.432
524.32	41.003
524.66	41.159
525.01	40.414
525.35	40.365
525.69	40.759
526.04	41.404
526.38	40.024
526.72	40.811
527.06	40.509
527.41	40.447
527.75	40.779
528.09	40.939
528.43	40.757
528.78	40.966
529.12	42.384
529.46	39.918
529.80	39.778
530.15	39.776
530.49	39.832
530.83	39.793
531.17	40.344
531.51	40.221
531.86	38.587
532.20	39.122
532.54	40.113
532.88	41.224
533.22	41.743
533.57	40.024
533.91	38.578
534.25	39.758
534.59	39.825
534.93	37.315
535.27	39.044
535.62	37.865
535.96	38.298
536.30	41.255
536.64	40.186
536.98	39.333
537.32	39.250
537.66	38.584
538.01	38.762
538.35	39.738
538.69	39.199
539.03	38.495
539.37	37.925
539.71	37.778
540.05	38.277
540.39	39.371
540.73	38.861
541.07	38.833
541.42	38.682
541.76	38.286
542.10	37.546
542.44	37.968
542.78	38.326
543.12	37.607
543.46	37.030
543.80	37.343
544.14	38.266
544.48	38.504
544.82	38.471
545.16	37.401
545.50	38.783
545.84	38.699
546.18	40.182
546.52	38.557
546.86	38.233
547.20	37.920
547.54	36.669
547.88	37.591
548.22	38.251
548.56	35.592
548.90	36.714
549.24	37.587
549.58	37.178
549.92	38.114
550.26	37.120
550.60	37.991
550.94	38.535
551.28	39.034
551.62	39.034
551.96	36.892
552.30	38.167
552.64	37.864
552.98	36.985
553.32	36.876
553.66	37.655
554.00	36.422
554.34	38.615
554.68	37.836
555.02	37.203
555.36	36.702
555.69	36.780
556.03	37.389
556.37	37.349
556.71	38.331
557.05	36.173
557.39	37.267
557.73	37.399
558.07	36.486
558.41	37.217
558.75	38.167
559.08	39.099
559.42	37.795
559.76	38.346
560.10	36.958
560.44	35.435
560.78	36.509
561.12	36.999
561.45	36.546
561.79	35.830
562.13	35.060
562.47	36.340
562.81	36.174
563.15	37.169
563.48	34.161
563.82	37.118
564.16	36.878
564.50	35.443
564.84	35.988
565.17	35.354
565.51	36.453
565.85	36.274
566.19	35.536
566.52	34.958
566.86	36.311
567.20	36.517
567.54	35.098
567.88	34.846
568.21	33.849
568.55	34.533
568.89	34.078
569.23	33.089
569.56	33.027
569.90	31.872
570.24	32.538
570.57	31.992
570.91	31.170
571.25	31.257
571.59	30.711
571.92	30.732
572.26	29.946
572.60	30.630
572.93	31.369
573.27	30.327
573.61	30.482
573.95	29.333
574.28	30.756
574.62	29.995
574.96	29.295
575.29	29.454
575.63	29.494
575.97	29.333
576.30	29.537
576.64	29.579
576.98	29.649
577.31	29.877
577.65	29.925
577.98	28.747
578.32	29.003
578.66	28.830
578.99	28.991
579.33	29.229
579.67	28.733
580.00	28.732
580.34	29.236
580.67	28.546
581.01	29.691
581.35	28.821
581.68	28.680
582.02	28.560
582.35	28.610
582.69	28.121
583.02	28.421
583.36	28.201
583.70	28.868
584.03	30.102
584.37	28.925
584.70	29.037
585.04	28.456
585.37	28.381
585.71	29.303
586.04	28.487
586.38	28.944
586.72	28.700
587.05	29.104
587.39	28.951
587.72	28.812
588.06	28.756
588.39	29.094
588.73	28.984
589.06	29.268
589.40	30.266
589.73	29.794
590.07	30.130
590.40	30.070
590.73	30.151
591.07	30.816
591.40	30.100
591.74	29.911
592.07	29.825
592.41	30.695
592.74	29.403
593.08	29.134
593.41	29.324
593.75	28.960
594.08	29.073
594.41	29.228
594.75	28.836
595.08	29.527
595.42	29.131
595.75	28.990
596.09	29.232
596.42	29.862
596.75	30.088
597.09	29.798
597.42	29.469
597.75	29.980
598.09	29.586
598.42	28.968
598.76	28.913
599.09	29.423
599.42	29.031
599.76	29.172
600.09	29.119
600.42	28.902
600.76	28.688
601.09	28.754
601.42	28.617
601.76	28.571
602.09	29.102
602.42	28.318
602.76	29.146
603.09	29.148
603.42	29.688
603.76	28.706
604.09	29.352
604.42	28.475
604.76	28.289
605.09	28.490
605.42	29.419
605.75	29.333
606.09	28.998
606.42	28.786
606.75	28.721
607.09	28.267
607.42	28.967
607.75	28.344
608.08	28.798
608.42	29.195
608.75	28.284
609.08	28.685
609.41	28.909
609.75	29.396
610.08	29.182
610.41	29.337
610.74	29.264
611.07	30.286
611.41	29.240
611.74	28.920
612.07	28.661
612.40	28.704
612.73	28.857
613.07	29.346
613.40	28.972
613.73	28.607
614.06	30.200
614.39	29.444
614.72	29.483
615.06	27.745
615.39	29.109
615.72	27.832
616.05	28.478
616.38	28.919
616.71	29.409
617.05	29.160
617.38	29.326
617.71	28.965
618.04	29.893
618.37	28.683
618.70	29.330
619.03	30.037
619.36	30.590
619.69	31.464
620.03	30.920
620.36	29.351
620.69	31.162
621.02	32.133
621.35	30.158
621.68	31.858
622.01	30.849
622.34	31.100
622.67	30.758
623.00	30.293
623.33	30.499
623.66	29.607
623.99	30.000
624.32	29.607
624.65	30.217
624.99	30.764
625.32	30.661
625.65	29.172
625.98	29.986
626.31	31.157
626.64	31.359
626.97	31.293
627.30	30.823
627.63	31.554
627.96	30.360
628.29	32.343
628.62	31.480
628.95	32.447
629.28	32.778
629.61	32.074
629.94	32.066
630.26	31.023
630.59	33.333
630.92	31.659
631.25	33.001
631.58	33.944
631.91	31.779
632.24	33.236
632.57	32.809
632.90	34.058
633.23	34.208
633.56	32.666
633.89	33.441
634.22	33.584
634.55	34.409
634.88	33.844
635.20	34.641
635.53	35.308
635.86	33.557
636.19	32.884
636.52	32.541
636.85	32.902
637.18	33.153
637.51	33.743
637.83	32.494
638.16	34.349
638.49	34.491
638.82	34.038
639.15	31.727
639.48	34.005
639.81	34.799
640.13	33.865
640.46	33.755
640.79	33.420
641.12	32.677
641.45	35.834
641.77	35.007
642.10	35.475
642.43	35.135
642.76	32.955
643.09	35.159
643.41	34.642
643.74	36.691
644.07	34.956
644.40	36.834
644.73	35.435
645.05	36.553
645.38	34.763
645.71	36.115
646.04	36.794
646.36	34.585
646.69	36.000
647.02	36.800
647.35	34.331
647.67	34.522
648.00	37.134
648.33	35.338
648.66	35.303
648.98	33.188
649.31	34.278
649.64	31.950
649.96	32.575
650.29	33.857
650.62	34.904
650.94	35.090
651.27	36.842
651.60	36.307
651.92	35.330
652.25	34.173
652.58	34.184
652.90	33.234
653.23	34.860
653.56	33.976
653.88	33.333
654.21	32.551
654.54	34.407
654.86	32.301
655.19	32.322
655.52	28.024
655.84	21.477
656.17	24.391
656.49	35.285
656.82	41.093
657.15	32.960
657.47	24.593
657.80	17.722
658.13	14.013
658.45	18.982
658.78	23.080
659.10	24.003
659.43	24.992
659.75	26.512
660.08	28.321
660.41	30.581
660.73	31.493
661.06	34.535
661.38	36.968
661.71	36.511
662.03	36.122
662.36	37.714
662.68	34.451
663.01	34.414
663.33	36.792
663.66	35.897
663.98	35.516
664.31	39.179
664.63	35.632
664.96	35.647
665.28	35.593
665.61	36.415
665.93	36.604
666.26	36.636
666.58	37.431
666.91	36.873
667.23	34.739
667.56	38.809
667.88	39.212
668.21	36.885
668.53	34.274
668.86	38.076
669.18	35.234
669.50	35.124
669.83	38.398
670.15	37.214
670.48	34.180
670.80	35.657
671.13	36.454
671.45	35.872
671.77	35.993
672.10	34.829
672.42	32.895
672.75	33.070
673.07	30.684
673.39	32.588
673.72	34.256
674.04	35.484
674.37	32.668
674.69	34.387
675.01	33.209
675.34	32.946
675.66	36.328
675.98	34.320
676.31	37.000
676.63	36.779
676.95	34.325
677.28	35.294
677.60	33.400
677.92	33.532
678.25	32.752
678.57	32.402
678.89	34.177
679.22	35.846
679.54	36.121
679.86	34.380
680.18	32.162
680.51	31.177
680.83	31.081
681.15	32.929
681.48	33.681
681.80	33.800
682.12	34.429
682.44	31.532
682.77	32.918
683.09	36.699
683.41	35.102
683.73	36.811
684.06	35.119
684.38	34.302
684.70	33.273
685.02	32.292
685.34	31.690
685.67	31.672
685.99	32.348
686.31	31.125
686.63	29.756
686.96	34.804
687.28	31.208
687.60	31.741
687.92	31.156
688.24	33.448
688.56	33.986
688.89	31.549
689.21	32.948
689.53	33.794
689.85	34.959
690.17	33.204
690.49	35.081
690.82	35.504
691.14	35.152
691.46	35.318
691.78	33.138
692.10	34.924
692.42	31.216
692.74	32.558
693.06	31.977
693.39	35.375
693.71	30.845
694.03	32.742
694.35	34.137
694.67	32.790
694.99	33.259
695.31	33.333
695.63	35.294
695.95	35.068
696.27	34.735
696.59	35.084
696.91	34.177
697.23	35.747
697.56	31.743
697.88	31.737
698.20	31.321
698.52	32.490
698.84	32.854
699.16	34.115
699.48	36.441
699.80	37.908
700.12	36.259
700.44	34.346
700.76	33.174
701.08	38.120
701.40	36.364
701.72	36.096
702.04	36.585
702.36	36.828
702.68	31.915
703.00	32.832
703.32	38.213
703.64	34.761
703.96	35.937
704.28	35.714
704.60	37.183
704.91	37.535
705.23	38.352
705.55	37.685
705.87	37.143
706.19	39.812
706.51	41.693
706.83	36.283
707.15	35.027
707.47	35.109
707.79	34.023
708.11	31.973
708.43	32.584
708.74	32.127
709.06	33.721
709.38	33.747
709.70	35.967
710.02	34.239
710.34	32.597
710.66	36.389
710.98	34.699
711.29	35.376
711.61	36.769
711.93	37.690
712.25	33.133
712.57	35.370
712.89	39.091
713.20	39.617
713.52	34.891
713.84	39.879
714.16	31.594
714.48	32.853
714.80	35.772
715.11	30.053
715.43	36.872
715.75	31.831
716.07	32.370
716.39	35.143
716.70	34.891
717.02	38.384
717.34	40.288
717.66	41.667
717.97	48.485
718.29	39.437
718.61	38.176
718.93	35.640
719.24	37.584
719.56	36.897
719.88	33.439
720.20	38.387
720.51	36.275
720.83	39.130
721.15	36.395
721.46	31.507
721.78	36.934
722.10	39.931
722.42	38.462
722.73	36.823
723.05	38.596
723.37	39.223
723.68	37.891
724.00	37.879
724.32	37.262
724.63	41.538
724.95	39.216
725.27	41.264
725.58	38.603
725.90	37.324
726.22	35.959
726.53	36.789
726.85	36.808
727.16	34.228
727.48	35.880
727.80	38.489
728.11	35.357
728.43	36.594
728.74	36.014
729.06	36.559
729.38	41.754
729.69	38.667
730.01	37.500
730.32	33.893
730.64	39.867
730.96	38.138
731.27	30.275
731.59	31.034
731.90	34.262
732.22	35.714
732.53	30.199
732.85	34.503
733.16	32.530
733.48	33.856
733.80	35.362
734.11	39.571
734.43	29.240
734.74	32.440
735.06	36.508
735.37	32.474
735.69	29.565
736.00	35.168
736.32	29.394
736.63	30.284
736.95	34.161
737.26	31.098
737.58	34.663
737.89	32.530
738.21	34.437
738.52	38.462
738.83	37.729
739.15	36.585
739.46	33.103
739.78	33.673
740.09	30.029
740.41	31.902
740.72	36.825
741.04	39.510
741.35	38.672
741.66	38.340
741.98	38.197
742.29	39.815
742.61	38.496
742.92	36.864
743.23	34.400
743.55	33.585
743.86	38.431
744.18	35.593
744.49	39.256
744.80	42.396
745.12	39.286
745.43	42.991
745.74	38.667
746.06	37.281
746.37	40.465
746.68	46.018
747.00	44.395
747.31	37.815
747.62	31.967
747.94	42.489
748.25	34.630
748.56	41.525
748.88	42.411
749.19	39.070
749.50	36.986
749.82	37.037
750.13	34.387
750.44	33.667
750.75	38.591
751.07	33.553
751.38	34.323
751.69	32.323
752.01	36.014
752.32	33.555
752.63	33.893
752.94	36.713
753.26	35.156
753.57	39.300
753.88	33.333
754.19	32.130
754.51	34.219
754.82	31.544
755.13	36.486
755.44	32.593
755.75	40.206
756.07	32.534
756.38	32.680
756.69	31.875
757.00	31.751
757.31	32.958
757.63	29.752
757.94	29.521
758.25	29.952
758.56	31.350
758.87	31.078
759.18	33.430
759.50	30.395
759.81	34.718
760.12	31.742
760.43	31.653
760.74	29.873
761.05	29.973
761.36	31.510
761.67	31.536
761.99	32.113
762.30	31.511
762.61	31.944
762.92	33.712
763.23	37.736
763.54	35.385
763.85	34.630
764.16	37.153
764.47	33.784
764.78	33.225
765.10	28.963
765.41	30.966
765.72	31.215
766.03	29.003
766.34	34.843
766.65	38.403
766.96	36.842
767.27	42.991
767.58	42.079
767.89	48.066
768.20	46.951
768.51	34.184
768.82	37.719
769.13	34.118
769.44	34.211
769.75	32.210
770.06	34.034
770.37	34.211
770.68	33.778
770.99	36.441
771.30	35.983
771.61	37.692
771.92	36.641
772.23	35.081
772.54	41.778
772.85	38.614
773.16	39.674
773.47	43.333
773.78	42.079
774.09	40.909
774.39	44.242
774.70	34.118
775.01	44.079
775.32	38.509
775.63	46.575
775.94	41.975
776.25	51.034
776.56	49.618
776.87	52.672
777.18	51.515
777.48	49.606
777.79	53.077
778.10	49.242
778.41	49.254
778.72	48.872
779.03	39.103
779.34	48.649
779.65	49.689
779.95	41.615
780.26	46.429
780.57	46.259
780.88	55.319
781.19	48.333
781.50	48.521
781.80	41.530
782.11	39.153
782.42	36.782
782.73	37.288
783.04	41.935
783.34	48.062
783.65	41.497
783.96	46.452
784.27	35.099
784.57	38.158
784.88	44.928
785.19	49.167
785.50	57.759
785.81	54.264
786.11	44.444
786.42	48.031
786.73	54.054
787.04	46.226
787.34	40.650
787.65	59.848
787.96	50.000
788.26	50.394
788.57	54.015
788.88	54.930
789.19	47.328
789.49	44.595
789.80	48.437
790.11	44.628
790.41	45.370
790.72	54.630
791.03	52.885
791.33	59.596
791.64	53.684
791.95	70.526
792.25	44.792
792.56	60.000
792.87	64.634
793.17	63.636
793.48	60.000
793.79	62.069
794.09	56.818
794.40	52.586
794.70	42.857
795.01	46.154
795.32	39.695
795.62	39.316
795.93	52.101
796.23	52.033
796.54	56.122
796.85	55.682
797.15	62.338
797.46	64.634
797.76	60.000
798.07	73.333
798.37	62.500
798.68	73.750
798.99	57.317
799.29	53.333
799.60	45.349
799.90	51.316
800.21	62.121
800.51	69.014
800.82	74.138
801.12	75.385
801.43	72.000
801.73	70.690
802.04	63.636
802.34	69.863
802.65	86.275
802.95	86.957
803.26	69.355
803.56	91.667
803.87	77.612
804.17	73.016
804.48	69.811
804.78	56.944
805.09	81.818
805.39	71.429
805.70	89.474
806.00	55.714
806.30	73.437
806.61	70.588
806.91	54.444
807.22	55.435
807.52	51.316
807.83	67.105
808.13	78.261
808.43	90.323
808.74	61.644
809.04	62.500
809.35	75.000
809.65	72.727
809.95	94.118
810.26	101.852
810.56	71.875
810.86	73.469
811.17	77.193
811.47	86.957
811.77	74.138
812.08	75.862
812.38	90.476
812.69	95.238
812.99	93.333
813.29	91.429
813.59	125.806
813.90	79.310
814.20	75.410
814.50	72.000
814.81	80.702
815.11	98.148
815.41	91.071
815.72	92.857
816.02	92.000
816.32	102.439
816.62	91.379
816.93	112.121
817.23	109.756
817.53	75.000
817.84	80.000
818.14	88.095
818.44	89.583
818.74	101.887
819.04	89.744
819.35	136.364
819.65	88.462
819.95	105.556
820.25	93.617
820.56	105.405
820.86	102.632
821.16	78.723
821.46	102.632
821.76	81.818
822.07	78.571
822.37	115.789
822.67	104.651
822.97	94.737
823.27	123.913
823.57	131.250
823.88	105.128
824.18	121.212
824.48	195.652
824.78	119.444
825.08	108.696
825.38	151.724
825.69	102.941
825.99	74.468
826.29	111.111
826.59	128.571
826.89	120.000
827.19	91.429
827.49	145.161
827.79	123.077
828.09	102.381
828.39	80.556
828.70	64.865
829.00	164.286
829.30	218.750
829.60	125.000
829.90	135.484
830.20	109.091
830.50	140.541
830.80	166.667
831.10	150.000
831.40	157.143
831.70	162.500
832.00	123.333
832.30	134.783
832.60	154.167
832.90	145.455
833.20	175.000
833.50	115.789
833.80	102.941
834.10	94.737
834.40	189.474
834.70	123.333
835.00	136.000
835.30	89.189
835.60	131.250
835.90	132.432
836.20	126.923
836.50	113.636
836.80	100.000
837.10	139.130
837.40	353.846
837.70	157.895
838.00	126.667
838.30	154.167
838.60	136.000
838.90	300.000
839.19	206.250
839.49	160.000
839.79	93.103
840.09	126.923
840.39	246.667
840.69	189.474
840.99	123.810
841.29	156.522
841.59	185.000
841.88	176.000
842.18	355.556
842.48	142.857
842.78	181.481
843.08	192.308
843.38	154.545
843.68	300.000
843.97	500.000
844.27	165.217
844.57	1050.000
844.87	264.286
845.17	177.778
845.47	166.667
845.76	175.000
846.06	428.571
846.36	176.471
846.66	246.154
846.96	225.000
847.25	192.308
847.55	157.895
847.85	155.556
848.15	500.000
848.44	272.727
848.74	142.857
849.04	204.167
849.34	152.941
849.63	262.500
849.93	243.750
850.23	1300.000
850.53	450.000
850.82	309.091
851.12	205.882
851.42	175.000
851.71	256.250
852.01	0.000
852.31	176.471
852.61	430.000
852.90	195.833
853.20	344.444
853.50	-1300.000
853.79	144.000
854.09	146.875
854.39	113.793
854.68	165.517
854.98	200.000
855.28	119.355
855.57	257.143
855.87	183.333
856.17	137.037
856.46	200.000
856.76	141.935
857.05	229.412
857.35	318.182
857.65	261.538
857.94	160.000
858.24	466.667
858.53	300.000
858.83	614.286
859.13	178.261
859.42	344.444
859.72	325.000
860.01	325.000
860.31	700.000
860.60	360.000
860.90	400.000
861.20	261.538
861.49	414.286
861.79	-3300.000
862.08	428.571
862.38	311.111
862.67	185.714
862.97	360.000
863.26	130.000
863.56	675.000
863.85	292.308
864.15	258.824
864.44	205.556
864.74	383.333
865.03	345.455
865.33	450.000
865.62	226.667
865.92	750.000
866.21	1125.000
866.51	680.000
866.80	194.444
867.10	833.333
867.39	2700.000
867.69	760.000
867.98	850.000
868.27	133.333
868.57	313.333
868.86	900.000
869.16	147.619
869.45	3700.000
869.75	-366.667
870.04	775.000
870.33	600.000
870.63	337.500
870.92	188.235
871.22	750.000
871.51	457.143
871.80	291.667
872.10	261.538
>>>>>End Processed Spectral Data<<<<<
