SpectraSuite Data File
++++++++++++++++++++++++++++++++++++
Date: Tue May 12 16:39:48 PDT 2015
User: schluterlab
Dark Spectrum Present: Yes
Reference Spectrum Present: Yes
Number of Sampled Component Spectra: 1
Spectrometers: USB2E3373
Integration Time (usec): 3000 (USB2E3373)
Spectra Averaged: 3 (USB2E3373)
Boxcar Smoothing: 0 (USB2E3373)
Correct for Electrical Dark: No (USB2E3373)
Strobe/Lamp Enabled: No (USB2E3373)
Correct for Detector Non-linearity: No (USB2E3373)
Correct for Stray Light: No (USB2E3373)
Number of Pixels in Processed Spectrum: 2048
>>>>>Begin Processed Spectral Data<<<<<
178.53	0.000
178.91	-191.667
179.29	-950.000
179.67	-3600.000
180.04	-146.667
180.42	725.000
180.80	1550.000
181.18	0.000
181.56	-400.000
181.94	0.000
182.31	1066.667
182.69	-2900.000
183.07	614.286
183.45	-3600.000
183.83	-1350.000
184.20	390.000
184.58	485.714
184.96	-176.923
185.34	-183.333
185.72	1500.000
186.09	-475.000
186.47	-2200.000
186.85	1100.000
187.23	800.000
187.61	1750.000
187.98	487.500
188.36	242.857
188.74	291.667
189.12	325.000
189.49	625.000
189.87	0.000
190.25	437.500
190.63	2000.000
191.00	-175.000
191.38	-3200.000
191.76	-675.000
192.14	487.500
192.51	-2700.000
192.89	1200.000
193.27	1100.000
193.65	-1133.333
194.02	-700.000
194.40	600.000
194.78	-171.429
195.15	233.333
195.53	-2600.000
195.91	-540.000
196.29	4500.000
196.66	250.000
197.04	825.000
197.42	-1400.000
197.79	525.000
198.17	291.667
198.55	0.000
198.92	357.143
199.30	1066.667
199.68	1800.000
200.05	516.667
200.43	-300.000
200.81	205.556
201.18	2700.000
201.56	250.000
201.94	-600.000
202.31	-212.500
202.69	-440.000
203.07	3100.000
203.44	-333.333
203.82	341.667
204.19	520.000
204.57	-1400.000
204.95	-575.000
205.32	-600.000
205.70	466.667
206.08	525.000
206.45	-800.000
206.83	344.444
207.20	157.895
207.58	283.333
207.96	660.000
208.33	0.000
208.71	442.857
209.08	580.000
209.46	-2900.000
209.84	-800.000
210.21	660.000
210.59	-540.000
210.96	266.667
211.34	-750.000
211.71	363.636
212.09	875.000
212.46	1350.000
212.84	-300.000
213.22	355.556
213.59	-2500.000
213.97	320.000
214.34	825.000
214.72	933.333
215.09	700.000
215.47	-3400.000
215.84	-240.000
216.22	-462.500
216.59	0.000
216.97	0.000
217.34	1100.000
217.72	-1300.000
218.09	1166.667
218.47	437.500
218.84	675.000
219.22	1000.000
219.59	566.667
219.97	542.857
220.34	377.778
220.72	1500.000
221.09	2500.000
221.47	233.333
221.84	800.000
222.22	330.000
222.59	222.222
222.97	278.571
223.34	231.250
223.72	-1500.000
224.09	1066.667
224.46	246.154
224.84	-675.000
225.21	411.111
225.59	306.667
225.96	1233.333
226.34	-640.000
226.71	-575.000
227.08	-400.000
227.46	0.000
227.83	-433.333
228.21	-1100.000
228.58	325.000
228.95	875.000
229.33	300.000
229.70	900.000
230.08	307.692
230.45	3100.000
230.82	-575.000
231.20	-933.333
231.57	-766.667
231.95	500.000
232.32	250.000
232.69	466.667
233.07	266.667
233.44	-1500.000
233.81	286.667
234.19	200.000
234.56	175.000
234.93	152.941
235.31	175.000
235.68	218.750
236.05	135.714
236.43	100.000
236.80	200.000
237.17	158.621
237.55	103.125
237.92	110.000
238.29	84.848
238.67	131.250
239.04	102.439
239.41	60.417
239.79	62.500
240.16	72.917
240.53	70.492
240.91	68.116
241.28	57.627
241.65	43.939
242.02	38.028
242.40	61.429
242.77	37.363
243.14	35.443
243.51	43.434
243.89	43.925
244.26	35.514
244.63	41.584
245.00	37.615
245.38	24.576
245.75	32.576
246.12	35.556
246.49	29.078
246.87	27.869
247.24	32.667
247.61	26.250
247.98	29.252
248.36	21.818
248.73	32.143
249.10	22.619
249.47	25.000
249.84	25.871
250.22	23.784
250.59	26.500
250.96	25.316
251.33	20.930
251.70	28.125
252.08	19.748
252.45	20.717
252.82	18.251
253.19	19.368
253.56	21.538
253.94	19.565
254.31	21.705
254.68	20.557
255.05	20.345
255.42	17.883
255.79	22.476
256.16	22.034
256.54	21.104
256.91	19.935
257.28	19.064
257.65	17.241
258.02	19.764
258.39	20.630
258.76	18.261
259.14	16.571
259.51	20.117
259.88	17.325
260.25	15.110
260.62	17.260
260.99	12.948
261.36	18.384
261.73	15.957
262.10	18.586
262.47	16.500
262.85	16.267
263.22	19.280
263.59	15.857
263.96	19.048
264.33	16.543
264.70	21.867
265.07	19.756
265.44	17.431
265.81	16.745
266.18	16.476
266.55	17.258
266.92	14.765
267.29	16.447
267.66	17.265
268.03	15.695
268.40	15.645
268.77	18.722
269.14	14.534
269.51	16.258
269.88	16.531
270.25	12.527
270.62	14.163
270.99	17.241
271.36	16.667
271.73	14.046
272.10	14.949
272.47	16.865
272.84	14.970
273.21	14.050
273.58	15.385
273.95	13.552
274.32	15.759
274.69	16.339
275.06	17.304
275.43	13.985
275.80	13.019
276.17	15.441
276.54	17.383
276.91	16.045
277.28	14.051
277.65	15.314
278.02	13.419
278.39	13.849
278.76	15.000
279.13	14.413
279.50	14.727
279.87	14.525
280.23	14.365
280.60	13.504
280.97	12.586
281.34	14.521
281.71	14.087
282.08	15.214
282.45	13.851
282.82	12.876
283.19	14.626
283.56	13.554
283.92	13.355
284.29	14.809
284.66	12.941
285.03	14.925
285.40	12.727
285.77	13.117
286.14	14.861
286.51	13.190
286.87	12.816
287.24	11.111
287.61	14.134
287.98	13.433
288.35	12.741
288.72	11.381
289.08	12.763
289.45	12.805
289.82	13.594
290.19	12.299
290.56	13.537
290.93	10.647
291.29	12.431
291.66	10.876
292.03	13.043
292.40	10.976
292.77	13.092
293.13	12.268
293.50	10.256
293.87	9.350
294.24	11.748
294.60	12.517
294.97	13.007
295.34	10.890
295.71	11.827
296.08	12.000
296.44	11.182
296.81	10.422
297.18	9.886
297.55	10.714
297.91	9.360
298.28	10.990
298.65	9.939
299.02	10.856
299.38	10.552
299.75	10.366
300.12	10.780
300.48	10.422
300.85	10.846
301.22	9.651
301.59	9.316
301.95	10.502
302.32	10.827
302.69	10.633
303.05	10.550
303.42	9.641
303.79	10.401
304.15	10.231
304.52	10.254
304.89	10.341
305.25	9.344
305.62	10.554
305.99	8.696
306.35	8.737
306.72	9.261
307.09	10.352
307.45	9.293
307.82	10.185
308.19	9.485
308.55	8.700
308.92	10.108
309.29	11.834
309.65	8.821
310.02	9.533
310.38	8.475
310.75	8.968
311.12	10.345
311.48	10.328
311.85	10.782
312.22	9.742
312.58	8.649
312.95	9.029
313.31	9.551
313.68	9.006
314.05	10.256
314.41	9.404
314.78	8.807
315.14	9.763
315.51	10.028
315.87	10.036
316.24	9.244
316.61	10.027
316.97	9.541
317.34	9.883
317.70	9.570
318.07	9.964
318.43	10.633
318.80	9.895
319.16	9.790
319.53	9.912
319.89	9.857
320.26	10.521
320.62	10.073
320.99	9.819
321.35	9.555
321.72	10.057
322.08	10.249
322.45	10.263
322.81	10.064
323.18	9.680
323.54	10.889
323.91	10.607
324.27	10.433
324.64	8.910
325.00	10.172
325.37	10.371
325.73	10.961
326.10	11.019
326.46	11.065
326.83	9.600
327.19	10.683
327.56	9.824
327.92	11.148
328.29	11.211
328.65	10.616
329.01	10.607
329.38	10.152
329.74	9.479
330.11	10.513
330.47	10.912
330.84	10.009
331.20	9.475
331.56	11.572
331.93	10.265
332.29	8.673
332.66	10.204
333.02	10.395
333.38	11.169
333.75	10.259
334.11	10.738
334.48	11.197
334.84	9.966
335.20	10.436
335.57	9.992
335.93	10.597
336.29	9.784
336.66	11.063
337.02	9.495
337.38	8.684
337.75	9.966
338.11	10.211
338.47	10.584
338.84	10.161
339.20	9.264
339.56	9.672
339.93	10.535
340.29	9.664
340.65	10.142
341.02	10.378
341.38	10.263
341.74	10.299
342.11	8.932
342.47	9.188
342.83	8.942
343.20	10.105
343.56	8.658
343.92	9.579
344.28	10.128
344.65	9.291
345.01	9.206
345.37	8.894
345.73	10.000
346.10	9.801
346.46	9.649
346.82	9.877
347.19	9.505
347.55	8.041
347.91	9.063
348.27	8.443
348.63	9.731
349.00	9.444
349.36	9.261
349.72	9.557
350.08	9.860
350.45	9.596
350.81	9.939
351.17	8.629
351.53	8.776
351.89	8.392
352.26	9.599
352.62	8.597
352.98	9.356
353.34	9.938
353.70	8.563
354.07	9.615
354.43	8.295
354.79	8.808
355.15	8.652
355.51	8.233
355.87	9.714
356.24	9.854
356.60	9.285
356.96	8.491
357.32	9.721
357.68	8.957
358.04	9.271
358.40	9.445
358.77	9.391
359.13	9.384
359.49	8.747
359.85	10.052
360.21	7.875
360.57	9.124
360.93	8.658
361.29	9.163
361.66	8.799
362.02	7.812
362.38	9.812
362.74	9.342
363.10	9.327
363.46	9.047
363.82	9.537
364.18	9.175
364.54	8.226
364.90	9.170
365.26	9.438
365.62	8.633
365.98	8.465
366.35	8.207
366.71	8.952
367.07	9.283
367.43	8.798
367.79	8.577
368.15	8.412
368.51	8.477
368.87	7.745
369.23	8.316
369.59	9.305
369.95	9.441
370.31	8.898
370.67	8.952
371.03	8.403
371.39	8.934
371.75	8.932
372.11	9.109
372.47	7.603
372.83	8.702
373.19	9.801
373.55	8.041
373.91	8.287
374.27	8.069
374.63	9.220
374.99	8.962
375.35	8.333
375.71	9.235
376.07	8.687
376.42	8.568
376.78	8.927
377.14	8.716
377.50	8.240
377.86	8.712
378.22	8.775
378.58	10.048
378.94	9.234
379.30	8.490
379.66	8.609
380.02	9.091
380.38	8.021
380.74	8.535
381.09	9.579
381.45	8.382
381.81	8.097
382.17	7.937
382.53	8.578
382.89	8.161
383.25	8.467
383.61	8.184
383.97	7.918
384.32	8.921
384.68	9.388
385.04	9.086
385.40	8.363
385.76	8.367
386.12	8.472
386.48	8.267
386.83	9.230
387.19	7.892
387.55	9.246
387.91	9.007
388.27	8.328
388.62	9.390
388.98	8.455
389.34	8.388
389.70	7.724
390.06	8.841
390.42	8.513
390.77	8.784
391.13	8.328
391.49	8.590
391.85	8.738
392.20	8.999
392.56	9.379
392.92	8.198
393.28	8.408
393.64	8.085
393.99	8.417
394.35	9.005
394.71	8.263
395.07	8.637
395.42	8.431
395.78	9.870
396.14	9.096
396.50	8.243
396.85	8.841
397.21	8.484
397.57	9.444
397.92	8.550
398.28	8.494
398.64	8.319
399.00	8.017
399.35	8.052
399.71	8.664
400.07	8.447
400.42	8.478
400.78	8.328
401.14	8.573
401.49	8.583
401.85	8.980
402.21	8.260
402.57	8.797
402.92	8.424
403.28	8.413
403.63	8.476
403.99	8.625
404.35	9.906
404.70	8.860
405.06	8.815
405.42	8.498
405.77	9.261
406.13	8.677
406.49	8.926
406.84	8.460
407.20	8.162
407.55	8.369
407.91	9.190
408.27	8.733
408.62	8.870
408.98	8.870
409.34	8.358
409.69	9.023
410.05	8.348
410.40	9.482
410.76	8.701
411.11	8.590
411.47	9.259
411.83	7.791
412.18	8.635
412.54	8.889
412.89	8.378
413.25	8.438
413.60	8.879
413.96	8.438
414.31	8.678
414.67	8.876
415.03	8.365
415.38	9.085
415.74	8.212
416.09	8.807
416.45	9.244
416.80	9.365
417.16	8.530
417.51	9.045
417.87	9.512
418.22	8.627
418.58	8.662
418.93	8.923
419.29	7.887
419.64	8.540
420.00	9.248
420.35	7.724
420.71	8.226
421.06	7.828
421.42	8.520
421.77	8.939
422.12	9.041
422.48	8.885
422.83	8.929
423.19	8.639
423.54	8.228
423.90	8.720
424.25	8.310
424.61	8.532
424.96	8.583
425.31	8.429
425.67	8.361
426.02	9.086
426.38	8.168
426.73	8.965
427.09	8.660
427.44	8.047
427.79	8.062
428.15	9.487
428.50	8.514
428.85	8.936
429.21	8.698
429.56	8.724
429.92	9.000
430.27	8.515
430.62	7.685
430.98	8.583
431.33	7.661
431.68	7.901
432.04	7.863
432.39	9.056
432.74	9.075
433.10	8.361
433.45	8.731
433.80	9.211
434.16	8.092
434.51	8.101
434.86	8.547
435.22	8.212
435.57	8.536
435.92	8.708
436.28	8.525
436.63	8.590
436.98	9.009
437.34	9.874
437.69	7.671
438.04	9.247
438.39	8.523
438.75	8.964
439.10	8.473
439.45	8.536
439.81	8.965
440.16	9.081
440.51	8.727
440.86	9.288
441.22	8.929
441.57	8.976
441.92	8.095
442.27	8.299
442.63	8.232
442.98	8.297
443.33	8.784
443.68	8.551
444.03	8.106
444.39	8.757
444.74	8.540
445.09	8.162
445.44	8.714
445.79	8.626
446.15	8.632
446.50	9.072
446.85	8.267
447.20	8.706
447.55	8.755
447.91	9.110
448.26	8.786
448.61	8.292
448.96	8.824
449.31	8.966
449.66	8.970
450.02	8.104
450.37	8.828
450.72	8.815
451.07	9.075
451.42	8.832
451.77	9.679
452.12	9.586
452.47	8.384
452.83	8.901
453.18	9.009
453.53	9.295
453.88	9.486
454.23	8.774
454.58	9.965
454.93	8.522
455.28	9.364
455.63	8.570
455.98	9.532
456.34	9.301
456.69	9.207
457.04	8.831
457.39	9.086
457.74	9.234
458.09	8.198
458.44	8.708
458.79	9.549
459.14	8.674
459.49	9.117
459.84	8.804
460.19	9.322
460.54	9.402
460.89	9.168
461.24	8.648
461.59	9.014
461.94	9.279
462.29	8.696
462.64	9.359
462.99	9.341
463.34	9.592
463.69	9.740
464.04	8.866
464.39	8.758
464.74	7.855
465.09	9.112
465.44	9.249
465.79	8.002
466.14	8.850
466.49	8.573
466.84	9.030
467.19	8.905
467.54	9.550
467.89	9.800
468.24	8.222
468.59	8.869
468.94	9.843
469.29	9.713
469.64	10.096
469.99	9.512
470.34	8.855
470.68	9.310
471.03	9.073
471.38	9.470
471.73	9.928
472.08	9.263
472.43	9.249
472.78	8.387
473.13	9.199
473.48	9.413
473.83	8.657
474.17	9.179
474.52	8.353
474.87	8.584
475.22	9.252
475.57	8.762
475.92	8.636
476.27	8.324
476.61	8.043
476.96	9.509
477.31	8.997
477.66	8.803
478.01	8.871
478.36	8.908
478.70	8.734
479.05	8.054
479.40	9.077
479.75	8.987
480.10	8.761
480.45	8.403
480.79	8.848
481.14	8.369
481.49	8.326
481.84	9.235
482.19	8.515
482.53	8.608
482.88	9.229
483.23	8.300
483.58	8.618
483.92	9.004
484.27	8.733
484.62	8.701
484.97	8.726
485.31	8.022
485.66	7.433
486.01	7.124
486.36	7.131
486.70	7.036
487.05	7.594
487.40	7.574
487.75	8.247
488.09	7.727
488.44	8.031
488.79	8.018
489.13	8.287
489.48	8.350
489.83	8.173
490.17	8.134
490.52	8.742
490.87	8.793
491.22	8.378
491.56	9.310
491.91	8.468
492.26	8.864
492.60	8.610
492.95	8.971
493.30	8.462
493.64	8.356
493.99	8.900
494.34	8.068
494.68	8.278
495.03	8.666
495.37	8.825
495.72	9.371
496.07	9.075
496.41	8.732
496.76	9.118
497.11	8.440
497.45	8.505
497.80	8.665
498.14	9.061
498.49	8.542
498.84	8.645
499.18	8.272
499.53	8.544
499.87	8.715
500.22	9.258
500.56	8.542
500.91	8.952
501.26	9.600
501.60	9.153
501.95	8.423
502.29	8.578
502.64	8.602
502.98	8.359
503.33	8.552
503.67	9.051
504.02	8.374
504.36	8.778
504.71	9.035
505.06	9.010
505.40	9.078
505.75	8.138
506.09	9.659
506.44	9.258
506.78	9.641
507.13	8.386
507.47	8.394
507.82	9.684
508.16	9.505
508.51	9.324
508.85	9.212
509.19	9.104
509.54	9.668
509.88	9.349
510.23	9.069
510.57	8.832
510.92	8.941
511.26	8.986
511.61	9.306
511.95	9.358
512.30	9.550
512.64	8.515
512.98	8.919
513.33	8.914
513.67	9.011
514.02	9.299
514.36	9.086
514.70	8.320
515.05	8.631
515.39	9.485
515.74	8.967
516.08	8.987
516.42	10.055
516.77	8.960
517.11	10.080
517.46	9.321
517.80	9.721
518.14	9.070
518.49	8.931
518.83	9.451
519.17	9.540
519.52	10.158
519.86	9.755
520.20	9.425
520.55	9.723
520.89	9.253
521.23	9.930
521.58	9.409
521.92	9.446
522.26	9.538
522.61	9.982
522.95	9.730
523.29	9.591
523.64	9.595
523.98	9.859
524.32	9.516
524.66	9.739
525.01	9.172
525.35	9.546
525.69	10.175
526.04	10.767
526.38	9.594
526.72	9.487
527.06	9.521
527.41	9.734
527.75	10.225
528.09	9.091
528.43	10.494
528.78	9.600
529.12	10.175
529.46	9.819
529.80	10.339
530.15	10.136
530.49	9.085
530.83	8.775
531.17	9.348
531.51	9.626
531.86	9.722
532.20	10.136
532.54	9.416
532.88	9.994
533.22	9.750
533.57	9.701
533.91	9.790
534.25	8.886
534.59	10.292
534.93	10.011
535.27	9.106
535.62	9.043
535.96	9.574
536.30	10.360
536.64	9.317
536.98	9.943
537.32	10.250
537.66	8.163
538.01	9.907
538.35	9.545
538.69	8.981
539.03	9.080
539.37	9.769
539.71	8.951
540.05	9.477
540.39	9.937
540.73	9.304
541.07	8.657
541.42	9.701
541.76	8.878
542.10	9.125
542.44	9.289
542.78	9.251
543.12	9.448
543.46	10.150
543.80	9.148
544.14	9.164
544.48	9.611
544.82	9.419
545.16	9.715
545.50	9.834
545.84	9.533
546.18	11.118
546.52	10.164
546.86	9.671
547.20	9.948
547.54	8.613
547.88	10.036
548.22	9.107
548.56	9.723
548.90	9.134
549.24	10.360
549.58	8.505
549.92	9.889
550.26	8.993
550.60	9.448
550.94	10.109
551.28	10.207
551.62	10.690
551.96	9.797
552.30	9.229
552.64	9.644
552.98	9.149
553.32	8.899
553.66	9.251
554.00	10.103
554.34	10.453
554.68	9.812
555.02	9.776
555.36	9.574
555.69	9.948
556.03	9.936
556.37	9.433
556.71	9.909
557.05	9.305
557.39	9.600
557.73	10.243
558.07	9.792
558.41	10.007
558.75	9.986
559.08	10.007
559.42	10.236
559.76	10.691
560.10	10.117
560.44	10.086
560.78	9.974
561.12	9.282
561.45	9.199
561.79	9.488
562.13	9.033
562.47	9.150
562.81	8.328
563.15	9.632
563.48	8.758
563.82	10.667
564.16	9.888
564.50	9.102
564.84	9.422
565.17	9.685
565.51	8.867
565.85	9.932
566.19	9.345
566.52	8.544
566.86	9.982
567.20	9.494
567.54	8.788
567.88	9.338
568.21	8.687
568.55	8.268
568.89	8.531
569.23	8.801
569.56	8.347
569.90	8.121
570.24	8.348
570.57	7.625
570.91	7.800
571.25	7.355
571.59	7.219
571.92	7.508
572.26	6.873
572.60	7.415
572.93	7.389
573.27	7.496
573.61	7.499
573.95	7.221
574.28	7.319
574.62	6.917
574.96	7.211
575.29	7.018
575.63	7.303
575.97	7.059
576.30	6.707
576.64	7.127
576.98	7.476
577.31	7.324
577.65	7.226
577.98	6.869
578.32	6.796
578.66	6.940
578.99	7.258
579.33	7.240
579.67	7.039
580.00	6.879
580.34	7.264
580.67	7.002
581.01	7.307
581.35	6.937
581.68	6.709
582.02	6.752
582.35	6.642
582.69	6.721
583.02	6.795
583.36	6.982
583.70	7.194
584.03	7.606
584.37	7.673
584.70	7.315
585.04	7.185
585.37	6.650
585.71	7.124
586.04	6.805
586.38	7.158
586.72	7.336
587.05	7.385
587.39	7.080
587.72	7.075
588.06	7.276
588.39	6.679
588.73	7.464
589.06	7.470
589.40	7.887
589.73	8.161
590.07	7.962
590.40	8.397
590.73	8.336
591.07	8.501
591.40	7.904
591.74	8.036
592.07	7.529
592.41	8.114
592.74	7.982
593.08	7.292
593.41	7.271
593.75	6.969
594.08	7.607
594.41	7.462
594.75	7.705
595.08	7.819
595.42	8.427
595.75	7.963
596.09	7.890
596.42	7.575
596.75	8.173
597.09	8.378
597.42	8.204
597.75	7.870
598.09	7.838
598.42	7.874
598.76	8.057
599.09	8.202
599.42	7.647
599.76	7.632
600.09	7.356
600.42	7.597
600.76	7.172
601.09	6.904
601.42	7.849
601.76	7.590
602.09	8.352
602.42	7.763
602.76	7.818
603.09	7.805
603.42	7.890
603.76	7.918
604.09	7.600
604.42	7.608
604.76	8.021
605.09	8.041
605.42	7.802
605.75	8.448
606.09	7.689
606.42	8.155
606.75	7.695
607.09	7.540
607.42	7.634
607.75	7.683
608.08	7.636
608.42	7.886
608.75	7.531
609.08	7.743
609.41	7.955
609.75	8.150
610.08	8.318
610.41	7.905
610.74	8.485
611.07	8.640
611.41	8.202
611.74	7.983
612.07	8.141
612.40	8.090
612.73	8.887
613.07	8.870
613.40	8.872
613.73	8.487
614.06	7.650
614.39	8.535
614.72	7.785
615.06	8.358
615.39	8.218
615.72	8.035
616.05	8.237
616.38	8.422
616.71	8.736
617.05	8.018
617.38	7.528
617.71	9.055
618.04	8.020
618.37	8.783
618.70	8.199
619.03	8.547
619.36	9.234
619.69	9.103
620.03	9.459
620.36	9.184
620.69	9.132
621.02	10.190
621.35	8.883
621.68	9.366
622.01	9.446
622.34	8.886
622.67	9.761
623.00	10.347
623.33	8.839
623.66	9.847
623.99	9.863
624.32	9.011
624.65	8.887
624.99	9.398
625.32	8.751
625.65	8.483
625.98	9.135
626.31	10.015
626.64	9.036
626.97	9.487
627.30	10.016
627.63	10.047
627.96	9.546
628.29	9.653
628.62	9.239
628.95	10.106
629.28	11.131
629.61	9.227
629.94	9.939
630.26	10.745
630.59	10.816
630.92	9.955
631.25	11.333
631.58	11.958
631.91	9.515
632.24	9.232
632.57	9.627
632.90	10.870
633.23	10.808
633.56	12.118
633.89	11.040
634.22	10.549
634.55	10.108
634.88	12.377
635.20	11.099
635.53	11.382
635.86	11.857
636.19	10.438
636.52	9.838
636.85	9.924
637.18	11.051
637.51	11.285
637.83	10.870
638.16	11.254
638.49	11.018
638.82	12.559
639.15	10.928
639.48	12.796
639.81	10.501
640.13	11.411
640.46	11.757
640.79	11.834
641.12	10.367
641.45	12.678
641.77	11.625
642.10	12.316
642.43	10.953
642.76	10.653
643.09	10.951
643.41	12.903
643.74	10.791
644.07	12.684
644.40	11.982
644.73	12.012
645.05	13.373
645.38	13.017
645.71	11.988
646.04	14.198
646.36	11.581
646.69	13.120
647.02	11.680
647.35	11.654
647.67	10.697
648.00	11.726
648.33	12.632
648.66	10.758
648.98	12.464
649.31	11.336
649.64	10.788
649.96	11.095
650.29	11.429
650.62	12.813
650.94	13.554
651.27	13.557
651.60	13.772
651.92	13.671
652.25	12.441
652.58	12.766
652.90	11.078
653.23	11.374
653.56	12.760
653.88	12.188
654.21	13.050
654.54	12.299
654.86	13.127
655.19	12.005
655.52	9.540
655.84	5.843
656.17	6.484
656.49	9.046
656.82	10.082
657.15	8.179
657.47	6.312
657.80	4.745
658.13	3.851
658.45	5.284
658.78	6.690
659.10	6.435
659.43	7.005
659.75	7.143
660.08	8.584
660.41	8.984
660.73	11.292
661.06	12.763
661.38	14.480
661.71	13.489
662.03	14.259
662.36	12.571
662.68	13.222
663.01	15.495
663.33	14.906
663.66	13.609
663.98	13.690
664.31	15.858
664.63	13.602
664.96	15.197
665.28	12.994
665.61	11.887
665.93	13.208
666.26	14.393
666.58	16.514
666.91	14.672
667.23	15.863
667.56	15.606
667.88	15.145
668.21	13.525
668.53	13.710
668.86	15.431
669.18	12.831
669.50	12.190
669.83	14.579
670.15	12.474
670.48	12.109
670.80	13.745
671.13	14.741
671.45	14.028
671.77	14.842
672.10	13.106
672.42	12.171
672.75	12.816
673.07	13.037
673.39	11.981
673.72	14.187
674.04	14.516
674.37	13.793
674.69	11.896
675.01	11.940
675.34	12.791
675.66	15.430
675.98	16.174
676.31	12.600
676.63	14.314
676.95	14.683
677.28	14.199
677.60	13.883
677.92	11.111
678.25	12.791
678.57	15.642
678.89	15.732
679.22	12.316
679.54	12.811
679.86	12.391
680.18	12.478
680.51	11.940
680.83	12.331
681.15	13.172
681.48	13.021
681.80	10.683
682.12	15.225
682.44	11.351
682.77	14.057
683.09	12.816
683.41	15.102
683.73	14.370
684.06	13.492
684.38	12.403
684.70	13.669
685.02	13.021
685.34	12.852
685.67	13.505
685.99	13.136
686.31	11.556
686.63	12.195
686.96	13.072
687.28	12.081
687.60	12.628
687.92	14.238
688.24	15.517
688.56	12.456
688.89	9.369
689.21	14.644
689.53	14.229
689.85	13.211
690.17	14.563
690.49	14.919
690.82	14.706
691.14	16.364
691.46	13.758
691.78	15.205
692.10	12.023
692.42	13.793
692.74	13.566
693.06	14.922
693.39	12.451
693.71	12.377
694.03	15.779
694.35	17.671
694.67	13.646
694.99	15.965
695.31	13.739
695.63	13.122
695.95	13.348
696.27	17.035
696.59	15.513
696.91	13.165
697.23	13.122
697.56	12.241
697.88	10.778
698.20	11.509
698.52	11.479
698.84	14.374
699.16	16.418
699.48	15.254
699.80	15.468
700.12	15.473
700.44	14.720
700.76	17.422
701.08	14.883
701.40	14.286
701.72	19.519
702.04	18.699
702.36	19.086
702.68	16.223
703.00	15.789
703.32	13.400
703.64	16.121
703.96	17.187
704.28	13.492
704.60	16.056
704.91	16.527
705.23	16.761
705.55	18.694
705.87	13.016
706.19	17.868
706.51	20.063
706.83	17.404
707.15	19.251
707.47	14.044
707.79	16.552
708.11	9.977
708.43	15.730
708.74	15.158
709.06	13.721
709.38	16.377
709.70	16.076
710.02	17.391
710.34	18.785
710.66	16.111
710.98	15.301
711.29	13.928
711.61	14.763
711.93	13.982
712.25	14.157
712.57	18.006
712.89	16.970
713.20	19.489
713.52	19.003
713.84	18.429
714.16	12.464
714.48	13.256
714.80	17.073
715.11	14.362
715.43	16.760
715.75	18.592
716.07	15.607
716.39	17.429
716.70	13.396
717.02	16.835
717.34	16.906
717.66	22.222
717.97	21.212
718.29	20.775
718.61	15.878
718.93	21.453
719.24	15.101
719.56	17.586
719.88	17.834
720.20	16.774
720.51	13.072
720.83	18.729
721.15	20.748
721.46	16.781
721.78	18.118
722.10	19.097
722.42	18.395
722.73	14.079
723.05	18.596
723.37	23.322
723.68	22.266
724.00	19.318
724.32	23.574
724.63	15.385
724.95	16.078
725.27	18.959
725.58	21.324
725.90	10.915
726.22	13.356
726.53	19.064
726.85	17.915
727.16	19.128
727.48	19.269
727.80	18.705
728.11	18.929
728.43	19.565
728.74	16.084
729.06	15.412
729.38	16.140
729.69	20.000
730.01	25.000
730.32	18.456
730.64	19.601
730.96	20.120
731.27	15.596
731.59	14.368
731.90	14.206
732.22	18.857
732.53	13.105
732.85	17.544
733.16	16.566
733.48	15.047
733.80	19.420
734.11	19.325
734.43	14.035
734.74	16.086
735.06	18.254
735.37	15.979
735.69	15.362
736.00	17.125
736.32	13.939
736.63	14.511
736.95	16.770
737.26	18.598
737.58	13.190
737.89	16.566
738.21	17.219
738.52	20.067
738.83	24.176
739.15	21.951
739.46	20.345
739.78	16.667
740.09	18.950
740.41	16.871
740.72	16.825
741.04	19.580
741.35	15.625
741.66	17.787
741.98	17.597
742.29	18.519
742.61	18.142
742.92	15.678
743.23	18.400
743.55	16.604
743.86	16.863
744.18	13.136
744.49	24.793
744.80	21.659
745.12	19.643
745.43	22.430
745.74	22.222
746.06	18.860
746.37	18.140
746.68	19.912
747.00	19.283
747.31	20.588
747.62	15.984
747.94	18.884
748.25	21.790
748.56	19.915
748.88	23.214
749.19	20.465
749.50	17.352
749.82	19.753
750.13	20.553
750.44	16.000
750.75	19.799
751.07	15.461
751.38	17.162
751.69	18.855
752.01	15.385
752.32	18.272
752.63	22.148
752.94	15.734
753.26	19.531
753.57	18.677
753.88	17.978
754.19	15.884
754.51	15.947
754.82	16.107
755.13	18.581
755.44	20.370
755.75	20.275
756.07	18.151
756.38	15.359
756.69	16.250
757.00	17.211
757.31	18.592
757.63	16.804
757.94	11.968
758.25	14.734
758.56	14.416
758.87	17.544
759.18	18.605
759.50	17.933
759.81	18.398
760.12	15.730
760.43	14.566
760.74	16.203
761.05	14.589
761.36	14.062
761.67	16.712
761.99	16.338
762.30	18.650
762.61	17.708
762.92	20.833
763.23	21.887
763.54	18.846
763.85	17.121
764.16	18.056
764.47	19.257
764.78	14.332
765.10	14.634
765.41	11.932
765.72	15.470
766.03	17.221
766.34	17.770
766.65	19.772
766.96	23.482
767.27	25.234
767.58	27.228
767.89	23.204
768.20	26.220
768.51	15.816
768.82	17.544
769.13	19.216
769.44	20.301
769.75	15.356
770.06	21.429
770.37	18.421
770.68	22.222
770.99	21.186
771.30	21.339
771.61	19.615
771.92	17.557
772.23	18.952
772.54	25.333
772.85	29.208
773.16	23.370
773.47	20.000
773.78	25.248
774.09	30.114
774.39	30.303
774.70	20.000
775.01	20.395
775.32	26.087
775.63	32.192
775.94	33.951
776.25	29.655
776.56	29.771
776.87	30.534
777.18	25.758
777.48	37.008
777.79	32.308
778.10	24.242
778.41	31.343
778.72	31.579
779.03	28.205
779.34	20.946
779.65	27.950
779.95	24.845
780.26	24.405
780.57	30.612
780.88	33.333
781.19	26.667
781.50	30.178
781.80	26.776
782.11	25.397
782.42	18.966
782.73	26.554
783.04	21.290
783.34	22.481
783.65	25.170
783.96	34.194
784.27	23.179
784.57	28.289
784.88	26.087
785.19	21.667
785.50	38.793
785.81	37.209
786.11	31.852
786.42	30.709
786.73	32.432
787.04	39.623
787.34	26.829
787.65	38.636
787.96	32.576
788.26	29.921
788.57	31.387
788.88	28.873
789.19	35.115
789.49	36.486
789.80	28.906
790.11	36.364
790.41	35.185
790.72	27.778
791.03	43.269
791.33	40.404
791.64	30.526
791.95	46.316
792.25	36.458
792.56	36.000
792.87	45.122
793.17	43.182
793.48	34.118
793.79	47.126
794.09	38.636
794.40	51.724
794.70	37.302
795.01	26.923
795.32	19.847
795.62	34.188
795.93	38.655
796.23	37.398
796.54	41.837
796.85	40.909
797.15	55.844
797.46	41.463
797.76	38.750
798.07	57.333
798.37	32.500
798.68	55.000
798.99	48.780
799.29	49.333
799.60	25.581
799.90	34.211
800.21	46.970
800.51	46.479
800.82	48.276
801.12	53.846
801.43	68.000
801.73	62.069
802.04	59.740
802.34	49.315
802.65	43.137
802.95	65.217
803.26	80.645
803.56	61.667
803.87	58.209
804.17	65.079
804.48	71.698
804.78	54.167
805.09	59.091
805.39	50.794
805.70	61.404
806.00	40.000
806.30	48.438
806.61	43.529
806.91	68.889
807.22	38.043
807.52	38.158
807.83	50.000
808.13	49.275
808.43	59.677
808.74	47.945
809.04	62.500
809.35	57.353
809.65	65.152
809.95	70.588
810.26	81.481
810.56	64.063
810.86	79.592
811.17	77.193
811.47	71.739
811.77	55.172
812.08	43.103
812.38	78.571
812.69	61.905
812.99	44.444
813.29	68.571
813.59	90.323
813.90	72.414
814.20	73.770
814.50	56.000
814.81	70.175
815.11	83.333
815.41	62.500
815.72	76.786
816.02	60.000
816.32	92.683
816.62	72.414
816.93	78.788
817.23	85.366
817.53	64.286
817.84	62.222
818.14	97.619
818.44	68.750
818.74	83.019
819.04	84.615
819.35	72.727
819.65	69.231
819.95	114.815
820.25	80.851
820.56	94.595
820.86	100.000
821.16	65.957
821.46	86.842
821.76	69.091
822.07	73.810
822.37	60.526
822.67	93.023
822.97	71.053
823.27	86.957
823.57	81.250
823.88	79.487
824.18	81.818
824.48	121.739
824.78	127.778
825.08	126.087
825.38	113.793
825.69	94.118
825.99	68.085
826.29	61.111
826.59	88.571
826.89	116.667
827.19	68.571
827.49	90.323
827.79	96.154
828.09	59.524
828.39	63.889
828.70	91.892
829.00	125.000
829.30	162.500
829.60	77.778
829.90	125.806
830.20	69.697
830.50	97.297
830.80	145.833
831.10	126.923
831.40	85.714
831.70	125.000
832.00	90.000
832.30	108.696
832.60	158.333
832.90	136.364
833.20	110.000
833.50	110.526
833.80	76.471
834.10	100.000
834.40	110.526
834.70	80.000
835.00	140.000
835.30	78.378
835.60	125.000
835.90	110.811
836.20	111.538
836.50	100.000
836.80	80.488
837.10	104.348
837.40	307.692
837.70	121.053
838.00	126.667
838.30	179.167
838.60	124.000
838.90	220.000
839.19	150.000
839.49	100.000
839.79	103.448
840.09	138.462
840.39	193.333
840.69	163.158
840.99	104.762
841.29	165.217
841.59	140.000
841.88	140.000
842.18	266.667
842.48	135.714
842.78	114.815
843.08	153.846
843.38	140.909
843.68	250.000
843.97	585.714
844.27	169.565
844.57	1050.000
844.87	221.429
845.17	188.889
845.47	95.238
845.76	133.333
846.06	442.857
846.36	235.294
846.66	238.462
846.96	181.250
847.25	192.308
847.55	189.474
847.85	161.111
848.15	440.000
848.44	236.364
848.74	161.905
849.04	166.667
849.34	158.824
849.63	168.750
849.93	168.750
850.23	1000.000
850.53	400.000
850.82	218.182
851.12	164.706
851.42	170.833
851.71	250.000
852.01	0.000
852.31	217.647
852.61	290.000
852.90	150.000
853.20	266.667
853.50	-2000.000
853.79	132.000
854.09	103.125
854.39	124.138
854.68	124.138
854.98	204.762
855.28	119.355
855.57	200.000
855.87	216.667
856.17	107.407
856.46	142.105
856.76	103.226
857.05	164.706
857.35	236.364
857.65	223.077
857.94	130.000
858.24	455.556
858.53	264.286
858.83	585.714
859.13	173.913
859.42	255.556
859.72	375.000
860.01	233.333
860.31	875.000
860.60	420.000
860.90	300.000
861.20	184.615
861.49	385.714
861.79	-2800.000
862.08	471.429
862.38	344.444
862.67	192.857
862.97	320.000
863.26	136.667
863.56	700.000
863.85	330.769
864.15	264.706
864.44	166.667
864.74	350.000
865.03	227.273
865.33	425.000
865.62	266.667
865.92	466.667
866.21	800.000
866.51	580.000
866.80	188.889
867.10	633.333
867.39	2400.000
867.69	720.000
867.98	1150.000
868.27	161.905
868.57	260.000
868.86	1025.000
869.16	119.048
869.45	1300.000
869.75	-333.333
870.04	750.000
870.33	640.000
870.63	387.500
870.92	200.000
871.22	700.000
871.51	471.429
871.80	291.667
872.10	276.923
>>>>>End Processed Spectral Data<<<<<
