SpectraSuite Data File
++++++++++++++++++++++++++++++++++++
Date: Tue May 12 15:20:06 PDT 2015
User: schluterlab
Dark Spectrum Present: Yes
Reference Spectrum Present: Yes
Number of Sampled Component Spectra: 1
Spectrometers: USB2E3373
Integration Time (usec): 3000 (USB2E3373)
Spectra Averaged: 3 (USB2E3373)
Boxcar Smoothing: 0 (USB2E3373)
Correct for Electrical Dark: No (USB2E3373)
Strobe/Lamp Enabled: No (USB2E3373)
Correct for Detector Non-linearity: No (USB2E3373)
Correct for Stray Light: No (USB2E3373)
Number of Pixels in Processed Spectrum: 2048
>>>>>Begin Processed Spectral Data<<<<<
178.53	0.000
178.91	-191.667
179.29	-650.000
179.67	-3700.000
180.04	-126.667
180.42	525.000
180.80	1600.000
181.18	0.000
181.56	-287.500
181.94	0.000
182.31	1166.667
182.69	-3400.000
183.07	557.143
183.45	-3100.000
183.83	-1700.000
184.20	370.000
184.58	371.429
184.96	-253.846
185.34	-175.000
185.72	1500.000
186.09	-825.000
186.47	-3400.000
186.85	833.333
187.23	420.000
187.61	1850.000
187.98	425.000
188.36	250.000
188.74	325.000
189.12	400.000
189.49	775.000
189.87	0.000
190.25	400.000
190.63	2600.000
191.00	-141.667
191.38	-3700.000
191.76	-550.000
192.14	425.000
192.51	-2700.000
192.89	1150.000
193.27	733.333
193.65	-733.333
194.02	-760.000
194.40	400.000
194.78	-142.857
195.15	220.000
195.53	-2400.000
195.91	-400.000
196.29	3600.000
196.66	206.250
197.04	1025.000
197.42	-1650.000
197.79	525.000
198.17	333.333
198.55	0.000
198.92	542.857
199.30	1266.667
199.68	1400.000
200.05	566.667
200.43	-483.333
200.81	205.556
201.18	2800.000
201.56	283.333
201.94	-900.000
202.31	-187.500
202.69	-620.000
203.07	2300.000
203.44	-566.667
203.82	316.667
204.19	600.000
204.57	-1400.000
204.95	-575.000
205.32	-720.000
205.70	350.000
206.08	825.000
206.45	-600.000
206.83	244.444
207.20	173.684
207.58	341.667
207.96	560.000
208.33	0.000
208.71	400.000
209.08	560.000
209.46	-2600.000
209.84	-700.000
210.21	760.000
210.59	-560.000
210.96	266.667
211.34	-1000.000
211.71	272.727
212.09	650.000
212.46	1250.000
212.84	-350.000
213.22	355.556
213.59	-2000.000
213.97	270.000
214.34	525.000
214.72	833.333
215.09	900.000
215.47	-1800.000
215.84	-400.000
216.22	-375.000
216.59	0.000
216.97	0.000
217.34	1350.000
217.72	-1750.000
218.09	1133.333
218.47	400.000
218.84	775.000
219.22	1066.667
219.59	733.333
219.97	457.143
220.34	288.889
220.72	1200.000
221.09	3100.000
221.47	283.333
221.84	833.333
222.22	350.000
222.59	216.667
222.97	192.857
223.34	206.250
223.72	-1600.000
224.09	1033.333
224.46	253.846
224.84	-800.000
225.21	344.444
225.59	186.667
225.96	1133.333
226.34	-540.000
226.71	-775.000
227.08	-480.000
227.46	0.000
227.83	-600.000
228.21	-1200.000
228.58	333.333
228.95	925.000
229.33	366.667
229.70	1000.000
230.08	323.077
230.45	2800.000
230.82	-800.000
231.20	-766.667
231.57	-1200.000
231.95	560.000
232.32	225.000
232.69	400.000
233.07	233.333
233.44	-1450.000
233.81	226.667
234.19	162.963
234.56	175.000
234.93	158.824
235.31	185.000
235.68	243.750
236.05	153.571
236.43	144.444
236.80	157.143
237.17	151.724
237.55	78.125
237.92	100.000
238.29	81.818
238.67	96.875
239.04	63.415
239.41	52.083
239.79	67.500
240.16	58.333
240.53	45.902
240.91	56.522
241.28	50.847
241.65	40.909
242.02	52.113
242.40	57.143
242.77	56.044
243.14	37.975
243.51	43.434
243.89	30.841
244.26	29.907
244.63	28.713
245.00	22.936
245.38	21.186
245.75	35.606
246.12	28.148
246.49	32.624
246.87	22.131
247.24	29.333
247.61	23.125
247.98	25.170
248.36	16.970
248.73	26.020
249.10	15.476
249.47	22.500
249.84	21.393
250.22	20.541
250.59	20.500
250.96	21.097
251.33	16.279
251.70	17.857
252.08	14.706
252.45	15.538
252.82	19.772
253.19	13.834
253.56	12.692
253.94	18.841
254.31	13.566
254.68	15.331
255.05	18.621
255.42	16.788
255.79	14.658
256.16	16.949
256.54	15.909
256.91	14.706
257.28	13.378
257.65	10.658
258.02	12.094
258.39	16.046
258.76	12.464
259.14	12.286
259.51	13.411
259.88	14.286
260.25	10.165
260.62	12.603
260.99	5.510
261.36	14.763
261.73	13.032
262.10	14.398
262.47	11.250
262.85	10.667
263.22	15.167
263.59	12.020
263.96	11.278
264.33	12.840
264.70	13.514
265.07	11.707
265.44	9.633
265.81	11.792
266.18	10.297
266.55	10.638
266.92	10.515
267.29	10.746
267.66	9.865
268.03	10.314
268.40	9.091
268.77	11.454
269.14	10.846
269.51	7.350
269.88	12.449
270.25	9.071
270.62	9.871
270.99	12.170
271.36	11.179
271.73	8.176
272.10	7.879
272.47	9.524
272.84	9.980
273.21	8.884
273.58	9.919
273.95	7.392
274.32	10.700
274.69	11.417
275.06	10.929
275.43	9.387
275.80	10.189
276.17	8.824
276.54	11.028
276.91	12.313
277.28	8.942
277.65	8.672
278.02	10.294
278.39	9.892
278.76	8.966
279.13	5.872
279.50	10.364
279.87	8.194
280.23	6.446
280.60	8.577
280.97	11.207
281.34	9.241
281.71	9.739
282.08	10.598
282.45	6.926
282.82	8.528
283.19	9.857
283.56	8.430
283.92	8.632
284.29	8.153
284.66	7.899
285.03	10.779
285.40	7.769
285.77	7.716
286.14	8.359
286.51	8.282
286.87	7.595
287.24	8.258
287.61	8.055
287.98	10.149
288.35	6.963
288.72	7.436
289.08	8.859
289.45	8.841
289.82	9.375
290.19	8.785
290.56	8.734
290.93	9.209
291.29	8.011
291.66	8.898
292.03	8.836
292.40	10.163
292.77	8.217
293.13	9.700
293.50	8.232
293.87	7.859
294.24	8.671
294.60	9.960
294.97	9.510
295.34	10.093
295.71	9.198
296.08	9.333
296.44	8.640
296.81	8.437
297.18	9.252
297.55	7.635
297.91	7.635
298.28	8.213
298.65	8.344
299.02	8.565
299.38	8.753
299.75	8.780
300.12	9.404
300.48	10.773
300.85	10.489
301.22	9.419
301.59	9.198
301.95	10.268
302.32	8.731
302.69	9.502
303.05	10.774
303.42	9.641
303.79	9.859
304.15	9.681
304.52	10.571
304.89	10.661
305.25	10.790
305.62	10.554
305.99	10.435
306.35	9.158
306.72	9.469
307.09	9.627
307.45	10.348
307.82	10.597
308.19	9.381
308.55	10.300
308.92	11.089
309.29	11.834
309.65	10.704
310.02	10.041
310.38	9.771
310.75	10.125
311.12	9.866
311.48	12.355
311.85	10.496
312.22	10.984
312.58	10.496
312.95	11.262
313.31	10.112
313.68	10.976
314.05	11.538
314.41	9.963
314.78	10.227
315.14	11.280
315.51	11.447
315.87	12.044
316.24	10.924
316.61	10.922
316.97	10.275
317.34	11.141
317.70	12.291
318.07	12.456
318.43	11.951
318.80	11.208
319.16	13.549
319.53	12.478
319.89	12.097
320.26	12.570
320.62	12.179
320.99	12.583
321.35	11.596
321.72	13.662
322.08	13.573
322.45	13.079
322.81	12.717
323.18	12.345
323.54	13.589
323.91	14.143
324.27	13.528
324.64	12.370
325.00	14.397
325.37	14.250
325.73	13.828
326.10	14.085
326.46	15.029
326.83	13.520
327.19	15.663
327.56	14.537
327.92	13.525
328.29	15.794
328.65	15.582
329.01	14.628
329.38	15.313
329.74	14.774
330.11	15.812
330.47	15.686
330.84	14.495
331.20	14.805
331.56	16.149
331.93	15.911
332.29	14.201
332.66	17.092
333.02	15.378
333.38	15.532
333.75	16.097
334.11	15.520
334.48	15.470
334.84	14.780
335.20	15.141
335.57	16.289
335.93	14.718
336.29	15.174
336.66	16.381
337.02	15.398
337.38	15.305
337.75	15.372
338.11	15.781
338.47	16.173
338.84	15.157
339.20	14.545
339.56	14.298
339.93	14.632
340.29	14.874
340.65	15.675
341.02	16.090
341.38	15.599
341.74	14.701
342.11	15.526
342.47	15.340
342.83	15.751
343.20	14.794
343.56	14.615
343.92	15.194
344.28	17.305
344.65	15.566
345.01	13.810
345.37	14.904
345.73	15.714
346.10	15.299
346.46	15.311
346.82	14.275
347.19	16.074
347.55	14.988
347.91	14.275
348.27	14.872
348.63	14.794
349.00	15.156
349.36	14.864
349.72	16.284
350.08	15.140
350.45	15.765
350.81	16.437
351.17	14.176
351.53	16.089
351.89	15.229
352.26	15.722
352.62	14.932
352.98	16.258
353.34	14.946
353.70	13.914
354.07	16.538
354.43	15.054
354.79	13.819
355.15	14.625
355.51	15.332
355.87	15.512
356.24	14.781
356.60	15.221
356.96	14.936
357.32	14.996
357.68	15.419
358.04	15.729
358.40	15.067
358.77	15.402
359.13	14.790
359.49	14.900
359.85	15.115
360.21	13.967
360.57	16.204
360.93	15.079
361.29	15.079
361.66	15.213
362.02	14.915
362.38	15.224
362.74	15.145
363.10	15.989
363.46	14.779
363.82	15.147
364.18	15.220
364.54	15.308
364.90	16.198
365.26	16.100
365.62	15.124
365.98	14.866
366.35	15.172
366.71	16.239
367.07	15.904
367.43	15.447
367.79	15.027
368.15	14.315
368.51	14.680
368.87	14.946
369.23	14.761
369.59	16.251
369.95	15.734
370.31	14.921
370.67	15.267
371.03	15.826
371.39	15.928
371.75	15.073
372.11	15.092
372.47	16.096
372.83	15.364
373.19	15.764
373.55	15.258
373.91	13.950
374.27	16.270
374.63	15.729
374.99	14.960
375.35	15.591
375.71	15.633
376.07	15.318
376.42	14.514
376.78	15.157
377.14	15.203
377.50	14.232
377.86	14.798
378.22	15.600
378.58	16.586
378.94	14.846
379.30	15.100
379.66	15.834
380.02	16.070
380.38	14.988
380.74	15.167
381.09	14.953
381.45	14.855
381.81	15.248
382.17	14.530
382.53	14.937
382.89	15.376
383.25	14.742
383.61	15.274
383.97	14.577
384.32	15.310
384.68	15.567
385.04	14.889
385.40	15.480
385.76	15.097
386.12	15.770
386.48	15.441
386.83	14.792
387.19	14.959
387.55	14.547
387.91	15.531
388.27	15.348
388.62	14.378
388.98	15.102
389.34	13.682
389.70	14.800
390.06	14.878
390.42	15.484
390.77	14.496
391.13	14.363
391.49	15.003
391.85	15.262
392.20	15.614
392.56	15.173
392.92	14.711
393.28	14.854
393.64	13.933
393.99	14.523
394.35	14.067
394.71	14.053
395.07	14.051
395.42	14.286
395.78	15.114
396.14	15.000
396.50	14.501
396.85	14.451
397.21	13.117
397.57	14.585
397.92	13.807
398.28	14.506
398.64	14.136
399.00	13.950
399.35	14.385
399.71	13.962
400.07	13.128
400.42	15.164
400.78	14.545
401.14	14.034
401.49	13.767
401.85	14.484
402.21	13.122
402.57	13.405
402.92	13.879
403.28	12.530
403.63	13.891
403.99	13.691
404.35	13.540
404.70	13.940
405.06	13.195
405.42	13.525
405.77	13.837
406.13	14.046
406.49	13.076
406.84	13.424
407.20	14.212
407.55	13.046
407.91	13.529
408.27	13.827
408.62	13.720
408.98	13.306
409.34	12.683
409.69	13.192
410.05	12.821
410.40	13.722
410.76	12.650
411.11	13.507
411.47	13.395
411.83	13.298
412.18	13.466
412.54	13.694
412.89	12.861
413.25	12.999
413.60	13.376
413.96	12.926
414.31	12.279
414.67	13.346
415.03	13.538
415.38	13.628
415.74	14.150
416.09	13.179
416.45	13.704
416.80	13.855
417.16	12.603
417.51	13.567
417.87	13.267
418.22	13.487
418.58	13.885
418.93	13.563
419.29	12.508
419.64	14.355
420.00	14.439
420.35	13.937
420.71	13.886
421.06	12.890
421.42	13.126
421.77	13.770
422.12	13.616
422.48	13.200
422.83	13.951
423.19	13.175
423.54	13.714
423.90	13.930
424.25	13.924
424.61	14.626
424.96	13.213
425.31	14.067
425.67	13.580
426.02	13.909
426.38	14.119
426.73	13.013
427.09	14.353
427.44	13.900
427.79	14.065
428.15	14.850
428.50	14.114
428.85	13.933
429.21	13.614
429.56	14.706
429.92	14.122
430.27	14.369
430.62	13.265
430.98	14.172
431.33	14.214
431.68	12.938
432.04	13.916
432.39	14.874
432.74	14.988
433.10	15.116
433.45	14.360
433.80	15.444
434.16	14.188
434.51	14.654
434.86	15.460
435.22	14.371
435.57	14.701
435.92	15.993
436.28	15.726
436.63	15.019
436.98	15.541
437.34	15.183
437.69	14.166
438.04	15.484
438.39	15.178
438.75	14.866
439.10	14.787
439.45	15.206
439.81	15.674
440.16	15.025
440.51	15.146
440.86	16.068
441.22	15.206
441.57	15.381
441.92	15.350
442.27	14.794
442.63	14.990
442.98	14.170
443.33	14.569
443.68	15.342
444.03	15.646
444.39	15.395
444.74	15.476
445.09	14.692
445.44	15.303
445.79	15.595
446.15	15.684
446.50	16.034
446.85	15.388
447.20	14.179
447.55	15.769
447.91	15.610
448.26	16.294
448.61	15.920
448.96	15.795
449.31	15.512
449.66	15.725
450.02	14.857
450.37	16.102
450.72	15.537
451.07	15.881
451.42	16.005
451.77	16.667
452.12	15.372
452.47	16.343
452.83	16.000
453.18	16.096
453.53	16.282
453.88	15.829
454.23	16.095
454.58	15.909
454.93	15.451
455.28	15.667
455.63	15.898
455.98	15.398
456.34	17.264
456.69	15.976
457.04	16.229
457.39	15.886
457.74	17.005
458.09	16.115
458.44	16.320
458.79	15.650
459.14	15.166
459.49	16.931
459.84	15.435
460.19	15.763
460.54	16.068
460.89	16.471
461.24	16.552
461.59	15.703
461.94	16.489
462.29	16.648
462.64	15.641
462.99	16.507
463.34	16.461
463.69	16.878
464.04	15.717
464.39	16.142
464.74	15.358
465.09	16.657
465.44	16.159
465.79	15.950
466.14	15.686
466.49	15.735
466.84	15.608
467.19	17.282
467.54	16.577
467.89	16.432
468.24	15.634
468.59	15.417
468.94	16.244
469.29	16.860
469.64	16.399
469.99	16.260
470.34	16.572
470.68	16.276
471.03	16.678
471.38	16.225
471.73	15.872
472.08	16.830
472.43	16.449
472.78	15.813
473.13	16.270
473.48	15.954
473.83	16.078
474.17	16.170
474.52	16.410
474.87	16.089
475.22	15.934
475.57	16.107
475.92	15.483
476.27	15.669
476.61	15.013
476.96	15.831
477.31	15.784
477.66	15.727
478.01	15.781
478.36	15.654
478.70	15.136
479.05	15.690
479.40	15.923
479.75	16.087
480.10	16.312
480.45	16.153
480.79	16.590
481.14	15.359
481.49	15.508
481.84	15.347
482.19	15.590
482.53	16.293
482.88	15.771
483.23	15.607
483.58	15.799
483.92	16.499
484.27	15.582
484.62	15.535
484.97	15.349
485.31	14.963
485.66	14.918
486.01	14.621
486.36	14.355
486.70	14.088
487.05	13.949
487.40	14.269
487.75	14.497
488.09	15.142
488.44	14.946
488.79	14.960
489.13	15.528
489.48	15.621
489.83	15.179
490.17	15.524
490.52	15.159
490.87	15.776
491.22	15.824
491.56	15.766
491.91	14.964
492.26	15.234
492.60	15.535
492.95	15.270
493.30	15.924
493.64	15.678
493.99	15.340
494.34	15.016
494.68	15.228
495.03	15.447
495.37	15.849
495.72	15.711
496.07	15.499
496.41	15.725
496.76	15.323
497.11	15.938
497.45	15.563
497.80	15.894
498.14	15.673
498.49	15.877
498.84	15.888
499.18	14.762
499.53	15.434
499.87	15.723
500.22	15.569
500.56	15.088
500.91	15.584
501.26	15.939
501.60	14.982
501.95	14.695
502.29	15.200
502.64	15.615
502.98	15.073
503.33	15.367
503.67	14.923
504.02	15.047
504.36	15.113
504.71	15.705
505.06	15.533
505.40	14.647
505.75	15.482
506.09	15.866
506.44	15.508
506.78	15.359
507.13	15.414
507.47	15.575
507.82	15.474
508.16	15.581
508.51	16.039
508.85	16.192
509.19	15.370
509.54	14.893
509.88	16.658
510.23	15.588
510.57	15.106
510.92	16.034
511.26	15.612
511.61	16.150
511.95	16.227
512.30	16.150
512.64	15.732
512.98	15.838
513.33	15.779
513.67	16.365
514.02	15.532
514.36	15.836
514.70	15.840
515.05	15.450
515.39	16.721
515.74	16.293
516.08	16.176
516.42	17.268
516.77	15.787
517.11	16.213
517.46	15.841
517.80	16.057
518.14	17.014
518.49	15.877
518.83	16.484
519.17	16.195
519.52	17.094
519.86	15.858
520.20	16.767
520.55	16.393
520.89	16.207
521.23	17.114
521.58	16.581
521.92	16.268
522.26	17.239
522.61	17.291
522.95	15.976
523.29	16.901
523.64	16.127
523.98	17.136
524.32	16.667
524.66	16.638
525.01	16.450
525.35	16.971
525.69	16.677
526.04	17.728
526.38	16.480
526.72	16.706
527.06	16.499
527.41	17.533
527.75	16.677
528.09	16.616
528.43	17.206
528.78	15.981
529.12	16.918
529.46	16.365
529.80	16.998
530.15	16.441
530.49	16.426
530.83	16.514
531.17	16.421
531.51	17.229
531.86	16.244
532.20	16.069
532.54	16.384
532.88	16.802
533.22	17.063
533.57	15.863
533.91	16.259
534.25	16.445
534.59	16.725
534.93	16.098
535.27	15.822
535.62	16.394
535.96	15.898
536.30	17.611
536.64	15.714
536.98	15.796
537.32	17.375
537.66	15.434
538.01	16.842
538.35	16.157
538.69	15.898
539.03	16.294
539.37	16.201
539.71	17.284
540.05	15.815
540.39	16.352
540.73	16.392
541.07	15.997
541.42	16.294
541.76	16.646
542.10	16.461
542.44	16.708
542.78	15.796
543.12	16.442
543.46	15.100
543.80	16.165
544.14	16.409
544.48	17.032
544.82	16.758
545.16	15.847
545.50	15.734
545.84	16.793
546.18	16.840
546.52	17.180
546.86	16.377
547.20	16.602
547.54	17.099
547.88	15.998
548.22	16.879
548.56	15.969
548.90	16.370
549.24	17.372
549.58	15.915
549.92	16.568
550.26	16.024
550.60	16.101
550.94	16.554
551.28	17.793
551.62	16.966
551.96	17.095
552.30	15.359
552.64	16.828
552.98	15.979
553.32	15.813
553.66	15.896
554.00	16.152
554.34	16.578
554.68	16.935
555.02	17.176
555.36	16.622
555.69	15.838
556.03	16.815
556.37	16.316
556.71	17.080
557.05	15.007
557.39	16.400
557.73	17.116
558.07	17.840
558.41	16.518
558.75	16.074
559.08	17.655
559.42	16.464
559.76	17.177
560.10	16.036
560.44	16.257
560.78	16.368
561.12	16.720
561.45	15.394
561.79	15.918
562.13	15.603
562.47	15.834
562.81	16.135
563.15	16.613
563.48	15.404
563.82	16.532
564.16	16.169
564.50	16.094
564.84	16.353
565.17	16.578
565.51	16.749
565.85	15.608
566.19	15.655
566.52	15.102
566.86	16.871
567.20	15.562
567.54	14.574
567.88	15.858
568.21	15.277
568.55	15.953
568.89	14.781
569.23	14.840
569.56	15.335
569.90	14.481
570.24	14.651
570.57	14.439
570.91	14.509
571.25	13.612
571.59	14.213
571.92	13.778
572.26	13.423
572.60	13.607
572.93	13.830
573.27	13.441
573.61	13.563
573.95	13.845
574.28	13.718
574.62	13.484
574.96	13.449
575.29	13.516
575.63	13.192
575.97	12.902
576.30	13.187
576.64	13.160
576.98	13.629
577.31	13.483
577.65	13.578
577.98	13.123
578.32	12.878
578.66	13.239
578.99	13.342
579.33	13.351
579.67	13.039
580.00	12.681
580.34	13.232
580.67	13.087
581.01	13.474
581.35	13.417
581.68	12.694
582.02	13.004
582.35	12.782
582.69	13.094
583.02	12.808
583.36	13.183
583.70	13.143
584.03	13.323
584.37	13.907
584.70	13.436
585.04	13.348
585.37	12.827
585.71	13.551
586.04	13.181
586.38	13.167
586.72	13.745
587.05	13.536
587.39	13.300
587.72	13.442
588.06	13.136
588.39	13.690
588.73	13.457
589.06	13.656
589.40	14.366
589.73	13.897
590.07	13.830
590.40	14.111
590.73	14.726
591.07	14.763
591.40	13.932
591.74	14.732
592.07	13.935
592.41	14.628
592.74	13.768
593.08	13.249
593.41	13.824
593.75	13.734
594.08	13.951
594.41	13.881
594.75	13.493
595.08	13.889
595.42	13.989
595.75	14.413
596.09	14.390
596.42	14.093
596.75	14.463
597.09	14.486
597.42	14.204
597.75	13.834
598.09	14.403
598.42	14.117
598.76	14.649
599.09	14.086
599.42	14.014
599.76	14.043
600.09	13.695
600.42	13.329
600.76	13.596
601.09	14.049
601.42	14.080
601.76	14.071
602.09	14.238
602.42	14.159
602.76	13.510
603.09	14.178
603.42	13.872
603.76	13.847
604.09	13.717
604.42	14.124
604.76	13.987
605.09	14.367
605.42	14.222
605.75	14.252
606.09	14.155
606.42	13.529
606.75	14.030
607.09	13.897
607.42	13.941
607.75	14.252
608.08	14.175
608.42	14.052
608.75	13.564
609.08	13.594
609.41	14.727
609.75	14.744
610.08	14.209
610.41	14.229
610.74	14.459
611.07	14.643
611.41	14.087
611.74	14.579
612.07	14.403
612.40	15.302
612.73	14.678
613.07	14.141
613.40	14.135
613.73	14.378
614.06	14.250
614.39	14.040
614.72	14.264
615.06	14.194
615.39	14.752
615.72	13.988
616.05	15.218
616.38	14.866
616.71	14.379
617.05	14.388
617.38	13.933
617.71	15.636
618.04	14.526
618.37	14.286
618.70	14.896
619.03	14.896
619.36	16.269
619.69	14.644
620.03	16.373
620.36	14.579
620.69	16.092
621.02	15.014
621.35	15.688
621.68	15.929
622.01	15.351
622.34	15.076
622.67	15.660
623.00	15.793
623.33	15.587
623.66	14.904
623.99	15.205
624.32	14.770
624.65	15.866
624.99	15.686
625.32	15.698
625.65	15.034
625.98	14.714
626.31	15.653
626.64	15.566
626.97	15.379
627.30	15.217
627.63	16.013
627.96	15.336
628.29	16.172
628.62	16.852
628.95	16.755
629.28	17.090
629.61	15.905
629.94	16.335
630.26	16.031
630.59	18.174
630.92	17.040
631.25	16.410
631.58	17.165
631.91	16.936
632.24	16.521
632.57	14.931
632.90	17.288
633.23	16.999
633.56	17.914
633.89	18.328
634.22	17.330
634.55	17.634
634.88	18.510
635.20	18.161
635.53	18.583
635.86	18.345
636.19	16.723
636.52	17.405
636.85	16.721
637.18	16.360
637.51	16.760
637.83	17.391
638.16	17.585
638.49	17.246
638.82	18.310
639.15	17.156
639.48	16.825
639.81	16.972
640.13	16.933
640.46	18.710
640.79	18.205
641.12	17.454
641.45	19.534
641.77	19.022
642.10	18.474
642.43	19.772
642.76	17.898
643.09	19.885
643.41	18.093
643.74	19.137
644.07	19.469
644.40	18.787
644.73	20.120
645.05	21.397
645.38	18.070
645.71	20.030
646.04	20.153
646.36	19.249
646.69	18.080
647.02	20.320
647.35	18.110
647.67	18.639
648.00	19.055
648.33	17.895
648.66	18.030
648.98	18.696
649.31	17.949
649.64	17.981
649.96	17.496
650.29	16.143
650.62	20.324
650.94	20.482
651.27	21.212
651.60	18.779
651.92	20.737
652.25	17.795
652.58	19.149
652.90	16.617
653.23	19.941
653.56	19.733
653.88	16.887
654.21	18.622
654.54	17.716
654.86	19.469
655.19	19.393
655.52	16.184
655.84	11.458
656.17	12.798
656.49	18.508
656.82	21.217
657.15	16.976
657.47	12.411
657.80	9.481
658.13	7.482
658.45	10.120
658.78	12.589
659.10	12.968
659.43	13.380
659.75	14.110
660.08	14.662
660.41	16.878
660.73	18.946
661.06	20.871
661.38	21.806
661.71	17.086
662.03	19.962
662.36	22.095
662.68	18.994
663.01	22.703
663.33	18.302
663.66	20.118
663.98	20.238
664.31	22.575
664.63	23.563
664.96	20.826
665.28	21.469
665.61	19.434
665.93	21.698
666.26	20.935
666.58	21.468
666.91	22.587
667.23	22.892
667.56	19.302
667.88	21.162
668.21	18.648
668.53	20.968
668.86	22.645
669.18	22.811
669.50	21.074
669.83	22.382
670.15	21.206
670.48	17.969
670.80	23.108
671.13	17.928
671.45	22.244
671.77	22.078
672.10	20.108
672.42	18.586
672.75	19.146
673.07	18.601
673.39	20.447
673.72	17.993
674.04	20.609
674.37	20.690
674.69	18.959
675.01	20.336
675.34	19.574
675.66	21.094
675.98	20.118
676.31	21.600
676.63	18.887
676.95	21.825
677.28	18.458
677.60	21.730
677.92	20.437
678.25	19.574
678.57	21.788
678.89	20.796
679.22	19.485
679.54	17.260
679.86	20.942
680.18	19.156
680.51	17.910
680.83	18.243
681.15	18.371
681.48	20.139
681.80	18.039
682.12	18.339
682.44	17.117
682.77	19.751
683.09	20.000
683.41	21.837
683.73	20.866
684.06	18.651
684.38	19.574
684.70	19.784
685.02	16.146
685.34	18.838
685.67	20.257
685.99	18.227
686.31	20.185
686.63	17.236
686.96	17.320
687.28	17.617
687.60	19.454
687.92	18.760
688.24	18.966
688.56	20.819
688.89	16.635
689.21	20.809
689.53	22.727
689.85	18.699
690.17	20.194
690.49	19.960
690.82	21.639
691.14	20.808
691.46	20.329
691.78	21.248
692.10	20.611
692.42	19.056
692.74	20.543
693.06	20.155
693.39	18.972
693.71	17.289
694.03	16.963
694.35	21.486
694.67	19.552
694.99	21.064
695.31	22.072
695.63	21.946
695.95	17.421
696.27	20.133
696.59	18.854
696.91	20.759
697.23	19.231
697.56	18.050
697.88	17.365
698.20	19.245
698.52	19.455
698.84	18.275
699.16	22.388
699.48	21.610
699.80	22.440
700.12	22.402
700.44	21.262
700.76	20.286
701.08	22.454
701.40	20.779
701.72	24.332
702.04	21.680
702.36	23.656
702.68	23.936
703.00	19.298
703.32	23.821
703.64	20.403
703.96	19.531
704.28	20.370
704.60	25.915
704.91	19.888
705.23	23.295
705.55	25.816
705.87	23.175
706.19	25.078
706.51	27.273
706.83	21.534
707.15	22.727
707.47	18.644
707.79	21.839
708.11	19.955
708.43	20.449
708.74	19.005
709.06	19.070
709.38	22.581
709.70	17.711
710.02	21.467
710.34	21.547
710.66	22.222
710.98	24.863
711.29	21.448
711.61	24.791
711.93	22.188
712.25	25.000
712.57	22.830
712.89	23.636
713.20	24.601
713.52	23.053
713.84	23.867
714.16	17.391
714.48	18.732
714.80	22.222
715.11	21.011
715.43	21.788
715.75	24.507
716.07	23.121
716.39	22.571
716.70	22.118
717.02	25.926
717.34	28.777
717.66	26.042
717.97	26.136
718.29	25.704
718.61	22.973
718.93	24.221
719.24	26.510
719.56	21.034
719.88	21.975
720.20	25.161
720.51	22.222
720.83	23.411
721.15	24.150
721.46	25.342
721.78	23.693
722.10	23.611
722.42	28.428
722.73	24.910
723.05	30.175
723.37	27.208
723.68	26.953
724.00	25.758
724.32	26.616
724.63	25.769
724.95	26.275
725.27	24.535
725.58	27.206
725.90	22.535
726.22	24.658
726.53	22.408
726.85	28.013
727.16	25.503
727.48	26.578
727.80	25.180
728.11	22.500
728.43	24.275
728.74	25.175
729.06	20.789
729.38	27.719
729.69	25.667
730.01	22.697
730.32	23.826
730.64	26.578
730.96	21.321
731.27	23.547
731.59	19.253
731.90	19.220
732.22	24.857
732.53	18.803
732.85	24.561
733.16	20.482
733.48	22.571
733.80	23.188
734.11	26.380
734.43	21.053
734.74	19.035
735.06	24.603
735.37	20.619
735.69	22.029
736.00	18.960
736.32	21.212
736.63	17.981
736.95	17.702
737.26	22.256
737.58	21.779
737.89	18.976
738.21	21.854
738.52	24.415
738.83	28.571
739.15	25.436
739.46	26.552
739.78	24.150
740.09	22.449
740.41	20.552
740.72	26.667
741.04	26.224
741.35	25.000
741.66	23.715
741.98	28.326
742.29	25.000
742.61	24.779
742.92	24.153
743.23	26.800
743.55	21.509
743.86	26.275
744.18	23.305
744.49	29.752
744.80	29.493
745.12	27.679
745.43	29.439
745.74	24.444
746.06	25.877
746.37	27.907
746.68	30.088
747.00	28.251
747.31	21.849
747.62	29.098
747.94	24.464
748.25	22.179
748.56	34.746
748.88	29.464
749.19	25.116
749.50	25.571
749.82	24.691
750.13	23.715
750.44	24.000
750.75	24.161
751.07	22.697
751.38	23.762
751.69	24.242
752.01	20.979
752.32	20.266
752.63	22.819
752.94	20.280
753.26	28.516
753.57	27.626
753.88	25.468
754.19	23.827
754.51	24.917
754.82	23.826
755.13	24.324
755.44	25.556
755.75	27.835
756.07	23.973
756.38	20.261
756.69	22.188
757.00	24.036
757.31	21.408
757.63	19.835
757.94	22.074
758.25	21.256
758.56	19.680
758.87	22.055
759.18	21.512
759.50	23.100
759.81	24.332
760.12	23.034
760.43	17.367
760.74	22.025
761.05	21.485
761.36	17.969
761.67	20.755
761.99	22.817
762.30	23.794
762.61	19.444
762.92	21.970
763.23	27.547
763.54	21.923
763.85	21.401
764.16	26.389
764.47	21.622
764.78	22.150
765.10	18.902
765.41	19.886
765.72	20.442
766.03	18.731
766.34	23.345
766.65	25.475
766.96	27.126
767.27	27.103
767.58	32.673
767.89	28.729
768.20	38.415
768.51	24.490
768.82	26.316
769.13	26.275
769.44	21.053
769.75	20.599
770.06	27.731
770.37	24.123
770.68	24.444
770.99	28.814
771.30	24.268
771.61	25.000
771.92	25.573
772.23	24.597
772.54	28.444
772.85	27.723
773.16	32.065
773.47	33.333
773.78	28.713
774.09	28.977
774.39	35.152
774.70	25.294
775.01	23.684
775.32	28.571
775.63	30.822
775.94	45.062
776.25	29.655
776.56	40.458
776.87	48.092
777.18	36.364
777.48	47.244
777.79	43.077
778.10	28.788
778.41	36.567
778.72	33.083
779.03	32.051
779.34	29.730
779.65	37.888
779.95	36.646
780.26	27.976
780.57	34.694
780.88	37.589
781.19	37.500
781.50	30.769
781.80	32.240
782.11	31.746
782.42	24.713
782.73	27.684
783.04	34.194
783.34	24.806
783.65	29.252
783.96	29.032
784.27	22.517
784.57	27.632
784.88	36.232
785.19	35.833
785.50	37.069
785.81	40.310
786.11	31.852
786.42	37.008
786.73	44.144
787.04	45.283
787.34	34.146
787.65	45.455
787.96	37.121
788.26	35.433
788.57	42.336
788.88	32.394
789.19	31.298
789.49	38.514
789.80	35.156
790.11	38.843
790.41	44.444
790.72	35.185
791.03	45.192
791.33	40.404
791.64	38.947
791.95	41.053
792.25	51.042
792.56	39.000
792.87	45.122
793.17	50.000
793.48	48.235
793.79	49.425
794.09	40.909
794.40	44.828
794.70	43.651
795.01	33.846
795.32	37.405
795.62	33.333
795.93	42.017
796.23	42.276
796.54	53.061
796.85	48.864
797.15	63.636
797.46	58.537
797.76	41.250
798.07	48.000
798.37	58.750
798.68	65.000
798.99	53.659
799.29	61.333
799.60	36.047
799.90	39.474
800.21	50.000
800.51	46.479
800.82	70.690
801.12	64.615
801.43	66.667
801.73	50.000
802.04	53.247
802.34	53.425
802.65	68.627
802.95	47.826
803.26	75.806
803.56	75.000
803.87	74.627
804.17	55.556
804.48	62.264
804.78	52.778
805.09	54.545
805.39	68.254
805.70	71.930
806.00	55.714
806.30	46.875
806.61	52.941
806.91	44.444
807.22	45.652
807.52	53.947
807.83	60.526
808.13	50.725
808.43	62.903
808.74	35.616
809.04	78.571
809.35	70.588
809.65	59.091
809.95	92.157
810.26	79.630
810.56	100.000
810.86	65.306
811.17	59.649
811.47	50.000
811.77	65.517
812.08	55.172
812.38	64.286
812.69	66.667
812.99	57.778
813.29	97.143
813.59	93.548
813.90	58.621
814.20	72.131
814.50	54.000
814.81	70.175
815.11	83.333
815.41	76.786
815.72	73.214
816.02	100.000
816.32	75.610
816.62	84.483
816.93	96.970
817.23	95.122
817.53	69.643
817.84	75.556
818.14	90.476
818.44	72.917
818.74	77.358
819.04	71.795
819.35	106.061
819.65	78.846
819.95	90.741
820.25	82.979
820.56	91.892
820.86	97.368
821.16	68.085
821.46	110.526
821.76	89.091
822.07	66.667
822.37	84.211
822.67	97.674
822.97	84.211
823.27	82.609
823.57	109.375
823.88	102.564
824.18	103.030
824.48	134.783
824.78	136.111
825.08	152.174
825.38	117.241
825.69	111.765
825.99	72.340
826.29	69.444
826.59	88.571
826.89	116.667
827.19	120.000
827.49	116.129
827.79	134.615
828.09	88.095
828.39	80.556
828.70	83.784
829.00	150.000
829.30	118.750
829.60	108.333
829.90	100.000
830.20	127.273
830.50	116.216
830.80	179.167
831.10	153.846
831.40	76.190
831.70	150.000
832.00	126.667
832.30	147.826
832.60	150.000
832.90	142.424
833.20	200.000
833.50	110.526
833.80	79.412
834.10	94.737
834.40	84.211
834.70	83.333
835.00	120.000
835.30	86.486
835.60	118.750
835.90	116.216
836.20	142.308
836.50	113.636
836.80	95.122
837.10	130.435
837.40	276.923
837.70	94.737
838.00	160.000
838.30	154.167
838.60	140.000
838.90	240.000
839.19	181.250
839.49	136.667
839.79	106.897
840.09	142.308
840.39	166.667
840.69	194.737
840.99	80.952
841.29	126.087
841.59	110.000
841.88	168.000
842.18	244.444
842.48	110.714
842.78	144.444
843.08	200.000
843.38	177.273
843.68	250.000
843.97	557.143
844.27	139.130
844.57	1500.000
844.87	314.286
845.17	172.222
845.47	85.714
845.76	170.833
846.06	400.000
846.36	158.824
846.66	300.000
846.96	243.750
847.25	207.692
847.55	189.474
847.85	144.444
848.15	580.000
848.44	236.364
848.74	85.714
849.04	145.833
849.34	158.824
849.63	181.250
849.93	262.500
850.23	866.667
850.53	287.500
850.82	236.364
851.12	176.471
851.42	162.500
851.71	268.750
852.01	0.000
852.31	205.882
852.61	370.000
852.90	116.667
853.20	255.556
853.50	-2200.000
853.79	120.000
854.09	153.125
854.39	141.379
854.68	117.241
854.98	161.905
855.28	119.355
855.57	207.143
855.87	161.111
856.17	122.222
856.46	194.737
856.76	112.903
857.05	188.235
857.35	309.091
857.65	253.846
857.94	165.000
858.24	477.778
858.53	228.571
858.83	528.571
859.13	191.304
859.42	366.667
859.72	337.500
860.01	266.667
860.31	725.000
860.60	320.000
860.90	462.500
861.20	238.462
861.49	385.714
861.79	-3400.000
862.08	500.000
862.38	366.667
862.67	178.571
862.97	300.000
863.26	153.333
863.56	700.000
863.85	315.385
864.15	247.059
864.44	205.556
864.74	300.000
865.03	227.273
865.33	487.500
865.62	220.000
865.92	616.667
866.21	1000.000
866.51	580.000
866.80	277.778
867.10	900.000
867.39	3700.000
867.69	580.000
867.98	725.000
868.27	166.667
868.57	200.000
868.86	900.000
869.16	147.619
869.45	3400.000
869.75	-516.667
870.04	475.000
870.33	660.000
870.63	462.500
870.92	164.706
871.22	825.000
871.51	314.286
871.80	350.000
872.10	276.923
>>>>>End Processed Spectral Data<<<<<
