SpectraSuite Data File
++++++++++++++++++++++++++++++++++++
Date: Tue May 12 17:15:21 PDT 2015
User: schluterlab
Dark Spectrum Present: Yes
Reference Spectrum Present: Yes
Number of Sampled Component Spectra: 1
Spectrometers: USB2E3373
Integration Time (usec): 3000 (USB2E3373)
Spectra Averaged: 3 (USB2E3373)
Boxcar Smoothing: 0 (USB2E3373)
Correct for Electrical Dark: No (USB2E3373)
Strobe/Lamp Enabled: No (USB2E3373)
Correct for Detector Non-linearity: No (USB2E3373)
Correct for Stray Light: No (USB2E3373)
Number of Pixels in Processed Spectrum: 2048
>>>>>Begin Processed Spectral Data<<<<<
178.53	0.000
178.91	-225.000
179.29	-825.000
179.67	-3500.000
180.04	-120.000
180.42	625.000
180.80	1450.000
181.18	0.000
181.56	-425.000
181.94	0.000
182.31	933.333
182.69	-2400.000
183.07	485.714
183.45	-2900.000
183.83	-1700.000
184.20	350.000
184.58	442.857
184.96	-284.615
185.34	-200.000
185.72	1450.000
186.09	-800.000
186.47	-3100.000
186.85	1066.667
187.23	640.000
187.61	1950.000
187.98	462.500
188.36	228.571
188.74	316.667
189.12	325.000
189.49	875.000
189.87	0.000
190.25	512.500
190.63	2400.000
191.00	-175.000
191.38	-3900.000
191.76	-675.000
192.14	537.500
192.51	-2800.000
192.89	1650.000
193.27	900.000
193.65	-933.333
194.02	-720.000
194.40	628.571
194.78	-192.857
195.15	233.333
195.53	-3300.000
195.91	-600.000
196.29	3500.000
196.66	181.250
197.04	950.000
197.42	-1550.000
197.79	800.000
198.17	325.000
198.55	0.000
198.92	500.000
199.30	1033.333
199.68	2050.000
200.05	616.667
200.43	-366.667
200.81	194.444
201.18	3500.000
201.56	300.000
201.94	-450.000
202.31	-250.000
202.69	-420.000
203.07	3200.000
203.44	-433.333
203.82	216.667
204.19	480.000
204.57	-1700.000
204.95	-550.000
205.32	-680.000
205.70	683.333
206.08	825.000
206.45	-733.333
206.83	333.333
207.20	178.947
207.58	283.333
207.96	700.000
208.33	0.000
208.71	600.000
209.08	420.000
209.46	-2900.000
209.84	-725.000
210.21	600.000
210.59	-420.000
210.96	316.667
211.34	-650.000
211.71	381.818
212.09	950.000
212.46	1650.000
212.84	-483.333
213.22	433.333
213.59	-2500.000
213.97	410.000
214.34	1175.000
214.72	1066.667
215.09	1433.333
215.47	-2800.000
215.84	-350.000
216.22	-512.500
216.59	0.000
216.97	0.000
217.34	1400.000
217.72	-1300.000
218.09	1100.000
218.47	525.000
218.84	625.000
219.22	1200.000
219.59	1366.667
219.97	514.286
220.34	444.444
220.72	1050.000
221.09	3900.000
221.47	225.000
221.84	1233.333
222.22	230.000
222.59	233.333
222.97	207.143
223.34	281.250
223.72	-1600.000
224.09	1133.333
224.46	284.615
224.84	-975.000
225.21	500.000
225.59	220.000
225.96	866.667
226.34	-580.000
226.71	-700.000
227.08	-560.000
227.46	0.000
227.83	-600.000
228.21	-1350.000
228.58	300.000
228.95	900.000
229.33	266.667
229.70	975.000
230.08	407.692
230.45	2300.000
230.82	-750.000
231.20	-700.000
231.57	-1066.667
231.95	580.000
232.32	191.667
232.69	500.000
233.07	233.333
233.44	-1150.000
233.81	186.667
234.19	159.259
234.56	218.750
234.93	182.353
235.31	175.000
235.68	237.500
236.05	157.143
236.43	122.222
236.80	264.286
237.17	127.586
237.55	84.375
237.92	90.000
238.29	142.424
238.67	68.750
239.04	85.366
239.41	68.750
239.79	45.000
240.16	77.083
240.53	47.541
240.91	39.130
241.28	50.847
241.65	54.545
242.02	49.296
242.40	38.571
242.77	45.055
243.14	26.582
243.51	51.515
243.89	46.729
244.26	30.841
244.63	24.752
245.00	38.532
245.38	16.102
245.75	32.576
246.12	39.259
246.49	20.567
246.87	18.852
247.24	27.333
247.61	25.000
247.98	25.170
248.36	17.576
248.73	27.551
249.10	14.286
249.47	20.000
249.84	17.413
250.22	16.757
250.59	21.500
250.96	20.253
251.33	11.628
251.70	16.071
252.08	21.008
252.45	17.928
252.82	16.730
253.19	12.253
253.56	13.462
253.94	16.304
254.31	12.016
254.68	13.589
255.05	13.793
255.42	9.854
255.79	14.984
256.16	10.169
256.54	14.286
256.91	13.399
257.28	13.043
257.65	10.345
258.02	10.029
258.39	12.894
258.76	15.652
259.14	9.429
259.51	10.787
259.88	12.766
260.25	8.791
260.62	11.233
260.99	8.815
261.36	13.370
261.73	10.904
262.10	9.948
262.47	11.000
262.85	9.867
263.22	11.054
263.59	10.742
263.96	12.782
264.33	10.370
264.70	9.091
265.07	9.024
265.44	10.321
265.81	11.085
266.18	9.611
266.55	8.274
266.92	8.501
267.29	8.333
267.66	8.296
268.03	9.417
268.40	11.205
268.77	12.115
269.14	7.158
269.51	9.131
269.88	11.224
270.25	7.127
270.62	10.300
270.99	10.548
271.36	9.146
271.73	8.805
272.10	8.889
272.47	9.127
272.84	9.581
273.21	7.438
273.58	10.324
273.95	5.544
274.32	8.755
274.69	11.024
275.06	10.383
275.43	9.387
275.80	8.679
276.17	8.088
276.54	10.093
276.91	9.515
277.28	8.577
277.65	10.332
278.02	8.456
278.39	7.194
278.76	9.310
279.13	7.295
279.50	8.364
279.87	7.263
280.23	7.366
280.60	6.934
280.97	8.621
281.34	6.766
281.71	10.261
282.08	10.085
282.45	7.432
282.82	8.361
283.19	9.539
283.56	7.273
283.92	8.795
284.29	6.489
284.66	6.723
285.03	9.453
285.40	6.446
285.77	7.407
286.14	9.443
286.51	7.362
286.87	6.646
287.24	7.057
287.61	6.535
287.98	8.358
288.35	5.926
288.72	7.587
289.08	5.706
289.45	7.317
289.82	7.188
290.19	7.467
290.56	8.006
290.93	8.058
291.29	8.011
291.66	7.062
292.03	7.714
292.40	8.130
292.77	5.292
293.13	7.275
293.50	7.692
293.87	4.878
294.24	7.133
294.60	8.075
294.97	6.853
295.34	7.171
295.71	6.833
296.08	8.000
296.44	7.751
296.81	7.072
297.18	5.323
297.55	7.512
297.91	4.926
298.28	6.401
298.65	5.890
299.02	6.393
299.38	7.194
299.75	5.488
300.12	7.798
300.48	7.494
300.85	6.675
301.22	6.163
301.59	4.953
301.95	4.901
302.32	7.218
302.69	5.204
303.05	6.285
303.42	5.605
303.79	7.042
304.15	5.831
304.52	6.025
304.89	6.397
305.25	5.117
305.62	6.930
305.99	5.543
306.35	4.842
306.72	6.348
307.09	6.108
307.45	5.069
307.82	6.276
308.19	7.320
308.55	4.700
308.92	6.084
309.29	7.101
309.65	6.343
310.02	5.477
310.38	5.583
310.75	5.689
311.12	5.364
311.48	6.757
311.85	5.630
312.22	6.113
312.58	5.734
312.95	4.951
313.31	6.180
313.68	5.347
314.05	7.051
314.41	5.773
314.78	5.966
315.14	5.498
315.51	7.096
315.87	5.566
316.24	5.229
316.61	7.252
316.97	5.505
317.34	5.750
317.70	6.146
318.07	6.317
318.43	7.293
318.80	7.093
319.16	6.031
319.53	5.487
319.89	6.004
320.26	6.983
320.62	5.861
320.99	6.006
321.35	7.792
321.72	7.400
322.08	6.371
322.45	7.539
322.81	6.587
323.18	7.371
323.54	7.753
323.91	7.978
324.27	7.781
324.64	5.969
325.00	6.724
325.37	7.757
325.73	7.504
326.10	7.457
326.46	7.514
326.83	7.840
327.19	8.032
327.56	7.109
327.92	8.279
328.29	8.674
328.65	8.219
329.01	6.501
329.38	7.953
329.74	7.771
330.11	7.124
330.47	8.610
330.84	7.420
331.20	7.868
331.56	9.672
331.93	8.127
332.29	7.228
332.66	8.333
333.02	7.818
333.38	7.592
333.75	8.841
334.11	7.718
334.48	7.863
334.84	7.855
335.20	7.956
335.57	7.893
335.93	8.242
336.29	7.877
336.66	7.719
337.02	6.843
337.38	7.567
337.75	8.277
338.11	8.101
338.47	7.197
338.84	6.605
339.20	7.100
339.56	7.822
339.93	7.609
340.29	7.143
340.65	7.628
341.02	9.171
341.38	8.456
341.74	8.389
342.11	6.928
342.47	7.383
342.83	7.629
343.20	7.680
343.56	6.593
343.92	7.102
344.28	7.895
344.65	7.579
345.01	7.381
345.37	6.891
345.73	7.857
346.10	6.375
346.46	7.735
346.82	7.330
347.19	8.423
347.55	6.714
347.91	6.647
348.27	6.816
348.63	6.646
349.00	6.626
349.36	7.082
349.72	7.798
350.08	7.919
350.45	7.388
350.81	6.804
351.17	6.009
351.53	5.543
351.89	6.838
352.26	6.274
352.62	7.164
352.98	7.515
353.34	7.781
353.70	6.804
354.07	6.769
354.43	7.296
354.79	6.986
355.15	7.044
355.51	6.571
355.87	7.229
356.24	6.697
356.60	7.458
356.96	5.914
357.32	7.234
357.68	6.902
358.04	6.915
358.40	7.721
358.77	6.987
359.13	6.532
359.49	6.375
359.85	6.404
360.21	5.572
360.57	6.788
360.93	6.926
361.29	5.916
361.66	5.817
362.02	5.256
362.38	6.782
362.74	7.219
363.10	7.013
363.46	6.077
363.82	7.223
364.18	6.046
364.54	6.366
364.90	6.760
365.26	7.148
365.62	6.699
365.98	5.988
366.35	5.862
366.71	7.078
367.07	6.553
367.43	6.380
367.79	6.649
368.15	5.970
368.51	6.823
368.87	6.182
369.23	5.683
369.59	6.406
369.95	6.224
370.31	6.092
370.67	6.801
371.03	6.443
371.39	6.233
371.75	5.932
372.11	6.458
372.47	6.918
372.83	6.186
373.19	6.580
373.55	6.392
373.91	5.525
374.27	6.481
374.63	5.424
374.99	6.536
375.35	5.780
375.71	5.937
376.07	5.968
376.42	5.754
376.78	6.230
377.14	5.701
377.50	6.242
377.86	5.253
378.22	5.911
378.58	6.356
378.94	6.639
379.30	5.822
379.66	6.261
380.02	6.217
380.38	5.679
380.74	6.401
381.09	6.192
381.45	5.491
381.81	5.142
382.17	5.433
382.53	5.159
382.89	6.032
383.25	5.269
383.61	5.072
383.97	5.159
384.32	5.787
384.68	6.536
385.04	5.334
385.40	5.931
385.76	5.734
386.12	6.308
386.48	5.167
386.83	5.501
387.19	6.184
387.55	6.478
387.91	6.120
388.27	6.008
388.62	6.103
388.98	5.773
389.34	4.997
389.70	4.540
390.06	5.366
390.42	5.614
390.77	5.651
391.13	5.552
391.49	5.324
391.85	5.600
392.20	6.436
392.56	5.795
392.92	4.885
393.28	5.101
393.64	4.931
393.99	4.801
394.35	4.826
394.71	4.946
395.07	4.745
395.42	5.445
395.78	5.861
396.14	7.048
396.50	5.897
396.85	6.098
397.21	5.114
397.57	5.977
397.92	4.275
398.28	4.909
398.64	5.759
399.00	5.291
399.35	4.616
399.71	5.353
400.07	4.680
400.42	5.731
400.78	5.337
401.14	5.931
401.49	5.242
401.85	5.388
402.21	4.628
402.57	4.728
402.92	4.545
403.28	4.594
403.63	5.238
403.99	5.187
404.35	5.100
404.70	5.139
405.06	4.267
405.42	4.668
405.77	4.741
406.13	4.989
406.49	4.775
406.84	5.189
407.20	5.194
407.55	4.985
407.91	5.680
408.27	4.912
408.62	6.091
408.98	5.204
409.34	4.968
409.69	5.040
410.05	4.293
410.40	4.299
410.76	3.835
411.11	5.332
411.47	4.630
411.83	4.394
412.18	4.529
412.54	4.985
412.89	4.425
413.25	5.416
413.60	5.315
413.96	5.326
414.31	4.841
414.67	5.152
415.03	4.342
415.38	4.669
415.74	4.296
416.09	4.934
416.45	6.206
416.80	5.452
417.16	5.411
417.51	4.395
417.87	4.881
418.22	4.678
418.58	5.032
418.93	4.640
419.29	4.436
419.64	5.088
420.00	5.430
420.35	4.588
420.71	4.142
421.06	4.356
421.42	4.663
421.77	4.720
422.12	4.520
422.48	4.982
422.83	5.246
423.19	4.374
423.54	4.772
423.90	4.700
424.25	4.623
424.61	4.875
424.96	4.291
425.31	4.762
425.67	4.545
426.02	3.814
426.38	4.492
426.73	4.627
427.09	4.211
427.44	4.389
427.79	4.517
428.15	4.537
428.50	5.257
428.85	5.761
429.21	4.700
429.56	4.636
429.92	4.923
430.27	4.354
430.62	4.063
430.98	5.090
431.33	4.637
431.68	3.605
432.04	4.656
432.39	4.940
432.74	4.157
433.10	4.485
433.45	4.652
433.80	5.461
434.16	4.572
434.51	4.592
434.86	4.682
435.22	4.700
435.57	4.801
435.92	5.122
436.28	4.954
436.63	5.457
436.98	4.617
437.34	4.338
437.69	4.647
438.04	5.161
438.39	5.079
438.75	5.290
439.10	4.965
439.45	5.257
439.81	5.437
440.16	4.953
440.51	5.068
440.86	5.698
441.22	4.870
441.57	4.777
441.92	4.541
442.27	4.485
442.63	5.081
442.98	4.849
443.33	4.606
443.68	4.829
444.03	4.901
444.39	5.179
444.74	4.969
445.09	4.687
445.44	5.367
445.79	4.971
446.15	5.368
446.50	4.905
446.85	4.781
447.20	4.328
447.55	4.676
447.91	5.328
448.26	5.485
448.61	4.699
448.96	5.229
449.31	4.785
449.66	5.260
450.02	4.646
450.37	5.219
450.72	5.455
451.07	5.236
451.42	5.276
451.77	5.613
452.12	5.389
452.47	5.407
452.83	5.465
453.18	5.586
453.53	5.743
453.88	5.429
454.23	5.171
454.58	5.769
454.93	5.150
455.28	5.324
455.63	5.142
455.98	5.189
456.34	5.289
456.69	4.573
457.04	5.131
457.39	5.314
457.74	6.363
458.09	5.053
458.44	5.476
458.79	5.146
459.14	4.692
459.49	5.606
459.84	5.761
460.19	5.480
460.54	5.527
460.89	5.544
461.24	5.498
461.59	5.499
461.94	4.905
462.29	5.263
462.64	5.653
462.99	5.566
463.34	5.703
463.69	6.110
464.04	5.354
464.39	4.751
464.74	4.807
465.09	5.398
465.44	5.386
465.79	4.627
466.14	4.928
466.49	5.263
466.84	5.630
467.19	5.331
467.54	5.105
467.89	5.223
468.24	5.269
468.59	5.238
468.94	5.797
469.29	5.620
469.64	6.302
469.99	5.977
470.34	5.629
470.68	5.517
471.03	5.537
471.38	5.430
471.73	5.879
472.08	6.132
472.43	6.083
472.78	6.658
473.13	5.194
473.48	5.440
473.83	5.183
474.17	4.742
474.52	6.339
474.87	4.605
475.22	5.425
475.57	5.089
475.92	4.752
476.27	4.733
476.61	4.772
476.96	5.747
477.31	5.296
477.66	5.797
478.01	5.054
478.36	5.098
478.70	5.062
479.05	4.603
479.40	5.109
479.75	5.462
480.10	5.518
480.45	4.809
480.79	5.161
481.14	4.708
481.49	4.346
481.84	4.881
482.19	5.153
482.53	4.655
482.88	4.884
483.23	4.330
483.58	5.027
483.92	5.576
484.27	4.752
484.62	5.348
484.97	4.986
485.31	4.290
485.66	4.244
486.01	3.795
486.36	3.728
486.70	3.666
487.05	3.898
487.40	4.179
487.75	4.253
488.09	4.830
488.44	4.398
488.79	4.547
489.13	4.517
489.48	4.594
489.83	5.129
490.17	4.459
490.52	4.953
490.87	4.914
491.22	5.098
491.56	5.182
491.91	5.018
492.26	4.588
492.60	5.148
492.95	4.667
493.30	4.732
493.64	4.762
493.99	5.054
494.34	4.482
494.68	4.515
495.03	5.164
495.37	5.493
495.72	5.128
496.07	5.166
496.41	4.909
496.76	5.192
497.11	5.570
497.45	5.129
497.80	5.468
498.14	5.178
498.49	5.200
498.84	4.813
499.18	5.119
499.53	4.548
499.87	4.852
500.22	5.251
500.56	4.875
500.91	5.659
501.26	5.328
501.60	4.690
501.95	4.391
502.29	5.244
502.64	5.073
502.98	4.535
503.33	4.900
503.67	5.519
504.02	4.702
504.36	5.023
504.71	4.967
505.06	4.833
505.40	4.726
505.75	4.818
506.09	5.460
506.44	4.934
506.78	5.293
507.13	4.847
507.47	4.998
507.82	5.012
508.16	5.928
508.51	5.121
508.85	5.271
509.19	4.944
509.54	5.225
509.88	5.619
510.23	5.049
510.57	4.730
510.92	5.644
511.26	5.120
511.61	5.318
511.95	4.878
512.30	5.400
512.64	4.777
512.98	5.228
513.33	5.430
513.67	5.127
514.02	5.091
514.36	4.984
514.70	4.480
515.05	5.008
515.39	5.757
515.74	5.467
516.08	5.011
516.42	5.956
516.77	5.600
517.11	4.907
517.46	5.388
517.80	5.134
518.14	5.746
518.49	5.347
518.83	5.000
519.17	5.546
519.52	5.461
519.86	5.831
520.20	5.918
520.55	5.370
520.89	5.402
521.23	5.257
521.58	5.164
521.92	5.248
522.26	5.332
522.61	5.645
522.95	5.766
523.29	5.731
523.64	4.566
523.98	5.458
524.32	5.594
524.66	6.261
525.01	4.911
525.35	5.303
525.69	6.562
526.04	6.365
526.38	5.474
526.72	5.728
527.06	4.731
527.41	6.227
527.75	5.782
528.09	6.081
528.43	5.796
528.78	5.069
529.12	5.599
529.46	5.611
529.80	5.607
530.15	6.011
530.49	4.753
530.83	5.424
531.17	5.289
531.51	5.273
531.86	5.435
532.20	5.377
532.54	5.775
532.88	5.684
533.22	6.155
533.57	6.223
533.91	5.361
534.25	4.847
534.59	5.848
534.93	5.575
535.27	5.236
535.62	5.076
535.96	5.378
536.30	6.399
536.64	4.720
536.98	4.531
537.32	5.625
537.66	5.485
538.01	5.449
538.35	5.864
538.69	5.340
539.03	4.975
539.37	5.158
539.71	5.741
540.05	5.785
540.39	5.472
540.73	5.506
541.07	4.015
541.42	5.410
541.76	5.549
542.10	5.179
542.44	5.985
542.78	5.412
543.12	5.276
543.46	4.825
543.80	5.263
544.14	5.387
544.48	5.170
544.82	5.872
545.16	4.554
545.50	5.409
545.84	5.997
546.18	5.332
546.52	5.639
546.86	5.803
547.20	4.587
547.54	5.953
547.88	5.718
548.22	4.857
548.56	5.303
548.90	5.694
549.24	5.180
549.58	4.446
549.92	5.435
550.26	5.815
550.60	5.256
550.94	4.885
551.28	5.862
551.62	5.379
551.96	5.946
552.30	3.823
552.64	6.214
552.98	4.704
553.32	5.314
553.66	5.603
554.00	6.049
554.34	5.859
554.68	5.712
555.02	5.363
555.36	6.715
555.69	5.955
556.03	5.287
556.37	6.119
556.71	5.215
557.05	5.046
557.39	6.333
557.73	6.267
558.07	6.439
558.41	5.689
558.75	5.746
559.08	6.934
559.42	6.228
559.76	7.270
560.10	6.056
560.44	5.441
560.78	6.458
561.12	5.531
561.45	5.695
561.79	5.493
562.13	4.864
562.47	5.646
562.81	5.986
563.15	6.012
563.48	4.410
563.82	5.739
564.16	5.659
564.50	5.546
564.84	5.593
565.17	6.239
565.51	5.542
565.85	5.059
566.19	5.179
566.52	4.874
566.86	5.896
567.20	5.169
567.54	5.349
567.88	5.373
568.21	4.993
568.55	5.058
568.89	5.611
569.23	4.702
569.56	4.673
569.90	4.527
570.24	4.804
570.57	4.478
570.91	3.838
571.25	4.241
571.59	3.948
571.92	3.633
572.26	3.558
572.60	3.749
572.93	4.370
573.27	3.992
573.61	3.952
573.95	3.959
574.28	4.169
574.62	3.633
574.96	3.956
575.29	3.871
575.63	3.628
575.97	3.603
576.30	3.822
576.64	3.989
576.98	3.622
577.31	3.964
577.65	3.811
577.98	3.714
578.32	3.567
578.66	3.616
578.99	3.965
579.33	3.857
579.67	3.808
580.00	3.646
580.34	3.911
580.67	3.758
581.01	3.950
581.35	3.916
581.68	3.472
582.02	3.701
582.35	3.530
582.69	3.796
583.02	3.703
583.36	3.923
583.70	3.758
584.03	4.126
584.37	3.937
584.70	3.807
585.04	3.735
585.37	3.562
585.71	4.067
586.04	3.934
586.38	3.878
586.72	4.170
587.05	4.272
587.39	4.071
587.72	4.099
588.06	4.197
588.39	4.248
588.73	4.277
589.06	4.289
589.40	4.601
589.73	4.326
590.07	4.873
590.40	4.948
590.73	5.031
591.07	4.440
591.40	4.551
591.74	5.235
592.07	3.993
592.41	5.116
592.74	4.064
593.08	4.004
593.41	4.069
593.75	4.129
594.08	4.404
594.41	3.975
594.75	4.384
595.08	4.355
595.42	4.872
595.75	4.771
596.09	4.727
596.42	4.516
596.75	5.048
597.09	5.035
597.42	4.816
597.75	4.584
598.09	4.719
598.42	4.529
598.76	4.742
599.09	4.928
599.42	5.156
599.76	4.851
600.09	4.203
600.42	4.731
600.76	4.725
601.09	4.660
601.42	4.611
601.76	4.547
602.09	4.525
602.42	4.658
602.76	4.592
603.09	4.563
603.42	5.321
603.76	4.628
604.09	4.198
604.42	4.407
604.76	4.781
605.09	4.735
605.42	4.876
605.75	4.816
606.09	4.744
606.42	4.472
606.75	4.819
607.09	4.659
607.42	4.500
607.75	4.618
608.08	4.712
608.42	5.159
608.75	4.322
609.08	4.971
609.41	5.182
609.75	4.670
610.08	4.991
610.41	5.621
610.74	5.022
611.07	4.729
611.41	4.310
611.74	4.446
612.07	5.154
612.40	4.581
612.73	5.242
613.07	4.967
613.40	5.113
613.73	4.943
614.06	4.900
614.39	5.404
614.72	4.872
615.06	4.649
615.39	4.703
615.72	4.840
616.05	5.374
616.38	4.820
616.71	4.938
617.05	5.217
617.38	5.281
617.71	5.287
618.04	4.150
618.37	5.058
618.70	4.734
619.03	4.640
619.36	6.219
619.69	5.013
620.03	5.610
620.36	5.780
620.69	5.683
621.02	5.707
621.35	6.232
621.68	5.826
622.01	6.347
622.34	4.443
622.67	6.320
623.00	5.650
623.33	6.073
623.66	5.855
623.99	5.548
624.32	5.623
624.65	5.662
624.99	5.544
625.32	6.146
625.65	5.241
625.98	4.881
626.31	5.712
626.64	5.467
626.97	5.126
627.30	5.357
627.63	6.279
627.96	5.399
628.29	5.446
628.62	5.560
628.95	6.915
629.28	5.784
629.61	6.063
629.94	6.828
630.26	7.539
630.59	7.270
630.92	5.471
631.25	6.346
631.58	6.557
631.91	5.899
632.24	5.248
632.57	6.287
632.90	7.246
633.23	8.080
633.56	6.533
633.89	7.503
634.22	7.535
634.55	7.097
634.88	7.448
635.20	6.278
635.53	7.085
635.86	7.159
636.19	6.510
636.52	6.811
636.85	6.580
637.18	7.801
637.51	6.816
637.83	5.034
638.16	7.268
638.49	6.347
638.82	6.103
639.15	6.580
639.48	9.479
639.81	7.814
640.13	6.994
640.46	8.091
640.79	7.022
641.12	6.562
641.45	6.598
641.77	6.737
642.10	6.961
642.43	8.250
642.76	7.670
643.09	7.493
643.41	8.415
643.74	8.058
644.07	8.112
644.40	7.840
644.73	9.009
645.05	9.064
645.38	7.657
645.71	7.284
646.04	8.092
646.36	8.138
646.69	7.520
647.02	8.640
647.35	7.087
647.67	6.807
648.00	8.306
648.33	8.571
648.66	7.424
648.98	6.667
649.31	8.232
649.64	5.394
649.96	6.117
650.29	6.429
650.62	7.953
650.94	8.735
651.27	9.888
651.60	8.764
651.92	8.602
652.25	7.717
652.58	9.362
652.90	7.485
653.23	6.204
653.56	7.864
653.88	7.636
654.21	8.065
654.54	7.467
654.86	8.260
655.19	7.520
655.52	5.877
655.84	3.229
656.17	3.369
656.49	4.608
656.82	5.449
657.15	4.496
657.47	3.410
657.80	2.461
658.13	2.044
658.45	2.935
658.78	3.622
659.10	3.866
659.43	4.292
659.75	4.514
660.08	5.388
660.41	6.261
660.73	7.779
661.06	8.859
661.38	11.244
661.71	8.813
662.03	8.365
662.36	9.714
662.68	8.194
663.01	10.991
663.33	7.736
663.66	9.467
663.98	9.921
664.31	12.873
664.63	10.345
664.96	9.756
665.28	9.040
665.61	8.679
665.93	9.623
666.26	8.972
666.58	11.376
666.91	8.687
667.23	10.643
667.56	11.088
667.88	10.581
668.21	9.221
668.53	10.484
668.86	10.621
669.18	11.405
669.50	7.438
669.83	9.240
670.15	10.603
670.48	8.203
670.80	9.761
671.13	8.566
671.45	9.419
671.77	12.430
672.10	9.695
672.42	8.717
672.75	10.443
673.07	8.108
673.39	7.029
673.72	7.785
674.04	7.706
674.37	10.163
674.69	9.851
675.01	8.209
675.34	7.752
675.66	9.375
675.98	9.073
676.31	9.000
676.63	8.151
676.95	11.508
677.28	9.128
677.60	9.256
677.92	8.333
678.25	9.690
678.57	8.752
678.89	9.042
679.22	10.662
679.54	8.897
679.86	10.646
680.18	8.084
680.51	7.463
680.83	8.615
681.15	8.146
681.48	9.896
681.80	8.932
682.12	9.516
682.44	9.550
682.77	9.609
683.09	10.485
683.41	10.816
683.73	11.811
684.06	11.905
684.38	9.496
684.70	8.094
685.02	6.944
685.34	8.627
685.67	9.325
685.99	8.046
686.31	8.783
686.63	7.967
686.96	8.660
687.28	9.060
687.60	8.020
687.92	9.045
688.24	11.034
688.56	9.431
688.89	7.457
689.21	8.285
689.53	10.277
689.85	8.130
690.17	9.709
690.49	9.677
690.82	9.244
691.14	9.091
691.46	10.472
691.78	10.916
692.10	7.824
692.42	9.437
692.74	10.078
693.06	12.209
693.39	7.905
693.71	7.859
694.03	10.454
694.35	11.245
694.67	12.016
694.99	10.865
695.31	12.613
695.63	12.896
695.95	5.656
696.27	10.619
696.59	10.740
696.91	10.633
697.23	11.312
697.56	10.373
697.88	5.988
698.20	10.189
698.52	8.560
698.84	10.472
699.16	11.301
699.48	10.169
699.80	11.983
700.12	11.547
700.44	11.449
700.76	13.126
701.08	9.922
701.40	11.169
701.72	13.102
702.04	13.279
702.36	12.903
702.68	11.436
703.00	9.524
703.32	11.663
703.64	12.343
703.96	10.937
704.28	11.905
704.60	9.577
704.91	11.485
705.23	11.648
705.55	15.430
705.87	11.429
706.19	12.539
706.51	17.868
706.83	10.324
707.15	13.904
707.47	13.801
707.79	10.575
708.11	10.431
708.43	11.011
708.74	11.312
709.06	10.930
709.38	13.648
709.70	10.899
710.02	10.326
710.34	11.326
710.66	15.000
710.98	14.481
711.29	11.421
711.61	15.042
711.93	11.550
712.25	15.060
712.57	12.862
712.89	13.939
713.20	13.099
713.52	10.903
713.84	16.012
714.16	8.696
714.48	11.239
714.80	12.466
715.11	11.436
715.43	10.056
715.75	12.394
716.07	13.584
716.39	11.143
716.70	12.150
717.02	12.458
717.34	17.986
717.66	15.278
717.97	14.773
718.29	13.380
718.61	10.473
718.93	14.187
719.24	15.101
719.56	13.103
719.88	8.917
720.20	13.548
720.51	12.418
720.83	12.709
721.15	13.265
721.46	14.041
721.78	13.937
722.10	12.500
722.42	16.722
722.73	11.191
723.05	15.789
723.37	19.081
723.68	12.891
724.00	17.045
724.32	14.829
724.63	15.385
724.95	14.118
725.27	17.100
725.58	17.647
725.90	13.028
726.22	14.726
726.53	12.375
726.85	14.332
727.16	18.121
727.48	14.618
727.80	16.187
728.11	13.214
728.43	10.870
728.74	11.888
729.06	13.978
729.38	14.737
729.69	16.667
730.01	16.118
730.32	17.450
730.64	16.279
730.96	13.213
731.27	11.927
731.59	9.770
731.90	10.864
732.22	12.857
732.53	9.972
732.85	13.450
733.16	10.241
733.48	12.853
733.80	13.623
734.11	14.724
734.43	11.988
734.74	10.992
735.06	14.550
735.37	11.856
735.69	10.725
736.00	12.232
736.32	8.788
736.63	6.625
736.95	12.112
737.26	13.415
737.58	11.350
737.89	13.253
738.21	11.589
738.52	13.712
738.83	17.216
739.15	14.634
739.46	12.069
739.78	14.286
740.09	17.784
740.41	11.963
740.72	15.873
741.04	15.385
741.35	15.234
741.66	18.577
741.98	15.880
742.29	14.352
742.61	17.257
742.92	11.864
743.23	13.600
743.55	15.472
743.86	16.471
744.18	19.068
744.49	20.248
744.80	18.433
745.12	17.411
745.43	17.290
745.74	14.222
746.06	15.789
746.37	16.279
746.68	25.664
747.00	18.386
747.31	18.487
747.62	15.984
747.94	18.026
748.25	14.008
748.56	19.915
748.88	15.179
749.19	15.814
749.50	11.416
749.82	12.346
750.13	15.810
750.44	14.333
750.75	15.772
751.07	14.803
751.38	13.531
751.69	14.478
752.01	12.238
752.32	13.621
752.63	16.107
752.94	16.084
753.26	16.406
753.57	17.899
753.88	14.981
754.19	13.718
754.51	14.618
754.82	14.430
755.13	15.878
755.44	12.222
755.75	18.213
756.07	14.384
756.38	10.458
756.69	9.063
757.00	15.134
757.31	11.831
757.63	10.468
757.94	12.234
758.25	13.043
758.56	10.755
758.87	13.534
759.18	10.756
759.50	12.158
759.81	14.540
760.12	13.764
760.43	11.204
760.74	10.380
761.05	12.732
761.36	7.812
761.67	12.129
761.99	13.521
762.30	13.826
762.61	10.764
762.92	17.045
763.23	17.358
763.54	14.615
763.85	11.284
764.16	15.972
764.47	10.811
764.78	13.029
765.10	13.415
765.41	7.955
765.72	12.155
766.03	13.595
766.34	10.801
766.65	13.688
766.96	16.194
767.27	20.093
767.58	20.297
767.89	20.442
768.20	26.829
768.51	17.347
768.82	20.175
769.13	16.863
769.44	15.789
769.75	14.232
770.06	14.286
770.37	14.912
770.68	14.667
770.99	21.610
771.30	15.481
771.61	20.000
771.92	13.359
772.23	15.323
772.54	24.889
772.85	19.802
773.16	14.674
773.47	17.222
773.78	23.762
774.09	16.477
774.39	23.636
774.70	21.765
775.01	12.500
775.32	21.118
775.63	28.767
775.94	30.864
776.25	26.207
776.56	25.191
776.87	33.588
777.18	28.030
777.48	39.370
777.79	23.077
778.10	26.515
778.41	31.343
778.72	15.789
779.03	17.949
779.34	24.324
779.65	19.876
779.95	22.360
780.26	19.048
780.57	28.571
780.88	29.787
781.19	22.500
781.50	26.627
781.80	24.044
782.11	26.455
782.42	21.839
782.73	22.034
783.04	25.806
783.34	20.155
783.65	25.850
783.96	25.161
784.27	20.530
784.57	16.447
784.88	28.261
785.19	34.167
785.50	29.310
785.81	36.434
786.11	28.889
786.42	27.559
786.73	32.432
787.04	34.906
787.34	34.959
787.65	32.576
787.96	26.515
788.26	31.496
788.57	29.927
788.88	28.873
789.19	25.954
789.49	25.676
789.80	32.813
790.11	19.835
790.41	25.926
790.72	26.852
791.03	39.423
791.33	29.293
791.64	38.947
791.95	44.211
792.25	32.292
792.56	35.000
792.87	36.585
793.17	39.773
793.48	31.765
793.79	41.379
794.09	31.818
794.40	38.793
794.70	30.952
795.01	23.846
795.32	30.534
795.62	25.641
795.93	39.496
796.23	29.268
796.54	40.816
796.85	39.773
797.15	49.351
797.46	54.878
797.76	41.250
798.07	41.333
798.37	41.250
798.68	42.500
798.99	54.878
799.29	46.667
799.60	44.186
799.90	44.737
800.21	59.091
800.51	47.887
800.82	63.793
801.12	61.538
801.43	50.667
801.73	36.207
802.04	44.156
802.34	50.685
802.65	60.784
802.95	23.913
803.26	53.226
803.56	70.000
803.87	56.716
804.17	47.619
804.48	45.283
804.78	52.778
805.09	60.606
805.39	50.794
805.70	47.368
806.00	51.429
806.30	56.250
806.61	55.294
806.91	41.111
807.22	31.522
807.52	42.105
807.83	59.211
808.13	36.232
808.43	72.581
808.74	45.205
809.04	37.500
809.35	47.059
809.65	54.545
809.95	66.667
810.26	74.074
810.56	57.812
810.86	83.673
811.17	66.667
811.47	39.130
811.77	56.897
812.08	62.069
812.38	80.952
812.69	73.810
812.99	53.333
813.29	85.714
813.59	119.355
813.90	60.345
814.20	57.377
814.50	52.000
814.81	43.860
815.11	62.963
815.41	60.714
815.72	78.571
816.02	66.000
816.32	70.732
816.62	74.138
816.93	106.061
817.23	97.561
817.53	80.357
817.84	73.333
818.14	64.286
818.44	47.917
818.74	92.453
819.04	61.538
819.35	115.152
819.65	84.615
819.95	100.000
820.25	78.723
820.56	100.000
820.86	76.316
821.16	65.957
821.46	73.684
821.76	74.545
822.07	69.048
822.37	50.000
822.67	104.651
822.97	63.158
823.27	93.478
823.57	90.625
823.88	100.000
824.18	78.788
824.48	147.826
824.78	86.111
825.08	130.435
825.38	134.483
825.69	114.706
825.99	68.085
826.29	66.667
826.59	85.714
826.89	143.333
827.19	100.000
827.49	109.677
827.79	115.385
828.09	80.952
828.39	69.444
828.70	70.270
829.00	135.714
829.30	181.250
829.60	75.000
829.90	106.452
830.20	100.000
830.50	100.000
830.80	125.000
831.10	142.308
831.40	114.286
831.70	154.167
832.00	150.000
832.30	152.174
832.60	154.167
832.90	139.394
833.20	175.000
833.50	113.158
833.80	76.471
834.10	94.737
834.40	131.579
834.70	123.333
835.00	120.000
835.30	100.000
835.60	131.250
835.90	108.108
836.20	165.385
836.50	118.182
836.80	112.195
837.10	100.000
837.40	253.846
837.70	136.842
838.00	123.333
838.30	154.167
838.60	124.000
838.90	340.000
839.19	137.500
839.49	143.333
839.79	113.793
840.09	111.538
840.39	240.000
840.69	131.579
840.99	80.952
841.29	130.435
841.59	175.000
841.88	128.000
842.18	322.222
842.48	125.000
842.78	159.259
843.08	161.538
843.38	131.818
843.68	185.714
843.97	371.429
844.27	147.826
844.57	1200.000
844.87	271.429
845.17	188.889
845.47	95.238
845.76	133.333
846.06	485.714
846.36	152.941
846.66	176.923
846.96	162.500
847.25	253.846
847.55	126.316
847.85	244.444
848.15	540.000
848.44	227.273
848.74	171.429
849.04	158.333
849.34	147.059
849.63	225.000
849.93	300.000
850.23	700.000
850.53	375.000
850.82	381.818
851.12	200.000
851.42	141.667
851.71	175.000
852.01	0.000
852.31	135.294
852.61	350.000
852.90	158.333
853.20	233.333
853.50	-1800.000
853.79	124.000
854.09	93.750
854.39	106.897
854.68	141.379
854.98	195.238
855.28	100.000
855.57	221.429
855.87	172.222
856.17	107.407
856.46	163.158
856.76	122.581
857.05	276.471
857.35	372.727
857.65	223.077
857.94	130.000
858.24	288.889
858.53	235.714
858.83	585.714
859.13	134.783
859.42	333.333
859.72	325.000
860.01	183.333
860.31	900.000
860.60	310.000
860.90	412.500
861.20	292.308
861.49	428.571
861.79	-1400.000
862.08	357.143
862.38	311.111
862.67	228.571
862.97	330.000
863.26	130.000
863.56	600.000
863.85	261.538
864.15	188.235
864.44	177.778
864.74	333.333
865.03	290.909
865.33	362.500
865.62	220.000
865.92	416.667
866.21	900.000
866.51	480.000
866.80	222.222
867.10	566.667
867.39	2900.000
867.69	700.000
867.98	525.000
868.27	161.905
868.57	246.667
868.86	825.000
869.16	119.048
869.45	3600.000
869.75	-383.333
870.04	850.000
870.33	560.000
870.63	400.000
870.92	141.176
871.22	825.000
871.51	414.286
871.80	316.667
872.10	261.538
>>>>>End Processed Spectral Data<<<<<
