SpectraSuite Data File
++++++++++++++++++++++++++++++++++++
Date: Tue May 12 17:08:14 PDT 2015
User: schluterlab
Dark Spectrum Present: Yes
Reference Spectrum Present: Yes
Number of Sampled Component Spectra: 1
Spectrometers: USB2E3373
Integration Time (usec): 3000 (USB2E3373)
Spectra Averaged: 3 (USB2E3373)
Boxcar Smoothing: 0 (USB2E3373)
Correct for Electrical Dark: No (USB2E3373)
Strobe/Lamp Enabled: No (USB2E3373)
Correct for Detector Non-linearity: No (USB2E3373)
Correct for Stray Light: No (USB2E3373)
Number of Pixels in Processed Spectrum: 2048
>>>>>Begin Processed Spectral Data<<<<<
178.53	0.000
178.91	-233.333
179.29	-675.000
179.67	-3800.000
180.04	-133.333
180.42	725.000
180.80	1200.000
181.18	0.000
181.56	-312.500
181.94	0.000
182.31	1266.667
182.69	-3300.000
183.07	500.000
183.45	-3100.000
183.83	-1700.000
184.20	370.000
184.58	471.429
184.96	-284.615
185.34	-233.333
185.72	1450.000
186.09	-775.000
186.47	-2600.000
186.85	1100.000
187.23	640.000
187.61	1750.000
187.98	500.000
188.36	271.429
188.74	325.000
189.12	308.333
189.49	800.000
189.87	0.000
190.25	450.000
190.63	2500.000
191.00	-175.000
191.38	-3200.000
191.76	-625.000
192.14	637.500
192.51	-2400.000
192.89	1750.000
193.27	1266.667
193.65	-1166.667
194.02	-760.000
194.40	500.000
194.78	-228.571
195.15	246.667
195.53	-2800.000
195.91	-600.000
196.29	4500.000
196.66	287.500
197.04	700.000
197.42	-1350.000
197.79	650.000
198.17	308.333
198.55	0.000
198.92	471.429
199.30	1166.667
199.68	1550.000
200.05	600.000
200.43	-433.333
200.81	188.889
201.18	3700.000
201.56	316.667
201.94	-550.000
202.31	-275.000
202.69	-500.000
203.07	3100.000
203.44	-500.000
203.82	283.333
204.19	440.000
204.57	-1500.000
204.95	-625.000
205.32	-660.000
205.70	533.333
206.08	675.000
206.45	-633.333
206.83	344.444
207.20	189.474
207.58	316.667
207.96	840.000
208.33	0.000
208.71	714.286
209.08	840.000
209.46	-3400.000
209.84	-800.000
210.21	700.000
210.59	-380.000
210.96	241.667
211.34	-675.000
211.71	409.091
212.09	925.000
212.46	1550.000
212.84	-550.000
213.22	444.444
213.59	-2400.000
213.97	330.000
214.34	850.000
214.72	1200.000
215.09	966.667
215.47	-2300.000
215.84	-290.000
216.22	-275.000
216.59	0.000
216.97	0.000
217.34	1650.000
217.72	-1250.000
218.09	866.667
218.47	400.000
218.84	875.000
219.22	1066.667
219.59	800.000
219.97	600.000
220.34	322.222
220.72	1150.000
221.09	2200.000
221.47	216.667
221.84	1200.000
222.22	250.000
222.59	244.444
222.97	214.286
223.34	243.750
223.72	-1750.000
224.09	1000.000
224.46	246.154
224.84	-550.000
225.21	400.000
225.59	273.333
225.96	1033.333
226.34	-820.000
226.71	-750.000
227.08	-400.000
227.46	0.000
227.83	-633.333
228.21	-1850.000
228.58	308.333
228.95	850.000
229.33	411.111
229.70	775.000
230.08	346.154
230.45	3500.000
230.82	-850.000
231.20	-733.333
231.57	-1033.333
231.95	540.000
232.32	341.667
232.69	500.000
233.07	200.000
233.44	-1000.000
233.81	266.667
234.19	148.148
234.56	187.500
234.93	152.941
235.31	190.000
235.68	237.500
236.05	139.286
236.43	140.741
236.80	200.000
237.17	117.241
237.55	96.875
237.92	105.000
238.29	96.970
238.67	96.875
239.04	92.683
239.41	62.500
239.79	70.000
240.16	54.167
240.53	44.262
240.91	52.174
241.28	67.797
241.65	42.424
242.02	59.155
242.40	42.857
242.77	31.868
243.14	24.051
243.51	50.505
243.89	35.514
244.26	32.710
244.63	36.634
245.00	38.532
245.38	18.644
245.75	25.000
246.12	29.630
246.49	26.241
246.87	14.754
247.24	27.333
247.61	24.375
247.98	23.810
248.36	15.758
248.73	27.551
249.10	14.881
249.47	19.500
249.84	17.413
250.22	14.054
250.59	18.500
250.96	17.722
251.33	13.023
251.70	15.625
252.08	16.387
252.45	15.538
252.82	16.350
253.19	14.229
253.56	13.077
253.94	14.130
254.31	13.566
254.68	12.195
255.05	10.690
255.42	10.949
255.79	13.681
256.16	12.203
256.54	13.312
256.91	11.765
257.28	10.702
257.65	10.972
258.02	9.735
258.39	11.175
258.76	13.333
259.14	6.000
259.51	10.496
259.88	8.207
260.25	6.044
260.62	13.151
260.99	8.540
261.36	10.864
261.73	9.043
262.10	8.639
262.47	10.000
262.85	7.733
263.22	9.769
263.59	9.974
263.96	9.023
264.33	9.630
264.70	8.845
265.07	8.780
265.44	10.550
265.81	8.726
266.18	9.382
266.55	8.511
266.92	8.054
267.29	7.895
267.66	7.623
268.03	7.399
268.40	7.611
268.77	9.692
269.14	4.555
269.51	8.018
269.88	7.347
270.25	6.911
270.62	7.725
270.99	8.722
271.36	8.943
271.73	7.128
272.10	6.667
272.47	6.548
272.84	6.786
273.21	7.645
273.58	7.287
273.95	4.723
274.32	7.977
274.69	9.252
275.06	8.743
275.43	8.046
275.80	8.868
276.17	7.537
276.54	9.533
276.91	8.769
277.28	6.204
277.65	6.827
278.02	6.618
278.39	6.835
278.76	8.276
279.13	5.694
279.50	6.727
279.87	5.773
280.23	4.420
280.60	7.664
280.97	6.897
281.34	6.271
281.71	7.478
282.08	7.863
282.45	6.926
282.82	6.522
283.19	8.426
283.56	5.455
283.92	7.492
284.29	4.992
284.66	6.387
285.03	6.633
285.40	5.124
285.77	3.395
286.14	5.882
286.51	6.442
286.87	5.222
287.24	4.054
287.61	5.167
287.98	5.970
288.35	6.074
288.72	6.677
289.08	5.856
289.45	7.012
289.82	5.938
290.19	5.564
290.56	8.879
290.93	5.324
291.29	5.801
291.66	4.944
292.03	6.452
292.40	7.317
292.77	5.989
293.13	6.847
293.50	4.588
293.87	5.014
294.24	6.993
294.60	5.787
294.97	6.573
295.34	5.843
295.71	5.913
296.08	6.400
296.44	5.591
296.81	6.203
297.18	5.196
297.55	6.773
297.91	5.419
298.28	6.280
298.65	5.153
299.02	5.790
299.38	7.674
299.75	5.732
300.12	7.569
300.48	7.728
300.85	6.436
301.22	7.558
301.59	6.722
301.95	6.301
302.32	6.519
302.69	7.127
303.05	9.091
303.42	6.390
303.79	8.017
304.15	5.611
304.52	6.871
304.89	7.356
305.25	6.563
305.62	7.569
305.99	6.522
306.35	7.474
306.72	7.804
307.09	7.143
307.45	7.075
307.82	7.613
308.19	7.113
308.55	7.900
308.92	7.753
309.29	8.481
309.65	9.316
310.02	8.824
310.38	9.073
310.75	7.329
311.12	8.238
311.48	9.846
311.85	8.206
312.22	9.456
312.58	8.260
312.95	8.447
313.31	8.989
313.68	8.724
314.05	9.615
314.41	9.218
314.78	9.848
315.14	8.531
315.51	10.028
315.87	8.759
316.24	9.337
316.61	10.922
316.97	9.450
317.34	11.231
317.70	11.940
318.07	10.765
318.43	11.775
318.80	11.033
319.16	10.315
319.53	10.354
319.89	10.573
320.26	12.477
320.62	12.088
320.99	11.821
321.35	11.967
321.72	11.575
322.08	11.634
322.45	11.626
322.81	12.992
323.18	13.233
323.54	13.066
323.91	13.418
324.27	12.997
324.64	12.543
325.00	13.017
325.37	14.418
325.73	12.985
326.10	14.002
326.46	13.625
326.83	13.840
327.19	13.655
327.56	13.658
327.92	14.672
328.29	15.548
328.65	14.726
329.01	14.286
329.38	15.059
329.74	13.749
330.11	13.727
330.47	15.601
330.84	13.719
331.20	15.313
331.56	16.149
331.93	15.056
332.29	13.350
332.66	15.051
333.02	15.034
333.38	14.049
333.75	15.763
334.11	14.681
334.48	15.983
334.84	14.865
335.20	14.970
335.57	14.610
335.93	15.980
336.29	14.594
336.66	15.437
337.02	14.371
337.38	13.929
337.75	15.034
338.11	14.768
338.47	14.056
338.84	14.733
339.20	14.805
339.56	14.886
339.93	14.883
340.29	13.950
340.65	14.082
341.02	14.079
341.38	13.793
341.74	14.535
342.11	12.938
342.47	14.766
342.83	15.915
343.20	14.228
343.56	12.947
343.92	13.790
344.28	13.716
344.65	14.425
345.01	13.968
345.37	13.141
345.73	13.571
346.10	13.625
346.46	13.636
346.82	12.886
347.19	13.679
347.55	13.193
347.91	13.293
348.27	12.626
348.63	13.370
349.00	13.252
349.36	13.230
349.72	13.991
350.08	14.829
350.45	12.567
350.81	13.761
351.17	12.866
351.53	12.240
351.89	13.442
352.26	13.379
352.62	13.273
352.98	13.880
353.34	13.790
353.70	12.844
354.07	13.308
354.43	13.902
354.79	12.680
355.15	12.940
355.51	11.556
355.87	13.554
356.24	13.626
356.60	13.927
356.96	13.571
357.32	14.017
357.68	13.363
358.04	13.146
358.40	12.744
358.77	13.373
359.13	12.312
359.49	12.602
359.85	12.956
360.21	12.556
360.57	13.431
360.93	12.915
361.29	13.131
361.66	12.528
362.02	12.287
362.38	12.193
362.74	13.022
363.10	12.833
363.46	12.500
363.82	11.641
364.18	12.518
364.54	12.089
364.90	12.851
365.26	12.769
365.62	12.155
365.98	11.356
366.35	11.379
366.71	11.728
367.07	11.945
367.43	12.559
367.79	11.569
368.15	10.991
368.51	11.785
368.87	11.549
369.23	11.365
369.59	11.666
369.95	12.168
370.31	10.609
370.67	12.353
371.03	11.695
371.39	11.981
371.75	11.305
372.11	11.421
372.47	12.671
372.83	11.761
373.19	12.200
373.55	11.065
373.91	10.497
374.27	12.302
374.63	10.441
374.99	10.849
375.35	11.962
375.71	11.675
376.07	11.273
376.42	10.486
376.78	11.625
377.14	11.206
377.50	10.986
377.86	10.570
378.22	11.578
378.58	11.562
378.94	10.622
379.30	10.431
379.66	11.078
380.02	11.672
380.38	10.304
380.74	10.957
381.09	11.449
381.45	10.636
381.81	10.934
382.17	10.562
382.53	10.858
382.89	10.940
383.25	10.657
383.61	10.144
383.97	10.378
384.32	10.729
384.68	11.289
385.04	10.258
385.40	10.735
385.76	10.591
386.12	11.255
386.48	10.274
386.83	10.208
387.19	10.836
387.55	10.777
387.91	11.259
388.27	10.708
388.62	11.444
388.98	9.971
389.34	10.410
389.70	9.670
390.06	10.610
390.42	10.549
390.77	10.504
391.13	11.044
391.49	10.103
391.85	11.138
392.20	10.787
392.56	10.275
392.92	9.770
393.28	9.641
393.64	9.174
393.99	10.196
394.35	10.712
394.71	9.710
395.07	9.976
395.42	9.895
395.78	10.611
396.14	10.542
396.50	10.168
396.85	10.183
397.21	10.048
397.57	9.803
397.92	9.301
398.28	9.597
398.64	9.831
399.00	9.460
399.35	9.232
399.71	9.547
400.07	8.562
400.42	10.269
400.78	10.968
401.14	9.630
401.49	9.620
401.85	10.545
402.21	9.432
402.57	9.755
402.92	9.758
403.28	9.248
403.63	10.065
403.99	9.349
404.35	10.199
404.70	9.628
405.06	8.984
405.42	8.917
405.77	9.482
406.13	9.599
406.49	8.869
406.84	8.686
407.20	9.361
407.55	9.354
407.91	10.019
408.27	9.521
408.62	9.580
408.98	8.811
409.34	8.942
409.69	9.645
410.05	8.706
410.40	8.598
410.76	8.472
411.11	9.479
411.47	9.506
411.83	8.963
412.18	8.273
412.54	9.189
412.89	8.614
413.25	9.635
413.60	9.521
413.96	9.156
414.31	8.619
414.67	9.249
415.03	9.579
415.38	9.274
415.74	8.907
416.09	9.307
416.45	9.179
416.80	9.878
417.16	9.421
417.51	9.363
417.87	9.074
418.22	8.748
418.58	8.981
418.93	9.280
419.29	8.256
419.64	9.328
420.00	10.143
420.35	8.304
420.71	8.518
421.06	8.593
421.42	9.039
421.77	9.217
422.12	8.931
422.48	8.423
422.83	9.654
423.19	8.531
423.54	8.557
423.90	9.060
424.25	8.861
424.61	9.634
424.96	8.300
425.31	8.210
425.67	8.530
426.02	8.245
426.38	8.110
426.73	8.329
427.09	9.431
427.44	8.441
427.79	8.290
428.15	8.898
428.50	8.686
428.85	8.818
429.21	9.022
429.56	8.724
429.92	8.652
430.27	8.853
430.62	8.468
430.98	8.533
431.33	8.115
431.68	7.901
432.04	8.381
432.39	9.056
432.74	9.660
433.10	8.195
433.45	8.673
433.80	9.266
434.16	8.565
434.51	8.566
434.86	8.438
435.22	8.536
435.57	9.010
435.92	9.163
436.28	8.871
436.63	8.968
436.98	8.671
437.34	9.132
437.69	8.007
438.04	9.409
438.39	8.815
438.75	8.742
439.10	8.095
439.45	8.875
439.81	8.849
440.16	8.476
440.51	9.234
440.86	9.060
441.22	9.091
441.57	8.399
441.92	7.947
442.27	8.351
442.63	8.994
442.98	8.459
443.33	8.945
443.68	7.847
444.03	8.812
444.39	8.569
444.74	8.489
445.09	8.373
445.44	8.927
445.79	8.236
446.15	8.842
446.50	8.439
446.85	8.466
447.20	7.711
447.55	8.157
447.91	8.950
448.26	8.573
448.61	8.347
448.96	8.551
449.31	9.076
449.66	9.247
450.02	8.320
450.37	8.551
450.72	9.146
451.07	8.959
451.42	8.832
451.77	8.992
452.12	8.338
452.47	8.080
452.83	8.620
453.18	8.589
453.53	8.703
453.88	8.686
454.23	9.181
454.58	8.625
454.93	8.706
455.28	8.568
455.63	8.924
455.98	9.024
456.34	8.936
456.69	8.902
457.04	8.532
457.39	8.286
457.74	9.347
458.09	7.917
458.44	9.200
458.79	8.753
459.14	8.129
459.49	8.381
459.84	8.533
460.19	9.096
460.54	9.630
460.89	9.595
461.24	8.992
461.59	8.787
461.94	8.215
462.29	9.039
462.64	8.982
462.99	8.957
463.34	9.462
463.69	9.861
464.04	9.269
464.39	8.414
464.74	8.206
465.09	8.880
465.44	7.780
465.79	8.492
466.14	7.949
466.49	8.030
466.84	8.417
467.19	9.373
467.54	7.988
467.89	9.272
468.24	8.743
468.59	8.036
468.94	8.877
469.29	8.491
469.64	8.939
469.99	10.026
470.34	8.982
470.68	8.690
471.03	9.139
471.38	8.874
471.73	8.361
472.08	8.937
472.43	8.504
472.78	8.963
473.13	8.636
473.48	9.535
473.83	8.245
474.17	7.781
474.52	8.768
474.87	8.016
475.22	8.567
475.57	8.499
475.92	7.511
476.27	7.018
476.61	8.097
476.96	8.516
477.31	9.563
477.66	8.213
478.01	8.200
478.36	7.827
478.70	7.643
479.05	7.427
479.40	7.688
479.75	8.640
480.10	8.180
480.45	7.563
480.79	8.018
481.14	7.466
481.49	7.228
481.84	7.740
482.19	7.904
482.53	7.642
482.88	7.796
483.23	7.578
483.58	7.585
483.92	7.998
484.27	7.663
484.62	7.598
484.97	7.674
485.31	7.325
485.66	6.537
486.01	6.417
486.36	6.199
486.70	6.362
487.05	6.437
487.40	6.410
487.75	6.924
488.09	7.159
488.44	7.489
488.79	7.289
489.13	7.204
489.48	7.351
489.83	7.048
490.17	7.845
490.52	7.924
490.87	7.328
491.22	7.314
491.56	8.213
491.91	7.482
492.26	7.439
492.60	7.517
492.95	7.340
493.30	7.871
493.64	7.637
493.99	7.871
494.34	7.351
494.68	7.393
495.03	7.858
495.37	8.375
495.72	7.786
496.07	7.592
496.41	7.255
496.76	7.640
497.11	8.226
497.45	7.847
497.80	7.739
498.14	7.721
498.49	7.707
498.84	7.570
499.18	6.718
499.53	7.763
499.87	7.547
500.22	7.140
500.56	7.242
500.91	7.839
501.26	7.901
501.60	6.694
501.95	6.989
502.29	7.244
502.64	7.455
502.98	7.337
503.33	7.572
503.67	7.682
504.02	7.165
504.36	7.059
504.71	7.474
505.06	7.227
505.40	7.581
505.75	7.484
506.09	8.539
506.44	7.190
506.78	7.136
507.13	7.271
507.47	7.375
507.82	7.689
508.16	8.084
508.51	7.150
508.85	7.265
509.19	7.538
509.54	7.178
509.88	7.708
510.23	7.941
510.57	7.143
510.92	7.343
511.26	7.380
511.61	7.287
511.95	7.815
512.30	7.900
512.64	7.321
512.98	7.688
513.33	7.992
513.67	7.509
514.02	7.273
514.36	6.594
514.70	7.093
515.05	6.926
515.39	6.963
515.74	8.037
516.08	7.571
516.42	8.579
516.77	7.680
517.11	7.787
517.46	7.974
517.80	7.155
518.14	7.887
518.49	7.166
518.83	7.198
519.17	7.377
519.52	8.028
519.86	7.466
520.20	8.274
520.55	7.575
520.89	7.701
521.23	7.535
521.58	7.688
521.92	7.114
522.26	7.346
522.61	7.368
522.95	7.868
523.29	7.661
523.64	7.688
523.98	8.040
524.32	7.382
524.66	8.348
525.01	7.396
525.35	6.718
525.69	8.128
526.04	7.615
526.38	7.593
526.72	7.160
527.06	7.983
527.41	8.283
527.75	8.278
528.09	7.225
528.43	8.298
528.78	8.229
529.12	7.405
529.46	7.306
529.80	7.185
530.15	8.014
530.49	6.799
530.83	7.861
531.17	7.073
531.51	8.032
531.86	7.669
532.20	7.602
532.54	7.094
532.88	8.182
533.22	8.105
533.57	7.322
533.91	7.517
534.25	7.098
534.59	7.485
534.93	7.679
535.27	7.228
535.62	6.418
535.96	6.678
536.30	7.313
536.64	7.267
536.98	6.923
537.32	9.000
537.66	6.696
538.01	7.616
538.35	8.297
538.69	7.706
539.03	7.338
539.37	6.857
539.71	7.654
540.05	6.708
540.39	7.044
540.73	7.595
541.07	6.775
541.42	7.836
541.76	8.076
542.10	7.275
542.44	8.416
542.78	7.300
543.12	7.055
543.46	7.707
543.80	7.331
544.14	7.740
544.48	6.752
544.82	7.095
545.16	6.375
545.50	7.806
545.84	7.765
546.18	8.127
546.52	7.279
546.86	7.930
547.20	6.848
547.54	7.853
547.88	8.212
548.22	7.104
548.56	8.132
548.90	8.126
549.24	6.633
549.58	7.796
549.92	7.662
550.26	7.843
550.60	6.919
550.94	7.463
551.28	8.069
551.62	8.345
551.96	7.365
552.30	6.460
552.64	7.638
552.98	6.959
553.32	7.106
553.66	7.036
554.00	7.143
554.34	7.057
554.68	8.401
555.02	6.857
555.36	7.380
555.69	7.395
556.03	6.561
556.37	7.584
556.71	7.823
557.05	6.291
557.39	7.267
557.73	7.412
558.07	7.176
558.41	7.951
558.75	8.276
559.08	7.577
559.42	7.659
559.76	6.985
560.10	6.882
560.44	7.167
560.78	7.225
561.12	6.612
561.45	6.821
561.79	6.492
562.13	7.012
562.47	6.814
562.81	6.636
563.15	6.141
563.48	6.398
563.82	6.925
564.16	7.338
564.50	7.113
564.84	7.295
565.17	7.427
565.51	6.219
565.85	6.971
566.19	6.548
566.52	5.776
566.86	6.888
567.20	6.742
567.54	6.004
567.88	7.094
568.21	6.440
568.55	6.323
568.89	6.387
569.23	5.393
569.56	5.751
569.90	5.929
570.24	5.690
570.57	5.419
570.91	5.086
571.25	5.308
571.59	5.104
571.92	5.086
572.26	4.663
572.60	5.026
572.93	5.377
573.27	5.026
573.61	4.602
573.95	5.204
574.28	5.065
574.62	4.774
574.96	4.679
575.29	4.845
575.63	4.923
575.97	4.284
576.30	4.606
576.64	4.451
576.98	5.085
577.31	5.241
577.65	4.873
577.98	4.503
578.32	4.693
578.66	4.705
578.99	5.140
579.33	5.074
579.67	4.593
580.00	4.563
580.34	4.806
580.67	4.944
581.01	5.003
581.35	4.651
581.68	4.467
582.02	4.552
582.35	4.300
582.69	4.597
583.02	4.505
583.36	4.598
583.70	4.980
584.03	4.872
584.37	4.947
584.70	5.076
585.04	4.449
585.37	4.351
585.71	4.742
586.04	4.703
586.38	4.477
586.72	4.505
587.05	4.709
587.39	4.728
587.72	4.977
588.06	4.495
588.39	4.759
588.73	4.495
589.06	5.077
589.40	4.695
589.73	5.146
590.07	5.045
590.40	5.470
590.73	5.913
591.07	5.351
591.40	5.549
591.74	5.032
592.07	4.867
592.41	5.516
592.74	4.980
593.08	4.753
593.41	4.638
593.75	4.978
594.08	5.174
594.41	4.855
594.75	4.966
595.08	5.110
595.42	5.464
595.75	5.232
596.09	5.214
596.42	4.843
596.75	5.329
597.09	5.407
597.42	5.510
597.75	4.990
598.09	4.801
598.42	5.508
598.76	5.127
599.09	5.554
599.42	4.706
599.76	4.953
600.09	4.983
600.42	4.765
600.76	4.861
601.09	4.798
601.42	4.822
601.76	4.905
602.09	5.740
602.42	5.065
602.76	5.503
603.09	5.166
603.42	5.138
603.76	4.917
604.09	4.596
604.42	4.783
604.76	5.176
605.09	5.306
605.42	5.607
605.75	4.935
606.09	5.203
606.42	4.961
606.75	5.286
607.09	5.211
607.42	5.102
607.75	5.414
608.08	5.199
608.42	5.285
608.75	4.964
609.08	4.795
609.41	5.591
609.75	6.090
610.08	5.171
610.41	5.314
610.74	5.671
611.07	5.457
611.41	5.561
611.74	5.497
612.07	5.684
612.40	5.994
612.73	5.442
613.07	6.082
613.40	6.015
613.73	5.642
614.06	5.050
614.39	5.758
614.72	5.123
615.06	5.094
615.39	5.644
615.72	5.276
616.05	5.274
616.38	5.733
616.71	5.263
617.05	5.382
617.38	5.225
617.71	5.793
618.04	5.889
618.37	5.892
618.70	5.312
619.03	6.471
619.36	6.093
619.69	6.069
620.03	6.980
620.36	5.973
620.69	6.450
621.02	6.454
621.35	6.877
621.68	6.342
622.01	7.085
622.34	6.191
622.67	6.531
623.00	6.807
623.33	7.220
623.66	6.387
623.99	5.959
624.32	6.369
624.65	6.715
624.99	6.288
625.32	6.613
625.65	5.517
625.98	5.718
626.31	6.157
626.64	5.543
626.97	6.427
627.30	6.522
627.63	6.750
627.96	5.790
628.29	5.858
628.62	5.218
628.95	6.560
629.28	7.888
629.61	6.503
629.94	5.964
630.26	7.279
630.59	7.979
630.92	6.906
631.25	7.888
631.58	6.654
631.91	6.470
632.24	6.997
632.57	6.090
632.90	8.178
633.23	7.975
633.56	7.482
633.89	7.074
634.22	7.966
634.55	7.527
634.88	8.105
635.20	7.287
635.53	6.969
635.86	8.166
636.19	7.183
636.52	7.568
636.85	7.120
637.18	8.667
637.51	7.598
637.83	7.094
638.16	8.910
638.49	8.383
638.82	7.981
639.15	7.168
639.48	9.123
639.81	8.791
640.13	7.853
640.46	9.861
640.79	7.802
641.12	9.449
641.45	8.926
641.77	8.454
642.10	10.308
642.43	7.397
642.76	7.670
643.09	7.205
643.41	8.415
643.74	9.353
644.07	7.522
644.40	9.467
644.73	10.060
645.05	10.253
645.38	9.648
645.71	9.105
646.04	8.855
646.36	10.172
646.69	7.200
647.02	9.600
647.35	8.661
647.67	10.049
648.00	7.818
648.33	9.323
648.66	8.636
648.98	8.986
649.31	8.772
649.64	7.054
649.96	7.255
650.29	8.143
650.62	8.395
650.94	9.187
651.27	10.526
651.60	8.138
651.92	8.295
652.25	9.291
652.58	8.936
652.90	8.383
653.23	9.010
653.56	8.605
653.88	7.930
654.21	9.677
654.54	8.931
654.86	9.587
655.19	8.707
655.52	6.729
655.84	3.562
656.17	3.641
656.49	4.998
656.82	5.763
657.15	4.641
657.47	3.529
657.80	2.597
658.13	2.163
658.45	2.977
658.78	3.860
659.10	3.915
659.43	4.165
659.75	4.251
660.08	5.451
660.41	6.171
660.73	8.783
661.06	10.661
661.38	9.710
661.71	8.813
662.03	7.224
662.36	8.571
662.68	8.566
663.01	14.054
663.33	10.000
663.66	11.440
663.98	7.738
664.31	12.500
664.63	10.920
664.96	12.195
665.28	8.663
665.61	9.434
665.93	9.434
666.26	8.224
666.58	11.743
666.91	10.425
667.23	8.835
667.56	10.472
667.88	9.336
668.21	11.270
668.53	9.677
668.86	11.423
669.18	11.609
669.50	8.058
669.83	13.142
670.15	11.019
670.48	8.398
670.80	9.163
671.13	11.952
671.45	10.220
671.77	10.761
672.10	10.413
672.42	8.717
672.75	8.386
673.07	8.903
673.39	9.425
673.72	10.554
674.04	10.394
674.37	9.619
674.69	8.736
675.01	9.888
675.34	10.271
675.66	10.938
675.98	11.440
676.31	10.200
676.63	8.946
676.95	10.516
677.28	10.142
677.60	11.670
677.92	10.119
678.25	11.628
678.57	10.242
678.89	9.042
679.22	10.846
679.54	9.609
679.86	10.820
680.18	9.139
680.51	8.458
680.83	8.277
681.15	9.359
681.48	9.028
681.80	9.282
682.12	10.035
682.44	9.189
682.77	10.676
683.09	10.485
683.41	11.224
683.73	11.024
684.06	8.532
684.38	10.078
684.70	9.892
685.02	7.813
685.34	9.507
685.67	9.646
685.99	6.732
686.31	9.707
686.63	6.504
686.96	8.987
687.28	8.557
687.60	8.191
687.92	8.375
688.24	11.897
688.56	9.253
688.89	9.369
689.21	10.405
689.53	12.451
689.85	10.163
690.17	11.262
690.49	10.282
690.82	9.874
691.14	10.505
691.46	12.526
691.78	11.111
692.10	10.305
692.42	9.256
692.74	11.434
693.06	9.690
693.39	8.300
693.71	8.644
694.03	10.454
694.35	12.851
694.67	11.813
694.99	12.860
695.31	10.811
695.63	9.729
695.95	11.086
696.27	12.168
696.59	10.024
696.91	8.861
697.23	11.991
697.56	9.959
697.88	9.381
698.20	11.887
698.52	9.533
698.84	10.472
699.16	12.367
699.48	10.381
699.80	12.636
700.12	13.626
700.44	11.916
700.76	13.842
701.08	10.705
701.40	11.688
701.72	17.380
702.04	14.363
702.36	12.903
702.68	12.500
703.00	11.028
703.32	12.903
703.64	11.335
703.96	11.458
704.28	11.905
704.60	12.676
704.91	13.725
705.23	15.341
705.55	14.837
705.87	11.111
706.19	15.047
706.51	19.749
706.83	14.159
707.15	13.369
707.47	13.075
707.79	11.494
708.11	9.977
708.43	11.685
708.74	11.312
709.06	11.628
709.38	12.903
709.70	11.444
710.02	10.870
710.34	10.497
710.66	11.111
710.98	10.929
711.29	13.370
711.61	14.485
711.93	13.982
712.25	13.554
712.57	12.862
712.89	14.545
713.20	14.696
713.52	12.461
713.84	13.595
714.16	9.275
714.48	8.069
714.80	10.298
715.11	11.436
715.43	11.453
715.75	10.141
716.07	12.428
716.39	10.000
716.70	10.903
717.02	11.785
717.34	13.669
717.66	18.056
717.97	16.667
718.29	19.366
718.61	12.500
718.93	15.571
719.24	14.094
719.56	11.034
719.88	13.057
720.20	18.710
720.51	13.399
720.83	13.043
721.15	16.327
721.46	16.096
721.78	17.422
722.10	14.931
722.42	14.716
722.73	16.606
723.05	16.140
723.37	15.548
723.68	12.500
724.00	20.455
724.32	14.068
724.63	14.615
724.95	12.549
725.27	18.587
725.58	13.235
725.90	9.859
726.22	12.329
726.53	13.378
726.85	14.007
727.16	14.765
727.48	13.621
727.80	12.230
728.11	12.857
728.43	10.870
728.74	13.636
729.06	7.885
729.38	18.246
729.69	18.333
730.01	16.776
730.32	15.101
730.64	15.282
730.96	16.216
731.27	7.645
731.59	10.345
731.90	11.978
732.22	14.571
732.53	10.256
732.85	13.743
733.16	12.651
733.48	15.674
733.80	13.043
734.11	12.577
734.43	10.234
734.74	9.920
735.06	11.376
735.37	13.144
735.69	11.014
736.00	12.538
736.32	11.212
736.63	14.511
736.95	9.938
737.26	14.329
737.58	11.963
737.89	14.157
738.21	10.596
738.52	16.388
738.83	17.216
739.15	15.331
739.46	13.103
739.78	13.946
740.09	13.703
740.41	12.270
740.72	15.238
741.04	14.685
741.35	15.234
741.66	15.810
741.98	17.167
742.29	17.130
742.61	16.372
742.92	16.102
743.23	14.000
743.55	15.094
743.86	13.725
744.18	16.525
744.49	15.702
744.80	17.512
745.12	14.732
745.43	14.953
745.74	19.556
746.06	18.860
746.37	15.814
746.68	17.257
747.00	19.731
747.31	15.546
747.62	14.344
747.94	15.451
748.25	13.619
748.56	18.644
748.88	17.857
749.19	13.488
749.50	16.438
749.82	20.988
750.13	15.415
750.44	15.333
750.75	13.423
751.07	15.461
751.38	11.221
751.69	12.795
752.01	12.587
752.32	15.947
752.63	14.765
752.94	17.483
753.26	16.797
753.57	13.619
753.88	12.734
754.19	14.079
754.51	16.611
754.82	10.403
755.13	12.162
755.44	15.926
755.75	16.495
756.07	13.356
756.38	9.804
756.69	12.500
757.00	13.353
757.31	13.239
757.63	11.846
757.94	10.106
758.25	12.802
758.56	13.272
758.87	13.283
759.18	12.500
759.50	14.894
759.81	13.650
760.12	12.079
760.43	11.485
760.74	12.152
761.05	9.284
761.36	10.417
761.67	12.129
761.99	12.958
762.30	13.505
762.61	13.194
762.92	17.424
763.23	16.604
763.54	14.231
763.85	11.673
764.16	17.361
764.47	12.500
764.78	11.401
765.10	11.890
765.41	14.205
765.72	9.669
766.03	10.876
766.34	11.150
766.65	15.209
766.96	17.004
767.27	20.093
767.58	18.317
767.89	17.127
768.20	21.951
768.51	15.816
768.82	20.175
769.13	15.686
769.44	15.414
769.75	14.607
770.06	13.866
770.37	14.474
770.68	14.222
770.99	17.373
771.30	17.155
771.61	18.077
771.92	17.939
772.23	14.113
772.54	20.444
772.85	22.772
773.16	24.457
773.47	13.333
773.78	22.772
774.09	18.182
774.39	21.212
774.70	18.824
775.01	17.763
775.32	22.981
775.63	30.822
775.94	31.481
776.25	33.103
776.56	15.267
776.87	27.481
777.18	28.788
777.48	39.370
777.79	26.923
778.10	28.030
778.41	26.119
778.72	24.060
779.03	18.590
779.34	20.946
779.65	19.255
779.95	22.360
780.26	19.643
780.57	30.612
780.88	24.823
781.19	29.167
781.50	28.994
781.80	27.869
782.11	20.635
782.42	21.839
782.73	24.294
783.04	21.290
783.34	26.357
783.65	19.728
783.96	23.871
784.27	17.219
784.57	26.974
784.88	28.261
785.19	28.333
785.50	31.897
785.81	44.186
786.11	24.444
786.42	28.346
786.73	26.126
787.04	22.642
787.34	27.642
787.65	31.818
787.96	28.788
788.26	25.984
788.57	33.577
788.88	28.169
789.19	22.901
789.49	33.108
789.80	24.219
790.11	32.231
790.41	35.185
790.72	34.259
791.03	30.769
791.33	43.434
791.64	36.842
791.95	38.947
792.25	36.458
792.56	37.000
792.87	40.244
793.17	31.818
793.48	48.235
793.79	44.828
794.09	31.818
794.40	42.241
794.70	30.159
795.01	29.231
795.32	29.008
795.62	26.496
795.93	39.496
796.23	34.146
796.54	40.816
796.85	40.909
797.15	42.857
797.46	57.317
797.76	35.000
798.07	52.000
798.37	58.750
798.68	42.500
798.99	39.024
799.29	41.333
799.60	34.884
799.90	51.316
800.21	57.576
800.51	46.479
800.82	48.276
801.12	58.462
801.43	48.000
801.73	53.448
802.04	49.351
802.34	53.425
802.65	56.863
802.95	54.348
803.26	61.290
803.56	65.000
803.87	52.239
804.17	55.556
804.48	50.943
804.78	54.167
805.09	62.121
805.39	61.905
805.70	49.123
806.00	48.571
806.30	59.375
806.61	36.471
806.91	44.444
807.22	39.130
807.52	39.474
807.83	44.737
808.13	50.725
808.43	66.129
808.74	61.644
809.04	48.214
809.35	54.412
809.65	57.576
809.95	64.706
810.26	79.630
810.56	68.750
810.86	46.939
811.17	63.158
811.47	97.826
811.77	60.345
812.08	48.276
812.38	66.667
812.69	83.333
812.99	60.000
813.29	68.571
813.59	106.452
813.90	53.448
814.20	67.213
814.50	50.000
814.81	45.614
815.11	74.074
815.41	69.643
815.72	82.143
816.02	72.000
816.32	90.244
816.62	93.103
816.93	96.970
817.23	65.854
817.53	76.786
817.84	66.667
818.14	71.429
818.44	85.417
818.74	96.226
819.04	53.846
819.35	84.848
819.65	82.692
819.95	88.889
820.25	87.234
820.56	108.108
820.86	71.053
821.16	70.213
821.46	89.474
821.76	70.909
822.07	64.286
822.37	76.316
822.67	102.326
822.97	65.789
823.27	86.957
823.57	100.000
823.88	110.256
824.18	87.879
824.48	152.174
824.78	88.889
825.08	104.348
825.38	106.897
825.69	58.824
825.99	85.106
826.29	61.111
826.59	108.571
826.89	123.333
827.19	91.429
827.49	100.000
827.79	119.231
828.09	52.381
828.39	97.222
828.70	67.568
829.00	142.857
829.30	137.500
829.60	83.333
829.90	112.903
830.20	100.000
830.50	121.622
830.80	170.833
831.10	138.462
831.40	190.476
831.70	191.667
832.00	120.000
832.30	147.826
832.60	158.333
832.90	148.485
833.20	180.000
833.50	102.632
833.80	105.882
834.10	89.474
834.40	94.737
834.70	106.667
835.00	132.000
835.30	59.459
835.60	118.750
835.90	67.568
836.20	157.692
836.50	86.364
836.80	126.829
837.10	100.000
837.40	300.000
837.70	68.421
838.00	126.667
838.30	145.833
838.60	152.000
838.90	270.000
839.19	118.750
839.49	123.333
839.79	110.345
840.09	126.923
840.39	260.000
840.69	163.158
840.99	133.333
841.29	152.174
841.59	175.000
841.88	152.000
842.18	322.222
842.48	128.571
842.78	137.037
843.08	192.308
843.38	154.545
843.68	200.000
843.97	314.286
844.27	139.130
844.57	1700.000
844.87	257.143
845.17	233.333
845.47	138.095
845.76	166.667
846.06	385.714
846.36	164.706
846.66	253.846
846.96	193.750
847.25	169.231
847.55	152.632
847.85	166.667
848.15	480.000
848.44	290.909
848.74	138.095
849.04	187.500
849.34	223.529
849.63	206.250
849.93	237.500
850.23	766.667
850.53	337.500
850.82	145.455
851.12	170.588
851.42	166.667
851.71	231.250
852.01	0.000
852.31	211.765
852.61	330.000
852.90	125.000
853.20	300.000
853.50	-1800.000
853.79	124.000
854.09	128.125
854.39	110.345
854.68	148.276
854.98	161.905
855.28	145.161
855.57	221.429
855.87	150.000
856.17	107.407
856.46	184.211
856.76	83.871
857.05	247.059
857.35	263.636
857.65	215.385
857.94	200.000
858.24	333.333
858.53	207.143
858.83	442.857
859.13	169.565
859.42	288.889
859.72	287.500
860.01	225.000
860.31	775.000
860.60	340.000
860.90	462.500
861.20	230.769
861.49	414.286
861.79	-2700.000
862.08	528.571
862.38	300.000
862.67	214.286
862.97	290.000
863.26	126.667
863.56	675.000
863.85	230.769
864.15	194.118
864.44	188.889
864.74	250.000
865.03	309.091
865.33	475.000
865.62	206.667
865.92	500.000
866.21	850.000
866.51	540.000
866.80	194.444
867.10	1000.000
867.39	2700.000
867.69	600.000
867.98	975.000
868.27	185.714
868.57	240.000
868.86	675.000
869.16	157.143
869.45	3600.000
869.75	-350.000
870.04	675.000
870.33	540.000
870.63	462.500
870.92	200.000
871.22	775.000
871.51	357.143
871.80	258.333
872.10	323.077
>>>>>End Processed Spectral Data<<<<<
