SpectraSuite Data File
++++++++++++++++++++++++++++++++++++
Date: Tue May 12 16:40:09 PDT 2015
User: schluterlab
Dark Spectrum Present: Yes
Reference Spectrum Present: Yes
Number of Sampled Component Spectra: 1
Spectrometers: USB2E3373
Integration Time (usec): 3000 (USB2E3373)
Spectra Averaged: 3 (USB2E3373)
Boxcar Smoothing: 0 (USB2E3373)
Correct for Electrical Dark: No (USB2E3373)
Strobe/Lamp Enabled: No (USB2E3373)
Correct for Detector Non-linearity: No (USB2E3373)
Correct for Stray Light: No (USB2E3373)
Number of Pixels in Processed Spectrum: 2048
>>>>>Begin Processed Spectral Data<<<<<
178.53	0.000
178.91	-208.333
179.29	-425.000
179.67	-3200.000
180.04	-86.667
180.42	725.000
180.80	1350.000
181.18	0.000
181.56	-312.500
181.94	0.000
182.31	966.667
182.69	-2700.000
183.07	614.286
183.45	-3100.000
183.83	-1300.000
184.20	310.000
184.58	542.857
184.96	-184.615
185.34	-216.667
185.72	1550.000
186.09	-350.000
186.47	-2300.000
186.85	866.667
187.23	620.000
187.61	1650.000
187.98	412.500
188.36	271.429
188.74	325.000
189.12	291.667
189.49	750.000
189.87	0.000
190.25	462.500
190.63	2200.000
191.00	-275.000
191.38	-3200.000
191.76	-675.000
192.14	600.000
192.51	-2800.000
192.89	1400.000
193.27	900.000
193.65	-933.333
194.02	-720.000
194.40	628.571
194.78	-228.571
195.15	266.667
195.53	-3200.000
195.91	-560.000
196.29	3300.000
196.66	243.750
197.04	500.000
197.42	-1600.000
197.79	625.000
198.17	391.667
198.55	0.000
198.92	500.000
199.30	1133.333
199.68	1500.000
200.05	616.667
200.43	-333.333
200.81	205.556
201.18	3600.000
201.56	216.667
201.94	-525.000
202.31	-287.500
202.69	-380.000
203.07	3100.000
203.44	-516.667
203.82	325.000
204.19	580.000
204.57	-1300.000
204.95	-825.000
205.32	-700.000
205.70	416.667
206.08	775.000
206.45	-633.333
206.83	322.222
207.20	178.947
207.58	258.333
207.96	700.000
208.33	0.000
208.71	485.714
209.08	780.000
209.46	-2300.000
209.84	-600.000
210.21	800.000
210.59	-620.000
210.96	341.667
211.34	-700.000
211.71	390.909
212.09	825.000
212.46	1750.000
212.84	-466.667
213.22	444.444
213.59	-3100.000
213.97	400.000
214.34	975.000
214.72	900.000
215.09	933.333
215.47	-2700.000
215.84	-380.000
216.22	-375.000
216.59	0.000
216.97	0.000
217.34	1500.000
217.72	-1150.000
218.09	1100.000
218.47	400.000
218.84	625.000
219.22	900.000
219.59	800.000
219.97	542.857
220.34	444.444
220.72	1500.000
221.09	3700.000
221.47	300.000
221.84	1033.333
222.22	310.000
222.59	205.556
222.97	228.571
223.34	168.750
223.72	-1750.000
224.09	1333.333
224.46	207.692
224.84	-525.000
225.21	333.333
225.59	246.667
225.96	1233.333
226.34	-460.000
226.71	-650.000
227.08	-480.000
227.46	0.000
227.83	-533.333
228.21	-1500.000
228.58	358.333
228.95	1125.000
229.33	355.556
229.70	825.000
230.08	215.385
230.45	3300.000
230.82	-775.000
231.20	-933.333
231.57	-900.000
231.95	320.000
232.32	216.667
232.69	433.333
233.07	233.333
233.44	-1250.000
233.81	206.667
234.19	137.037
234.56	168.750
234.93	247.059
235.31	180.000
235.68	268.750
236.05	200.000
236.43	118.519
236.80	221.429
237.17	113.793
237.55	143.750
237.92	95.000
238.29	121.212
238.67	131.250
239.04	70.732
239.41	81.250
239.79	57.500
240.16	72.917
240.53	59.016
240.91	66.667
241.28	52.542
241.65	57.576
242.02	59.155
242.40	48.571
242.77	38.462
243.14	36.709
243.51	50.505
243.89	41.121
244.26	35.514
244.63	47.525
245.00	41.284
245.38	30.508
245.75	29.545
246.12	49.630
246.49	36.170
246.87	25.410
247.24	31.333
247.61	35.000
247.98	23.129
248.36	20.000
248.73	30.612
249.10	25.000
249.47	25.000
249.84	27.861
250.22	25.405
250.59	24.000
250.96	24.051
251.33	23.256
251.70	24.107
252.08	21.429
252.45	17.131
252.82	24.335
253.19	20.553
253.56	21.538
253.94	20.652
254.31	18.605
254.68	23.693
255.05	19.655
255.42	18.613
255.79	18.567
256.16	19.322
256.54	19.805
256.91	19.281
257.28	22.742
257.65	16.614
258.02	18.879
258.39	17.765
258.76	18.841
259.14	18.000
259.51	20.700
259.88	17.933
260.25	18.407
260.62	15.890
260.99	13.223
261.36	15.877
261.73	17.553
262.10	17.277
262.47	16.250
262.85	18.667
263.22	19.023
263.59	16.113
263.96	19.048
264.33	16.296
264.70	17.690
265.07	17.805
265.44	18.119
265.81	16.745
266.18	18.535
266.55	16.076
266.92	15.436
267.29	16.009
267.66	16.816
268.03	17.265
268.40	15.222
268.77	16.520
269.14	12.798
269.51	15.145
269.88	17.347
270.25	13.391
270.62	16.524
270.99	18.458
271.36	16.463
271.73	15.723
272.10	16.162
272.47	15.278
272.84	17.166
273.21	16.736
273.58	17.004
273.95	16.838
274.32	14.397
274.69	15.748
275.06	15.483
275.43	17.433
275.80	15.849
276.17	13.787
276.54	17.757
276.91	15.299
277.28	15.146
277.65	15.129
278.02	16.728
278.39	13.849
278.76	16.379
279.13	14.057
279.50	18.182
279.87	12.849
280.23	13.444
280.60	15.693
280.97	15.345
281.34	13.531
281.71	15.304
282.08	17.607
282.45	13.682
282.82	13.211
283.19	15.739
283.56	13.554
283.92	14.007
284.29	14.975
284.66	13.782
285.03	15.091
285.40	12.893
285.77	13.117
286.14	15.789
286.51	14.877
286.87	13.924
287.24	13.664
287.61	16.261
287.98	14.776
288.35	13.037
288.72	12.291
289.08	14.565
289.45	14.482
289.82	13.750
290.19	14.788
290.56	16.448
290.93	13.957
291.29	13.398
291.66	14.124
292.03	13.604
292.40	14.228
292.77	12.813
293.13	14.265
293.50	13.360
293.87	12.331
294.24	14.126
294.60	13.997
294.97	15.944
295.34	13.679
295.71	14.586
296.08	14.667
296.44	13.977
296.81	13.151
297.18	14.068
297.55	15.148
297.91	13.916
298.28	13.889
298.65	14.724
299.02	13.752
299.38	13.070
299.75	13.415
300.12	13.761
300.48	14.871
300.85	13.945
301.22	15.233
301.59	14.976
301.95	15.286
302.32	14.901
302.69	15.045
303.05	14.590
303.42	14.910
303.79	15.926
304.15	15.732
304.52	16.279
304.89	15.991
305.25	14.905
305.62	16.205
305.99	15.000
306.35	14.947
306.72	15.505
307.09	15.114
307.45	16.895
307.82	15.021
308.19	17.010
308.55	16.300
308.92	17.763
309.29	17.850
309.65	16.947
310.02	17.748
310.38	18.245
310.75	16.876
311.12	18.199
311.48	20.174
311.85	18.225
312.22	18.529
312.58	18.562
312.95	19.223
313.31	19.195
313.68	20.075
314.05	20.971
314.41	19.646
314.78	20.076
315.14	20.474
315.51	21.003
315.87	21.168
316.24	20.355
316.61	20.591
316.97	21.468
317.34	23.540
317.70	22.212
318.07	23.577
318.43	23.550
318.80	24.256
319.16	24.038
319.53	23.982
319.89	23.208
320.26	25.140
320.62	25.824
320.99	24.976
321.35	25.232
321.72	25.712
322.08	26.039
322.45	26.703
322.81	24.794
323.18	26.732
323.54	27.526
323.91	28.015
324.27	27.763
324.64	27.249
325.00	29.741
325.37	29.848
325.73	29.680
326.10	30.820
326.46	31.214
326.83	30.080
327.19	31.406
327.56	30.831
327.92	32.131
328.29	32.570
328.65	32.363
329.01	33.533
329.38	33.164
329.74	33.561
330.11	34.144
330.47	34.271
330.84	33.218
331.20	33.333
331.56	34.542
331.93	35.672
332.29	33.333
332.66	34.439
333.02	33.505
333.38	33.770
333.75	34.946
334.11	34.815
334.48	34.615
334.84	35.473
335.20	34.559
335.57	35.348
335.93	35.240
336.29	33.914
336.66	36.964
337.02	33.790
337.38	35.684
337.75	34.122
338.11	35.021
338.47	34.716
338.84	34.462
339.20	34.113
339.56	34.483
339.93	35.452
340.29	33.613
340.65	35.205
341.02	35.318
341.38	35.468
341.74	35.880
342.11	35.058
342.47	36.095
342.83	36.505
343.20	35.085
343.56	33.836
343.92	36.003
344.28	36.124
344.65	35.860
345.01	35.714
345.37	34.936
345.73	35.079
346.10	35.219
346.46	35.885
346.82	34.568
347.19	35.394
347.55	35.363
347.91	34.819
348.27	33.075
348.63	34.573
349.00	36.101
349.36	36.809
349.72	35.627
350.08	35.714
350.45	35.339
350.81	35.398
351.17	34.900
351.53	34.873
351.89	36.131
352.26	35.828
352.62	35.068
352.98	36.887
353.34	36.980
353.70	35.856
354.07	36.000
354.43	36.329
354.79	35.611
355.15	36.371
355.51	36.631
355.87	37.500
356.24	37.028
356.60	37.443
356.96	36.315
357.32	37.302
357.68	36.564
358.04	37.462
358.40	35.982
358.77	38.317
359.13	36.261
359.49	37.806
359.85	36.485
360.21	36.924
360.57	36.861
360.93	36.508
361.29	37.662
361.66	38.106
362.02	36.648
362.38	37.374
362.74	38.075
363.10	37.798
363.46	37.707
363.82	37.518
364.18	39.118
364.54	39.056
364.90	37.416
365.26	38.099
365.62	39.088
365.98	37.853
366.35	38.276
366.71	38.446
367.07	37.338
367.43	38.012
367.79	36.702
368.15	37.653
368.51	39.904
368.87	37.976
369.23	39.570
369.59	38.773
369.95	39.720
370.31	37.919
370.67	39.278
371.03	38.375
371.39	39.127
371.75	39.846
372.11	38.885
372.47	38.836
372.83	39.565
373.19	39.479
373.55	38.763
373.91	39.779
374.27	39.616
374.63	38.983
374.99	39.690
375.35	39.315
375.71	40.831
376.07	39.987
376.42	39.066
376.78	41.169
377.14	40.629
377.50	39.576
377.86	39.974
378.22	39.001
378.58	40.496
378.94	40.797
379.30	40.388
379.66	40.277
380.02	40.938
380.38	40.574
380.74	40.196
381.09	39.720
381.45	39.769
381.81	39.894
382.17	39.866
382.53	39.412
382.89	40.686
383.25	40.261
383.61	40.461
383.97	40.372
384.32	40.506
384.68	41.711
385.04	40.387
385.40	39.798
385.76	39.672
386.12	40.445
386.48	40.729
386.83	41.381
387.19	40.754
387.55	40.518
387.91	40.704
388.27	41.463
388.62	40.610
388.98	40.408
389.34	40.750
389.70	40.566
390.06	40.671
390.42	40.777
390.77	40.786
391.13	40.012
391.49	40.351
391.85	40.492
392.20	40.584
392.56	39.964
392.92	39.921
393.28	39.742
393.64	40.252
393.99	39.656
394.35	40.377
394.71	39.807
395.07	40.268
395.42	39.520
395.78	41.394
396.14	41.566
396.50	40.493
396.85	40.122
397.21	41.095
397.57	40.526
397.92	39.226
398.28	40.210
398.64	39.849
399.00	39.230
399.35	40.097
399.71	39.625
400.07	39.669
400.42	40.418
400.78	40.704
401.14	40.341
401.49	39.055
401.85	40.730
402.21	38.840
402.57	39.557
402.92	39.152
403.28	39.260
403.63	39.023
403.99	40.712
404.35	40.094
404.70	40.874
405.06	38.574
405.42	39.138
405.77	39.526
406.13	38.829
406.49	38.545
406.84	38.466
407.20	39.954
407.55	40.308
407.91	39.119
408.27	38.448
408.62	40.449
408.98	38.971
409.34	38.106
409.69	39.639
410.05	39.117
410.40	38.398
410.76	38.580
411.11	39.100
411.47	38.519
411.83	38.079
412.18	39.312
412.54	40.120
412.89	37.994
413.25	38.712
413.60	39.252
413.96	38.959
414.31	38.312
414.67	40.286
415.03	39.080
415.38	39.874
415.74	39.040
416.09	39.850
416.45	39.948
416.80	39.577
417.16	39.083
417.51	38.981
417.87	40.676
418.22	39.550
418.58	39.809
418.93	40.452
419.29	38.940
419.64	39.128
420.00	40.692
420.35	39.373
420.71	39.440
421.06	39.494
421.42	40.242
421.77	40.811
422.12	40.022
422.48	40.010
422.83	41.518
423.19	39.741
423.54	40.922
423.90	40.374
424.25	40.561
424.61	40.917
424.96	40.147
425.31	40.777
425.67	42.985
426.02	41.167
426.38	39.790
426.73	40.833
427.09	41.222
427.44	41.137
427.79	42.653
428.15	41.897
428.50	41.714
428.85	41.799
429.21	42.031
429.56	41.825
429.92	41.820
430.27	41.703
430.62	41.312
430.98	41.417
431.33	41.431
431.68	41.037
432.04	41.076
432.39	42.261
432.74	42.272
433.10	44.352
433.45	43.711
433.80	44.346
434.16	41.671
434.51	43.447
434.86	42.733
435.22	43.004
435.57	43.687
435.92	44.337
436.28	43.721
436.63	43.598
436.98	45.101
437.34	43.779
437.69	43.337
438.04	43.978
438.39	45.009
438.75	43.931
439.10	43.875
439.45	43.867
439.81	44.997
440.16	44.799
440.51	44.426
440.86	45.299
441.22	43.615
441.57	44.934
441.92	44.867
442.27	45.619
442.63	44.004
442.98	43.966
443.33	44.510
443.68	44.869
444.03	44.015
444.39	45.104
444.74	44.358
445.09	46.024
445.44	45.165
445.79	44.688
446.15	44.632
446.50	44.198
446.85	44.721
447.20	45.075
447.55	46.166
447.91	46.137
448.26	45.261
448.61	45.550
448.96	46.460
449.31	45.160
449.66	45.626
450.02	45.327
450.37	45.919
450.72	46.336
451.07	44.444
451.42	45.406
451.77	45.991
452.12	44.697
452.47	45.930
452.83	44.732
453.18	45.646
453.53	46.655
453.88	46.400
454.23	45.671
454.58	44.231
454.93	45.310
455.28	45.410
455.63	46.572
455.98	45.234
456.34	46.565
456.69	45.976
457.04	46.301
457.39	45.886
457.74	46.734
458.09	45.761
458.44	44.743
458.79	44.934
459.14	45.554
459.49	45.413
459.84	46.413
460.19	45.989
460.54	46.268
460.89	44.989
461.24	44.444
461.59	46.145
461.94	46.749
462.29	46.053
462.64	47.236
462.99	45.937
463.34	45.561
463.69	45.917
464.04	46.402
464.39	46.422
464.74	45.780
465.09	45.038
465.44	45.974
465.79	46.652
466.14	44.674
466.49	45.903
466.84	44.482
467.19	45.987
467.54	45.766
467.89	45.540
468.24	45.512
468.59	44.881
468.94	46.377
469.29	46.793
469.64	45.466
469.99	45.887
470.34	45.857
470.68	46.138
471.03	45.897
471.38	46.821
471.73	45.134
472.08	46.249
472.43	46.058
472.78	45.455
473.13	44.743
473.48	45.477
473.83	44.405
474.17	46.140
474.52	45.675
474.87	44.457
475.22	45.517
475.57	45.435
475.92	45.529
476.27	45.430
476.61	44.450
476.96	44.619
477.31	46.941
477.66	45.411
478.01	45.126
478.36	45.366
478.70	44.864
479.05	45.659
479.40	45.486
479.75	45.631
480.10	44.821
480.45	44.631
480.79	44.424
481.14	45.078
481.49	44.007
481.84	43.668
482.19	44.934
482.53	43.917
482.88	43.996
483.23	43.888
483.58	45.242
483.92	45.110
484.27	44.649
484.62	45.204
484.97	43.319
485.31	43.565
485.66	42.145
486.01	41.722
486.36	41.696
486.70	41.246
487.05	42.680
487.40	42.711
487.75	43.024
488.09	42.812
488.44	43.053
488.79	43.596
489.13	44.308
489.48	44.227
489.83	44.412
490.17	43.270
490.52	45.263
490.87	43.750
491.22	44.371
491.56	43.917
491.91	44.758
492.26	43.385
492.60	44.829
492.95	43.634
493.30	44.313
493.64	43.037
493.99	44.589
494.34	43.926
494.68	43.869
495.03	45.083
495.37	44.935
495.72	43.916
496.07	44.340
496.41	44.874
496.76	43.267
497.11	43.830
497.45	44.191
497.80	44.254
498.14	44.337
498.49	43.779
498.84	44.019
499.18	43.099
499.53	44.097
499.87	43.531
500.22	43.574
500.56	44.754
500.91	44.573
501.26	44.281
501.60	44.126
501.95	43.593
502.29	43.556
502.64	43.626
502.98	43.086
503.33	43.875
503.67	43.797
504.02	43.977
504.36	44.344
504.71	44.087
505.06	43.641
505.40	44.736
505.75	43.826
506.09	43.677
506.44	43.656
506.78	44.802
507.13	44.692
507.47	44.639
507.82	44.623
508.16	44.390
508.51	44.300
508.85	43.732
509.19	43.759
509.54	43.750
509.88	44.406
510.23	43.578
510.57	42.375
510.92	44.555
511.26	43.876
511.61	43.476
511.95	44.251
512.30	43.600
512.64	44.185
512.98	45.310
513.33	43.801
513.67	44.174
514.02	44.156
514.36	45.016
514.70	45.707
515.05	43.793
515.39	44.956
515.74	44.997
516.08	44.771
516.42	45.464
516.77	44.640
517.11	43.520
517.46	45.043
517.80	44.129
518.14	44.845
518.49	45.480
518.83	43.297
519.17	45.258
519.52	45.494
519.86	44.741
520.20	45.315
520.55	44.319
520.89	44.770
521.23	45.327
521.58	44.464
521.92	45.073
522.26	44.431
522.61	44.385
522.95	45.225
523.29	45.439
523.64	43.526
523.98	45.423
524.32	44.694
524.66	43.942
525.01	45.680
525.35	44.608
525.69	44.913
526.04	44.378
526.38	43.673
526.72	44.809
527.06	42.697
527.41	44.982
527.75	45.100
528.09	43.648
528.43	45.272
528.78	44.961
529.12	45.756
529.46	44.185
529.80	44.509
530.15	44.608
530.49	43.682
530.83	45.521
531.17	42.804
531.51	44.635
531.86	42.874
532.20	43.263
532.54	43.566
532.88	44.035
533.22	43.693
533.57	43.746
533.91	43.473
534.25	42.585
534.59	44.152
534.93	43.572
535.27	41.662
535.62	43.349
535.96	43.735
536.30	44.790
536.64	43.416
536.98	43.298
537.32	43.625
537.66	42.730
538.01	44.706
538.35	42.608
538.69	42.718
539.03	42.973
539.37	43.871
539.71	43.951
540.05	43.815
540.39	44.277
540.73	43.481
541.07	43.162
541.42	44.030
541.76	43.527
542.10	43.711
542.44	44.202
542.78	44.053
543.12	42.209
543.46	42.544
543.80	43.922
544.14	43.591
544.48	43.674
544.82	43.731
545.16	42.987
545.50	43.454
545.84	45.013
546.18	45.449
546.52	44.721
546.86	43.327
547.20	44.380
547.54	43.002
547.88	42.397
548.22	44.930
548.56	42.664
548.90	43.001
549.24	43.272
549.58	44.459
549.92	44.990
550.26	45.571
550.60	44.711
550.94	45.387
551.28	44.828
551.62	44.552
551.96	43.378
552.30	44.562
552.64	45.696
552.98	43.428
553.32	44.238
553.66	44.104
554.00	45.174
554.34	46.205
554.68	45.363
555.02	46.436
555.36	44.415
555.69	44.372
556.03	43.758
556.37	43.786
556.71	45.502
557.05	43.119
557.39	44.867
557.73	46.631
558.07	44.534
558.41	44.071
558.75	45.212
559.08	47.534
559.42	46.099
559.76	45.331
560.10	44.735
560.44	44.924
560.78	45.460
561.12	45.137
561.45	45.119
561.79	43.446
562.13	45.673
562.47	44.127
562.81	44.437
563.15	44.473
563.48	44.534
563.82	46.226
564.16	45.585
564.50	44.545
564.84	45.289
565.17	44.029
565.51	46.983
565.85	45.096
566.19	44.881
566.52	45.066
566.86	45.476
567.20	45.618
567.54	43.559
567.88	44.184
568.21	43.285
568.55	43.628
568.89	43.431
569.23	42.278
569.56	43.490
569.90	42.508
570.24	42.453
570.57	42.343
570.91	41.154
571.25	41.548
571.59	40.891
571.92	40.716
572.26	40.350
572.60	41.016
572.93	41.116
573.27	41.356
573.61	40.958
573.95	40.563
574.28	41.299
574.62	40.265
574.96	40.552
575.29	39.937
575.63	40.047
575.97	40.019
576.30	40.192
576.64	40.623
576.98	40.260
577.31	40.403
577.65	40.400
577.98	40.350
578.32	39.872
578.66	40.513
578.99	40.277
579.33	40.415
579.67	40.249
580.00	40.174
580.34	40.389
580.67	40.470
581.01	40.970
581.35	41.125
581.68	40.217
582.02	40.163
582.35	40.589
582.69	41.390
583.02	41.420
583.36	41.447
583.70	41.619
584.03	42.555
584.37	42.277
584.70	41.204
585.04	41.423
585.37	41.479
585.71	41.888
586.04	41.736
586.38	41.920
586.72	42.214
587.05	41.868
587.39	42.149
587.72	42.596
588.06	42.811
588.39	42.426
588.73	42.931
589.06	43.712
589.40	44.006
589.73	43.756
590.07	44.955
590.40	44.878
590.73	45.869
591.07	44.554
591.40	44.711
591.74	44.562
592.07	44.176
592.41	43.965
592.74	43.793
593.08	44.596
593.41	44.045
593.75	43.719
594.08	43.671
594.41	44.216
594.75	44.178
595.08	44.513
595.42	43.845
595.75	44.521
596.09	45.325
596.42	45.084
596.75	46.234
597.09	45.481
597.42	44.816
597.75	45.030
598.09	44.727
598.42	45.492
598.76	44.564
599.09	45.605
599.42	44.325
599.76	44.301
600.09	44.949
600.42	44.993
600.76	45.275
601.09	46.324
601.42	45.195
601.76	45.328
602.09	46.321
602.42	44.695
602.76	45.693
603.09	46.116
603.42	45.394
603.76	45.119
604.09	45.096
604.42	45.951
604.76	46.108
605.09	46.408
605.42	45.591
605.75	45.835
606.09	46.136
606.42	45.960
606.75	46.288
607.09	45.756
607.42	46.726
607.75	44.825
608.08	45.898
608.42	47.903
608.75	45.571
609.08	46.150
609.41	47.091
609.75	47.070
610.08	46.223
610.41	46.289
610.74	45.931
611.07	47.704
611.41	48.239
611.74	47.323
612.07	47.062
612.40	48.392
612.73	48.078
613.07	48.302
613.40	48.622
613.73	48.527
614.06	48.250
614.39	47.879
614.72	47.263
615.06	46.934
615.39	46.980
615.72	46.805
616.05	47.464
616.38	48.047
616.71	48.562
617.05	47.556
617.38	47.809
617.71	48.256
618.04	49.299
618.37	48.694
618.70	48.557
619.03	48.474
619.36	48.932
619.69	49.868
620.03	50.815
620.36	49.904
620.69	50.319
621.02	50.611
621.35	49.355
621.68	51.032
622.01	50.332
622.34	50.473
622.67	49.860
623.00	50.306
623.33	49.933
623.66	51.364
623.99	50.890
624.32	51.491
624.65	50.955
624.99	50.913
625.32	51.637
625.65	49.793
625.98	49.791
626.31	51.855
626.64	51.329
626.97	49.809
627.30	51.242
627.63	51.727
627.96	50.782
628.29	53.383
628.62	52.695
628.95	51.684
629.28	54.338
629.61	52.373
629.94	51.945
630.26	53.033
630.59	54.255
630.92	52.646
631.25	53.218
631.58	54.581
631.91	53.758
632.24	52.867
632.57	53.143
632.90	55.280
633.23	55.719
633.56	53.741
633.89	54.555
634.22	56.082
634.55	53.118
634.88	53.779
635.20	55.381
635.53	56.098
635.86	55.481
636.19	55.107
636.52	53.838
636.85	52.319
637.18	55.580
637.51	54.749
637.83	54.462
638.16	55.569
638.49	55.210
638.82	56.573
639.15	54.759
639.48	56.635
639.81	55.067
640.13	55.215
640.46	54.614
640.79	56.567
641.12	57.743
641.45	57.180
641.77	57.332
642.10	57.697
642.43	57.752
642.76	55.398
643.09	56.628
643.41	57.644
643.74	60.144
644.07	60.029
644.40	58.136
644.73	57.357
645.05	57.504
645.38	58.806
645.71	58.574
646.04	57.099
646.36	61.502
646.69	56.800
647.02	58.560
647.35	59.370
647.67	58.185
648.00	59.772
648.33	57.744
648.66	61.667
648.98	57.536
649.31	54.116
649.64	57.261
649.96	55.477
650.29	56.714
650.62	58.027
650.94	59.789
651.27	60.925
651.60	56.338
651.92	58.833
652.25	60.630
652.58	56.170
652.90	56.138
653.23	58.198
653.56	56.528
653.88	56.828
654.21	56.745
654.54	56.808
654.86	55.752
655.19	55.937
655.52	50.085
655.84	44.376
656.17	51.345
656.49	72.649
656.82	82.831
657.15	65.818
657.47	49.618
657.80	37.057
658.13	29.256
658.45	39.586
658.78	47.189
659.10	48.177
659.43	48.596
659.75	49.956
660.08	51.942
660.41	53.176
660.73	56.838
661.06	57.057
661.38	57.070
661.71	58.813
662.03	59.886
662.36	61.333
662.68	58.845
663.01	59.459
663.33	61.321
663.66	60.355
663.98	60.516
664.31	61.940
664.63	62.644
664.96	61.726
665.28	57.627
665.61	57.925
665.93	60.377
666.26	57.196
666.58	61.101
666.91	60.618
667.23	60.241
667.56	61.191
667.88	62.033
668.21	61.270
668.53	62.903
668.86	62.525
669.18	61.100
669.50	59.298
669.83	60.575
670.15	60.083
670.48	56.836
670.80	60.359
671.13	59.163
671.45	61.122
671.77	60.853
672.10	59.425
672.42	58.553
672.75	57.120
673.07	56.757
673.39	57.188
673.72	60.208
674.04	59.140
674.37	59.347
674.69	62.454
675.01	59.515
675.34	58.721
675.66	60.352
675.98	61.538
676.31	59.200
676.63	59.443
676.95	57.738
677.28	60.243
677.60	61.972
677.92	59.325
678.25	61.434
678.57	59.404
678.89	58.590
679.22	57.721
679.54	58.363
679.86	59.511
680.18	58.875
680.51	55.058
680.83	57.264
681.15	58.752
681.48	56.771
681.80	59.019
682.12	59.516
682.44	59.279
682.77	55.694
683.09	60.000
683.41	63.878
683.73	59.843
684.06	57.341
684.38	60.659
684.70	61.151
685.02	56.944
685.34	59.155
685.67	58.360
685.99	60.263
686.31	55.624
686.63	58.049
686.96	57.843
687.28	56.879
687.60	57.509
687.92	58.291
688.24	58.276
688.56	59.253
688.89	58.891
689.21	60.116
689.53	60.870
689.85	59.553
690.17	55.922
690.49	62.702
690.82	58.403
691.14	59.192
691.46	60.575
691.78	59.064
692.10	60.496
692.42	57.169
692.74	62.209
693.06	57.558
693.39	59.289
693.71	58.546
694.03	57.594
694.35	61.647
694.67	59.267
694.99	60.976
695.31	59.459
695.63	59.502
695.95	60.860
696.27	60.398
696.59	61.575
696.91	62.532
697.23	58.371
697.56	56.846
697.88	55.689
698.20	56.226
698.52	56.809
698.84	57.495
699.16	60.554
699.48	57.627
699.80	59.695
700.12	60.508
700.44	61.682
700.76	57.518
701.08	60.574
701.40	63.117
701.72	62.567
702.04	59.350
702.36	61.828
702.68	59.840
703.00	60.902
703.32	61.290
703.64	61.713
703.96	61.719
704.28	62.169
704.60	66.479
704.91	63.305
705.23	63.352
705.55	65.282
705.87	64.762
706.19	68.025
706.51	66.458
706.83	64.897
707.15	61.765
707.47	57.869
707.79	61.379
708.11	57.596
708.43	57.303
708.74	57.014
709.06	57.907
709.38	61.787
709.70	60.763
710.02	57.337
710.34	62.431
710.66	63.056
710.98	60.929
711.29	59.053
711.61	60.446
711.93	64.134
712.25	62.048
712.57	62.701
712.89	61.515
713.20	64.537
713.52	67.290
713.84	61.934
714.16	57.391
714.48	57.637
714.80	60.976
715.11	60.638
715.43	57.542
715.75	60.000
716.07	58.382
716.39	63.429
716.70	60.125
717.02	64.310
717.34	65.108
717.66	68.750
717.97	68.939
718.29	69.014
718.61	60.135
718.93	60.208
719.24	65.101
719.56	65.172
719.88	59.873
720.20	61.290
720.51	58.497
720.83	60.535
721.15	63.265
721.46	61.301
721.78	66.551
722.10	64.931
722.42	63.880
722.73	63.177
723.05	64.211
723.37	67.845
723.68	64.844
724.00	65.152
724.32	67.300
724.63	64.231
724.95	69.412
725.27	66.914
725.58	63.235
725.90	60.563
726.22	61.644
726.53	62.207
726.85	64.169
727.16	70.134
727.48	62.458
727.80	63.309
728.11	63.929
728.43	63.043
728.74	62.587
729.06	63.082
729.38	68.070
729.69	62.333
730.01	60.526
730.32	59.732
730.64	63.787
730.96	56.156
731.27	56.575
731.59	51.724
731.90	57.103
732.22	60.857
732.53	54.416
732.85	61.696
733.16	57.530
733.48	62.069
733.80	57.681
734.11	61.350
734.43	58.772
734.74	52.279
735.06	56.349
735.37	54.381
735.69	58.261
736.00	62.691
736.32	54.242
736.63	54.890
736.95	59.006
737.26	53.354
737.58	57.975
737.89	56.325
738.21	61.258
738.52	60.535
738.83	64.103
739.15	62.021
739.46	59.655
739.78	61.905
740.09	57.434
740.41	58.896
740.72	57.460
741.04	60.839
741.35	66.406
741.66	66.403
741.98	63.948
742.29	73.611
742.61	58.407
742.92	66.102
743.23	60.400
743.55	57.736
743.86	62.353
744.18	61.864
744.49	67.355
744.80	69.124
745.12	66.518
745.43	74.766
745.74	68.000
746.06	63.158
746.37	68.372
746.68	66.372
747.00	65.919
747.31	63.445
747.62	59.016
747.94	66.524
748.25	65.759
748.56	67.373
748.88	66.071
749.19	66.512
749.50	66.667
749.82	62.963
750.13	61.660
750.44	58.333
750.75	62.752
751.07	57.566
751.38	58.416
751.69	58.249
752.01	56.643
752.32	60.465
752.63	59.732
752.94	59.091
753.26	59.766
753.57	59.144
753.88	56.929
754.19	64.260
754.51	60.797
754.82	53.356
755.13	53.378
755.44	61.111
755.75	58.763
756.07	59.932
756.38	55.882
756.69	56.563
757.00	56.973
757.31	55.493
757.63	52.066
757.94	57.713
758.25	50.483
758.56	49.657
758.87	53.885
759.18	55.233
759.50	53.191
759.81	58.754
760.12	60.112
760.43	52.381
760.74	53.671
761.05	52.520
761.36	54.167
761.67	54.717
761.99	56.901
762.30	55.305
762.61	53.125
762.92	58.712
763.23	52.830
763.54	56.923
763.85	55.253
764.16	58.333
764.47	57.770
764.78	56.352
765.10	53.963
765.41	53.977
765.72	53.591
766.03	54.985
766.34	52.613
766.65	58.935
766.96	59.109
767.27	65.888
767.58	60.891
767.89	71.271
768.20	73.780
768.51	70.918
768.82	64.035
769.13	58.824
769.44	58.271
769.75	59.551
770.06	59.244
770.37	51.754
770.68	56.889
770.99	66.102
771.30	60.669
771.61	60.769
771.92	59.542
772.23	58.065
772.54	61.778
772.85	66.337
773.16	63.587
773.47	71.667
773.78	64.851
774.09	65.909
774.39	64.848
774.70	68.824
775.01	64.474
775.32	63.975
775.63	69.178
775.94	68.519
776.25	68.276
776.56	74.046
776.87	77.099
777.18	72.727
777.48	85.827
777.79	64.615
778.10	71.212
778.41	70.896
778.72	66.917
779.03	61.538
779.34	75.676
779.65	64.596
779.95	67.081
780.26	66.667
780.57	71.429
780.88	65.957
781.19	75.000
781.50	65.089
781.80	57.377
782.11	65.608
782.42	59.770
782.73	61.017
783.04	68.387
783.34	73.643
783.65	65.986
783.96	61.935
784.27	64.238
784.57	65.789
784.88	71.014
785.19	60.000
785.50	75.000
785.81	78.295
786.11	68.148
786.42	77.953
786.73	70.270
787.04	71.698
787.34	65.854
787.65	75.758
787.96	62.121
788.26	77.165
788.57	79.562
788.88	64.085
789.19	67.939
789.49	62.838
789.80	65.625
790.11	73.554
790.41	65.741
790.72	78.704
791.03	80.769
791.33	75.758
791.64	81.053
791.95	84.211
792.25	70.833
792.56	72.000
792.87	73.171
793.17	67.045
793.48	77.647
793.79	77.011
794.09	69.318
794.40	75.862
794.70	80.159
795.01	73.846
795.32	57.252
795.62	66.667
795.93	73.109
796.23	63.415
796.54	78.571
796.85	76.136
797.15	93.506
797.46	92.683
797.76	77.500
798.07	81.333
798.37	85.000
798.68	80.000
798.99	87.805
799.29	85.333
799.60	72.093
799.90	89.474
800.21	87.879
800.51	98.592
800.82	110.345
801.12	98.462
801.43	102.667
801.73	86.207
802.04	74.026
802.34	75.342
802.65	107.843
802.95	106.522
803.26	96.774
803.56	116.667
803.87	108.955
804.17	93.651
804.48	103.774
804.78	90.278
805.09	104.545
805.39	90.476
805.70	94.737
806.00	71.429
806.30	85.938
806.61	84.706
806.91	80.000
807.22	73.913
807.52	67.105
807.83	86.842
808.13	72.464
808.43	93.548
808.74	90.411
809.04	96.429
809.35	100.000
809.65	109.091
809.95	115.686
810.26	111.111
810.56	98.438
810.86	102.041
811.17	85.965
811.47	102.174
811.77	96.552
812.08	91.379
812.38	109.524
812.69	114.286
812.99	86.667
813.29	131.429
813.59	138.710
813.90	87.931
814.20	95.082
814.50	98.000
814.81	78.947
815.11	112.963
815.41	100.000
815.72	112.500
816.02	102.000
816.32	134.146
816.62	91.379
816.93	133.333
817.23	114.634
817.53	96.429
817.84	113.333
818.14	121.429
818.44	112.500
818.74	109.434
819.04	102.564
819.35	136.364
819.65	126.923
819.95	131.481
820.25	112.766
820.56	121.622
820.86	131.579
821.16	97.872
821.46	134.211
821.76	109.091
822.07	119.048
822.37	123.684
822.67	116.279
822.97	113.158
823.27	119.565
823.57	109.375
823.88	112.821
824.18	112.121
824.48	173.913
824.78	136.111
825.08	182.609
825.38	137.931
825.69	123.529
825.99	93.617
826.29	91.667
826.59	125.714
826.89	170.000
827.19	131.429
827.49	158.065
827.79	153.846
828.09	128.571
828.39	113.889
828.70	118.919
829.00	182.143
829.30	187.500
829.60	127.778
829.90	135.484
830.20	121.212
830.50	156.757
830.80	225.000
831.10	184.615
831.40	180.952
831.70	179.167
832.00	120.000
832.30	173.913
832.60	187.500
832.90	169.697
833.20	215.000
833.50	134.211
833.80	138.235
834.10	136.842
834.40	89.474
834.70	126.667
835.00	176.000
835.30	100.000
835.60	165.625
835.90	151.351
836.20	134.615
836.50	150.000
836.80	109.756
837.10	156.522
837.40	361.538
837.70	152.632
838.00	160.000
838.30	170.833
838.60	140.000
838.90	400.000
839.19	206.250
839.49	136.667
839.79	124.138
840.09	153.846
840.39	260.000
840.69	210.526
840.99	180.952
841.29	191.304
841.59	190.000
841.88	148.000
842.18	355.556
842.48	142.857
842.78	129.630
843.08	184.615
843.38	200.000
843.68	192.857
843.97	442.857
844.27	178.261
844.57	1400.000
844.87	292.857
845.17	261.111
845.47	147.619
845.76	212.500
846.06	457.143
846.36	194.118
846.66	230.769
846.96	281.250
847.25	230.769
847.55	184.211
847.85	200.000
848.15	620.000
848.44	354.545
848.74	180.952
849.04	183.333
849.34	200.000
849.63	250.000
849.93	293.750
850.23	866.667
850.53	462.500
850.82	427.273
851.12	182.353
851.42	179.167
851.71	237.500
852.01	0.000
852.31	200.000
852.61	370.000
852.90	166.667
853.20	400.000
853.50	-1800.000
853.79	136.000
854.09	125.000
854.39	144.828
854.68	155.172
854.98	204.762
855.28	145.161
855.57	335.714
855.87	216.667
856.17	162.963
856.46	157.895
856.76	119.355
857.05	217.647
857.35	245.455
857.65	276.923
857.94	205.000
858.24	333.333
858.53	314.286
858.83	571.429
859.13	186.957
859.42	233.333
859.72	362.500
860.01	300.000
860.31	700.000
860.60	350.000
860.90	512.500
861.20	300.000
861.49	471.429
861.79	-2900.000
862.08	328.571
862.38	355.556
862.67	221.429
862.97	350.000
863.26	100.000
863.56	675.000
863.85	369.231
864.15	235.294
864.44	155.556
864.74	333.333
865.03	281.818
865.33	287.500
865.62	273.333
865.92	433.333
866.21	900.000
866.51	520.000
866.80	277.778
867.10	633.333
867.39	3200.000
867.69	700.000
867.98	725.000
868.27	195.238
868.57	253.333
868.86	1000.000
869.16	180.952
869.45	2600.000
869.75	-400.000
870.04	800.000
870.33	660.000
870.63	487.500
870.92	194.118
871.22	800.000
871.51	371.429
871.80	316.667
872.10	346.154
>>>>>End Processed Spectral Data<<<<<
