SpectraSuite Data File
++++++++++++++++++++++++++++++++++++
Date: Tue May 12 15:20:29 PDT 2015
User: schluterlab
Dark Spectrum Present: Yes
Reference Spectrum Present: Yes
Number of Sampled Component Spectra: 1
Spectrometers: USB2E3373
Integration Time (usec): 3000 (USB2E3373)
Spectra Averaged: 3 (USB2E3373)
Boxcar Smoothing: 0 (USB2E3373)
Correct for Electrical Dark: No (USB2E3373)
Strobe/Lamp Enabled: No (USB2E3373)
Correct for Detector Non-linearity: No (USB2E3373)
Correct for Stray Light: No (USB2E3373)
Number of Pixels in Processed Spectrum: 2048
>>>>>Begin Processed Spectral Data<<<<<
178.53	0.000
178.91	-91.667
179.29	-325.000
179.67	-3200.000
180.04	-86.667
180.42	775.000
180.80	1650.000
181.18	0.000
181.56	-212.500
181.94	0.000
182.31	1033.333
182.69	-2700.000
183.07	485.714
183.45	-3000.000
183.83	-1550.000
184.20	320.000
184.58	428.571
184.96	-200.000
185.34	-158.333
185.72	1600.000
186.09	-550.000
186.47	-3400.000
186.85	866.667
187.23	640.000
187.61	1650.000
187.98	562.500
188.36	214.286
188.74	250.000
189.12	325.000
189.49	1025.000
189.87	0.000
190.25	487.500
190.63	2600.000
191.00	-216.667
191.38	-3000.000
191.76	-475.000
192.14	512.500
192.51	-2100.000
192.89	1550.000
193.27	766.667
193.65	-900.000
194.02	-800.000
194.40	585.714
194.78	-121.429
195.15	233.333
195.53	-2400.000
195.91	-540.000
196.29	3900.000
196.66	268.750
197.04	850.000
197.42	-1300.000
197.79	650.000
198.17	291.667
198.55	0.000
198.92	500.000
199.30	1466.667
199.68	1650.000
200.05	466.667
200.43	-500.000
200.81	172.222
201.18	2300.000
201.56	291.667
201.94	-800.000
202.31	-250.000
202.69	-520.000
203.07	2300.000
203.44	-500.000
203.82	275.000
204.19	480.000
204.57	-1200.000
204.95	-850.000
205.32	-680.000
205.70	483.333
206.08	750.000
206.45	-866.667
206.83	366.667
207.20	210.526
207.58	225.000
207.96	580.000
208.33	0.000
208.71	500.000
209.08	600.000
209.46	-4200.000
209.84	-850.000
210.21	780.000
210.59	-560.000
210.96	266.667
211.34	-925.000
211.71	354.545
212.09	800.000
212.46	1650.000
212.84	-500.000
213.22	377.778
213.59	-2700.000
213.97	310.000
214.34	650.000
214.72	1266.667
215.09	633.333
215.47	-1700.000
215.84	-360.000
216.22	-400.000
216.59	0.000
216.97	0.000
217.34	1450.000
217.72	-1300.000
218.09	1400.000
218.47	437.500
218.84	775.000
219.22	1100.000
219.59	966.667
219.97	500.000
220.34	355.556
220.72	1050.000
221.09	2400.000
221.47	125.000
221.84	733.333
222.22	390.000
222.59	255.556
222.97	185.714
223.34	237.500
223.72	-1350.000
224.09	1066.667
224.46	215.385
224.84	-575.000
225.21	311.111
225.59	213.333
225.96	1166.667
226.34	-560.000
226.71	-700.000
227.08	-340.000
227.46	0.000
227.83	-466.667
228.21	-1700.000
228.58	333.333
228.95	900.000
229.33	422.222
229.70	900.000
230.08	346.154
230.45	2800.000
230.82	-850.000
231.20	-800.000
231.57	-866.667
231.95	600.000
232.32	275.000
232.69	350.000
233.07	266.667
233.44	-1050.000
233.81	206.667
234.19	166.667
234.56	250.000
234.93	176.471
235.31	175.000
235.68	200.000
236.05	146.429
236.43	129.630
236.80	164.286
237.17	141.379
237.55	96.875
237.92	97.500
238.29	166.667
238.67	125.000
239.04	100.000
239.41	77.083
239.79	82.500
240.16	70.833
240.53	62.295
240.91	73.913
241.28	77.966
241.65	53.030
242.02	67.606
242.40	64.286
242.77	65.934
243.14	67.089
243.51	58.586
243.89	48.598
244.26	56.075
244.63	55.446
245.00	48.624
245.38	35.593
245.75	52.273
246.12	50.370
246.49	43.972
246.87	40.984
247.24	48.667
247.61	47.500
247.98	50.340
248.36	35.152
248.73	44.388
249.10	39.286
249.47	42.000
249.84	33.831
250.22	40.000
250.59	37.500
250.96	36.709
251.33	34.884
251.70	41.964
252.08	38.235
252.45	33.865
252.82	35.741
253.19	30.830
253.56	33.462
253.94	36.594
254.31	37.597
254.68	37.282
255.05	34.483
255.42	35.401
255.79	34.528
256.16	37.288
256.54	35.065
256.91	31.373
257.28	31.104
257.65	30.721
258.02	33.333
258.39	34.670
258.76	29.855
259.14	30.000
259.51	33.528
259.88	32.827
260.25	30.769
260.62	29.589
260.99	28.375
261.36	32.591
261.73	30.319
262.10	31.937
262.47	28.750
262.85	31.733
263.22	32.648
263.59	29.412
263.96	28.571
264.33	28.642
264.70	32.678
265.07	31.707
265.44	31.881
265.81	28.774
266.18	30.664
266.55	31.678
266.92	28.859
267.29	30.263
267.66	25.785
268.03	30.269
268.40	28.964
268.77	28.634
269.14	28.850
269.51	30.067
269.88	31.633
270.25	27.214
270.62	30.258
270.99	30.629
271.36	31.301
271.73	29.350
272.10	26.263
272.47	27.183
272.84	27.345
273.21	28.512
273.58	29.150
273.95	30.185
274.32	29.572
274.69	28.346
275.06	26.594
275.43	28.927
275.80	28.868
276.17	27.941
276.54	28.598
276.91	29.478
277.28	29.197
277.65	27.675
278.02	26.654
278.39	26.259
278.76	26.724
279.13	26.157
279.50	27.091
279.87	25.140
280.23	26.888
280.60	26.095
280.97	27.759
281.34	27.888
281.71	28.696
282.08	28.376
282.45	25.676
282.82	25.418
283.19	26.391
283.56	26.446
283.92	27.687
284.29	27.953
284.66	25.882
285.03	26.202
285.40	25.124
285.77	27.006
286.14	27.554
286.51	27.607
286.87	24.367
287.24	25.075
287.61	24.468
287.98	26.716
288.35	25.037
288.72	25.190
289.08	25.225
289.45	25.610
289.82	25.781
290.19	25.622
290.56	26.783
290.93	23.885
291.29	23.481
291.66	24.011
292.03	24.965
292.40	24.255
292.77	24.652
293.13	25.107
293.50	23.752
293.87	22.493
294.24	23.357
294.60	25.168
294.97	23.776
295.34	23.506
295.71	22.733
296.08	24.000
296.44	24.142
296.81	23.077
297.18	22.053
297.55	24.138
297.91	23.522
298.28	23.671
298.65	22.699
299.02	22.075
299.38	23.261
299.75	22.195
300.12	22.821
300.48	24.590
300.85	23.123
301.22	22.093
301.59	22.995
301.95	22.637
302.32	22.934
302.69	22.738
303.05	24.916
303.42	23.206
303.79	24.702
304.15	23.102
304.52	21.564
304.89	23.561
305.25	24.249
305.62	23.348
305.99	24.130
306.35	23.474
306.72	24.454
307.09	23.188
307.45	23.442
307.82	23.045
308.19	23.402
308.55	23.700
308.92	25.025
309.29	25.542
309.65	25.273
310.02	25.051
310.38	23.529
310.75	22.854
311.12	23.946
311.48	26.737
311.85	25.573
312.22	24.451
312.58	25.267
312.95	26.214
313.31	25.562
313.68	25.704
314.05	27.381
314.41	26.723
314.78	27.273
315.14	27.393
315.51	27.909
315.87	25.730
316.24	28.291
316.61	27.932
316.97	27.064
317.34	28.032
317.70	29.500
318.07	30.783
318.43	29.701
318.80	29.247
319.16	28.846
319.53	29.027
319.89	29.211
320.26	31.844
320.62	31.685
320.99	31.268
321.35	30.891
321.72	34.535
322.08	33.426
322.45	32.334
322.81	32.296
323.18	33.126
323.54	34.843
323.91	33.998
324.27	35.102
324.64	35.381
325.00	35.603
325.37	37.184
325.73	36.425
326.10	36.951
326.46	37.737
326.83	37.440
327.19	39.679
327.56	38.578
327.92	40.328
328.29	40.998
328.65	40.497
329.01	40.547
329.38	40.525
329.74	40.307
330.11	41.268
330.47	42.029
330.84	40.811
331.20	40.355
331.56	42.919
331.93	43.028
332.29	41.922
332.66	44.388
333.02	42.612
333.38	44.590
333.75	43.953
334.11	43.372
334.48	44.188
334.84	43.750
335.20	42.601
335.57	41.478
335.93	43.818
336.29	42.869
336.66	45.712
337.02	44.311
337.38	44.798
337.75	42.821
338.11	44.895
338.47	44.708
338.84	43.946
339.20	44.589
339.56	43.566
339.93	43.311
340.29	43.109
340.65	43.923
341.02	43.765
341.38	44.910
341.74	44.601
342.11	43.656
342.47	43.068
342.83	44.791
343.20	43.169
343.56	42.017
343.92	43.931
344.28	43.142
344.65	43.928
345.01	43.889
345.37	43.189
345.73	43.730
346.10	43.347
346.46	43.939
346.82	42.747
347.19	45.286
347.55	43.091
347.91	43.656
348.27	43.222
348.63	43.829
349.00	41.736
349.36	43.813
349.72	43.043
350.08	45.342
350.45	43.945
350.81	43.807
351.17	43.143
351.53	43.572
351.89	42.191
352.26	42.857
352.62	43.288
352.98	42.945
353.34	44.453
353.70	43.196
354.07	44.231
354.43	44.086
354.79	42.065
355.15	42.802
355.51	42.900
355.87	43.373
356.24	43.495
356.60	42.237
356.96	43.594
357.32	43.255
357.68	43.319
358.04	43.389
358.40	43.103
358.77	43.201
359.13	43.844
359.49	43.365
359.85	43.485
360.21	43.016
360.57	42.920
360.93	42.713
361.29	43.074
361.66	45.488
362.02	41.974
362.38	42.208
362.74	42.463
363.10	43.198
363.46	42.610
363.82	42.496
364.18	42.105
364.54	42.418
364.90	42.369
365.26	42.540
365.62	42.818
365.98	41.569
366.35	41.931
366.71	42.887
367.07	42.457
367.43	43.452
367.79	41.489
368.15	41.384
368.51	42.522
368.87	42.188
369.23	41.857
369.59	41.200
369.95	42.378
370.31	42.437
370.67	41.083
371.03	42.927
371.39	42.798
371.75	43.126
372.11	42.760
372.47	42.603
372.83	42.352
373.19	42.426
373.55	43.230
373.91	42.887
374.27	41.667
374.63	42.441
374.99	41.914
375.35	41.331
375.71	43.140
376.07	41.844
376.42	40.217
376.78	42.967
377.14	42.136
377.50	41.261
377.86	40.295
378.22	42.413
378.58	41.828
378.94	41.762
379.30	41.904
379.66	42.083
380.02	40.762
380.38	41.335
380.74	42.445
381.09	42.114
381.45	41.214
381.81	40.307
382.17	41.270
382.53	41.572
382.89	41.277
383.25	41.030
383.61	40.231
383.97	40.432
384.32	40.989
384.68	41.414
385.04	40.680
385.40	40.985
385.76	40.082
386.12	41.064
386.48	41.824
386.83	40.709
387.19	40.813
387.55	41.637
387.91	40.878
388.27	41.047
388.62	39.847
388.98	39.767
389.34	40.155
389.70	40.094
390.06	39.634
390.42	38.988
390.77	39.742
391.13	41.098
391.49	39.383
391.85	40.308
392.20	39.392
392.56	39.307
392.92	38.686
393.28	39.798
393.64	39.106
393.99	38.115
394.35	38.493
394.71	37.394
395.07	38.808
395.42	39.110
395.78	39.358
396.14	38.976
396.50	39.651
396.85	38.659
397.21	38.989
397.57	37.358
397.92	37.435
398.28	38.445
398.64	38.394
399.00	37.146
399.35	37.520
399.71	37.252
400.07	38.185
400.42	37.015
400.78	38.065
401.14	38.403
401.49	36.866
401.85	38.181
402.21	37.200
402.57	38.001
402.92	37.879
403.28	36.635
403.63	36.727
403.99	37.575
404.35	38.042
404.70	36.917
405.06	36.216
405.42	36.744
405.77	36.108
406.13	35.521
406.49	35.532
406.84	36.605
407.20	36.244
407.55	37.231
407.91	36.886
408.27	36.264
408.62	36.783
408.98	36.665
409.34	35.652
409.69	35.221
410.05	35.063
410.40	35.453
410.76	34.688
411.11	36.315
411.47	35.617
411.83	34.564
412.18	35.145
412.54	35.075
412.89	34.159
413.25	35.576
413.60	35.572
413.96	35.847
414.31	34.534
414.67	35.754
415.03	36.079
415.38	34.574
415.74	35.565
416.09	35.290
416.45	36.652
416.80	35.985
417.16	34.819
417.51	34.777
417.87	34.230
418.22	34.933
418.58	35.541
418.93	34.741
419.29	35.059
419.64	35.251
420.00	36.158
420.35	34.553
420.71	34.597
421.06	33.843
421.42	34.773
421.77	34.814
422.12	34.289
422.48	34.566
422.83	34.710
423.19	34.287
423.54	34.449
423.90	34.371
424.25	34.067
424.61	34.649
424.96	34.670
425.31	34.537
425.67	35.241
426.02	34.436
426.38	34.072
426.73	35.454
427.09	34.342
427.44	33.990
427.79	33.734
428.15	35.003
428.50	34.571
428.85	34.744
429.21	34.630
429.56	34.148
429.92	34.460
430.27	33.769
430.62	33.676
430.98	33.932
431.33	33.367
431.68	33.926
432.04	33.471
432.39	35.181
432.74	35.422
433.10	35.604
433.45	34.808
433.80	35.245
434.16	33.158
434.51	34.778
434.86	34.023
435.22	35.440
435.57	35.210
435.92	35.231
436.28	35.253
436.63	34.792
436.98	35.586
437.34	35.331
437.69	34.826
438.04	34.194
438.39	34.092
438.75	35.022
439.10	33.999
439.45	33.635
439.81	34.760
440.16	34.452
440.51	34.741
440.86	34.929
441.22	33.496
441.57	34.016
441.92	34.255
442.27	33.866
442.63	34.096
442.98	33.405
443.33	34.655
443.68	34.608
444.03	33.977
444.39	33.851
444.74	34.110
445.09	34.123
445.44	34.219
445.79	34.357
446.15	34.105
446.50	34.124
446.85	33.715
447.20	33.383
447.55	33.931
447.91	34.576
448.26	34.026
448.61	34.273
448.96	34.368
449.31	35.039
449.66	34.496
450.02	33.495
450.37	35.203
450.72	35.372
451.07	34.031
451.42	34.321
451.77	33.963
452.12	33.182
452.47	35.662
452.83	34.930
453.18	35.015
453.53	35.346
453.88	34.457
454.23	34.922
454.58	33.974
454.93	35.254
455.28	34.272
455.63	35.697
455.98	33.728
456.34	34.711
456.69	35.000
457.04	33.890
457.39	33.829
457.74	34.516
458.09	33.296
458.44	33.625
458.79	34.748
459.14	33.442
459.49	33.692
459.84	34.728
460.19	34.124
460.54	33.789
460.89	33.529
461.24	33.620
461.59	34.751
461.94	34.161
462.29	34.325
462.64	34.987
462.99	35.189
463.34	35.062
463.69	34.725
464.04	34.197
464.39	33.143
464.74	32.356
465.09	33.662
465.44	33.787
465.79	33.968
466.14	32.485
466.49	32.990
466.84	32.274
467.19	33.743
467.54	31.772
467.89	34.683
468.24	33.237
468.59	32.798
468.94	33.756
469.29	33.720
469.64	33.183
469.99	34.383
470.34	33.650
470.68	33.379
471.03	33.089
471.38	33.709
471.73	33.703
472.08	34.768
472.43	33.830
472.78	34.315
473.13	32.290
473.48	33.007
473.83	33.451
474.17	33.921
474.52	33.709
474.87	32.405
475.22	33.467
475.57	32.529
475.92	31.834
476.27	32.862
476.61	33.137
476.96	32.759
477.31	32.545
477.66	33.494
478.01	32.027
478.36	33.213
478.70	31.712
479.05	32.270
479.40	32.292
479.75	33.366
480.10	32.381
480.45	31.466
480.79	31.382
481.14	31.907
481.49	31.427
481.84	31.838
482.19	31.965
482.53	31.928
482.88	32.572
483.23	31.349
483.58	32.406
483.92	32.998
484.27	31.378
484.62	31.876
484.97	31.671
485.31	30.799
485.66	29.599
486.01	29.222
486.36	28.336
486.70	28.226
487.05	29.137
487.40	29.392
487.75	29.694
488.09	30.227
488.44	30.625
488.79	30.510
489.13	30.646
489.48	31.402
489.83	31.485
490.17	30.801
490.52	31.654
490.87	31.853
491.22	31.693
491.56	31.489
491.91	31.631
492.26	32.160
492.60	32.164
492.95	31.808
493.30	32.393
493.64	31.581
493.99	30.948
494.34	31.062
494.68	31.518
495.03	31.253
495.37	31.652
495.72	31.795
496.07	32.075
496.41	30.626
496.76	30.815
497.11	31.662
497.45	30.820
497.80	31.418
498.14	31.808
498.49	31.848
498.84	32.196
499.18	30.484
499.53	31.465
499.87	31.267
500.22	31.875
500.56	31.476
500.91	31.818
501.26	31.098
501.60	31.603
501.95	30.466
502.29	30.756
502.64	31.054
502.98	31.036
503.33	30.646
503.67	30.110
504.02	30.318
504.36	30.995
504.71	31.126
505.06	31.534
505.40	30.791
505.75	30.543
506.09	30.331
506.44	30.968
506.78	30.388
507.13	30.732
507.47	31.393
507.82	31.290
508.16	31.553
508.51	31.304
508.85	31.007
509.19	30.886
509.54	30.762
509.88	31.029
510.23	31.176
510.57	30.019
510.92	31.319
511.26	31.024
511.61	30.576
511.95	31.608
512.30	30.750
512.64	30.789
512.98	29.370
513.33	30.994
513.67	30.968
514.02	31.117
514.36	30.478
514.70	30.720
515.05	30.581
515.39	31.414
515.74	31.329
516.08	31.645
516.42	32.186
516.77	31.413
517.11	30.240
517.46	31.681
517.80	30.093
518.14	31.437
518.49	30.154
518.83	31.044
519.17	31.281
519.52	31.021
519.86	30.736
520.20	29.918
520.55	31.148
520.89	31.264
521.23	30.549
521.58	30.981
521.92	31.429
522.26	31.220
522.61	31.729
522.95	32.733
523.29	31.579
523.64	30.289
523.98	30.810
524.32	30.507
524.66	30.783
525.01	30.710
525.35	30.466
525.69	31.728
526.04	31.112
526.38	29.841
526.72	30.609
527.06	30.692
527.41	31.620
527.75	30.493
528.09	30.644
528.43	30.506
528.78	31.067
529.12	32.270
529.46	30.450
529.80	30.374
530.15	31.173
530.49	29.302
530.83	31.322
531.17	30.074
531.51	31.269
531.86	31.039
532.20	30.532
532.54	31.262
532.88	31.480
533.22	30.835
533.57	30.995
533.91	29.371
534.25	29.544
534.59	30.643
534.93	29.807
535.27	29.197
535.62	29.638
535.96	30.437
536.30	30.408
536.64	30.062
536.98	30.837
537.32	29.625
537.66	29.847
538.01	31.393
538.35	30.069
538.69	29.430
539.03	29.913
539.37	29.672
539.71	30.309
540.05	29.415
540.39	29.308
540.73	29.873
541.07	29.925
541.42	29.229
541.76	29.531
542.10	29.531
542.44	29.863
542.78	29.578
543.12	29.387
543.46	28.571
543.80	28.759
544.14	29.102
544.48	29.440
544.82	29.602
545.16	29.326
545.50	29.318
545.84	29.293
546.18	30.754
546.52	30.426
546.86	30.303
547.20	29.393
547.54	29.259
547.88	28.771
548.22	28.051
548.56	28.757
548.90	28.529
549.24	29.627
549.58	29.059
549.92	29.928
550.26	30.358
550.60	29.408
550.94	29.783
551.28	30.483
551.62	29.862
551.96	29.459
552.30	28.873
552.64	29.126
552.98	28.737
553.32	29.257
553.66	28.795
554.00	28.636
554.34	29.627
554.68	29.637
555.02	30.210
555.36	29.056
555.69	29.712
556.03	28.917
556.37	28.808
556.71	29.400
557.05	27.720
557.39	29.733
557.73	29.717
558.07	29.913
558.41	29.541
558.75	29.754
559.08	30.951
559.42	31.210
559.76	29.865
560.10	29.250
560.44	30.392
560.78	28.708
561.12	29.243
561.45	28.348
561.79	27.840
562.13	27.795
562.47	28.942
562.81	28.432
563.15	29.476
563.48	27.329
563.82	29.944
564.16	29.353
564.50	26.703
564.84	28.389
565.17	27.570
565.51	29.249
565.85	28.378
566.19	28.333
566.52	27.677
566.86	28.780
567.20	27.921
567.54	27.948
567.88	27.595
568.21	26.660
568.55	26.313
568.89	27.099
569.23	26.488
569.56	26.078
569.90	25.656
570.24	26.235
570.57	25.341
570.91	24.930
571.25	24.585
571.59	24.450
571.92	23.950
572.26	23.881
572.60	23.966
572.93	24.583
573.27	24.095
573.61	23.768
573.95	23.630
574.28	24.091
574.62	23.987
574.96	23.169
575.29	22.753
575.63	23.392
575.97	22.882
576.30	23.361
576.64	23.693
576.98	23.427
577.31	23.449
577.65	23.449
577.98	22.763
578.32	22.527
578.66	22.667
578.99	23.642
579.33	23.252
579.67	23.448
580.00	23.252
580.34	23.312
580.67	23.020
581.01	23.195
581.35	23.216
581.68	22.495
582.02	22.991
582.35	22.553
582.69	22.863
583.02	23.134
583.36	23.518
583.70	23.818
584.03	23.540
584.37	24.054
584.70	23.687
585.04	23.507
585.37	22.994
585.71	23.393
586.04	23.446
586.38	23.462
586.72	23.501
587.05	23.675
587.39	23.767
587.72	23.737
588.06	23.715
588.39	23.925
588.73	23.645
589.06	24.307
589.40	24.601
589.73	24.713
590.07	24.640
590.40	25.017
590.73	25.523
591.07	25.047
591.40	25.110
591.74	25.974
592.07	24.584
592.41	24.940
592.74	24.423
593.08	24.056
593.41	24.057
593.75	23.514
594.08	23.961
594.41	24.275
594.75	23.904
595.08	24.486
595.42	23.963
595.75	24.712
596.09	24.713
596.42	24.618
596.75	25.000
597.09	25.423
597.42	24.857
597.75	24.341
598.09	24.415
598.42	25.296
598.76	24.171
599.09	24.458
599.42	23.633
599.76	23.881
600.09	24.102
600.42	24.171
600.76	23.895
601.09	24.025
601.42	24.358
601.76	24.132
602.09	25.386
602.42	24.104
602.76	24.175
603.09	25.151
603.42	24.440
603.76	24.620
604.09	24.177
604.42	23.955
604.76	24.733
605.09	24.653
605.42	24.380
605.75	24.319
606.09	24.751
606.42	23.901
606.75	24.485
607.09	24.793
607.42	24.307
607.75	24.363
608.08	24.817
608.42	24.790
608.75	23.962
609.08	24.285
609.41	25.227
609.75	25.137
610.08	24.640
610.41	25.736
610.74	24.719
611.07	25.512
611.41	25.070
611.74	25.669
612.07	25.000
612.40	25.682
612.73	26.760
613.07	25.291
613.40	24.962
613.73	25.612
614.06	24.500
614.39	26.061
614.72	25.163
615.06	24.135
615.39	24.752
615.72	23.863
616.05	26.118
616.38	24.962
616.71	25.773
617.05	26.030
617.38	25.449
617.71	26.097
618.04	26.416
618.37	25.625
618.70	24.480
619.03	26.190
619.36	27.010
619.69	26.913
620.03	28.115
620.36	26.204
620.69	27.458
621.02	27.310
621.35	26.934
621.68	28.466
622.01	27.823
622.34	26.803
622.67	27.528
623.00	26.617
623.33	26.856
623.66	27.146
623.99	26.849
624.32	26.491
624.65	26.399
624.99	26.099
625.32	26.921
625.65	26.759
625.98	26.848
626.31	28.635
626.64	25.968
626.97	27.621
627.30	27.795
627.63	27.237
627.96	26.369
628.29	27.723
628.62	26.946
628.95	29.167
629.28	28.396
629.61	28.735
629.94	28.868
630.26	29.029
630.59	29.965
630.92	28.072
631.25	29.102
631.58	30.665
631.91	27.973
632.24	27.988
632.57	28.782
632.90	30.538
633.23	30.535
633.56	30.453
633.89	30.654
634.22	31.539
634.55	30.968
634.88	29.135
635.20	29.709
635.53	31.591
635.86	31.320
636.19	30.640
636.52	29.189
636.85	28.263
637.18	29.577
637.51	30.391
637.83	28.833
638.16	30.481
638.49	30.180
638.82	30.751
639.15	29.612
639.48	30.687
639.81	30.769
640.13	29.448
640.46	31.732
640.79	31.990
641.12	32.152
641.45	31.177
641.77	31.572
642.10	31.058
642.43	32.717
642.76	32.528
643.09	32.421
643.41	31.557
643.74	33.094
644.07	32.891
644.40	32.544
644.73	33.634
645.05	32.392
645.38	31.240
645.71	32.322
646.04	33.588
646.36	33.490
646.69	32.800
647.02	31.360
647.35	30.709
647.67	33.063
648.00	32.573
648.33	33.534
648.66	31.970
648.98	29.710
649.31	30.094
649.64	30.014
649.96	29.730
650.29	30.286
650.62	31.664
650.94	32.078
651.27	33.812
651.60	31.768
651.92	30.876
652.25	32.283
652.58	31.064
652.90	33.383
653.23	31.462
653.56	30.564
653.88	30.984
654.21	31.085
654.54	31.625
654.86	30.678
655.19	29.947
655.52	25.809
655.84	19.091
656.17	22.218
656.49	31.220
656.82	35.772
657.15	28.845
657.47	21.870
657.80	16.398
658.13	13.012
658.45	17.529
658.78	21.912
659.10	21.825
659.43	22.752
659.75	24.189
660.08	25.063
660.41	27.042
660.73	29.360
661.06	32.432
661.38	31.687
661.71	31.295
662.03	32.319
662.36	33.905
662.68	33.706
663.01	32.252
663.33	33.774
663.66	34.122
663.98	34.325
664.31	35.634
664.63	33.333
664.96	34.146
665.28	30.885
665.61	34.151
665.93	32.642
666.26	31.215
666.58	34.495
666.91	30.309
667.23	30.723
667.56	34.497
667.88	36.722
668.21	31.967
668.53	33.065
668.86	34.269
669.18	30.346
669.50	32.645
669.83	33.265
670.15	33.680
670.48	31.250
670.80	34.661
671.13	32.271
671.45	33.066
671.77	35.250
672.10	33.932
672.42	30.263
672.75	31.013
673.07	31.638
673.39	31.949
673.72	32.180
674.04	33.333
674.37	29.946
674.69	33.086
675.01	31.716
675.34	29.845
675.66	34.766
675.98	32.939
676.31	33.200
676.63	31.412
676.95	31.746
677.28	32.049
677.60	32.998
677.92	33.333
678.25	33.140
678.57	33.520
678.89	31.826
679.22	30.147
679.54	29.359
679.86	30.192
680.18	31.283
680.51	29.353
680.83	27.365
681.15	30.156
681.48	31.250
681.80	31.874
682.12	29.239
682.44	32.252
682.77	32.562
683.09	29.709
683.41	31.224
683.73	32.677
684.06	31.746
684.38	33.527
684.70	30.036
685.02	28.993
685.34	30.634
685.67	30.707
685.99	28.571
686.31	28.043
686.63	29.593
686.96	30.392
687.28	30.369
687.60	32.253
687.92	31.658
688.24	28.966
688.56	32.384
688.89	28.298
689.21	30.829
689.53	33.794
689.85	31.301
690.17	29.903
690.49	34.677
690.82	31.933
691.14	31.111
691.46	32.238
691.78	33.918
692.10	29.580
692.42	29.401
692.74	31.977
693.06	32.171
693.39	28.063
693.71	31.041
694.03	33.136
694.35	33.133
694.67	32.587
694.99	35.255
695.31	32.432
695.63	31.222
695.95	31.222
696.27	34.513
696.59	32.936
696.91	31.646
697.23	34.163
697.56	28.423
697.88	27.146
698.20	31.698
698.52	28.794
698.84	30.390
699.16	31.557
699.48	30.932
699.80	33.333
700.12	33.487
700.44	33.178
700.76	34.129
701.08	32.376
701.40	32.468
701.72	35.829
702.04	34.146
702.36	34.409
702.68	34.043
703.00	30.576
703.32	33.002
703.64	33.753
703.96	33.333
704.28	35.450
704.60	37.746
704.91	32.773
705.23	34.091
705.55	37.685
705.87	35.873
706.19	39.498
706.51	38.245
706.83	36.283
707.15	34.492
707.47	29.298
707.79	31.954
708.11	30.159
708.43	29.663
708.74	30.090
709.06	33.023
709.38	34.243
709.70	32.153
710.02	33.152
710.34	35.083
710.66	33.056
710.98	33.880
711.29	33.426
711.61	35.933
711.93	33.131
712.25	32.530
712.57	35.048
712.89	33.333
713.20	38.658
713.52	33.956
713.84	34.743
714.16	29.565
714.48	28.242
714.80	31.707
715.11	31.649
715.43	29.888
715.75	30.986
716.07	32.948
716.39	33.714
716.70	37.072
717.02	36.364
717.34	34.532
717.66	40.625
717.97	41.288
718.29	39.789
718.61	33.784
718.93	37.024
719.24	34.899
719.56	31.379
719.88	35.032
720.20	36.774
720.51	31.699
720.83	30.100
721.15	37.075
721.46	32.534
721.78	38.328
722.10	37.153
722.42	35.117
722.73	34.657
723.05	33.684
723.37	36.749
723.68	34.766
724.00	36.364
724.32	38.783
724.63	35.769
724.95	41.961
725.27	34.572
725.58	36.765
725.90	35.211
726.22	33.219
726.53	35.117
726.85	34.202
727.16	36.242
727.48	32.226
727.80	36.331
728.11	37.143
728.43	38.043
728.74	35.315
729.06	36.201
729.38	37.895
729.69	36.333
730.01	36.842
730.32	35.906
730.64	36.213
730.96	33.934
731.27	30.275
731.59	29.598
731.90	31.198
732.22	32.571
732.53	30.199
732.85	35.673
733.16	31.627
733.48	33.229
733.80	35.362
734.11	30.368
734.43	28.655
734.74	32.440
735.06	35.185
735.37	32.990
735.69	36.522
736.00	36.086
736.32	28.485
736.63	29.022
736.95	31.677
737.26	34.146
737.58	30.368
737.89	33.133
738.21	31.788
738.52	29.431
738.83	38.462
739.15	30.314
739.46	34.828
739.78	34.014
740.09	32.653
740.41	34.356
740.72	33.016
741.04	36.014
741.35	39.844
741.66	35.573
741.98	37.768
742.29	39.352
742.61	32.743
742.92	32.203
743.23	34.800
743.55	32.453
743.86	35.294
744.18	34.746
744.49	38.017
744.80	41.935
745.12	43.750
745.43	39.252
745.74	37.333
746.06	35.088
746.37	40.000
746.68	42.478
747.00	33.184
747.31	32.353
747.62	35.246
747.94	37.768
748.25	32.296
748.56	36.441
748.88	40.179
749.19	39.070
749.50	32.420
749.82	40.329
750.13	37.945
750.44	36.667
750.75	33.221
751.07	36.184
751.38	33.333
751.69	30.976
752.01	33.566
752.32	32.558
752.63	35.570
752.94	36.014
753.26	37.109
753.57	33.463
753.88	35.581
754.19	34.657
754.51	32.226
754.82	31.208
755.13	31.081
755.44	32.593
755.75	37.113
756.07	33.562
756.38	30.065
756.69	35.000
757.00	34.421
757.31	31.549
757.63	29.201
757.94	28.191
758.25	29.952
758.56	29.062
758.87	30.326
759.18	31.686
759.50	31.307
759.81	32.938
760.12	30.618
760.43	29.132
760.74	29.620
761.05	29.708
761.36	28.385
761.67	31.536
761.99	29.859
762.30	31.190
762.61	28.125
762.92	36.364
763.23	39.245
763.54	36.923
763.85	34.630
764.16	35.417
764.47	31.757
764.78	29.967
765.10	31.707
765.41	28.125
765.72	30.387
766.03	32.326
766.34	32.753
766.65	34.221
766.96	39.271
767.27	42.523
767.58	34.158
767.89	43.646
768.20	50.000
768.51	37.755
768.82	39.912
769.13	31.373
769.44	35.714
769.75	28.090
770.06	33.613
770.37	31.579
770.68	29.778
770.99	40.254
771.30	33.891
771.61	35.769
771.92	34.351
772.23	33.065
772.54	36.444
772.85	38.614
773.16	38.043
773.47	40.000
773.78	36.139
774.09	43.750
774.39	50.303
774.70	31.765
775.01	34.868
775.32	39.752
775.63	44.521
775.94	51.852
776.25	42.069
776.56	52.672
776.87	51.145
777.18	45.455
777.48	61.417
777.79	46.154
778.10	50.758
778.41	46.269
778.72	42.857
779.03	36.538
779.34	47.973
779.65	45.342
779.95	36.025
780.26	44.048
780.57	47.619
780.88	46.809
781.19	50.833
781.50	39.053
781.80	41.530
782.11	40.741
782.42	38.506
782.73	40.113
783.04	41.935
783.34	37.209
783.65	35.374
783.96	44.516
784.27	37.086
784.57	34.868
784.88	46.377
785.19	36.667
785.50	58.621
785.81	62.016
786.11	46.667
786.42	53.543
786.73	44.144
787.04	36.792
787.34	36.585
787.65	51.515
787.96	47.727
788.26	43.307
788.57	42.336
788.88	41.549
789.19	41.985
789.49	47.297
789.80	39.844
790.11	39.669
790.41	50.000
790.72	50.000
791.03	58.654
791.33	62.626
791.64	61.053
791.95	52.632
792.25	55.208
792.56	54.000
792.87	53.659
793.17	56.818
793.48	71.765
793.79	58.621
794.09	51.136
794.40	51.724
794.70	48.413
795.01	42.308
795.32	36.641
795.62	43.590
795.93	52.941
796.23	49.593
796.54	60.204
796.85	70.455
797.15	71.429
797.46	63.415
797.76	61.250
798.07	69.333
798.37	61.250
798.68	62.500
798.99	64.634
799.29	57.333
799.60	48.837
799.90	67.105
800.21	72.727
800.51	59.155
800.82	65.517
801.12	73.846
801.43	72.000
801.73	67.241
802.04	66.234
802.34	57.534
802.65	86.275
802.95	76.087
803.26	75.806
803.56	65.000
803.87	76.119
804.17	79.365
804.48	69.811
804.78	56.944
805.09	80.303
805.39	76.190
805.70	96.491
806.00	67.143
806.30	79.687
806.61	58.824
806.91	65.556
807.22	55.435
807.52	55.263
807.83	72.368
808.13	69.565
808.43	83.871
808.74	67.123
809.04	60.714
809.35	82.353
809.65	69.697
809.95	86.275
810.26	79.630
810.56	85.937
810.86	93.878
811.17	84.211
811.47	97.826
811.77	68.966
812.08	55.172
812.38	92.857
812.69	104.762
812.99	75.556
813.29	94.286
813.59	151.613
813.90	63.793
814.20	81.967
814.50	84.000
814.81	64.912
815.11	88.889
815.41	91.071
815.72	105.357
816.02	108.000
816.32	90.244
816.62	84.483
816.93	103.030
817.23	90.244
817.53	91.071
817.84	80.000
818.14	83.333
818.44	95.833
818.74	94.340
819.04	89.744
819.35	118.182
819.65	92.308
819.95	112.963
820.25	121.277
820.56	116.216
820.86	118.421
821.16	74.468
821.46	126.316
821.76	98.182
822.07	69.048
822.37	81.579
822.67	116.279
822.97	89.474
823.27	97.826
823.57	131.250
823.88	115.385
824.18	124.242
824.48	126.087
824.78	113.889
825.08	139.130
825.38	134.483
825.69	102.941
825.99	80.851
826.29	83.333
826.59	111.429
826.89	113.333
827.19	128.571
827.49	122.581
827.79	134.615
828.09	92.857
828.39	108.333
828.70	89.189
829.00	125.000
829.30	212.500
829.60	113.889
829.90	125.806
830.20	109.091
830.50	127.027
830.80	154.167
831.10	161.538
831.40	142.857
831.70	150.000
832.00	160.000
832.30	156.522
832.60	191.667
832.90	133.333
833.20	165.000
833.50	121.053
833.80	123.529
834.10	107.895
834.40	157.895
834.70	100.000
835.00	168.000
835.30	75.676
835.60	115.625
835.90	113.514
836.20	123.077
836.50	145.455
836.80	102.439
837.10	130.435
837.40	269.231
837.70	157.895
838.00	156.667
838.30	158.333
838.60	148.000
838.90	310.000
839.19	193.750
839.49	140.000
839.79	106.897
840.09	150.000
840.39	240.000
840.69	168.421
840.99	100.000
841.29	178.261
841.59	155.000
841.88	172.000
842.18	355.556
842.48	146.429
842.78	159.259
843.08	246.154
843.38	168.182
843.68	235.714
843.97	485.714
844.27	143.478
844.57	1500.000
844.87	214.286
845.17	200.000
845.47	147.619
845.76	116.667
846.06	585.714
846.36	211.765
846.66	284.615
846.96	212.500
847.25	223.077
847.55	147.368
847.85	172.222
848.15	480.000
848.44	345.455
848.74	171.429
849.04	212.500
849.34	211.765
849.63	281.250
849.93	218.750
850.23	700.000
850.53	362.500
850.82	263.636
851.12	176.471
851.42	175.000
851.71	231.250
852.01	0.000
852.31	200.000
852.61	360.000
852.90	145.833
853.20	388.889
853.50	-2900.000
853.79	144.000
854.09	146.875
854.39	117.241
854.68	175.862
854.98	176.190
855.28	141.935
855.57	214.286
855.87	166.667
856.17	129.630
856.46	205.263
856.76	132.258
857.05	182.353
857.35	209.091
857.65	207.692
857.94	115.000
858.24	344.444
858.53	300.000
858.83	642.857
859.13	156.522
859.42	288.889
859.72	362.500
860.01	266.667
860.31	725.000
860.60	420.000
860.90	362.500
861.20	230.769
861.49	357.143
861.79	-3600.000
862.08	485.714
862.38	411.111
862.67	221.429
862.97	400.000
863.26	153.333
863.56	675.000
863.85	315.385
864.15	235.294
864.44	172.222
864.74	325.000
865.03	272.727
865.33	350.000
865.62	260.000
865.92	483.333
866.21	700.000
866.51	540.000
866.80	205.556
867.10	866.667
867.39	2200.000
867.69	560.000
867.98	700.000
868.27	219.048
868.57	226.667
868.86	725.000
869.16	200.000
869.45	3900.000
869.75	-350.000
870.04	650.000
870.33	600.000
870.63	450.000
870.92	241.176
871.22	425.000
871.51	457.143
871.80	341.667
872.10	230.769
>>>>>End Processed Spectral Data<<<<<
