SpectraSuite Data File
++++++++++++++++++++++++++++++++++++
Date: Tue May 12 17:08:03 PDT 2015
User: schluterlab
Dark Spectrum Present: Yes
Reference Spectrum Present: Yes
Number of Sampled Component Spectra: 1
Spectrometers: USB2E3373
Integration Time (usec): 3000 (USB2E3373)
Spectra Averaged: 3 (USB2E3373)
Boxcar Smoothing: 0 (USB2E3373)
Correct for Electrical Dark: No (USB2E3373)
Strobe/Lamp Enabled: No (USB2E3373)
Correct for Detector Non-linearity: No (USB2E3373)
Correct for Stray Light: No (USB2E3373)
Number of Pixels in Processed Spectrum: 2048
>>>>>Begin Processed Spectral Data<<<<<
178.53	0.000
178.91	-266.667
179.29	-750.000
179.67	-3700.000
180.04	-166.667
180.42	500.000
180.80	1550.000
181.18	0.000
181.56	-375.000
181.94	0.000
182.31	1100.000
182.69	-2800.000
183.07	557.143
183.45	-3100.000
183.83	-1550.000
184.20	350.000
184.58	542.857
184.96	-215.385
185.34	-158.333
185.72	1750.000
186.09	-650.000
186.47	-3600.000
186.85	1166.667
187.23	760.000
187.61	1850.000
187.98	400.000
188.36	264.286
188.74	341.667
189.12	300.000
189.49	975.000
189.87	0.000
190.25	550.000
190.63	2400.000
191.00	-125.000
191.38	-3600.000
191.76	-750.000
192.14	375.000
192.51	-2200.000
192.89	1500.000
193.27	1166.667
193.65	-700.000
194.02	-820.000
194.40	528.571
194.78	-157.143
195.15	240.000
195.53	-2000.000
195.91	-560.000
196.29	4000.000
196.66	218.750
197.04	775.000
197.42	-1200.000
197.79	425.000
198.17	283.333
198.55	0.000
198.92	414.286
199.30	1100.000
199.68	1700.000
200.05	683.333
200.43	-566.667
200.81	172.222
201.18	3000.000
201.56	358.333
201.94	-625.000
202.31	-325.000
202.69	-400.000
203.07	3000.000
203.44	-516.667
203.82	325.000
204.19	760.000
204.57	-1250.000
204.95	-775.000
205.32	-580.000
205.70	533.333
206.08	725.000
206.45	-600.000
206.83	366.667
207.20	210.526
207.58	216.667
207.96	700.000
208.33	0.000
208.71	585.714
209.08	660.000
209.46	-1900.000
209.84	-600.000
210.21	780.000
210.59	-580.000
210.96	350.000
211.34	-950.000
211.71	400.000
212.09	625.000
212.46	1350.000
212.84	-416.667
213.22	377.778
213.59	-3200.000
213.97	310.000
214.34	1000.000
214.72	1066.667
215.09	1433.333
215.47	-3800.000
215.84	-340.000
216.22	-425.000
216.59	0.000
216.97	0.000
217.34	1450.000
217.72	-1500.000
218.09	1400.000
218.47	350.000
218.84	825.000
219.22	1200.000
219.59	1033.333
219.97	328.571
220.34	355.556
220.72	1500.000
221.09	3000.000
221.47	225.000
221.84	1166.667
222.22	430.000
222.59	238.889
222.97	221.429
223.34	231.250
223.72	-1450.000
224.09	900.000
224.46	284.615
224.84	-600.000
225.21	300.000
225.59	240.000
225.96	1166.667
226.34	-420.000
226.71	-850.000
227.08	-520.000
227.46	0.000
227.83	-483.333
228.21	-1200.000
228.58	333.333
228.95	1000.000
229.33	388.889
229.70	1150.000
230.08	307.692
230.45	3600.000
230.82	-800.000
231.20	-733.333
231.57	-966.667
231.95	600.000
232.32	233.333
232.69	433.333
233.07	275.000
233.44	-1550.000
233.81	233.333
234.19	155.556
234.56	250.000
234.93	176.471
235.31	190.000
235.68	237.500
236.05	139.286
236.43	137.037
236.80	250.000
237.17	151.724
237.55	100.000
237.92	97.500
238.29	106.061
238.67	96.875
239.04	65.854
239.41	47.917
239.79	67.500
240.16	62.500
240.53	49.180
240.91	37.681
241.28	47.458
241.65	53.030
242.02	43.662
242.40	50.000
242.77	39.560
243.14	34.177
243.51	48.485
243.89	39.252
244.26	35.514
244.63	33.663
245.00	30.275
245.38	20.339
245.75	31.818
246.12	31.852
246.49	29.787
246.87	18.033
247.24	28.000
247.61	20.625
247.98	24.490
248.36	19.394
248.73	21.939
249.10	13.095
249.47	21.500
249.84	15.920
250.22	18.378
250.59	19.500
250.96	21.519
251.33	23.721
251.70	16.518
252.08	16.387
252.45	15.538
252.82	14.829
253.19	14.229
253.56	14.615
253.94	14.493
254.31	12.791
254.68	15.679
255.05	19.655
255.42	16.058
255.79	16.612
256.16	16.610
256.54	15.260
256.91	15.359
257.28	12.709
257.65	10.658
258.02	12.684
258.39	16.046
258.76	12.754
259.14	8.857
259.51	10.787
259.88	10.638
260.25	10.714
260.62	9.863
260.99	8.264
261.36	11.421
261.73	9.043
262.10	8.901
262.47	10.500
262.85	9.600
263.22	11.311
263.59	8.951
263.96	11.278
264.33	9.383
264.70	10.319
265.07	8.537
265.44	11.468
265.81	12.736
266.18	8.238
266.55	8.511
266.92	8.501
267.29	8.772
267.66	6.951
268.03	6.502
268.40	11.205
268.77	11.894
269.14	8.677
269.51	7.795
269.88	11.224
270.25	6.263
270.62	8.155
270.99	7.708
271.36	9.756
271.73	10.063
272.10	9.899
272.47	10.119
272.84	8.383
273.21	7.851
273.58	8.704
273.95	5.133
274.32	8.755
274.69	9.252
275.06	8.561
275.43	7.088
275.80	8.302
276.17	9.007
276.54	7.477
276.91	8.955
277.28	7.847
277.65	7.011
278.02	7.721
278.39	6.295
278.76	8.793
279.13	7.829
279.50	7.818
279.87	5.587
280.23	6.262
280.60	8.029
280.97	6.552
281.34	6.271
281.71	6.957
282.08	8.718
282.45	6.926
282.82	6.856
283.19	7.790
283.56	7.934
283.92	5.700
284.29	7.820
284.66	6.723
285.03	6.965
285.40	5.785
285.77	6.481
286.14	8.978
286.51	7.822
286.87	6.013
287.24	5.405
287.61	6.839
287.98	8.060
288.35	7.111
288.72	5.311
289.08	6.456
289.45	7.470
289.82	7.344
290.19	7.174
290.56	8.879
290.93	7.050
291.29	7.320
291.66	6.215
292.03	6.872
292.40	7.995
292.77	8.496
293.13	6.562
293.50	6.748
293.87	7.046
294.24	8.112
294.60	7.402
294.97	7.133
295.34	8.898
295.71	8.673
296.08	7.600
296.44	7.497
296.81	6.079
297.18	6.844
297.55	8.128
297.91	6.650
298.28	7.488
298.65	7.975
299.02	7.479
299.38	7.914
299.75	6.951
300.12	8.372
300.48	8.899
300.85	7.986
301.22	7.907
301.59	7.429
301.95	6.768
302.32	8.033
302.69	8.258
303.05	8.418
303.42	7.175
303.79	8.342
304.15	8.141
304.52	8.562
304.89	6.823
305.25	7.564
305.62	7.143
305.99	8.043
306.35	5.684
306.72	7.388
307.09	7.350
307.45	8.025
307.82	7.407
308.19	7.629
308.55	7.100
308.92	9.127
309.29	8.284
309.65	8.028
310.02	8.418
310.38	7.378
310.75	8.390
311.12	8.429
311.48	8.591
311.85	8.874
312.22	8.214
312.58	8.163
312.95	9.126
313.31	8.895
313.68	7.692
314.05	9.158
314.41	8.101
314.78	7.576
315.14	8.531
315.51	9.839
315.87	8.942
316.24	8.497
316.61	8.863
316.97	8.257
317.34	8.805
317.70	9.833
318.07	8.452
318.43	9.402
318.80	9.895
319.16	8.741
319.53	9.027
319.89	8.333
320.26	10.615
320.62	9.890
320.99	10.010
321.35	9.647
321.72	9.962
322.08	9.972
322.45	10.173
322.81	10.887
323.18	10.391
323.54	11.498
323.91	11.061
324.27	10.964
324.64	9.083
325.00	11.034
325.37	11.214
325.73	10.371
326.10	11.930
326.46	10.652
326.83	9.440
327.19	11.807
327.56	10.543
327.92	11.230
328.29	10.884
328.65	10.873
329.01	10.778
329.38	11.506
329.74	10.589
330.11	11.468
330.47	12.106
330.84	11.389
331.20	11.252
331.56	12.694
331.93	11.719
332.29	9.864
332.66	11.310
333.02	10.739
333.38	10.384
333.75	12.177
334.11	11.242
334.48	10.342
334.84	11.233
335.20	11.206
335.57	10.579
335.93	11.606
336.29	11.111
336.66	11.664
337.02	10.778
337.38	11.694
337.75	11.824
338.11	11.646
338.47	11.092
338.84	10.754
339.20	10.563
339.56	10.345
339.93	9.783
340.29	10.504
340.65	11.148
341.02	11.826
341.38	11.576
341.74	9.801
342.11	9.683
342.47	10.500
342.83	11.403
343.20	11.237
343.56	9.452
343.92	10.487
344.28	11.164
344.65	10.676
345.01	9.841
345.37	10.337
345.73	10.556
346.10	10.916
346.46	10.606
346.82	9.491
347.19	11.901
347.55	10.617
347.91	9.894
348.27	9.682
348.63	10.839
349.00	10.739
349.36	10.661
349.72	10.474
350.08	10.714
350.45	10.891
350.81	10.398
351.17	9.938
351.53	9.931
351.89	9.557
352.26	9.902
352.62	10.784
352.98	10.813
353.34	10.940
353.70	9.786
354.07	10.154
354.43	10.676
354.79	9.643
355.15	9.801
355.51	9.894
355.87	9.789
356.24	9.931
356.60	9.665
356.96	10.766
357.32	10.023
357.68	10.646
358.04	10.334
358.40	10.120
358.77	10.443
359.13	9.985
359.49	11.193
359.85	11.020
360.21	9.510
360.57	11.022
360.93	10.317
361.29	10.534
361.66	11.037
362.02	8.949
362.38	10.823
362.74	10.686
363.10	11.220
363.46	10.290
363.82	11.010
364.18	10.669
364.54	10.443
364.90	11.513
365.26	11.034
365.62	10.497
365.98	9.566
366.35	9.931
366.71	10.687
367.07	10.853
367.43	10.544
367.79	10.372
368.15	9.498
368.51	11.096
368.87	10.326
369.23	10.326
369.59	10.587
369.95	10.559
370.31	9.993
370.67	10.895
371.03	10.644
371.39	10.526
371.75	10.537
372.11	11.353
372.47	10.548
372.83	10.537
373.19	10.829
373.55	11.065
373.91	10.843
374.27	10.913
374.63	10.305
374.99	10.108
375.35	10.820
375.71	10.818
376.07	10.212
376.42	9.783
376.78	10.469
377.14	9.895
377.50	10.487
377.86	10.890
378.22	10.786
378.58	10.714
378.94	10.199
379.30	10.673
379.66	10.716
380.02	11.202
380.38	10.304
380.74	10.438
381.09	10.339
381.45	10.520
381.81	11.229
382.17	10.379
382.53	10.258
382.89	10.585
383.25	10.480
383.61	10.490
383.97	11.158
384.32	10.850
384.68	12.002
385.04	10.785
385.40	10.498
385.76	10.825
386.12	10.637
386.48	10.699
386.83	10.880
387.19	10.130
387.55	10.777
387.91	10.970
388.27	10.767
388.62	12.089
388.98	10.262
389.34	10.589
389.70	11.085
390.06	11.402
390.42	11.413
390.77	11.302
391.13	10.561
391.49	11.373
391.85	11.200
392.20	12.038
392.56	11.529
392.92	9.882
393.28	10.650
393.64	10.780
393.99	10.848
394.35	10.653
394.71	11.218
395.07	10.645
395.42	10.890
395.78	12.091
396.14	11.627
396.50	10.650
396.85	10.793
397.21	10.650
397.57	11.596
397.92	10.687
398.28	9.818
398.64	11.402
399.00	10.689
399.35	9.984
399.71	10.872
400.07	11.016
400.42	10.507
400.78	10.557
401.14	9.982
401.49	10.829
401.85	10.950
402.21	10.310
402.57	10.533
402.92	10.727
403.28	9.905
403.63	10.653
403.99	10.736
404.35	10.785
404.70	10.455
405.06	10.163
405.42	10.652
405.77	10.915
406.13	10.629
406.49	10.574
406.84	10.152
407.20	11.016
407.55	10.769
407.91	11.168
408.27	10.976
408.62	11.236
408.98	10.881
409.34	10.812
409.69	10.268
410.05	10.316
410.40	10.130
410.76	9.731
411.11	10.723
411.47	10.432
411.83	11.072
412.18	10.809
412.54	9.970
412.89	10.029
413.25	10.661
413.60	9.696
413.96	10.652
414.31	10.862
414.67	11.173
415.03	10.089
415.38	11.104
415.74	11.118
416.09	10.556
416.45	10.924
416.80	11.225
417.16	10.821
417.51	10.828
417.87	11.452
418.22	10.510
418.58	10.318
418.93	10.410
419.29	10.351
419.64	10.236
420.00	10.800
420.35	10.511
420.71	10.677
421.06	10.300
421.42	10.248
421.77	10.439
422.12	10.309
422.48	10.889
422.83	11.105
423.19	10.205
423.54	10.368
423.90	10.532
424.25	10.457
424.61	10.563
424.96	10.107
425.31	10.181
425.67	10.887
426.02	10.656
426.38	10.852
426.73	11.047
427.09	11.210
427.44	10.411
427.79	10.692
428.15	11.373
428.50	11.029
428.85	11.405
429.21	11.129
429.56	10.668
429.92	11.188
430.27	10.740
430.62	10.817
430.98	10.629
431.33	10.131
431.68	10.667
432.04	10.605
432.39	11.087
432.74	10.480
433.10	10.963
433.45	10.971
433.80	11.914
434.16	11.088
434.51	11.662
434.86	11.105
435.22	10.427
435.57	11.085
435.92	12.408
436.28	11.002
436.63	11.237
436.98	10.642
437.34	11.872
437.69	10.806
438.04	10.914
438.39	11.325
438.75	11.526
439.10	11.765
439.45	10.797
439.81	11.567
440.16	11.833
440.51	11.149
440.86	11.567
441.22	11.797
441.57	10.919
441.92	11.007
442.27	10.619
442.63	11.179
442.98	11.207
443.33	11.837
443.68	11.821
444.03	11.074
444.39	11.252
444.74	11.128
445.09	11.690
445.44	11.371
445.79	11.696
446.15	10.895
446.50	11.340
446.85	11.355
447.20	11.144
447.55	10.821
447.91	11.987
448.26	11.821
448.61	11.553
448.96	12.527
449.31	12.266
449.66	12.292
450.02	12.210
450.37	12.104
450.72	11.625
451.07	11.809
451.42	12.448
451.77	12.199
452.12	12.195
452.47	11.847
452.83	12.000
453.18	12.372
453.53	12.789
453.88	12.286
454.23	12.144
454.58	12.413
454.93	11.527
455.28	12.791
455.63	11.879
455.98	12.578
456.34	12.888
456.69	12.256
457.04	12.232
457.39	11.543
457.74	12.556
458.09	11.847
458.44	11.884
458.79	11.830
459.14	11.129
459.49	12.061
459.84	11.848
460.19	12.203
460.54	12.194
460.89	12.580
461.24	11.684
461.59	12.132
461.94	12.530
462.29	12.414
462.64	12.123
462.99	12.092
463.34	12.703
463.69	12.886
464.04	12.378
464.39	12.479
464.74	11.723
465.09	13.001
465.44	12.024
465.79	11.867
466.14	11.924
466.49	11.340
466.84	12.542
467.19	12.712
467.54	11.832
467.89	12.676
468.24	11.928
468.59	12.143
468.94	12.258
469.29	13.073
469.64	12.797
469.99	12.918
470.34	11.701
470.68	12.690
471.03	12.475
471.38	12.781
471.73	12.867
472.08	13.112
472.43	12.415
472.78	12.868
473.13	11.952
473.48	12.592
473.83	13.074
474.17	12.766
474.52	12.737
474.87	12.052
475.22	12.564
475.57	11.752
475.92	12.366
476.27	11.861
476.61	11.850
476.96	12.487
477.31	11.260
477.66	12.346
478.01	11.552
478.36	12.358
478.70	11.613
479.05	11.454
479.40	12.054
479.75	12.562
480.10	12.004
480.45	12.232
480.79	12.074
481.14	11.840
481.49	11.345
481.84	12.005
482.19	12.183
482.53	12.033
482.88	11.290
483.23	11.502
483.58	11.625
483.92	12.751
484.27	11.772
484.62	11.927
484.97	11.843
485.31	11.057
485.66	11.228
486.01	10.714
486.36	10.362
486.70	10.291
487.05	10.558
487.40	10.660
487.75	10.944
488.09	10.994
488.44	10.899
488.79	11.628
489.13	11.609
489.48	12.026
489.83	11.760
490.17	11.437
490.52	11.283
490.87	12.112
491.22	12.411
491.56	12.516
491.91	11.649
492.26	11.982
492.60	12.210
492.95	11.962
493.30	11.829
493.64	12.309
493.99	12.254
494.34	12.102
494.68	11.554
495.03	12.034
495.37	12.247
495.72	12.401
496.07	11.725
496.41	12.163
496.76	12.537
497.11	12.168
497.45	11.662
497.80	12.651
498.14	12.390
498.49	12.488
498.84	12.430
499.18	11.974
499.53	12.219
499.87	12.579
500.22	12.437
500.56	11.978
500.91	12.616
501.26	12.494
501.60	11.885
501.95	11.918
502.29	11.956
502.64	12.351
502.98	11.294
503.33	12.071
503.67	12.053
504.02	11.599
504.36	12.534
504.71	12.346
505.06	12.154
505.40	12.120
505.75	12.254
506.09	12.692
506.44	12.359
506.78	12.382
507.13	11.876
507.47	12.567
507.82	13.577
508.16	12.788
508.51	12.802
508.85	12.536
509.19	12.482
509.54	12.939
509.88	12.879
510.23	12.451
510.57	12.500
510.92	13.037
511.26	12.851
511.61	12.802
511.95	13.041
512.30	12.800
512.64	12.565
512.98	13.326
513.33	13.064
513.67	13.257
514.02	12.831
514.36	13.136
514.70	12.053
515.05	12.254
515.39	13.103
515.74	13.723
516.08	12.908
516.42	13.443
516.77	12.853
517.11	12.747
517.46	12.823
517.80	12.889
518.14	13.690
518.49	13.175
518.83	13.187
519.17	13.089
519.52	13.545
519.86	13.515
520.20	13.918
520.55	13.228
520.89	13.563
521.23	13.493
521.58	13.253
521.92	13.236
522.26	13.507
522.61	13.369
522.95	14.114
523.29	12.690
523.64	13.121
523.98	12.617
524.32	13.322
524.66	12.754
525.01	13.491
525.35	13.966
525.69	13.666
526.04	13.742
526.38	12.772
526.72	14.200
527.06	12.833
527.41	14.087
527.75	13.390
528.09	13.847
528.43	13.972
528.78	13.953
529.12	13.666
529.46	12.916
529.80	13.727
530.15	13.377
530.49	13.357
530.83	13.528
531.17	13.161
531.51	13.243
531.86	13.647
532.20	13.597
532.54	12.743
532.88	13.492
533.22	14.503
533.57	14.155
533.91	12.646
534.25	12.695
534.59	13.626
534.93	12.969
535.27	12.521
535.62	13.186
535.96	12.766
536.30	14.016
536.64	12.919
536.98	12.712
537.32	14.188
537.66	12.628
538.01	13.808
538.35	13.100
538.69	13.592
539.03	12.687
539.37	13.107
539.71	13.395
540.05	12.923
540.39	13.082
540.73	13.797
541.07	12.735
541.42	13.060
541.76	12.762
542.10	12.885
542.44	14.027
542.78	13.027
543.12	12.577
543.46	13.346
543.80	13.033
544.14	13.313
544.48	13.260
544.82	13.028
545.16	12.568
545.50	13.768
545.84	13.384
546.18	14.434
546.52	13.967
546.86	12.637
547.20	12.468
547.54	12.666
547.88	12.956
548.22	12.993
548.56	13.082
548.90	13.167
549.24	13.519
549.58	12.629
549.92	13.163
550.26	13.523
550.60	13.506
550.94	13.161
551.28	13.310
551.62	14.414
551.96	13.581
552.30	12.986
552.64	13.528
552.98	13.080
553.32	12.932
553.66	12.964
554.00	12.870
554.34	14.115
554.68	12.769
555.02	12.695
555.36	12.766
555.69	13.089
556.03	12.611
556.37	12.874
556.71	13.299
557.05	12.582
557.39	13.200
557.73	13.544
558.07	13.414
558.41	13.571
558.75	14.022
559.08	13.581
559.42	13.171
559.76	14.398
560.10	13.076
560.44	12.807
560.78	13.171
561.12	13.795
561.45	12.766
561.79	12.859
562.13	12.192
562.47	12.330
562.81	13.012
563.15	12.476
563.48	11.118
563.82	14.410
564.16	12.562
564.50	12.055
564.84	12.523
565.17	12.894
565.51	12.931
565.85	13.202
566.19	12.679
566.52	12.214
566.86	13.310
567.20	12.978
567.54	11.135
567.88	12.833
568.21	11.782
568.55	11.673
568.89	12.409
569.23	10.871
569.56	11.981
569.90	11.067
570.24	11.380
570.57	11.486
570.91	10.733
571.25	10.676
571.59	10.462
571.92	10.414
572.26	10.404
572.60	10.247
572.93	10.696
573.27	10.138
573.61	10.016
573.95	10.682
574.28	10.301
574.62	9.874
574.96	9.742
575.29	10.437
575.63	10.153
575.97	9.907
576.30	9.947
576.64	9.900
576.98	9.705
577.31	10.459
577.65	10.121
577.98	9.698
578.32	9.330
578.66	9.992
578.99	10.237
579.33	10.081
579.67	9.855
580.00	9.883
580.34	10.036
580.67	10.067
581.01	10.292
581.35	9.640
581.68	9.439
582.02	9.520
582.35	9.537
582.69	9.855
583.02	9.697
583.36	9.555
583.70	10.007
584.03	10.167
584.37	10.298
584.70	9.953
585.04	9.803
585.37	9.558
585.71	10.045
586.04	9.767
586.38	9.504
586.72	9.858
587.05	10.293
587.39	9.937
587.72	10.198
588.06	10.256
588.39	10.031
588.73	9.916
589.06	10.242
589.40	10.454
589.73	10.882
590.07	10.776
590.40	11.010
590.73	11.164
591.07	10.664
591.40	10.379
591.74	10.552
592.07	10.025
592.41	10.831
592.74	10.399
593.08	10.384
593.41	10.293
593.75	9.693
594.08	10.779
594.41	10.101
594.75	10.445
595.08	10.597
595.42	11.224
595.75	10.694
596.09	10.845
596.42	10.415
596.75	10.697
597.09	11.350
597.42	10.367
597.75	10.223
598.09	10.423
598.42	10.567
598.76	10.833
599.09	10.850
599.42	10.138
599.76	10.448
600.09	10.136
600.42	10.083
600.76	10.639
601.09	9.803
601.42	9.996
601.76	9.918
602.09	10.522
602.42	10.055
602.76	10.626
603.09	10.709
603.42	10.532
603.76	10.268
604.09	9.591
604.42	10.019
604.76	10.549
605.09	10.490
605.42	10.646
605.75	10.067
606.09	10.673
606.42	10.184
606.75	10.144
607.09	10.343
607.42	10.245
607.75	10.470
608.08	10.682
608.42	10.445
608.75	10.270
609.08	10.339
609.41	10.636
609.75	11.264
610.08	10.612
610.41	10.101
610.74	10.303
611.07	11.505
611.41	10.890
611.74	10.660
612.07	10.116
612.40	11.062
612.73	10.684
613.07	10.745
613.40	10.777
613.73	10.684
614.06	9.750
614.39	11.212
614.72	11.251
615.06	10.682
615.39	11.238
615.72	10.649
616.05	10.899
616.38	11.060
616.71	10.960
617.05	10.983
617.38	10.281
617.71	11.192
618.04	11.049
618.37	10.395
618.70	10.970
619.03	10.989
619.36	12.186
619.69	10.950
620.03	12.524
620.36	12.010
620.69	12.324
621.02	11.753
621.35	11.605
621.68	12.094
622.01	12.768
622.34	10.706
622.67	11.376
623.00	11.028
623.33	12.348
623.66	10.446
623.99	11.781
624.32	11.585
624.65	11.126
624.99	11.562
625.32	11.690
625.65	11.172
625.98	10.948
626.31	11.721
626.64	10.782
626.97	11.324
627.30	11.568
627.63	12.480
627.96	11.659
628.29	11.881
628.62	12.917
628.95	11.525
629.28	14.023
629.61	12.566
629.94	12.100
630.26	13.605
630.59	13.209
630.92	12.377
631.25	12.602
631.58	12.633
631.91	12.369
632.24	12.342
632.57	12.770
632.90	12.629
633.23	14.271
633.56	13.383
633.89	13.076
634.22	13.240
634.55	12.258
634.88	14.020
635.20	12.780
635.53	12.195
635.86	14.206
636.19	12.233
636.52	12.108
636.85	12.513
637.18	13.001
637.51	12.626
637.83	13.730
638.16	13.013
638.49	14.731
638.82	13.732
639.15	12.926
639.48	13.981
639.81	13.675
640.13	13.374
640.46	15.044
640.79	13.264
641.12	12.992
641.45	15.136
641.77	15.059
642.10	14.190
642.43	15.789
642.76	14.205
643.09	14.841
643.41	13.745
643.74	15.971
644.07	13.274
644.40	13.905
644.73	15.015
645.05	15.750
645.38	13.629
645.71	14.264
646.04	14.656
646.36	14.867
646.69	13.440
647.02	17.120
647.35	14.016
647.67	15.721
648.00	15.798
648.33	17.143
648.66	13.788
648.98	13.913
649.31	13.090
649.64	12.863
649.96	12.660
650.29	13.571
650.62	14.875
650.94	14.910
651.27	15.470
651.60	14.241
651.92	15.822
652.25	15.118
652.58	13.617
652.90	14.222
653.23	14.919
653.56	13.056
653.88	13.216
654.21	14.076
654.54	14.056
654.86	15.487
655.19	13.588
655.52	10.818
655.84	7.335
656.17	8.037
656.49	11.558
656.82	13.333
657.15	10.656
657.47	8.034
657.80	5.992
658.13	4.759
658.45	6.430
658.78	7.937
659.10	7.830
659.43	8.204
659.75	8.677
660.08	9.023
660.41	11.887
660.73	13.049
661.06	14.565
661.38	14.651
661.71	15.827
662.03	12.357
662.36	16.190
662.68	14.339
663.01	18.018
663.33	16.415
663.66	15.779
663.98	15.278
664.31	16.231
664.63	15.517
664.96	19.700
665.28	14.689
665.61	13.774
665.93	13.962
666.26	15.327
666.58	17.615
666.91	16.023
667.23	15.663
667.56	16.838
667.88	16.390
668.21	16.393
668.53	16.734
668.86	17.234
669.18	16.090
669.50	13.430
669.83	17.659
670.15	17.464
670.48	14.258
670.80	15.538
671.13	17.331
671.45	15.832
671.77	14.842
672.10	13.645
672.42	12.664
672.75	13.449
673.07	15.421
673.39	13.099
673.72	15.052
674.04	13.978
674.37	13.612
674.69	14.498
675.01	16.231
675.34	13.178
675.66	17.578
675.98	15.976
676.31	15.600
676.63	14.712
676.95	16.468
677.28	14.199
677.60	13.883
677.92	13.294
678.25	15.310
678.57	16.015
678.89	15.913
679.22	15.809
679.54	15.480
679.86	12.391
680.18	13.708
680.51	11.609
680.83	13.345
681.15	12.825
681.48	15.972
681.80	14.011
682.12	14.187
682.44	11.712
682.77	15.480
683.09	17.282
683.41	14.286
683.73	14.567
684.06	13.095
684.38	13.760
684.70	12.770
685.02	14.410
685.34	14.437
685.67	14.630
685.99	12.808
686.31	14.022
686.63	13.821
686.96	14.216
687.28	11.409
687.60	14.164
687.92	13.735
688.24	16.552
688.56	13.701
688.89	12.620
689.21	17.534
689.53	16.403
689.85	12.398
690.17	15.146
690.49	16.331
690.82	12.185
691.14	15.960
691.46	14.168
691.78	14.620
692.10	14.313
692.42	12.523
692.74	15.310
693.06	13.760
693.39	13.043
693.71	14.538
694.03	16.963
694.35	16.667
694.67	15.071
694.99	16.630
695.31	15.766
695.63	17.873
695.95	16.290
696.27	16.150
696.59	15.990
696.91	15.190
697.23	16.063
697.56	12.241
697.88	11.976
698.20	14.151
698.52	13.035
698.84	15.606
699.16	15.565
699.48	15.254
699.80	18.083
700.12	19.169
700.44	16.589
700.76	17.422
701.08	16.971
701.40	15.325
701.72	19.519
702.04	17.344
702.36	16.667
702.68	16.755
703.00	12.030
703.32	19.107
703.64	16.625
703.96	14.062
704.28	17.725
704.60	16.620
704.91	15.686
705.23	13.636
705.55	17.507
705.87	15.873
706.19	20.376
706.51	21.317
706.83	15.929
707.15	17.380
707.47	17.191
707.79	17.471
708.11	15.646
708.43	14.831
708.74	11.765
709.06	16.047
709.38	16.377
709.70	13.896
710.02	17.663
710.34	16.022
710.66	16.111
710.98	17.486
711.29	15.599
711.61	16.713
711.93	17.933
712.25	17.470
712.57	13.826
712.89	21.515
713.20	20.447
713.52	17.134
713.84	17.523
714.16	15.362
714.48	8.934
714.80	16.802
715.11	15.160
715.43	15.084
715.75	15.493
716.07	18.497
716.39	18.286
716.70	17.445
717.02	16.162
717.34	23.022
717.66	22.222
717.97	23.106
718.29	17.254
718.61	18.581
718.93	18.339
719.24	17.114
719.56	15.172
719.88	14.968
720.20	18.710
720.51	16.340
720.83	20.401
721.15	17.007
721.46	20.890
721.78	16.725
722.10	20.486
722.42	20.401
722.73	18.412
723.05	18.947
723.37	19.081
723.68	16.797
724.00	18.939
724.32	19.011
724.63	20.385
724.95	19.216
725.27	19.703
725.58	19.853
725.90	16.197
726.22	16.781
726.53	16.054
726.85	20.521
727.16	18.121
727.48	18.605
727.80	18.345
728.11	22.500
728.43	16.667
728.74	16.783
729.06	10.753
729.38	16.842
729.69	22.000
730.01	23.026
730.32	18.121
730.64	20.930
730.96	15.916
731.27	14.067
731.59	15.230
731.90	15.599
732.22	16.286
732.53	15.100
732.85	19.006
733.16	13.253
733.48	17.555
733.80	19.130
734.11	19.939
734.43	12.865
734.74	15.818
735.06	18.519
735.37	16.237
735.69	15.652
736.00	19.572
736.32	15.152
736.63	15.142
736.95	16.770
737.26	17.988
737.58	17.485
737.89	16.867
738.21	14.238
738.52	16.388
738.83	17.216
739.15	17.770
739.46	16.897
739.78	18.027
740.09	18.076
740.41	13.190
740.72	16.825
741.04	21.678
741.35	18.359
741.66	21.739
741.98	21.030
742.29	24.537
742.61	17.257
742.92	19.492
743.23	17.600
743.55	20.000
743.86	18.824
744.18	23.305
744.49	17.769
744.80	18.433
745.12	21.875
745.43	20.561
745.74	21.778
746.06	21.053
746.37	22.326
746.68	25.664
747.00	20.179
747.31	20.168
747.62	16.393
747.94	15.451
748.25	18.677
748.56	19.492
748.88	16.071
749.19	21.395
749.50	15.982
749.82	22.222
750.13	20.553
750.44	20.333
750.75	18.456
751.07	18.421
751.38	17.822
751.69	18.519
752.01	16.084
752.32	18.605
752.63	20.134
752.94	17.483
753.26	19.141
753.57	20.623
753.88	15.356
754.19	15.884
754.51	18.605
754.82	14.765
755.13	20.608
755.44	15.926
755.75	20.275
756.07	19.178
756.38	16.013
756.69	17.812
757.00	18.101
757.31	18.873
757.63	15.152
757.94	14.362
758.25	14.010
758.56	15.332
758.87	16.040
759.18	16.860
759.50	17.629
759.81	18.694
760.12	14.045
760.43	14.566
760.74	16.456
761.05	14.854
761.36	13.021
761.67	14.016
761.99	17.465
762.30	16.399
762.61	15.625
762.92	19.318
763.23	21.132
763.54	20.769
763.85	17.121
764.16	21.181
764.47	15.203
764.78	14.658
765.10	19.817
765.41	12.784
765.72	14.641
766.03	16.012
766.34	17.422
766.65	17.110
766.96	20.243
767.27	26.636
767.58	20.297
767.89	22.099
768.20	25.610
768.51	20.408
768.82	22.807
769.13	15.294
769.44	18.421
769.75	19.101
770.06	21.429
770.37	16.228
770.68	17.333
770.99	21.610
771.30	20.921
771.61	21.538
771.92	18.702
772.23	21.371
772.54	20.000
772.85	26.238
773.16	21.739
773.47	18.333
773.78	14.851
774.09	27.841
774.39	32.121
774.70	17.059
775.01	20.395
775.32	23.602
775.63	28.082
775.94	36.420
776.25	27.586
776.56	27.481
776.87	28.244
777.18	28.030
777.48	39.370
777.79	30.769
778.10	23.485
778.41	34.328
778.72	21.805
779.03	26.282
779.34	22.297
779.65	31.056
779.95	25.466
780.26	20.238
780.57	31.293
780.88	26.241
781.19	36.667
781.50	26.627
781.80	28.962
782.11	26.984
782.42	20.115
782.73	21.469
783.04	20.645
783.34	27.132
783.65	24.490
783.96	29.032
784.27	21.192
784.57	28.289
784.88	32.609
785.19	22.500
785.50	37.931
785.81	44.961
786.11	23.704
786.42	36.220
786.73	22.523
787.04	30.189
787.34	30.894
787.65	38.636
787.96	33.333
788.26	28.346
788.57	35.766
788.88	34.507
789.19	33.588
789.49	33.784
789.80	28.125
790.11	31.405
790.41	37.037
790.72	31.481
791.03	40.385
791.33	38.384
791.64	37.895
791.95	40.000
792.25	35.417
792.56	26.000
792.87	43.902
793.17	34.091
793.48	47.059
793.79	45.977
794.09	38.636
794.40	35.345
794.70	30.952
795.01	20.769
795.32	23.664
795.62	26.496
795.93	39.496
796.23	39.024
796.54	43.878
796.85	47.727
797.15	58.442
797.46	64.634
797.76	47.500
798.07	53.333
798.37	45.000
798.68	51.250
798.99	56.098
799.29	53.333
799.60	25.581
799.90	52.632
800.21	45.455
800.51	42.254
800.82	53.448
801.12	58.462
801.43	49.333
801.73	46.552
802.04	45.455
802.34	57.534
802.65	52.941
802.95	60.870
803.26	50.000
803.56	60.000
803.87	47.761
804.17	69.841
804.48	50.943
804.78	51.389
805.09	53.030
805.39	58.730
805.70	52.632
806.00	47.143
806.30	57.813
806.61	45.882
806.91	46.667
807.22	32.609
807.52	47.368
807.83	46.053
808.13	55.072
808.43	62.903
808.74	43.836
809.04	60.714
809.35	67.647
809.65	51.515
809.95	86.275
810.26	75.926
810.56	67.187
810.86	55.102
811.17	66.667
811.47	54.348
811.77	63.793
812.08	58.621
812.38	57.143
812.69	83.333
812.99	86.667
813.29	60.000
813.59	87.097
813.90	51.724
814.20	63.934
814.50	60.000
814.81	47.368
815.11	72.222
815.41	64.286
815.72	89.286
816.02	66.000
816.32	70.732
816.62	70.690
816.93	103.030
817.23	95.122
817.53	82.143
817.84	77.778
818.14	83.333
818.44	83.333
818.74	86.792
819.04	100.000
819.35	78.788
819.65	90.385
819.95	85.185
820.25	112.766
820.56	97.297
820.86	89.474
821.16	55.319
821.46	73.684
821.76	70.909
822.07	59.524
822.37	73.684
822.67	86.047
822.97	57.895
823.27	84.783
823.57	87.500
823.88	115.385
824.18	103.030
824.48	121.739
824.78	91.667
825.08	143.478
825.38	113.793
825.69	76.471
825.99	70.213
826.29	58.333
826.59	82.857
826.89	123.333
827.19	80.000
827.49	119.355
827.79	150.000
828.09	95.238
828.39	83.333
828.70	59.459
829.00	107.143
829.30	187.500
829.60	86.111
829.90	122.581
830.20	84.848
830.50	110.811
830.80	145.833
831.10	134.615
831.40	128.571
831.70	162.500
832.00	120.000
832.30	152.174
832.60	154.167
832.90	139.394
833.20	170.000
833.50	102.632
833.80	85.294
834.10	84.211
834.40	142.105
834.70	93.333
835.00	132.000
835.30	78.378
835.60	121.875
835.90	110.811
836.20	153.846
836.50	104.545
836.80	92.683
837.10	108.696
837.40	369.231
837.70	163.158
838.00	173.333
838.30	166.667
838.60	152.000
838.90	300.000
839.19	175.000
839.49	130.000
839.79	120.690
840.09	165.385
840.39	126.667
840.69	173.684
840.99	104.762
841.29	186.957
841.59	150.000
841.88	160.000
842.18	211.111
842.48	135.714
842.78	114.815
843.08	184.615
843.38	195.455
843.68	192.857
843.97	414.286
844.27	160.870
844.57	1400.000
844.87	250.000
845.17	188.889
845.47	123.810
845.76	191.667
846.06	400.000
846.36	217.647
846.66	338.462
846.96	168.750
847.25	261.538
847.55	200.000
847.85	94.444
848.15	480.000
848.44	290.909
848.74	161.905
849.04	154.167
849.34	105.882
849.63	193.750
849.93	275.000
850.23	933.333
850.53	400.000
850.82	272.727
851.12	182.353
851.42	183.333
851.71	206.250
852.01	0.000
852.31	164.706
852.61	340.000
852.90	179.167
853.20	377.778
853.50	-1900.000
853.79	132.000
854.09	131.250
854.39	117.241
854.68	155.172
854.98	204.762
855.28	119.355
855.57	257.143
855.87	122.222
856.17	137.037
856.46	157.895
856.76	109.677
857.05	164.706
857.35	227.273
857.65	207.692
857.94	155.000
858.24	355.556
858.53	228.571
858.83	428.571
859.13	182.609
859.42	400.000
859.72	387.500
860.01	191.667
860.31	950.000
860.60	350.000
860.90	350.000
861.20	292.308
861.49	457.143
861.79	-2900.000
862.08	485.714
862.38	311.111
862.67	200.000
862.97	350.000
863.26	116.667
863.56	750.000
863.85	269.231
864.15	241.176
864.44	211.111
864.74	275.000
865.03	318.182
865.33	312.500
865.62	246.667
865.92	400.000
866.21	825.000
866.51	700.000
866.80	177.778
867.10	833.333
867.39	3300.000
867.69	440.000
867.98	800.000
868.27	176.190
868.57	206.667
868.86	875.000
869.16	176.190
869.45	2500.000
869.75	-383.333
870.04	625.000
870.33	540.000
870.63	400.000
870.92	205.882
871.22	750.000
871.51	385.714
871.80	300.000
872.10	338.462
>>>>>End Processed Spectral Data<<<<<
