SpectraSuite Data File
++++++++++++++++++++++++++++++++++++
Date: Tue May 12 16:52:04 PDT 2015
User: schluterlab
Dark Spectrum Present: Yes
Reference Spectrum Present: Yes
Number of Sampled Component Spectra: 1
Spectrometers: USB2E3373
Integration Time (usec): 3000 (USB2E3373)
Spectra Averaged: 3 (USB2E3373)
Boxcar Smoothing: 0 (USB2E3373)
Correct for Electrical Dark: No (USB2E3373)
Strobe/Lamp Enabled: No (USB2E3373)
Correct for Detector Non-linearity: No (USB2E3373)
Correct for Stray Light: No (USB2E3373)
Number of Pixels in Processed Spectrum: 2048
>>>>>Begin Processed Spectral Data<<<<<
178.53	0.000
178.91	-200.000
179.29	-875.000
179.67	-3200.000
180.04	-133.333
180.42	800.000
180.80	2000.000
181.18	0.000
181.56	-312.500
181.94	0.000
182.31	1000.000
182.69	-3100.000
183.07	457.143
183.45	-4300.000
183.83	-1600.000
184.20	320.000
184.58	471.429
184.96	-253.846
185.34	-175.000
185.72	1900.000
186.09	-675.000
186.47	-2600.000
186.85	733.333
187.23	620.000
187.61	1650.000
187.98	412.500
188.36	228.571
188.74	266.667
189.12	391.667
189.49	850.000
189.87	0.000
190.25	462.500
190.63	2300.000
191.00	-216.667
191.38	-2700.000
191.76	-750.000
192.14	525.000
192.51	-2900.000
192.89	1150.000
193.27	1300.000
193.65	-1166.667
194.02	-800.000
194.40	642.857
194.78	-200.000
195.15	273.333
195.53	-2900.000
195.91	-440.000
196.29	3300.000
196.66	237.500
197.04	725.000
197.42	-1350.000
197.79	750.000
198.17	250.000
198.55	0.000
198.92	428.571
199.30	766.667
199.68	1500.000
200.05	600.000
200.43	-466.667
200.81	222.222
201.18	4300.000
201.56	291.667
201.94	-700.000
202.31	-362.500
202.69	-440.000
203.07	2400.000
203.44	-600.000
203.82	300.000
204.19	640.000
204.57	-1450.000
204.95	-750.000
205.32	-760.000
205.70	400.000
206.08	725.000
206.45	-466.667
206.83	333.333
207.20	221.053
207.58	308.333
207.96	820.000
208.33	0.000
208.71	600.000
209.08	660.000
209.46	-2300.000
209.84	-775.000
210.21	820.000
210.59	-640.000
210.96	308.333
211.34	-775.000
211.71	390.909
212.09	1000.000
212.46	1550.000
212.84	-316.667
213.22	400.000
213.59	-3700.000
213.97	370.000
214.34	650.000
214.72	1133.333
215.09	1200.000
215.47	-2400.000
215.84	-330.000
216.22	-462.500
216.59	0.000
216.97	0.000
217.34	1550.000
217.72	-1150.000
218.09	1133.333
218.47	412.500
218.84	850.000
219.22	1366.667
219.59	1066.667
219.97	485.714
220.34	322.222
220.72	1500.000
221.09	3700.000
221.47	233.333
221.84	1100.000
222.22	320.000
222.59	216.667
222.97	214.286
223.34	268.750
223.72	-2050.000
224.09	966.667
224.46	300.000
224.84	-675.000
225.21	344.444
225.59	266.667
225.96	1266.667
226.34	-860.000
226.71	-800.000
227.08	-580.000
227.46	0.000
227.83	-600.000
228.21	-1800.000
228.58	333.333
228.95	1050.000
229.33	422.222
229.70	1025.000
230.08	346.154
230.45	3500.000
230.82	-1000.000
231.20	-833.333
231.57	-1000.000
231.95	540.000
232.32	291.667
232.69	516.667
233.07	275.000
233.44	-1900.000
233.81	253.333
234.19	151.852
234.56	256.250
234.93	182.353
235.31	190.000
235.68	256.250
236.05	175.000
236.43	144.444
236.80	292.857
237.17	172.414
237.55	115.625
237.92	140.000
238.29	127.273
238.67	146.875
239.04	119.512
239.41	95.833
239.79	97.500
240.16	97.917
240.53	90.164
240.91	72.464
241.28	81.356
241.65	66.667
242.02	91.549
242.40	52.857
242.77	78.022
243.14	72.152
243.51	66.667
243.89	55.140
244.26	61.682
244.63	53.465
245.00	55.963
245.38	51.695
245.75	53.788
246.12	59.259
246.49	51.773
246.87	52.459
247.24	58.667
247.61	45.625
247.98	50.340
248.36	44.242
248.73	45.408
249.10	38.690
249.47	47.000
249.84	43.284
250.22	49.730
250.59	41.000
250.96	40.506
251.33	42.791
251.70	41.518
252.08	43.697
252.45	39.442
252.82	36.122
253.19	41.107
253.56	38.846
253.94	38.043
254.31	41.085
254.68	36.934
255.05	36.552
255.42	41.241
255.79	40.391
256.16	38.983
256.54	38.312
256.91	40.850
257.28	40.134
257.65	33.229
258.02	38.348
258.39	36.103
258.76	39.420
259.14	35.143
259.51	38.776
259.88	39.210
260.25	34.890
260.62	37.534
260.99	34.160
261.36	34.819
261.73	35.638
262.10	40.838
262.47	36.250
262.85	33.867
263.22	35.733
263.59	34.015
263.96	33.835
264.33	33.827
264.70	33.907
265.07	34.878
265.44	36.468
265.81	34.670
266.18	35.469
266.55	33.097
266.92	36.242
267.29	35.088
267.66	35.426
268.03	31.839
268.40	34.038
268.77	33.700
269.14	31.887
269.51	32.739
269.88	33.673
270.25	30.886
270.62	34.764
270.99	32.049
271.36	31.504
271.73	32.704
272.10	31.919
272.47	33.532
272.84	31.737
273.21	31.612
273.58	32.591
273.95	32.033
274.32	32.879
274.69	35.630
275.06	34.791
275.43	31.992
275.80	32.264
276.17	30.882
276.54	34.019
276.91	35.634
277.28	32.482
277.65	35.609
278.02	30.147
278.39	31.295
278.76	32.759
279.13	31.317
279.50	33.273
279.87	28.119
280.23	32.965
280.60	33.029
280.97	30.690
281.34	28.878
281.71	31.130
282.08	32.137
282.45	28.716
282.82	30.435
283.19	30.048
283.56	30.579
283.92	29.805
284.29	30.616
284.66	29.244
285.03	30.680
285.40	29.917
285.77	30.093
286.14	29.876
286.51	30.061
286.87	26.424
287.24	28.829
287.61	28.875
287.98	29.851
288.35	29.630
288.72	29.439
289.08	28.078
289.45	30.945
289.82	29.688
290.19	28.843
290.56	28.967
290.93	28.921
291.29	28.729
291.66	28.955
292.03	29.313
292.40	26.965
292.77	27.298
293.13	26.391
293.50	25.776
293.87	25.881
294.24	27.972
294.60	27.591
294.97	26.993
295.34	25.764
295.71	26.675
296.08	26.133
296.44	26.557
296.81	26.055
297.18	25.222
297.55	26.724
297.91	24.631
298.28	24.275
298.65	26.135
299.02	26.055
299.38	27.818
299.75	23.171
300.12	25.803
300.48	25.644
300.85	25.864
301.22	25.349
301.59	25.118
301.95	22.987
302.32	25.611
302.69	23.190
303.05	25.814
303.42	23.430
303.79	23.619
304.15	24.862
304.52	23.256
304.89	24.947
305.25	25.139
305.62	24.733
305.99	24.022
306.35	22.526
306.72	23.413
307.09	23.188
307.45	25.132
307.82	21.914
308.19	22.577
308.55	22.600
308.92	23.651
309.29	24.162
309.65	24.083
310.02	23.124
310.38	23.131
310.75	23.626
311.12	21.456
311.48	23.745
311.85	22.996
312.22	23.400
312.58	22.546
312.95	23.107
313.31	22.191
313.68	22.702
314.05	23.260
314.41	22.905
314.78	22.443
315.14	24.455
315.51	22.800
315.87	21.533
316.24	23.156
316.61	21.397
316.97	22.294
317.34	21.833
317.70	21.861
318.07	22.242
318.43	22.583
318.80	22.329
319.16	22.465
319.53	21.239
319.89	21.864
320.26	23.184
320.62	21.886
320.99	22.593
321.35	21.985
321.72	23.245
322.08	22.345
322.45	20.890
322.81	21.043
323.18	22.469
323.54	22.300
323.91	22.393
324.27	20.778
324.64	21.540
325.00	22.069
325.37	21.079
325.73	21.417
326.10	22.287
326.46	20.727
326.83	20.720
327.19	22.088
327.56	20.687
327.92	21.311
328.29	21.931
328.65	21.918
329.01	21.642
329.38	21.404
329.74	20.666
330.11	20.417
330.47	21.569
330.84	20.621
331.20	21.235
331.56	23.143
331.93	20.359
332.29	21.003
332.66	21.684
333.02	20.275
333.38	20.942
333.75	21.768
334.11	21.393
334.48	21.453
334.84	20.101
335.20	21.129
335.57	20.739
335.93	21.699
336.29	19.818
336.66	22.556
337.02	20.103
337.38	21.066
337.75	20.693
338.11	20.422
338.47	19.814
338.84	19.983
339.20	20.260
339.56	20.185
339.93	20.819
340.29	19.160
340.65	20.536
341.02	20.434
341.38	19.787
341.74	19.601
342.11	19.783
342.47	19.524
342.83	20.673
343.20	19.968
343.56	18.110
343.92	18.993
344.28	19.219
344.65	20.049
345.01	21.111
345.37	19.151
345.73	18.333
346.10	20.080
346.46	20.255
346.82	18.441
347.19	21.020
347.55	19.126
347.91	18.882
348.27	18.823
348.63	19.462
349.00	18.964
349.36	18.911
349.72	19.343
350.08	19.798
350.45	19.497
350.81	19.113
351.17	19.183
351.53	18.861
351.89	19.192
352.26	18.594
352.62	18.326
352.98	20.015
353.34	18.875
353.70	19.801
354.07	19.077
354.43	19.124
354.79	18.147
355.15	18.377
355.51	18.051
355.87	19.277
356.24	18.861
356.60	18.798
356.96	17.892
357.32	18.990
357.68	19.457
358.04	17.629
358.40	19.565
358.77	19.159
359.13	18.769
359.49	17.272
359.85	18.838
360.21	18.128
360.57	17.883
360.93	18.975
361.29	18.470
361.66	19.687
362.02	17.898
362.38	18.398
362.74	18.471
363.10	18.513
363.46	18.577
363.82	18.583
364.18	19.132
364.54	17.954
364.90	18.273
365.26	18.390
365.62	18.232
365.98	18.169
366.35	17.655
366.71	18.182
367.07	18.157
367.43	18.066
367.79	17.952
368.15	17.368
368.51	17.574
368.87	17.187
369.23	16.563
369.59	18.071
369.95	17.692
370.31	17.043
370.67	18.390
371.03	18.207
371.39	18.560
371.75	18.493
372.11	18.151
372.47	17.603
372.83	17.675
373.19	18.163
373.55	17.045
373.91	17.610
374.27	16.865
374.63	18.441
374.99	17.049
375.35	17.339
375.71	18.140
376.07	17.772
376.42	16.752
376.78	16.827
377.14	18.480
377.50	17.041
377.86	16.784
378.22	17.185
378.58	17.676
378.94	17.864
379.30	16.192
379.66	17.038
380.02	17.830
380.38	16.745
380.74	17.820
381.09	16.238
381.45	16.416
381.81	16.548
382.17	16.789
382.53	17.037
382.89	17.031
383.25	16.459
383.61	17.349
383.97	16.857
384.32	17.179
384.68	17.291
385.04	16.882
385.40	17.438
385.76	16.793
386.12	17.192
386.48	16.900
386.83	18.276
387.19	17.373
387.55	16.019
387.91	17.090
388.27	17.490
388.62	17.195
388.98	17.143
389.34	16.835
389.70	16.627
390.06	17.805
390.42	16.471
390.77	16.708
391.13	17.320
391.49	16.394
391.85	17.108
392.20	16.210
392.56	16.906
392.92	16.339
393.28	16.816
393.64	15.883
393.99	17.250
394.35	16.892
394.71	16.405
395.07	15.693
395.42	16.979
395.78	17.582
396.14	17.349
396.50	16.366
396.85	16.646
397.21	16.426
397.57	17.095
397.92	16.060
398.28	16.271
398.64	16.463
399.00	16.462
399.35	16.157
399.71	16.115
400.07	16.381
400.42	16.418
400.78	17.067
401.14	16.207
401.49	16.820
401.85	16.512
402.21	16.403
402.57	16.457
402.92	16.667
403.28	15.871
403.63	16.539
403.99	16.224
404.35	16.764
404.70	16.716
405.06	16.171
405.42	16.637
405.77	16.207
406.13	16.323
406.49	16.202
406.84	16.300
407.20	16.781
407.55	16.308
407.91	16.911
408.27	15.828
408.62	17.090
408.98	16.499
409.34	16.540
409.69	16.428
410.05	16.398
410.40	15.724
410.76	14.539
411.11	16.588
411.47	16.481
411.83	16.169
412.18	16.063
412.54	15.916
412.89	16.460
413.25	16.420
413.60	16.589
413.96	16.038
414.31	15.702
414.67	16.574
415.03	16.347
415.38	16.151
415.74	15.477
416.09	16.302
416.45	16.677
416.80	18.024
417.16	15.722
417.51	15.987
417.87	15.707
418.22	15.735
418.58	16.497
418.93	16.657
419.29	16.328
419.64	15.748
420.00	16.527
420.35	15.331
420.71	15.928
421.06	16.363
421.42	15.947
421.77	16.657
422.12	16.262
422.48	16.333
422.83	15.792
423.19	15.821
423.54	15.524
423.90	15.572
424.25	16.456
424.61	16.947
424.96	16.206
425.31	15.107
425.67	15.657
426.02	15.816
426.38	15.169
426.73	16.484
427.09	15.955
427.44	16.320
427.79	15.666
428.15	16.264
428.50	16.800
428.85	16.108
429.21	16.478
429.56	16.351
429.92	15.365
430.27	15.820
430.62	14.978
430.98	15.968
431.33	15.524
431.68	15.160
432.04	15.572
432.39	16.081
432.74	15.398
433.10	16.279
433.45	16.312
433.80	16.878
434.16	15.502
434.51	15.686
434.86	16.494
435.22	15.505
435.57	15.590
435.92	16.335
436.28	16.647
436.63	16.316
436.98	15.991
437.34	16.096
437.69	15.342
438.04	15.108
438.39	16.579
438.75	15.757
439.10	15.920
439.45	15.941
439.81	16.310
440.16	15.740
440.51	16.441
440.86	15.954
441.22	15.909
441.57	15.696
441.92	15.992
442.27	15.567
442.63	15.650
442.98	15.948
443.33	15.854
443.68	15.996
444.03	15.127
444.39	16.008
444.74	15.994
445.09	16.377
445.44	16.206
445.79	16.228
446.15	16.000
446.50	15.665
446.85	15.986
447.20	14.826
447.55	15.878
447.91	16.090
448.26	15.974
448.61	15.920
448.96	16.612
449.31	17.052
449.66	16.390
450.02	15.559
450.37	15.658
450.72	16.143
451.07	16.289
451.42	16.420
451.77	16.724
452.12	15.882
452.47	15.735
452.83	16.563
453.18	17.117
453.53	16.163
453.88	16.629
454.23	16.967
454.58	16.667
454.93	16.493
455.28	16.952
455.63	16.017
455.98	16.131
456.34	16.839
456.69	16.463
457.04	16.229
457.39	16.343
457.74	17.342
458.09	15.834
458.44	15.772
458.79	16.552
459.14	15.657
459.49	16.138
459.84	16.793
460.19	15.876
460.54	16.182
460.89	16.898
461.24	16.495
461.59	16.610
461.94	16.489
462.29	16.705
462.64	16.520
462.99	16.699
463.34	16.526
463.69	17.544
464.04	16.753
464.39	16.085
464.74	15.826
465.09	16.135
465.44	15.941
465.79	16.385
466.14	15.845
466.49	16.929
466.84	15.831
467.19	16.637
467.54	16.456
467.89	16.021
468.24	15.866
468.59	16.131
468.94	16.304
469.29	16.738
469.64	16.977
469.99	16.645
470.34	16.445
470.68	17.586
471.03	16.478
471.38	16.821
471.73	16.917
472.08	17.221
472.43	16.511
472.78	16.773
473.13	16.333
473.48	16.381
473.83	16.196
474.17	17.143
474.52	16.232
474.87	16.259
475.22	16.505
475.57	16.422
475.92	16.300
476.27	16.268
476.61	16.568
476.96	15.517
477.31	16.350
477.66	16.962
478.01	15.420
478.36	16.375
478.70	16.228
479.05	16.109
479.40	16.071
479.75	16.187
480.10	16.651
480.45	16.013
480.79	16.037
481.14	16.120
481.49	15.782
481.84	15.787
482.19	15.677
482.53	16.337
482.88	15.860
483.23	15.516
483.58	15.934
483.92	16.590
484.27	16.182
484.62	16.553
484.97	15.271
485.31	14.998
485.66	14.813
486.01	14.565
486.36	14.153
486.70	14.302
487.05	14.355
487.40	14.862
487.75	14.938
488.09	14.716
488.44	15.201
488.79	15.967
489.13	16.051
489.48	16.221
489.83	15.930
490.17	15.483
490.52	16.150
490.87	16.207
491.22	16.179
491.56	16.249
491.91	16.039
492.26	16.125
492.60	17.130
492.95	16.312
493.30	16.060
493.64	15.993
493.99	15.921
494.34	15.285
494.68	15.715
495.03	15.626
495.37	16.884
495.72	16.830
496.07	16.128
496.41	16.551
496.76	16.083
497.11	16.367
497.45	16.484
497.80	16.219
498.14	16.736
498.49	16.481
498.84	16.355
499.18	15.768
499.53	16.537
499.87	16.217
500.22	15.661
500.56	16.388
500.91	17.254
501.26	16.537
501.60	16.120
501.95	15.457
502.29	16.711
502.64	16.056
502.98	16.363
503.33	16.392
503.67	16.556
504.02	15.719
504.36	16.742
504.71	16.036
505.06	16.377
505.40	16.565
505.75	16.604
506.09	17.406
506.44	17.011
506.78	16.682
507.13	16.529
507.47	16.060
507.82	17.080
508.16	17.393
508.51	16.957
508.85	16.904
509.19	17.034
509.54	16.992
509.88	16.808
510.23	16.716
510.57	16.602
510.92	16.983
511.26	16.717
511.61	17.085
511.95	17.272
512.30	16.750
512.64	16.199
512.98	17.273
513.33	17.213
513.67	17.297
514.02	16.364
514.36	16.459
514.70	17.920
515.05	16.409
515.39	17.325
515.74	16.894
516.08	16.830
516.42	18.579
516.77	17.013
517.11	17.173
517.46	17.511
517.80	16.931
518.14	17.239
518.49	17.861
518.83	17.143
519.17	17.138
519.52	17.804
519.86	18.311
520.20	17.425
520.55	17.524
520.89	17.126
521.23	17.290
521.58	17.785
521.92	17.784
522.26	17.062
522.61	18.063
522.95	17.538
523.29	17.661
523.64	17.919
523.98	17.547
524.32	17.589
524.66	17.565
525.01	17.574
525.35	17.619
525.69	18.483
526.04	18.501
526.38	18.069
526.72	17.661
527.06	18.273
527.41	18.380
527.75	17.833
528.09	17.640
528.43	18.670
528.78	18.068
529.12	17.821
529.46	17.300
529.80	17.815
530.15	18.209
530.49	17.088
530.83	17.733
531.17	17.343
531.51	18.639
531.86	17.693
532.20	17.800
532.54	18.142
532.88	17.989
533.22	18.099
533.57	17.938
533.91	17.483
534.25	17.426
534.59	17.485
534.93	17.406
535.27	17.131
535.62	18.145
535.96	17.080
536.30	18.830
536.64	17.888
536.98	17.369
537.32	18.875
537.66	17.793
538.01	18.266
538.35	17.467
538.69	17.718
539.03	17.102
539.37	17.415
539.71	17.901
540.05	17.662
540.39	17.987
540.73	18.165
541.07	18.005
541.42	17.289
541.76	18.434
542.10	16.831
542.44	17.456
542.78	17.181
543.12	17.301
543.46	17.607
543.80	17.481
544.14	17.647
544.48	17.275
544.82	18.226
545.16	16.758
545.50	18.193
545.84	17.235
546.18	18.336
546.52	18.295
546.86	17.795
547.20	17.183
547.54	17.859
547.88	17.153
548.22	16.879
548.56	17.089
548.90	17.438
549.24	17.625
549.58	17.784
549.92	17.092
550.26	17.850
550.60	18.031
550.94	17.978
551.28	19.379
551.62	17.379
551.96	17.838
552.30	16.150
552.64	18.252
552.98	17.268
553.32	17.093
553.66	17.068
554.00	16.602
554.34	18.775
554.68	18.011
555.02	17.787
555.36	17.686
555.69	18.455
556.03	17.197
556.37	17.336
556.71	18.253
557.05	17.366
557.39	18.000
557.73	18.531
558.07	17.639
558.41	18.095
558.75	18.126
559.08	18.728
559.42	18.397
559.76	18.247
560.10	18.169
560.44	16.191
560.78	17.455
561.12	18.245
561.45	17.397
561.79	18.102
562.13	17.562
562.47	17.716
562.81	18.478
563.15	18.164
563.48	17.019
563.82	18.029
564.16	17.600
564.50	17.601
564.84	17.872
565.17	17.647
565.51	17.057
565.85	16.903
566.19	18.333
566.52	17.268
566.86	17.630
567.20	17.416
567.54	16.758
567.88	17.632
568.21	16.625
568.55	16.440
568.89	16.378
569.23	15.962
569.56	16.613
569.90	15.523
570.24	15.605
570.57	15.509
570.91	15.257
571.25	15.065
571.59	14.580
571.92	14.774
572.26	14.636
572.60	14.663
572.93	15.095
573.27	14.704
573.61	14.997
573.95	14.716
574.28	14.518
574.62	14.555
574.96	14.467
575.29	14.739
575.63	14.276
575.97	14.314
576.30	14.604
576.64	14.717
576.98	14.233
577.31	14.558
577.65	14.806
577.98	14.220
578.32	14.117
578.66	14.347
578.99	14.747
579.33	14.727
579.67	14.124
580.00	14.263
580.34	14.283
580.67	14.676
581.01	14.659
581.35	14.689
581.68	13.816
582.02	13.955
582.35	14.087
582.69	13.947
583.02	14.144
583.36	14.238
583.70	14.618
584.03	14.517
584.37	15.018
584.70	14.531
585.04	14.704
585.37	14.608
585.71	14.449
586.04	14.470
586.38	14.173
586.72	14.723
587.05	14.359
587.39	14.564
587.72	14.418
588.06	14.775
588.39	14.713
588.73	14.628
589.06	14.678
589.40	15.462
589.73	15.077
590.07	15.202
590.40	15.714
590.73	16.085
591.07	16.281
591.40	15.090
591.74	15.300
592.07	14.975
592.41	15.787
592.74	14.976
593.08	14.518
593.41	14.782
593.75	14.436
594.08	15.276
594.41	15.282
594.75	15.103
595.08	15.021
595.42	15.240
595.75	14.840
596.09	15.398
596.42	15.295
596.75	15.585
597.09	15.642
597.42	15.184
597.75	15.213
598.09	15.018
598.42	15.545
598.76	15.729
599.09	15.778
599.42	15.294
599.76	15.299
600.09	14.983
600.42	15.331
600.76	14.582
601.09	14.567
601.42	14.502
601.76	15.002
602.09	15.379
602.42	15.120
602.76	15.408
603.09	15.535
603.42	15.890
603.76	15.221
604.09	15.201
604.42	15.405
604.76	15.606
605.09	15.347
605.42	15.644
605.75	15.239
606.09	15.647
606.42	15.257
606.75	15.468
607.09	15.476
607.42	15.267
607.75	15.366
608.08	15.232
608.42	15.940
608.75	15.747
609.08	15.662
609.41	15.955
609.75	15.522
610.08	15.827
610.41	15.986
610.74	15.455
611.07	15.962
611.41	16.219
611.74	16.587
612.07	15.703
612.40	16.472
612.73	16.575
613.07	15.864
613.40	16.692
613.73	16.575
614.06	15.750
614.39	15.909
614.72	16.123
615.06	16.073
615.39	15.792
615.72	16.070
616.05	16.072
616.38	15.880
616.71	16.386
617.05	15.761
617.38	16.854
617.71	16.423
618.04	16.377
618.37	15.842
618.70	17.090
619.03	16.911
619.36	17.274
619.69	17.084
620.03	17.743
620.36	16.506
620.69	18.008
621.02	18.071
621.35	17.120
621.68	17.330
622.01	18.819
622.34	17.553
622.67	17.065
623.00	17.699
623.33	18.084
623.66	17.365
623.99	18.014
624.32	19.173
624.65	16.919
624.99	17.309
625.32	17.969
625.65	16.759
625.98	16.388
626.31	17.062
626.64	16.781
626.97	17.521
627.30	18.168
627.63	17.896
627.96	16.980
628.29	18.564
628.62	17.023
628.95	19.060
629.28	19.807
629.61	18.717
629.94	18.583
630.26	18.631
630.59	19.149
630.92	18.834
631.25	19.855
631.58	20.444
631.91	19.600
632.24	20.019
632.57	18.566
632.90	19.979
633.23	21.091
633.56	20.653
633.89	19.721
634.22	20.560
634.55	19.677
634.88	19.387
635.20	21.076
635.53	20.209
635.86	21.253
636.19	19.416
636.52	19.892
636.85	18.447
637.18	20.585
637.51	20.670
637.83	19.336
638.16	21.219
638.49	20.000
638.82	20.775
639.15	19.624
639.48	20.498
639.81	20.391
640.13	20.859
640.46	21.239
640.79	19.766
641.12	20.866
641.45	21.604
641.77	20.476
642.10	19.813
642.43	22.048
642.76	20.170
643.09	20.173
643.41	22.020
643.74	21.439
644.07	22.714
644.40	20.118
644.73	21.021
645.05	23.477
645.38	22.205
645.71	22.610
646.04	21.374
646.36	23.161
646.69	21.280
647.02	22.400
647.35	20.472
647.67	23.015
648.00	23.616
648.33	22.556
648.66	22.121
648.98	21.594
649.31	20.783
649.64	19.087
649.96	19.061
650.29	21.286
650.62	20.324
650.94	22.590
651.27	23.764
651.60	22.066
651.92	22.120
652.25	21.732
652.58	20.993
652.90	22.605
653.23	20.089
653.56	22.700
653.88	20.705
654.21	21.994
654.54	20.351
654.86	20.944
655.19	21.900
655.52	17.291
655.84	13.283
656.17	14.733
656.49	21.300
656.82	24.069
657.15	19.038
657.47	14.294
657.80	10.592
658.13	8.347
658.45	11.252
658.78	13.797
659.10	14.118
659.43	14.957
659.75	15.863
660.08	16.228
660.41	17.877
660.73	20.954
661.06	21.171
661.38	25.554
661.71	22.842
662.03	22.624
662.36	23.048
662.68	21.788
663.01	22.703
663.33	21.698
663.66	24.458
663.98	23.611
664.31	23.507
664.63	27.011
664.96	25.328
665.28	23.729
665.61	21.698
665.93	22.830
666.26	23.364
666.58	25.321
666.91	23.552
667.23	24.699
667.56	25.667
667.88	26.141
668.21	24.590
668.53	25.806
668.86	24.248
669.18	23.422
669.50	20.041
669.83	25.257
670.15	24.324
670.48	22.461
670.80	23.705
671.13	24.104
671.45	24.449
671.77	23.748
672.10	23.160
672.42	22.697
672.75	23.101
673.07	22.099
673.39	20.447
673.72	24.740
674.04	25.090
674.37	24.138
674.69	23.048
675.01	22.761
675.34	24.419
675.66	22.656
675.98	23.471
676.31	25.200
676.63	22.465
676.95	24.008
677.28	23.529
677.60	25.755
677.92	21.429
678.25	25.000
678.57	23.464
678.89	25.316
679.22	22.978
679.54	23.488
679.86	20.942
680.18	21.090
680.51	22.554
680.83	20.270
681.15	23.917
681.48	21.701
681.80	22.417
682.12	22.837
682.44	20.360
682.77	22.954
683.09	24.272
683.41	22.653
683.73	25.984
684.06	23.214
684.38	24.225
684.70	20.324
685.02	19.097
685.34	21.127
685.67	23.633
685.99	21.511
686.31	21.263
686.63	20.488
686.96	19.444
687.28	20.470
687.60	22.014
687.92	22.948
688.24	23.276
688.56	21.174
688.89	22.753
689.21	20.231
689.53	25.099
689.85	24.390
690.17	24.078
690.49	22.984
690.82	23.109
691.14	25.859
691.46	25.462
691.78	23.587
692.10	22.328
692.42	21.597
692.74	23.643
693.06	24.031
693.39	23.913
693.71	23.772
694.03	24.655
694.35	24.900
694.67	23.625
694.99	21.286
695.31	25.676
695.63	21.719
695.95	24.661
696.27	23.451
696.59	23.628
696.91	24.810
697.23	22.398
697.56	20.332
697.88	22.355
698.20	20.755
698.52	19.261
698.84	22.587
699.16	23.667
699.48	23.729
699.80	25.490
700.12	27.945
700.44	22.897
700.76	24.582
701.08	29.504
701.40	25.974
701.72	28.075
702.04	27.371
702.36	27.957
702.68	25.532
703.00	21.805
703.32	25.806
703.64	25.441
703.96	25.260
704.28	24.339
704.60	27.606
704.91	26.891
705.23	25.284
705.55	28.783
705.87	29.524
706.19	27.586
706.51	26.959
706.83	27.729
707.15	27.005
707.47	24.455
707.79	23.678
708.11	23.356
708.43	24.045
708.74	21.267
709.06	22.558
709.38	23.821
709.70	23.433
710.02	25.272
710.34	25.138
710.66	30.000
710.98	27.049
711.29	27.577
711.61	30.641
711.93	23.404
712.25	26.807
712.57	24.437
712.89	30.000
713.20	28.435
713.52	25.234
713.84	29.305
714.16	24.638
714.48	22.190
714.80	25.474
715.11	25.000
715.43	26.257
715.75	23.662
716.07	24.855
716.39	24.857
716.70	24.922
717.02	26.599
717.34	29.496
717.66	28.472
717.97	34.848
718.29	30.634
718.61	22.973
718.93	28.028
719.24	28.188
719.56	26.207
719.88	23.885
720.20	27.419
720.51	20.915
720.83	28.094
721.15	24.490
721.46	28.082
721.78	25.784
722.10	29.514
722.42	32.441
722.73	26.354
723.05	32.632
723.37	30.742
723.68	23.437
724.00	27.273
724.32	33.460
724.63	28.846
724.95	34.902
725.27	31.599
725.58	25.735
725.90	25.352
726.22	24.658
726.53	28.094
726.85	28.339
727.16	31.879
727.48	27.907
727.80	27.338
728.11	25.357
728.43	27.899
728.74	28.671
729.06	25.448
729.38	31.228
729.69	31.333
730.01	27.961
730.32	25.839
730.64	30.565
730.96	23.724
731.27	24.465
731.59	23.563
731.90	22.284
732.22	26.000
732.53	25.641
732.85	25.146
733.16	22.892
733.48	27.586
733.80	25.217
734.11	28.528
734.43	23.099
734.74	23.592
735.06	24.074
735.37	23.454
735.69	22.899
736.00	28.135
736.32	21.818
736.63	23.344
736.95	23.602
737.26	29.573
737.58	27.301
737.89	28.012
738.21	24.172
738.52	26.421
738.83	30.037
739.15	27.875
739.46	25.862
739.78	24.490
740.09	27.405
740.41	25.767
740.72	27.302
741.04	28.322
741.35	30.469
741.66	26.087
741.98	32.189
742.29	30.093
742.61	27.434
742.92	26.271
743.23	26.000
743.55	26.792
743.86	25.882
744.18	29.661
744.49	30.992
744.80	29.493
745.12	35.714
745.43	35.981
745.74	28.889
746.06	32.895
746.37	29.302
746.68	31.416
747.00	31.390
747.31	29.832
747.62	30.328
747.94	31.330
748.25	26.070
748.56	34.746
748.88	31.250
749.19	30.233
749.50	27.397
749.82	30.453
750.13	27.273
750.44	26.667
750.75	27.852
751.07	23.355
751.38	26.403
751.69	25.926
752.01	25.874
752.32	29.236
752.63	29.530
752.94	26.573
753.26	31.250
753.57	29.961
753.88	26.966
754.19	27.437
754.51	29.236
754.82	25.839
755.13	27.027
755.44	26.296
755.75	26.804
756.07	22.945
756.38	26.797
756.69	27.500
757.00	29.674
757.31	25.070
757.63	23.416
757.94	20.479
758.25	24.879
758.56	21.739
758.87	23.559
759.18	23.837
759.50	26.444
759.81	29.674
760.12	25.281
760.43	22.409
760.74	23.038
761.05	22.016
761.36	23.698
761.67	23.450
761.99	26.761
762.30	25.723
762.61	25.694
762.92	26.515
763.23	30.566
763.54	31.538
763.85	26.070
764.16	25.694
764.47	28.378
764.78	24.430
765.10	27.439
765.41	23.295
765.72	22.376
766.03	22.961
766.34	25.087
766.65	29.278
766.96	32.389
767.27	32.710
767.58	33.168
767.89	39.227
768.20	46.341
768.51	32.653
768.82	28.947
769.13	30.588
769.44	28.947
769.75	27.341
770.06	28.151
770.37	31.579
770.68	29.333
770.99	31.356
771.30	28.033
771.61	30.000
771.92	25.191
772.23	29.839
772.54	29.333
772.85	36.139
773.16	32.609
773.47	32.222
773.78	32.673
774.09	35.227
774.39	41.818
774.70	33.529
775.01	36.184
775.32	34.161
775.63	45.890
775.94	46.914
776.25	42.759
776.56	40.458
776.87	48.092
777.18	43.182
777.48	50.394
777.79	45.385
778.10	40.909
778.41	48.507
778.72	38.346
779.03	35.256
779.34	39.189
779.65	37.267
779.95	32.298
780.26	33.333
780.57	41.497
780.88	33.333
781.19	40.000
781.50	34.911
781.80	34.973
782.11	35.450
782.42	33.333
782.73	35.028
783.04	34.194
783.34	36.434
783.65	38.776
783.96	45.806
784.27	37.086
784.57	36.842
784.88	36.957
785.19	36.667
785.50	43.103
785.81	47.287
786.11	34.815
786.42	37.795
786.73	46.847
787.04	50.943
787.34	33.333
787.65	43.939
787.96	50.000
788.26	44.882
788.57	42.336
788.88	40.845
789.19	32.824
789.49	44.595
789.80	49.219
790.11	38.843
790.41	38.889
790.72	43.519
791.03	48.077
791.33	40.404
791.64	40.000
791.95	51.579
792.25	47.917
792.56	46.000
792.87	42.683
793.17	53.409
793.48	60.000
793.79	48.276
794.09	46.591
794.40	48.276
794.70	36.508
795.01	36.154
795.32	32.824
795.62	34.188
795.93	42.857
796.23	43.902
796.54	50.000
796.85	59.091
797.15	80.519
797.46	71.951
797.76	40.000
798.07	69.333
798.37	60.000
798.68	67.500
798.99	58.537
799.29	54.667
799.60	51.163
799.90	57.895
800.21	69.697
800.51	60.563
800.82	65.517
801.12	69.231
801.43	68.000
801.73	58.621
802.04	55.844
802.34	54.795
802.65	70.588
802.95	58.696
803.26	69.355
803.56	78.333
803.87	76.119
804.17	63.492
804.48	56.604
804.78	68.056
805.09	77.273
805.39	69.841
805.70	80.702
806.00	70.000
806.30	62.500
806.61	50.588
806.91	53.333
807.22	50.000
807.52	56.579
807.83	73.684
808.13	68.116
808.43	72.581
808.74	61.644
809.04	76.786
809.35	76.471
809.65	71.212
809.95	62.745
810.26	100.000
810.56	81.250
810.86	59.184
811.17	87.719
811.47	82.609
811.77	87.931
812.08	56.897
812.38	88.095
812.69	78.571
812.99	82.222
813.29	91.429
813.59	164.516
813.90	58.621
814.20	65.574
814.50	56.000
814.81	71.930
815.11	81.481
815.41	87.500
815.72	76.786
816.02	100.000
816.32	90.244
816.62	89.655
816.93	103.030
817.23	97.561
817.53	98.214
817.84	60.000
818.14	104.762
818.44	91.667
818.74	96.226
819.04	79.487
819.35	133.333
819.65	109.615
819.95	98.148
820.25	85.106
820.56	100.000
820.86	107.895
821.16	51.064
821.46	100.000
821.76	100.000
822.07	78.571
822.37	65.789
822.67	113.953
822.97	50.000
823.27	91.304
823.57	100.000
823.88	102.564
824.18	112.121
824.48	130.435
824.78	88.889
825.08	152.174
825.38	172.414
825.69	126.471
825.99	104.255
826.29	102.778
826.59	122.857
826.89	130.000
827.19	108.571
827.49	145.161
827.79	173.077
828.09	104.762
828.39	100.000
828.70	100.000
829.00	139.286
829.30	193.750
829.60	105.556
829.90	112.903
830.20	81.818
830.50	129.730
830.80	187.500
831.10	165.385
831.40	157.143
831.70	170.833
832.00	160.000
832.30	156.522
832.60	133.333
832.90	172.727
833.20	190.000
833.50	102.632
833.80	88.235
834.10	76.316
834.40	173.684
834.70	90.000
835.00	184.000
835.30	102.703
835.60	143.750
835.90	97.297
836.20	165.385
836.50	136.364
836.80	112.195
837.10	147.826
837.40	276.923
837.70	142.105
838.00	140.000
838.30	162.500
838.60	136.000
838.90	240.000
839.19	168.750
839.49	140.000
839.79	155.172
840.09	161.538
840.39	180.000
840.69	173.684
840.99	161.905
841.29	160.870
841.59	250.000
841.88	160.000
842.18	333.333
842.48	135.714
842.78	159.259
843.08	246.154
843.38	213.636
843.68	271.429
843.97	457.143
844.27	143.478
844.57	1550.000
844.87	221.429
845.17	200.000
845.47	133.333
845.76	150.000
846.06	457.143
846.36	211.765
846.66	338.462
846.96	237.500
847.25	253.846
847.55	205.263
847.85	161.111
848.15	660.000
848.44	272.727
848.74	180.952
849.04	187.500
849.34	176.471
849.63	206.250
849.93	243.750
850.23	933.333
850.53	400.000
850.82	200.000
851.12	223.529
851.42	162.500
851.71	206.250
852.01	0.000
852.31	170.588
852.61	350.000
852.90	154.167
853.20	277.778
853.50	-1400.000
853.79	152.000
854.09	146.875
854.39	110.345
854.68	151.724
854.98	180.952
855.28	106.452
855.57	271.429
855.87	188.889
856.17	133.333
856.46	163.158
856.76	138.710
857.05	176.471
857.35	218.182
857.65	230.769
857.94	155.000
858.24	488.889
858.53	271.429
858.83	557.143
859.13	173.913
859.42	322.222
859.72	362.500
860.01	300.000
860.31	800.000
860.60	360.000
860.90	450.000
861.20	292.308
861.49	400.000
861.79	-3800.000
862.08	457.143
862.38	344.444
862.67	235.714
862.97	230.000
863.26	156.667
863.56	725.000
863.85	315.385
864.15	258.824
864.44	200.000
864.74	225.000
865.03	245.455
865.33	475.000
865.62	193.333
865.92	583.333
866.21	825.000
866.51	680.000
866.80	205.556
867.10	933.333
867.39	2800.000
867.69	600.000
867.98	975.000
868.27	176.190
868.57	246.667
868.86	750.000
869.16	138.095
869.45	2800.000
869.75	-633.333
870.04	750.000
870.33	780.000
870.63	425.000
870.92	182.353
871.22	900.000
871.51	528.571
871.80	291.667
872.10	269.231
>>>>>End Processed Spectral Data<<<<<
