SpectraSuite Data File
++++++++++++++++++++++++++++++++++++
Date: Wed May 13 21:42:36 PDT 2015
User: schluterlab
Dark Spectrum Present: Yes
Reference Spectrum Present: Yes
Number of Sampled Component Spectra: 1
Spectrometers: USB2E3373
Integration Time (usec): 3000 (USB2E3373)
Spectra Averaged: 3 (USB2E3373)
Boxcar Smoothing: 0 (USB2E3373)
Correct for Electrical Dark: No (USB2E3373)
Strobe/Lamp Enabled: No (USB2E3373)
Correct for Detector Non-linearity: No (USB2E3373)
Correct for Stray Light: No (USB2E3373)
Number of Pixels in Processed Spectrum: 2048
>>>>>Begin Processed Spectral Data<<<<<
178.53	0.000
178.91	300.000
179.29	166.667
179.67	-550.000
180.04	-366.667
180.42	340.000
180.80	1600.000
181.18	250.000
181.56	-400.000
181.94	-300.000
182.31	36.364
182.69	69.231
183.07	-80.000
183.45	183.333
183.83	155.556
184.20	214.286
184.58	0.000
184.96	333.333
185.34	157.143
185.72	0.000
186.09	-1500.000
186.47	-80.000
186.85	100.000
187.23	-400.000
187.61	250.000
187.98	400.000
188.36	-62.500
188.74	0.000
189.12	-54.545
189.49	50.000
189.87	91.667
190.25	40.000
190.63	900.000
191.00	-100.000
191.38	340.000
191.76	375.000
192.14	41.667
192.51	10.526
192.89	433.333
193.27	325.000
193.65	-100.000
194.02	190.909
194.40	80.000
194.78	-700.000
195.15	60.000
195.53	-180.000
195.91	-37.500
196.29	-366.667
196.66	0.000
197.04	750.000
197.42	-60.000
197.79	0.000
198.17	-137.500
198.55	-333.333
198.92	275.000
199.30	-133.333
199.68	-70.000
200.05	150.000
200.43	166.667
200.81	-900.000
201.18	-200.000
201.56	-116.667
201.94	500.000
202.31	-13.043
202.69	0.000
203.07	-466.667
203.44	-80.000
203.82	-300.000
204.19	-20.000
204.57	0.000
204.95	-100.000
205.32	0.000
205.70	100.000
206.08	-50.000
206.45	-133.333
206.83	275.000
207.20	-33.333
207.58	-20.000
207.96	-800.000
208.33	-114.286
208.71	-2000.000
209.08	237.500
209.46	375.000
209.84	0.000
210.21	110.000
210.59	2400.000
210.96	320.000
211.34	1100.000
211.71	-400.000
212.09	-133.333
212.46	-120.000
212.84	66.667
213.22	-50.000
213.59	-700.000
213.97	-400.000
214.34	-50.000
214.72	30.769
215.09	150.000
215.47	100.000
215.84	350.000
216.22	-37.500
216.59	-50.000
216.97	433.333
217.34	211.111
217.72	0.000
218.09	-0.000
218.47	900.000
218.84	-128.571
219.22	-112.500
219.59	-166.667
219.97	-150.000
220.34	0.000
220.72	-160.000
221.09	0.000
221.47	-100.000
221.84	-1000.000
222.22	0.000
222.59	600.000
222.97	-200.000
223.34	50.000
223.72	400.000
224.09	-500.000
224.46	63.636
224.84	-12.500
225.21	-214.286
225.59	-125.000
225.96	0.000
226.34	90.000
226.71	-71.429
227.08	200.000
227.46	-100.000
227.83	400.000
228.21	-18.750
228.58	-150.000
228.95	-29.412
229.33	6.250
229.70	-62.500
230.08	-61.538
230.45	-175.000
230.82	-50.000
231.20	228.571
231.57	-150.000
231.95	-0.000
232.32	91.667
232.69	47.059
233.07	-1100.000
233.44	-21.739
233.81	-700.000
234.19	20.833
234.56	-6.667
234.93	-6.667
235.31	-15.789
235.68	7.692
236.05	-15.385
236.43	22.222
236.80	21.212
237.17	0.000
237.55	5.882
237.92	20.690
238.29	25.926
238.67	19.444
239.04	29.032
239.41	25.532
239.79	42.553
240.16	53.488
240.53	35.714
240.91	21.429
241.28	41.071
241.65	25.806
242.02	36.842
242.40	39.130
242.77	31.884
243.14	41.026
243.51	40.426
243.89	41.346
244.26	52.830
244.63	22.115
245.00	48.958
245.38	39.496
245.75	40.984
246.12	43.609
246.49	35.772
246.87	36.134
247.24	48.649
247.61	46.358
247.98	38.462
248.36	39.053
248.73	39.888
249.10	35.859
249.47	39.247
249.84	46.316
250.22	45.771
250.59	38.785
250.96	45.909
251.33	39.234
251.70	45.607
252.08	40.586
252.45	41.564
252.82	46.008
253.19	41.245
253.56	42.446
253.94	48.043
254.31	42.254
254.68	44.631
255.05	46.205
255.42	40.559
255.79	41.104
256.16	45.741
256.54	41.905
256.91	39.241
257.28	43.396
257.65	42.675
258.02	46.334
258.39	42.690
258.76	42.733
259.14	43.750
259.51	43.820
259.88	44.444
260.25	41.944
260.62	45.225
260.99	46.154
261.36	43.523
261.73	41.728
262.10	41.985
262.47	42.469
262.85	42.786
263.22	44.359
263.59	44.935
263.96	42.822
264.33	43.510
264.70	46.047
265.07	44.444
265.44	42.989
265.81	42.792
266.18	44.191
266.55	41.921
266.92	41.525
267.29	44.444
267.66	44.374
268.03	44.856
268.40	44.068
268.77	40.702
269.14	44.286
269.51	47.433
269.88	40.937
270.25	43.644
270.62	42.828
270.99	42.520
271.36	41.468
271.73	43.373
272.10	43.619
272.47	42.994
272.84	44.488
273.21	41.879
273.58	45.492
273.95	41.887
274.32	42.351
274.69	42.623
275.06	44.523
275.43	42.185
275.80	42.908
276.17	43.831
276.54	40.497
276.91	42.857
277.28	43.141
277.65	43.531
278.02	44.643
278.39	39.787
278.76	40.468
279.13	41.509
279.50	41.379
279.87	39.312
280.23	39.640
280.60	40.484
280.97	42.532
281.34	42.114
281.71	39.024
282.08	41.368
282.45	40.328
282.82	42.013
283.19	40.701
283.56	41.719
283.92	40.826
284.29	40.562
284.66	41.021
285.03	40.391
285.40	38.369
285.77	41.291
286.14	39.058
286.51	43.178
286.87	39.538
287.24	38.938
287.61	42.470
287.98	38.971
288.35	39.046
288.72	40.316
289.08	39.886
289.45	37.298
289.82	40.696
290.19	38.569
290.56	37.500
290.93	38.812
291.29	37.346
291.66	37.432
292.03	37.875
292.40	37.281
292.77	37.483
293.13	37.238
293.50	39.216
293.87	36.667
294.24	36.640
294.60	35.891
294.97	38.360
295.34	36.016
295.71	34.034
296.08	36.911
296.44	35.459
296.81	34.714
297.18	37.000
297.55	34.198
297.91	37.391
298.28	36.199
298.65	33.374
299.02	35.287
299.38	35.583
299.75	33.894
300.12	32.209
300.48	34.737
300.85	33.834
301.22	34.611
301.59	34.507
301.95	34.379
302.32	34.422
302.69	34.689
303.05	35.105
303.42	35.682
303.79	35.226
304.15	35.597
304.52	36.237
304.89	36.102
305.25	34.468
305.62	35.466
305.99	35.147
306.35	36.468
306.72	36.419
307.09	35.141
307.45	35.357
307.82	36.105
308.19	35.423
308.55	36.847
308.92	36.640
309.29	36.537
309.65	36.464
310.02	35.586
310.38	37.398
310.75	38.067
311.12	38.095
311.48	37.488
311.85	39.173
312.22	40.329
312.58	39.420
312.95	41.095
313.31	39.302
313.68	40.744
314.05	41.966
314.41	42.555
314.78	42.694
315.14	43.426
315.51	44.244
315.87	43.559
316.24	45.363
316.61	46.210
316.97	46.296
317.34	45.098
317.70	46.744
318.07	47.826
318.43	48.148
318.80	47.906
319.16	48.630
319.53	50.000
319.89	51.220
320.26	51.756
320.62	51.529
320.99	52.713
321.35	51.543
321.72	54.957
322.08	55.720
322.45	57.077
322.81	58.410
323.18	58.318
323.54	60.469
323.91	61.698
324.27	62.106
324.64	61.150
325.00	61.942
325.37	62.628
325.73	61.785
326.10	65.517
326.46	65.385
326.83	66.019
327.19	66.829
327.56	68.090
327.92	69.509
328.29	71.703
328.65	72.042
329.01	72.559
329.38	73.043
329.74	70.815
330.11	73.670
330.47	70.660
330.84	76.805
331.20	74.552
331.56	76.630
331.93	74.763
332.29	76.890
332.66	75.000
333.02	77.063
333.38	75.965
333.75	75.341
334.11	76.562
334.48	78.291
334.84	77.915
335.20	77.187
335.57	77.894
335.93	77.921
336.29	78.021
336.66	77.436
337.02	79.913
337.38	78.938
337.75	78.984
338.11	78.138
338.47	78.596
338.84	79.725
339.20	79.365
339.56	76.877
339.93	79.948
340.29	79.249
340.65	80.838
341.02	81.198
341.38	81.588
341.74	79.160
342.11	78.778
342.47	80.251
342.83	77.614
343.20	83.164
343.56	81.112
343.92	78.310
344.28	80.032
344.65	80.898
345.01	80.468
345.37	82.813
345.73	82.680
346.10	80.658
346.46	80.976
346.82	81.701
347.19	81.013
347.55	83.199
347.91	80.592
348.27	80.836
348.63	80.128
349.00	81.368
349.36	81.790
349.72	81.516
350.08	80.499
350.45	82.616
350.81	81.534
351.17	82.679
351.53	83.739
351.89	82.685
352.26	80.849
352.62	83.488
352.98	83.067
353.34	82.609
353.70	83.489
354.07	84.863
354.43	82.970
354.79	85.016
355.15	83.385
355.51	82.688
355.87	85.145
356.24	86.035
356.60	83.503
356.96	84.190
357.32	83.901
357.68	83.957
358.04	85.337
358.40	85.814
358.77	85.321
359.13	85.837
359.49	83.422
359.85	86.657
360.21	84.965
360.57	86.920
360.93	87.178
361.29	87.861
361.66	85.421
362.02	86.212
362.38	85.746
362.74	85.569
363.10	88.214
363.46	86.744
363.82	88.840
364.18	85.424
364.54	88.549
364.90	87.038
365.26	86.766
365.62	87.642
365.98	87.402
366.35	87.234
366.71	87.447
367.07	88.235
367.43	88.223
367.79	89.854
368.15	89.944
368.51	88.537
368.87	90.300
369.23	89.822
369.59	90.698
369.95	90.493
370.31	89.052
370.67	88.052
371.03	90.497
371.39	90.064
371.75	90.000
372.11	90.741
372.47	90.555
372.83	90.985
373.19	91.295
373.55	91.257
373.91	90.806
374.27	90.526
374.63	93.243
374.99	89.833
375.35	91.712
375.71	91.304
376.07	92.872
376.42	91.310
376.78	91.810
377.14	93.966
377.50	92.960
377.86	94.223
378.22	91.909
378.58	93.506
378.94	92.813
379.30	93.254
379.66	93.958
380.02	94.608
380.38	93.012
380.74	95.338
381.09	93.667
381.45	93.591
381.81	96.303
382.17	96.030
382.53	94.708
382.89	93.185
383.25	96.235
383.61	95.581
383.97	95.562
384.32	95.652
384.68	94.880
385.04	95.785
385.40	96.139
385.76	95.681
386.12	96.449
386.48	95.611
386.83	97.247
387.19	95.558
387.55	95.586
387.91	98.278
388.27	97.411
388.62	97.690
388.98	98.123
389.34	96.742
389.70	96.154
390.06	95.312
390.42	97.809
390.77	97.502
391.13	99.558
391.49	95.383
391.85	96.933
392.20	96.617
392.56	98.603
392.92	97.250
393.28	97.734
393.64	98.960
393.99	95.594
394.35	98.889
394.71	98.269
395.07	96.604
395.42	96.831
395.78	96.718
396.14	97.971
396.50	98.605
396.85	99.745
397.21	96.754
397.57	97.702
397.92	97.126
398.28	97.575
398.64	97.936
399.00	98.605
399.35	98.297
399.71	97.496
400.07	98.675
400.42	99.436
400.78	96.616
401.14	98.590
401.49	98.262
401.85	98.587
402.21	99.257
402.57	98.958
402.92	97.747
403.28	98.124
403.63	97.024
403.99	99.424
404.35	98.940
404.70	97.946
405.06	98.062
405.42	98.116
405.77	97.350
406.13	96.971
406.49	98.502
406.84	98.352
407.20	97.336
407.55	98.636
407.91	97.485
408.27	96.881
408.62	96.501
408.98	98.829
409.34	97.092
409.69	99.610
410.05	97.201
410.40	95.374
410.76	98.195
411.11	98.570
411.47	100.000
411.83	99.688
412.18	98.804
412.54	99.123
412.89	98.119
413.25	97.935
413.60	98.245
413.96	98.939
414.31	97.965
414.67	97.587
415.03	99.459
415.38	99.075
415.74	97.856
416.09	100.330
416.45	99.248
416.80	98.725
417.16	98.920
417.51	99.330
417.87	100.463
418.22	100.065
418.58	99.737
418.93	99.372
419.29	102.046
419.64	99.173
420.00	101.587
420.35	101.793
420.71	101.341
421.06	101.230
421.42	101.886
421.77	101.965
422.12	100.688
422.48	101.799
422.83	101.713
423.19	103.680
423.54	102.473
423.90	103.029
424.25	103.062
424.61	104.190
424.96	103.903
425.31	99.159
425.67	105.115
426.02	104.122
426.38	104.851
426.73	105.864
427.09	104.128
427.44	104.404
427.79	104.454
428.15	104.281
428.50	104.169
428.85	105.043
429.21	102.983
429.56	105.367
429.92	106.611
430.27	104.652
430.62	105.299
430.98	105.235
431.33	107.577
431.68	106.976
432.04	108.056
432.39	105.196
432.74	106.376
433.10	108.600
433.45	105.858
433.80	106.724
434.16	105.407
434.51	106.902
434.86	107.008
435.22	107.583
435.57	106.572
435.92	108.263
436.28	108.288
436.63	108.545
436.98	108.813
437.34	110.684
437.69	108.855
438.04	108.546
438.39	111.519
438.75	109.297
439.10	110.584
439.45	110.472
439.81	110.530
440.16	110.145
440.51	110.226
440.86	109.544
441.22	109.466
441.57	110.249
441.92	109.746
442.27	109.361
442.63	110.549
442.98	109.896
443.33	110.327
443.68	108.065
444.03	111.227
444.39	111.453
444.74	109.608
445.09	109.912
445.44	111.324
445.79	111.203
446.15	111.314
446.50	111.399
446.85	112.400
447.20	110.716
447.55	112.535
447.91	111.573
448.26	111.950
448.61	111.623
448.96	114.180
449.31	111.479
449.66	111.047
450.02	111.370
450.37	110.517
450.72	113.548
451.07	112.539
451.42	111.104
451.77	113.147
452.12	111.052
452.47	113.299
452.83	112.441
453.18	111.903
453.53	114.313
453.88	113.072
454.23	114.030
454.58	112.132
454.93	111.995
455.28	112.974
455.63	113.662
455.98	113.634
456.34	111.761
456.69	113.227
457.04	111.641
457.39	112.508
457.74	112.089
458.09	112.974
458.44	111.633
458.79	109.830
459.14	109.045
459.49	113.354
459.84	112.232
460.19	110.864
460.54	110.584
460.89	112.162
461.24	111.344
461.59	112.862
461.94	111.820
462.29	111.887
462.64	113.193
462.99	112.810
463.34	113.398
463.69	112.113
464.04	110.564
464.39	111.348
464.74	112.224
465.09	111.593
465.44	109.652
465.79	112.421
466.14	111.859
466.49	115.015
466.84	111.536
467.19	112.357
467.54	113.480
467.89	113.388
468.24	114.198
468.59	113.830
468.94	113.602
469.29	112.558
469.64	113.668
469.99	113.241
470.34	112.475
470.68	114.052
471.03	115.162
471.38	113.074
471.73	112.689
472.08	113.471
472.43	112.929
472.78	110.548
473.13	109.169
473.48	111.416
473.83	112.429
474.17	112.695
474.52	113.851
474.87	111.580
475.22	111.775
475.57	112.158
475.92	112.214
476.27	111.888
476.61	110.872
476.96	113.421
477.31	110.787
477.66	112.316
478.01	110.330
478.36	113.297
478.70	113.963
479.05	111.931
479.40	110.504
479.75	111.211
480.10	112.239
480.45	109.956
480.79	111.399
481.14	113.779
481.49	111.840
481.84	110.132
482.19	111.163
482.53	112.429
482.88	110.547
483.23	111.886
483.58	112.335
483.92	112.111
484.27	111.802
484.62	111.940
484.97	111.033
485.31	110.346
485.66	102.563
486.01	104.492
486.36	105.380
486.70	107.619
487.05	108.934
487.40	110.562
487.75	113.322
488.09	112.731
488.44	113.775
488.79	113.210
489.13	111.610
489.48	112.569
489.83	109.915
490.17	113.073
490.52	112.482
490.87	111.173
491.22	111.587
491.56	114.423
491.91	111.810
492.26	113.830
492.60	111.159
492.95	111.953
493.30	110.368
493.64	111.031
493.99	112.174
494.34	111.464
494.68	113.222
495.03	113.587
495.37	111.241
495.72	112.281
496.07	113.541
496.41	110.810
496.76	111.380
497.11	112.347
497.45	113.619
497.80	113.983
498.14	111.839
498.49	112.809
498.84	112.298
499.18	112.593
499.53	111.965
499.87	111.451
500.22	113.987
500.56	112.487
500.91	111.670
501.26	112.118
501.60	111.961
501.95	111.069
502.29	112.816
502.64	112.102
502.98	110.742
503.33	113.625
503.67	111.928
504.02	111.961
504.36	110.599
504.71	113.262
505.06	113.449
505.40	113.505
505.75	112.767
506.09	111.957
506.44	113.155
506.78	112.087
507.13	111.486
507.47	111.559
507.82	111.931
508.16	113.034
508.51	111.415
508.85	112.079
509.19	112.698
509.54	112.869
509.88	110.806
510.23	110.211
510.57	112.977
510.92	112.392
511.26	113.366
511.61	111.910
511.95	113.341
512.30	113.437
512.64	115.096
512.98	112.521
513.33	112.394
513.67	113.174
514.02	113.113
514.36	112.079
514.70	113.972
515.05	114.511
515.39	112.618
515.74	113.795
516.08	111.740
516.42	112.270
516.77	112.888
517.11	114.051
517.46	115.006
517.80	113.680
518.14	113.901
518.49	113.442
518.83	112.470
519.17	113.735
519.52	115.862
519.86	115.483
520.20	114.918
520.55	113.184
520.89	115.623
521.23	116.154
521.58	113.590
521.92	112.382
522.26	114.314
522.61	112.476
522.95	114.767
523.29	113.143
523.64	115.957
523.98	112.135
524.32	113.106
524.66	113.506
525.01	115.662
525.35	115.339
525.69	113.453
526.04	113.550
526.38	111.281
526.72	112.032
527.06	110.961
527.41	114.030
527.75	113.017
528.09	114.500
528.43	114.043
528.78	111.111
529.12	112.743
529.46	110.685
529.80	113.010
530.15	108.880
530.49	113.342
530.83	113.338
531.17	114.932
531.51	112.407
531.86	111.653
532.20	112.750
532.54	114.000
532.88	112.866
533.22	112.593
533.57	113.576
533.91	113.097
534.25	112.435
534.59	112.033
534.93	110.332
535.27	112.357
535.62	114.408
535.96	112.036
536.30	114.295
536.64	114.422
536.98	112.404
537.32	113.381
537.66	113.893
538.01	111.581
538.35	113.467
538.69	110.368
539.03	109.195
539.37	110.597
539.71	112.551
540.05	110.594
540.39	110.943
540.73	112.011
541.07	110.408
541.42	111.448
541.76	111.299
542.10	110.359
542.44	112.128
542.78	112.700
543.12	110.310
543.46	110.643
543.80	111.202
544.14	113.214
544.48	110.285
544.82	111.298
545.16	111.089
545.50	111.816
545.84	111.501
546.18	110.098
546.52	109.739
546.86	110.883
547.20	112.080
547.54	112.938
547.88	111.538
548.22	109.902
548.56	111.341
548.90	113.667
549.24	112.986
549.58	110.961
549.92	115.627
550.26	115.203
550.60	116.141
550.94	113.806
551.28	111.658
551.62	112.632
551.96	112.079
552.30	113.828
552.64	113.630
552.98	115.057
553.32	115.068
553.66	114.747
554.00	114.615
554.34	114.505
554.68	114.840
555.02	116.093
555.36	117.020
555.69	113.037
556.03	113.009
556.37	112.162
556.71	110.512
557.05	116.089
557.39	115.674
557.73	115.809
558.07	115.674
558.41	115.291
558.75	115.473
559.08	116.600
559.42	115.736
559.76	113.303
560.10	114.988
560.44	114.886
560.78	115.180
561.12	114.926
561.45	113.061
561.79	114.030
562.13	114.838
562.47	114.643
562.81	114.430
563.15	112.394
563.48	110.736
563.82	112.517
564.16	113.270
564.50	112.822
564.84	113.311
565.17	111.987
565.51	113.035
565.85	110.326
566.19	113.444
566.52	111.992
566.86	111.252
567.20	111.729
567.54	108.060
567.88	109.406
568.21	107.876
568.55	107.981
568.89	108.524
569.23	108.203
569.56	107.426
569.90	105.215
570.24	103.682
570.57	103.378
570.91	104.494
571.25	103.694
571.59	104.570
571.92	104.224
572.26	107.544
572.60	106.775
572.93	106.748
573.27	105.861
573.61	105.672
573.95	105.500
574.28	103.970
574.62	103.036
574.96	105.118
575.29	106.620
575.63	106.928
575.97	107.962
576.30	105.947
576.64	106.209
576.98	106.004
577.31	104.010
577.65	103.269
577.98	105.069
578.32	105.067
578.66	106.338
578.99	106.995
579.33	107.121
579.67	107.154
580.00	107.255
580.34	105.720
580.67	106.712
581.01	106.017
581.35	104.425
581.68	104.543
582.02	105.045
582.35	105.807
582.69	106.145
583.02	104.598
583.36	108.033
583.70	108.211
584.03	108.196
584.37	106.913
584.70	108.229
585.04	108.696
585.37	108.603
585.71	107.911
586.04	107.895
586.38	107.866
586.72	108.176
587.05	108.404
587.39	108.064
587.72	109.309
588.06	107.852
588.39	108.788
588.73	109.717
589.06	111.639
589.40	110.561
589.73	109.845
590.07	110.463
590.40	110.375
590.73	112.237
591.07	112.077
591.40	112.304
591.74	111.872
592.07	112.916
592.41	111.926
592.74	110.841
593.08	110.291
593.41	110.212
593.75	111.208
594.08	111.952
594.41	112.797
594.75	113.306
595.08	112.621
595.42	111.453
595.75	110.159
596.09	113.241
596.42	112.255
596.75	114.656
597.09	113.967
597.42	115.478
597.75	115.644
598.09	114.982
598.42	114.855
598.76	114.945
599.09	115.806
599.42	113.444
599.76	113.406
600.09	112.952
600.42	113.672
600.76	112.158
601.09	114.991
601.42	116.072
601.76	112.394
602.09	115.971
602.42	115.188
602.76	113.674
603.09	115.483
603.42	113.715
603.76	111.302
604.09	112.490
604.42	114.274
604.76	115.059
605.09	114.862
605.42	116.149
605.75	115.332
606.09	112.831
606.42	114.048
606.75	116.450
607.09	115.426
607.42	115.587
607.75	114.267
608.08	116.005
608.42	116.261
608.75	116.436
609.08	116.120
609.41	116.890
609.75	116.490
610.08	117.110
610.41	115.112
610.74	114.822
611.07	115.180
611.41	115.507
611.74	115.580
612.07	113.392
612.40	117.027
612.73	115.971
613.07	116.353
613.40	117.952
613.73	115.385
614.06	117.137
614.39	117.788
614.72	117.657
615.06	117.444
615.39	117.053
615.72	115.875
616.05	118.356
616.38	116.896
616.71	117.576
617.05	119.595
617.38	119.224
617.71	118.566
618.04	115.844
618.37	119.117
618.70	117.982
619.03	119.038
619.36	120.000
619.69	118.275
620.03	117.102
620.36	117.884
620.69	117.202
621.02	119.846
621.35	120.278
621.68	119.723
622.01	121.521
622.34	121.570
622.67	121.143
623.00	118.769
623.33	119.447
623.66	119.703
623.99	120.030
624.32	119.002
624.65	120.697
624.99	119.765
625.32	119.791
625.65	120.698
625.98	122.196
626.31	120.490
626.64	120.636
626.97	120.588
627.30	121.814
627.63	120.675
627.96	117.835
628.29	124.930
628.62	122.340
628.95	123.447
629.28	124.532
629.61	122.105
629.94	121.760
630.26	122.857
630.59	122.877
630.92	123.494
631.25	120.082
631.58	122.163
631.91	122.057
632.24	122.503
632.57	121.556
632.90	125.204
633.23	122.302
633.56	127.098
633.89	122.967
634.22	124.146
634.55	126.066
634.88	122.426
635.20	124.000
635.53	125.581
635.86	127.308
636.19	124.318
636.52	122.683
636.85	123.281
637.18	122.655
637.51	125.218
637.83	124.413
638.16	125.467
638.49	122.430
638.82	126.144
639.15	126.330
639.48	124.198
639.81	126.528
640.13	125.070
640.46	124.435
640.79	128.058
641.12	124.408
641.45	123.872
641.77	125.773
642.10	124.508
642.43	128.459
642.76	126.814
643.09	126.358
643.41	125.040
643.74	130.048
644.07	123.786
644.40	125.705
644.73	125.593
645.05	130.017
645.38	125.581
645.71	126.361
646.04	123.737
646.36	127.083
646.69	123.601
647.02	129.690
647.35	129.433
647.67	126.987
648.00	128.804
648.33	127.458
648.66	129.716
648.98	121.584
649.31	123.620
649.64	128.795
649.96	126.856
650.29	122.059
650.62	124.547
650.94	124.483
651.27	128.622
651.60	125.350
651.92	127.061
652.25	123.953
652.58	124.257
652.90	127.441
653.23	125.127
653.56	124.793
653.88	123.891
654.21	127.645
654.54	120.764
654.86	123.415
655.19	121.008
655.52	115.280
655.84	106.036
656.17	100.000
656.49	100.000
656.82	100.000
657.15	100.000
657.47	100.000
657.80	100.000
658.13	131.408
658.45	118.625
658.78	119.356
659.10	120.335
659.43	121.587
659.75	122.298
660.08	122.138
660.41	122.211
660.73	124.931
661.06	125.000
661.38	126.550
661.71	126.844
662.03	133.192
662.36	128.982
662.68	128.817
663.01	127.119
663.33	124.406
663.66	125.942
663.98	130.787
664.31	129.670
664.63	123.649
664.96	128.228
665.28	128.970
665.61	129.590
665.93	128.908
666.26	127.215
666.58	123.126
666.91	131.166
667.23	128.111
667.56	128.506
667.88	125.467
668.21	127.009
668.53	126.667
668.86	128.777
669.18	131.442
669.50	123.272
669.83	128.878
670.15	129.048
670.48	125.977
670.80	124.726
671.13	127.918
671.45	131.279
671.77	131.034
672.10	120.078
672.42	126.145
672.75	123.393
673.07	122.364
673.39	122.575
673.72	125.749
674.04	126.639
674.37	122.967
674.69	122.222
675.01	123.932
675.34	125.821
675.66	121.786
675.98	124.336
676.31	126.471
676.63	130.612
676.95	125.176
677.28	124.312
677.60	128.676
677.92	124.169
678.25	123.210
678.57	121.385
678.89	126.652
679.22	122.981
679.54	124.490
679.86	121.680
680.18	120.192
680.51	123.077
680.83	121.442
681.15	123.576
681.48	120.040
681.80	124.744
682.12	125.208
682.44	120.724
682.77	122.526
683.09	121.429
683.41	123.488
683.73	118.080
684.06	121.239
684.38	117.949
684.70	121.385
685.02	122.107
685.34	125.049
685.67	123.827
685.99	118.861
686.31	117.241
686.63	119.669
686.96	116.141
687.28	124.152
687.60	120.605
687.92	117.510
688.24	121.600
688.56	126.974
688.89	119.376
689.21	120.179
689.53	117.117
689.85	119.551
690.17	120.220
690.49	126.812
690.82	120.525
691.14	125.604
691.46	124.362
691.78	119.560
692.10	119.958
692.42	120.000
692.74	117.826
693.06	118.876
693.39	123.653
693.71	117.556
694.03	117.500
694.35	114.865
694.67	122.500
694.99	121.907
695.31	117.829
695.63	117.317
695.95	118.830
696.27	124.384
696.59	114.516
696.91	120.670
697.23	116.751
697.56	123.981
697.88	114.345
698.20	116.847
698.52	115.888
698.84	117.464
699.16	112.293
699.48	119.259
699.80	119.121
700.12	120.643
700.44	118.028
700.76	112.360
701.08	117.825
701.40	121.257
701.72	120.615
702.04	119.497
702.36	115.854
702.68	116.768
703.00	122.807
703.32	116.992
703.64	122.289
703.96	119.062
704.28	115.361
704.60	116.159
704.91	110.345
705.23	114.873
705.55	119.310
705.87	117.606
706.19	120.513
706.51	114.085
706.83	108.917
707.15	114.634
707.47	115.978
707.79	116.751
708.11	117.224
708.43	117.259
708.74	112.234
709.06	110.160
709.38	115.274
709.70	120.721
710.02	113.707
710.34	119.667
710.66	117.590
710.98	110.526
711.29	114.935
711.61	110.968
711.93	108.710
712.25	115.385
712.57	109.123
712.89	117.582
713.20	114.539
713.52	117.518
713.84	106.129
714.16	109.061
714.48	114.873
714.80	111.821
715.11	111.337
715.43	109.627
715.75	113.043
716.07	106.627
716.39	115.825
716.70	112.590
717.02	116.863
717.34	109.470
717.66	116.810
717.97	105.556
718.29	114.567
718.61	119.313
718.93	113.566
719.24	112.177
719.56	114.607
719.88	111.940
720.20	117.787
720.51	113.672
720.83	116.732
721.15	113.008
721.46	106.107
721.78	111.554
722.10	115.538
722.42	107.258
722.73	105.405
723.05	110.204
723.37	109.664
723.68	107.600
724.00	100.851
724.32	106.276
724.63	106.996
724.95	102.564
725.27	113.080
725.58	108.642
725.90	111.715
726.22	99.638
726.53	104.314
726.85	108.394
727.16	101.852
727.48	103.831
727.80	108.984
728.11	110.656
728.43	112.109
728.74	107.937
729.06	112.000
729.38	112.648
729.69	98.932
730.01	106.320
730.32	103.690
730.64	106.439
730.96	111.538
731.27	103.010
731.59	105.079
731.90	107.120
732.22	104.167
732.53	104.054
732.85	97.987
733.16	101.650
733.48	103.041
733.80	101.351
734.11	109.122
734.43	101.858
734.74	108.108
735.06	97.118
735.37	98.784
735.69	105.178
736.00	104.290
736.32	102.482
736.63	103.793
736.95	101.370
737.26	101.379
737.58	106.597
737.89	99.313
738.21	99.644
738.52	101.901
738.83	97.551
739.15	101.688
739.46	108.171
739.78	98.592
740.09	103.767
740.41	98.571
740.72	95.390
741.04	98.400
741.35	97.807
741.66	102.667
741.98	100.962
742.29	107.921
742.61	101.951
742.92	96.930
743.23	109.434
743.55	102.252
743.86	95.516
744.18	105.392
744.49	95.431
744.80	100.510
745.12	99.533
745.43	98.578
745.74	95.946
746.06	95.794
746.37	88.991
746.68	97.596
747.00	98.086
747.31	96.154
747.62	100.459
747.94	96.070
748.25	99.083
748.56	95.556
748.88	101.408
749.19	100.000
749.50	97.087
749.82	101.878
750.13	87.500
750.44	97.692
750.75	91.882
751.07	99.644
751.38	92.553
751.69	92.664
752.01	95.312
752.32	96.923
752.63	92.910
752.94	97.200
753.26	98.326
753.57	93.333
753.88	97.571
754.19	98.406
754.51	94.361
754.82	90.110
755.13	94.348
755.44	93.089
755.75	98.400
756.07	92.989
756.38	91.367
756.69	90.444
757.00	92.523
757.31	93.851
757.63	95.679
757.94	94.350
758.25	95.767
758.56	98.370
758.87	96.131
759.18	96.845
759.50	92.593
759.81	93.645
760.12	92.923
760.43	90.476
760.74	90.678
761.05	88.398
761.36	88.825
761.67	90.634
761.99	89.347
762.30	95.255
762.61	88.889
762.92	100.855
763.23	90.164
763.54	93.506
763.85	92.653
764.16	91.463
764.47	92.000
764.78	92.857
765.10	92.131
765.41	91.489
765.72	87.578
766.03	86.799
766.34	98.846
766.65	89.540
766.96	93.897
767.27	89.604
767.58	80.899
767.89	93.210
768.20	77.348
768.51	87.940
768.82	97.115
769.13	93.805
769.44	90.795
769.75	81.197
770.06	85.202
770.37	90.196
770.68	88.350
770.99	90.777
771.30	82.773
771.61	84.898
771.92	85.892
772.23	86.937
772.54	90.608
772.85	95.349
773.16	87.831
773.47	80.473
773.78	86.782
774.09	90.000
774.39	88.820
774.70	91.156
775.01	82.069
775.32	87.143
775.63	82.707
775.94	80.451
776.25	83.200
776.56	83.471
776.87	83.333
777.18	90.090
777.48	90.991
777.79	79.528
778.10	101.835
778.41	88.596
778.72	96.639
779.03	76.056
779.34	84.459
779.65	85.915
779.95	86.093
780.26	81.295
780.57	82.734
780.88	82.394
781.19	84.034
781.50	84.564
781.80	85.965
782.11	81.977
782.42	81.132
782.73	85.621
783.04	88.276
783.34	93.893
783.65	72.483
783.96	90.000
784.27	86.429
784.57	75.887
784.88	75.000
785.19	84.545
785.50	82.727
785.81	88.571
786.11	85.714
786.42	87.611
786.73	88.679
787.04	77.982
787.34	87.129
787.65	85.000
787.96	73.554
788.26	80.435
788.57	73.016
788.88	81.301
789.19	82.400
789.49	74.809
789.80	84.848
790.11	83.962
790.41	86.139
790.72	72.340
791.03	78.261
791.33	92.941
791.64	90.123
791.95	83.696
792.25	72.727
792.56	101.282
792.87	76.923
793.17	53.846
793.48	79.762
793.79	80.000
794.09	75.962
794.40	91.667
794.70	89.189
795.01	72.656
795.32	81.739
795.62	85.870
795.93	83.019
796.23	65.657
796.54	70.732
796.85	72.619
797.15	77.273
797.46	81.159
797.76	68.421
798.07	72.727
798.37	51.220
798.68	67.742
798.99	63.514
799.29	79.518
799.60	64.103
799.90	78.462
800.21	77.273
800.51	57.333
800.82	66.667
801.12	83.333
801.43	51.667
801.73	67.568
802.04	70.000
802.34	73.770
802.65	73.134
802.95	69.091
803.26	53.448
803.56	73.846
803.87	73.585
804.17	70.968
804.48	52.941
804.78	78.049
805.09	71.014
805.39	50.000
805.70	68.085
806.00	59.649
806.30	69.231
806.61	81.579
806.91	81.081
807.22	55.263
807.52	62.500
807.83	67.797
808.13	46.970
808.43	83.333
808.74	50.000
809.04	60.317
809.35	73.469
809.65	50.000
809.95	77.551
810.26	54.930
810.56	62.500
810.86	55.102
811.17	67.308
811.47	57.447
811.77	64.583
812.08	66.038
812.38	53.125
812.69	65.455
812.99	53.659
813.29	43.243
813.59	40.541
813.90	52.727
814.20	49.091
814.50	58.333
814.81	52.727
815.11	71.930
815.41	93.023
815.72	80.000
816.02	120.000
816.32	54.054
816.62	52.083
816.93	46.667
817.23	44.444
817.53	30.556
817.84	45.946
818.14	63.415
818.44	64.000
818.74	42.857
819.04	39.024
819.35	63.889
819.65	31.818
819.95	55.556
820.25	51.515
820.56	35.714
820.86	66.667
821.16	22.727
821.46	43.478
821.76	31.034
822.07	43.478
822.37	66.667
822.67	82.927
822.97	56.757
823.27	28.571
823.57	89.655
823.88	55.882
824.18	58.333
824.48	57.143
824.78	23.810
825.08	25.000
825.38	37.037
825.69	64.516
825.99	53.659
826.29	59.259
826.59	37.500
826.89	58.065
827.19	34.783
827.49	38.889
827.79	43.478
828.09	64.516
828.39	47.917
828.70	28.125
829.00	55.172
829.30	64.865
829.60	12.500
829.90	111.111
830.20	59.375
830.50	72.727
830.80	-47.059
831.10	59.091
831.40	38.235
831.70	96.154
832.00	72.727
832.30	50.000
832.60	45.946
832.90	300.000
833.20	14.286
833.50	30.000
833.80	36.842
834.10	62.500
834.40	22.727
834.70	53.333
835.00	50.000
835.30	25.000
835.60	19.048
835.90	61.905
836.20	108.000
836.50	37.500
836.80	52.632
837.10	37.838
837.40	80.000
837.70	52.174
838.00	87.500
838.30	57.895
838.60	-40.000
838.90	-50.000
839.19	-25.000
839.49	7.692
839.79	15.789
840.09	50.000
840.39	60.000
840.69	40.909
840.99	23.810
841.29	20.833
841.59	92.308
841.88	-73.333
842.18	50.000
842.48	66.667
842.78	-128.571
843.08	71.429
843.38	-12.500
843.68	-12.500
843.97	28.571
844.27	-11.111
844.57	-18.182
844.87	-26.667
845.17	59.091
845.47	400.000
845.76	-6.667
846.06	-33.333
846.36	-500.000
846.66	-21.053
846.96	-22.727
847.25	-5.556
847.55	-22.222
847.85	-9.524
848.15	46.154
848.44	-116.667
848.74	25.000
849.04	-61.538
849.34	-200.000
849.63	-27.273
849.93	-121.429
850.23	70.000
850.53	-12.500
850.82	-22.222
851.12	6.667
851.42	-35.294
851.71	-75.000
852.01	35.294
852.31	7.692
852.61	550.000
852.90	41.176
853.20	93.333
853.50	50.000
853.79	-42.857
854.09	-225.000
854.39	20.000
854.68	20.000
854.98	23.810
855.28	24.000
855.57	33.333
855.87	0.000
856.17	72.000
856.46	28.125
856.76	30.000
857.05	44.000
857.35	-41.667
857.65	41.176
857.94	-75.000
858.24	0.000
858.53	5.000
858.83	-100.000
859.13	4.000
859.42	-42.857
859.72	-62.500
860.01	33.333
860.31	-75.000
860.60	-12.500
860.90	-166.667
861.20	-16.667
861.49	26.667
861.79	-37.500
862.08	250.000
862.38	-116.667
862.67	200.000
862.97	275.000
863.26	-9.091
863.56	9.091
863.85	57.895
864.15	41.176
864.44	-500.000
864.74	-70.000
865.03	44.444
865.33	-35.714
865.62	150.000
865.92	-26.316
866.21	-16.667
866.51	9.091
866.80	-55.556
867.10	-262.500
867.39	-12.500
867.69	-86.667
867.98	-140.000
868.27	17.647
868.57	0.000
868.86	350.000
869.16	-250.000
869.45	-85.714
869.75	600.000
870.04	90.000
870.33	200.000
870.63	-21.053
870.92	-83.333
871.22	-200.000
871.51	-42.857
871.80	-188.889
872.10	-275.000
>>>>>End Processed Spectral Data<<<<<
