SpectraSuite Data File
++++++++++++++++++++++++++++++++++++
Date: Tue May 12 16:05:26 PDT 2015
User: schluterlab
Dark Spectrum Present: Yes
Reference Spectrum Present: Yes
Number of Sampled Component Spectra: 1
Spectrometers: USB2E3373
Integration Time (usec): 3000 (USB2E3373)
Spectra Averaged: 3 (USB2E3373)
Boxcar Smoothing: 0 (USB2E3373)
Correct for Electrical Dark: No (USB2E3373)
Strobe/Lamp Enabled: No (USB2E3373)
Correct for Detector Non-linearity: No (USB2E3373)
Correct for Stray Light: No (USB2E3373)
Number of Pixels in Processed Spectrum: 2048
>>>>>Begin Processed Spectral Data<<<<<
178.53	0.000
178.91	-325.000
179.29	-550.000
179.67	-3900.000
180.04	-160.000
180.42	1050.000
180.80	1600.000
181.18	0.000
181.56	-425.000
181.94	0.000
182.31	1100.000
182.69	-3300.000
183.07	571.429
183.45	-4200.000
183.83	-1750.000
184.20	380.000
184.58	528.571
184.96	-253.846
185.34	-308.333
185.72	1700.000
186.09	-600.000
186.47	-3200.000
186.85	1133.333
187.23	660.000
187.61	2100.000
187.98	475.000
188.36	250.000
188.74	316.667
189.12	308.333
189.49	975.000
189.87	0.000
190.25	525.000
190.63	2200.000
191.00	-191.667
191.38	-4800.000
191.76	-975.000
192.14	462.500
192.51	-2600.000
192.89	1900.000
193.27	1200.000
193.65	-1066.667
194.02	-820.000
194.40	400.000
194.78	-185.714
195.15	246.667
195.53	-3000.000
195.91	-600.000
196.29	3400.000
196.66	275.000
197.04	700.000
197.42	-1900.000
197.79	625.000
198.17	333.333
198.55	0.000
198.92	657.143
199.30	1133.333
199.68	1800.000
200.05	733.333
200.43	-483.333
200.81	250.000
201.18	3200.000
201.56	283.333
201.94	-675.000
202.31	-387.500
202.69	-500.000
203.07	3200.000
203.44	-450.000
203.82	350.000
204.19	700.000
204.57	-1650.000
204.95	-975.000
205.32	-940.000
205.70	633.333
206.08	775.000
206.45	-833.333
206.83	433.333
207.20	200.000
207.58	250.000
207.96	600.000
208.33	0.000
208.71	600.000
209.08	580.000
209.46	-3200.000
209.84	-900.000
210.21	880.000
210.59	-560.000
210.96	275.000
211.34	-1050.000
211.71	381.818
212.09	975.000
212.46	1550.000
212.84	-450.000
213.22	544.444
213.59	-3800.000
213.97	340.000
214.34	975.000
214.72	1100.000
215.09	1400.000
215.47	-2700.000
215.84	-280.000
216.22	-387.500
216.59	0.000
216.97	0.000
217.34	1600.000
217.72	-1800.000
218.09	1333.333
218.47	487.500
218.84	700.000
219.22	1266.667
219.59	1066.667
219.97	542.857
220.34	422.222
220.72	1300.000
221.09	3100.000
221.47	258.333
221.84	1000.000
222.22	370.000
222.59	244.444
222.97	271.429
223.34	200.000
223.72	-1750.000
224.09	1366.667
224.46	315.385
224.84	-650.000
225.21	466.667
225.59	266.667
225.96	1133.333
226.34	-700.000
226.71	-675.000
227.08	-620.000
227.46	0.000
227.83	-566.667
228.21	-1800.000
228.58	375.000
228.95	1050.000
229.33	366.667
229.70	1100.000
230.08	415.385
230.45	3100.000
230.82	-1025.000
231.20	-833.333
231.57	-1033.333
231.95	520.000
232.32	325.000
232.69	550.000
233.07	233.333
233.44	-1700.000
233.81	226.667
234.19	148.148
234.56	193.750
234.93	270.588
235.31	205.000
235.68	237.500
236.05	153.571
236.43	125.926
236.80	185.714
237.17	127.586
237.55	109.375
237.92	105.000
238.29	100.000
238.67	90.625
239.04	97.561
239.41	72.917
239.79	80.000
240.16	54.167
240.53	57.377
240.91	53.623
241.28	55.932
241.65	54.545
242.02	52.113
242.40	47.143
242.77	50.549
243.14	31.646
243.51	37.374
243.89	39.252
244.26	37.383
244.63	33.663
245.00	29.358
245.38	18.644
245.75	20.455
246.12	38.519
246.49	24.113
246.87	13.934
247.24	28.667
247.61	28.125
247.98	24.490
248.36	20.606
248.73	23.469
249.10	13.095
249.47	20.000
249.84	20.896
250.22	21.622
250.59	18.500
250.96	20.253
251.33	17.674
251.70	16.071
252.08	15.546
252.45	13.944
252.82	13.688
253.19	14.625
253.56	16.923
253.94	15.217
254.31	14.729
254.68	11.498
255.05	14.138
255.42	11.314
255.79	12.704
256.16	14.915
256.54	17.857
256.91	8.824
257.28	12.040
257.65	11.599
258.02	12.389
258.39	13.754
258.76	16.232
259.14	10.000
259.51	12.245
259.88	13.982
260.25	9.890
260.62	14.521
260.99	7.989
261.36	10.028
261.73	10.638
262.10	9.424
262.47	7.750
262.85	9.333
263.22	10.283
263.59	9.463
263.96	11.028
264.33	9.383
264.70	11.057
265.07	12.927
265.44	10.092
265.81	11.085
266.18	12.586
266.55	7.329
266.92	9.172
267.29	10.088
267.66	9.641
268.03	4.933
268.40	10.782
268.77	10.573
269.14	7.809
269.51	8.463
269.88	11.224
270.25	8.423
270.62	7.511
270.99	10.345
271.36	8.537
271.73	6.080
272.10	7.677
272.47	7.540
272.84	7.984
273.21	4.959
273.58	9.109
273.95	7.392
274.32	9.728
274.69	9.252
275.06	7.832
275.43	8.046
275.80	8.302
276.17	7.721
276.54	10.093
276.91	8.209
277.28	7.482
277.65	8.672
278.02	9.743
278.39	8.094
278.76	7.241
279.13	7.829
279.50	7.091
279.87	6.145
280.23	6.630
280.60	6.204
280.97	5.345
281.34	8.416
281.71	8.000
282.08	7.350
282.45	6.926
282.82	7.023
283.19	7.472
283.56	6.446
283.92	6.352
284.29	7.321
284.66	6.891
285.03	7.794
285.40	5.289
285.77	4.784
286.14	7.895
286.51	7.975
286.87	4.589
287.24	6.907
287.61	7.447
287.98	6.418
288.35	6.222
288.72	6.222
289.08	6.456
289.45	7.927
289.82	6.719
290.19	7.467
290.56	7.860
290.93	5.324
291.29	7.182
291.66	6.356
292.03	6.452
292.40	7.859
292.77	5.571
293.13	6.419
293.50	6.208
293.87	5.149
294.24	6.154
294.60	6.057
294.97	7.273
295.34	5.843
295.71	6.176
296.08	5.733
296.44	5.845
296.81	5.211
297.18	4.056
297.55	6.527
297.91	5.296
298.28	5.556
298.65	5.399
299.02	5.911
299.38	6.475
299.75	6.463
300.12	5.161
300.48	6.440
300.85	5.364
301.22	5.349
301.59	5.542
301.95	5.834
302.32	5.239
302.69	6.335
303.05	6.510
303.42	4.933
303.79	5.959
304.15	5.061
304.52	4.228
304.89	5.650
305.25	5.895
305.62	5.437
305.99	5.000
306.35	4.632
306.72	5.307
307.09	5.176
307.45	4.963
307.82	4.733
308.19	5.155
308.55	4.100
308.92	5.986
309.29	5.621
309.65	5.451
310.02	4.767
310.38	5.284
310.75	5.497
311.12	4.310
311.48	5.888
311.85	5.248
312.22	6.590
312.58	4.859
312.95	5.631
313.31	6.180
313.68	4.784
314.05	6.319
314.41	5.214
314.78	4.167
315.14	5.877
315.51	5.203
315.87	5.839
316.24	6.629
316.61	6.177
316.97	4.771
317.34	5.571
317.70	5.795
318.07	6.584
318.43	6.854
318.80	6.305
319.16	6.731
319.53	5.487
319.89	5.018
320.26	6.890
320.62	4.945
320.99	5.624
321.35	6.494
321.72	7.211
322.08	6.002
322.45	6.630
322.81	6.221
323.18	6.394
323.54	7.056
323.91	6.528
324.27	6.366
324.64	5.709
325.00	6.552
325.37	6.661
325.73	5.734
326.10	6.462
326.46	6.276
326.83	5.600
327.19	6.426
327.56	5.990
327.92	6.230
328.29	7.529
328.65	7.877
329.01	5.475
329.38	7.360
329.74	5.892
330.11	6.777
330.47	7.673
330.84	5.436
331.20	6.937
331.56	8.117
331.93	7.015
332.29	5.527
332.66	7.058
333.02	6.873
333.38	6.981
333.75	7.256
334.11	6.376
334.48	6.923
334.84	6.926
335.20	6.929
335.57	6.633
335.93	6.056
336.29	6.633
336.66	6.947
337.02	5.646
337.38	5.847
337.75	6.926
338.11	7.426
338.47	6.097
338.84	6.605
339.20	5.195
339.56	6.560
339.93	6.438
340.29	6.050
340.65	7.293
341.02	7.241
341.38	6.486
341.74	6.312
342.11	5.342
342.47	5.250
342.83	5.742
343.20	6.225
343.56	4.925
343.92	5.780
344.28	6.380
344.65	5.949
345.01	6.746
345.37	5.369
345.73	6.111
346.10	5.896
346.46	6.300
346.82	6.327
347.19	6.878
347.55	5.933
347.91	5.514
348.27	5.345
348.63	5.380
349.00	6.474
349.36	5.447
349.72	6.728
350.08	6.677
350.45	6.855
350.81	6.040
351.17	5.547
351.53	6.159
351.89	5.361
352.26	4.762
352.62	6.184
352.98	5.752
353.34	6.626
353.70	5.657
354.07	5.231
354.43	6.221
354.79	5.619
355.15	5.972
355.51	5.589
355.87	6.476
356.24	5.851
356.60	6.164
356.96	4.928
357.32	6.029
357.68	6.535
358.04	6.079
358.40	6.222
358.77	5.860
359.13	5.556
359.49	4.596
359.85	4.617
360.21	5.349
360.57	5.766
360.93	5.700
361.29	5.628
361.66	6.637
362.02	4.545
362.38	5.556
362.74	5.662
363.10	5.680
363.46	5.318
363.82	6.592
364.18	5.263
364.54	4.936
364.90	5.556
365.26	5.621
365.62	5.041
365.98	4.680
366.35	5.448
366.71	5.066
367.07	4.983
367.43	5.440
367.79	5.452
368.15	4.410
368.51	5.169
368.87	5.367
369.23	5.267
369.59	5.799
369.95	5.734
370.31	4.860
370.67	5.760
371.03	5.672
371.39	5.194
371.75	4.187
372.11	5.914
372.47	6.096
372.83	5.710
373.19	5.483
373.55	5.430
373.91	5.732
374.27	5.357
374.63	4.746
374.99	5.795
375.35	4.973
375.71	5.013
376.07	5.106
376.42	4.731
376.78	5.845
377.14	5.636
377.50	4.869
377.86	5.061
378.22	5.667
378.58	5.085
378.94	5.432
379.30	5.397
379.66	4.636
380.02	5.689
380.38	4.567
380.74	5.767
381.09	5.432
381.45	4.855
381.81	4.787
382.17	5.006
382.53	5.219
382.89	5.204
383.25	4.796
383.61	4.784
383.97	4.799
384.32	5.244
384.68	6.001
385.04	5.217
385.40	5.397
385.76	4.506
386.12	4.947
386.48	4.985
386.83	5.196
387.19	4.299
387.55	5.065
387.91	5.831
388.27	4.997
388.62	5.340
388.98	4.315
389.34	4.164
389.70	4.481
390.06	5.549
390.42	5.059
390.77	5.037
391.13	4.949
391.49	5.445
391.85	5.046
392.20	5.602
392.56	5.615
392.92	4.492
393.28	4.877
393.64	4.759
393.99	5.039
394.35	4.532
394.71	4.162
395.07	4.258
395.42	5.269
395.78	6.416
396.14	5.602
396.50	5.174
396.85	5.000
397.21	4.573
397.57	5.380
397.92	4.737
398.28	4.468
398.64	5.294
399.00	5.024
399.35	4.938
399.71	5.629
400.07	4.852
400.42	4.657
400.78	4.927
401.14	4.932
401.49	4.839
401.85	5.330
402.21	4.159
402.57	4.847
402.92	5.152
403.28	4.714
403.63	5.003
403.99	5.127
404.35	5.393
404.70	5.257
405.06	5.166
405.42	4.608
405.77	5.292
406.13	5.043
406.49	4.719
406.84	4.851
407.20	4.795
407.55	4.923
407.91	5.297
408.27	5.155
408.62	4.435
408.98	5.086
409.34	4.676
409.69	4.916
410.05	4.711
410.40	4.535
410.76	4.350
411.11	4.206
411.47	5.000
411.83	4.569
412.18	4.710
412.54	4.925
412.89	4.307
413.25	5.074
413.60	4.907
413.96	4.847
414.31	4.545
414.67	5.462
415.03	4.598
415.38	5.615
415.74	4.548
416.09	5.559
416.45	4.977
416.80	5.260
417.16	5.474
417.51	5.032
417.87	4.819
418.22	4.617
418.58	4.331
418.93	4.521
419.29	4.621
419.64	4.906
420.00	5.370
420.35	4.472
420.71	4.609
421.06	3.943
421.42	4.951
421.77	4.498
422.12	4.741
422.48	4.725
422.83	4.688
423.19	4.158
423.54	4.498
423.90	5.040
424.25	4.018
424.61	5.049
424.96	4.517
425.31	4.871
425.67	4.377
426.02	4.879
426.38	4.084
426.73	4.569
427.09	4.804
427.44	4.052
427.79	4.117
428.15	4.596
428.50	4.914
428.85	4.938
429.21	4.700
429.56	5.085
429.92	4.575
430.27	4.161
430.62	4.112
430.98	4.092
431.33	4.133
431.68	3.654
432.04	3.880
432.39	4.336
432.74	4.684
433.10	4.208
433.45	4.136
433.80	4.633
434.16	4.362
434.51	4.954
434.86	4.736
435.22	4.268
435.57	4.268
435.92	5.293
436.28	4.666
436.63	4.646
436.98	4.448
437.34	5.194
437.69	3.415
438.04	4.462
438.39	5.079
438.75	4.677
439.10	4.263
439.45	4.353
439.81	4.974
440.16	4.513
440.51	4.110
440.86	5.128
441.22	4.870
441.57	5.249
441.92	4.541
442.27	4.021
442.63	4.573
442.98	4.095
443.33	4.660
443.68	4.326
444.03	4.430
444.39	4.426
444.74	5.021
445.09	4.318
445.44	4.357
445.79	4.435
446.15	4.000
446.50	4.589
446.85	4.183
447.20	4.080
447.55	3.861
447.91	5.221
448.26	4.526
448.61	5.030
448.96	4.357
449.31	4.730
449.66	5.371
450.02	4.322
450.37	5.053
450.72	4.738
451.07	5.294
451.42	5.098
451.77	4.696
452.12	5.048
452.47	5.164
452.83	4.845
453.18	4.925
453.53	4.914
453.88	4.457
454.23	5.462
454.58	4.837
454.93	4.721
455.28	4.835
455.63	4.078
455.98	4.625
456.34	5.350
456.69	4.695
457.04	4.654
457.39	4.171
457.74	5.124
458.09	4.660
458.44	5.038
458.79	4.032
459.14	4.419
459.49	4.926
459.84	4.620
460.19	4.972
460.54	5.071
460.89	5.117
461.24	4.410
461.59	4.819
461.94	5.319
462.29	5.320
462.64	5.214
462.99	4.543
463.34	5.638
463.69	6.171
464.04	4.375
464.39	4.350
464.74	4.631
465.09	4.991
465.44	4.570
465.79	4.573
466.14	4.452
466.49	4.775
466.84	4.627
467.19	5.331
467.54	4.865
467.89	4.812
468.24	4.169
468.59	4.762
468.94	4.831
469.29	5.254
469.64	5.402
469.99	5.334
470.34	5.376
470.68	4.414
471.03	4.736
471.38	4.503
471.73	5.879
472.08	4.501
472.43	4.966
472.78	4.802
473.13	4.380
473.48	4.829
473.83	4.535
474.17	5.106
474.52	5.332
474.87	4.377
475.22	4.969
475.57	4.722
475.92	4.446
476.27	3.863
476.61	4.558
476.96	4.493
477.31	4.781
477.66	5.207
478.01	4.951
478.36	4.943
478.70	3.921
479.05	4.498
479.40	4.415
479.75	5.065
480.10	4.501
480.45	3.922
480.79	4.378
481.14	3.947
481.49	4.300
481.84	4.661
482.19	4.716
482.53	4.436
482.88	4.615
483.23	4.195
483.58	4.084
483.92	5.119
484.27	4.538
484.62	4.117
484.97	4.168
485.31	3.732
485.66	3.453
486.01	3.516
486.36	3.076
486.70	3.091
487.05	3.492
487.40	3.443
487.75	3.475
488.09	3.892
488.44	3.792
488.79	3.610
489.13	4.106
489.48	3.915
489.83	4.170
490.17	4.211
490.52	4.393
490.87	4.612
491.22	4.344
491.56	4.172
491.91	4.167
492.26	4.276
492.60	4.966
492.95	3.715
493.30	5.050
493.64	4.582
493.99	4.964
494.34	4.348
494.68	3.851
495.03	4.535
495.37	4.773
495.72	4.382
496.07	4.672
496.41	4.474
496.76	4.306
497.11	4.927
497.45	4.866
497.80	4.356
498.14	4.623
498.49	4.271
498.84	4.579
499.18	4.479
499.53	4.639
499.87	4.537
500.22	4.883
500.56	3.993
500.91	5.009
501.26	4.502
501.60	4.554
501.95	3.629
502.29	4.311
502.64	4.146
502.98	4.491
503.33	4.187
503.67	3.885
504.02	4.165
504.36	4.615
504.71	4.825
505.06	4.364
505.40	3.931
505.75	4.397
506.09	4.806
506.44	4.605
506.78	4.253
507.13	3.926
507.47	4.658
507.82	5.255
508.16	4.900
508.51	4.348
508.85	4.986
509.19	4.454
509.54	4.785
509.88	4.973
510.23	4.167
510.57	4.633
510.92	4.895
511.26	4.518
511.61	4.727
511.95	4.629
512.30	4.950
512.64	4.413
512.98	4.100
513.33	4.559
513.67	4.661
514.02	5.091
514.36	4.673
514.70	4.587
515.05	4.262
515.39	4.605
515.74	5.085
516.08	4.902
516.42	5.246
516.77	4.373
517.11	4.533
517.46	4.849
517.80	4.478
518.14	5.634
518.49	4.465
518.83	3.681
519.17	4.936
519.52	5.079
519.86	4.850
520.20	4.877
520.55	5.257
520.89	4.713
521.23	4.556
521.58	4.647
521.92	5.131
522.26	4.562
522.61	5.169
522.95	4.925
523.29	4.678
523.64	4.624
523.98	4.812
524.32	4.671
524.66	4.290
525.01	4.556
525.35	4.655
525.69	4.877
526.04	5.354
526.38	5.180
526.72	4.714
527.06	4.613
527.41	5.744
527.75	4.991
528.09	4.816
528.43	5.369
528.78	5.367
529.12	4.756
529.46	4.968
529.80	4.673
530.15	5.186
530.49	4.272
530.83	5.241
531.17	4.490
531.51	4.782
531.86	4.650
532.20	4.450
532.54	4.520
532.88	5.184
533.22	5.119
533.57	4.698
533.91	4.254
534.25	5.020
534.59	5.146
534.93	4.892
535.27	4.496
535.62	4.609
535.96	4.433
536.30	4.875
536.64	3.975
536.98	4.909
537.32	6.375
537.66	4.528
538.01	5.387
538.35	6.238
538.69	4.794
539.03	4.789
539.37	4.490
539.71	5.370
540.05	4.369
540.39	5.031
540.73	5.190
541.07	4.203
541.42	4.353
541.76	5.055
542.10	4.624
542.44	4.800
542.78	4.783
543.12	4.601
543.46	4.950
543.80	4.762
544.14	5.635
544.48	4.440
544.82	5.076
545.16	5.039
545.50	4.733
545.84	5.114
546.18	5.397
546.52	5.049
546.86	5.545
547.20	4.522
547.54	5.193
547.88	5.170
548.22	4.493
548.56	5.068
548.90	5.635
549.24	4.611
549.58	4.768
549.92	4.977
550.26	5.003
550.60	5.256
550.94	4.885
551.28	5.793
551.62	5.034
551.96	5.338
552.30	4.680
552.64	5.049
552.98	3.415
553.32	4.930
553.66	4.300
554.00	5.277
554.34	5.326
554.68	5.242
555.02	5.024
555.36	5.120
555.69	4.450
556.03	4.713
556.37	4.525
556.71	5.541
557.05	4.194
557.39	5.267
557.73	5.458
558.07	5.030
558.41	5.483
558.75	5.746
559.08	5.647
559.42	5.583
559.76	5.488
560.10	5.162
560.44	4.711
560.78	5.371
561.12	4.768
561.45	4.819
561.79	4.245
562.13	4.422
562.47	4.672
562.81	5.075
563.15	5.042
563.48	4.658
563.82	5.178
564.16	4.602
564.50	4.159
564.84	4.742
565.17	4.872
565.51	4.680
565.85	3.948
566.19	4.940
566.52	4.813
566.86	4.553
567.20	5.393
567.54	4.476
567.88	4.278
568.21	4.543
568.55	4.572
568.89	4.699
569.23	4.487
569.56	4.153
569.90	3.845
570.24	3.714
570.57	3.699
570.91	3.463
571.25	3.351
571.59	3.666
571.92	3.687
572.26	2.938
572.60	3.305
572.93	3.479
573.27	3.705
573.61	3.032
573.95	3.262
574.28	3.393
574.62	3.237
574.96	2.871
575.29	2.943
575.63	3.251
575.97	2.970
576.30	3.316
576.64	3.284
576.98	3.018
577.31	3.471
577.65	3.436
577.98	3.098
578.32	2.985
578.66	3.169
578.99	3.147
579.33	3.451
579.67	3.369
580.00	3.210
580.34	3.152
580.67	3.244
581.01	3.314
581.35	3.379
581.68	2.839
582.02	3.284
582.35	2.945
582.69	3.169
583.02	3.092
583.36	3.016
583.70	3.528
584.03	3.256
584.37	3.306
584.70	3.459
585.04	3.402
585.37	2.818
585.71	3.213
586.04	3.210
586.38	3.040
586.72	3.166
587.05	3.654
587.39	3.363
587.72	3.245
588.06	3.278
588.39	3.250
588.73	3.405
589.06	3.443
589.40	3.944
589.73	3.540
590.07	3.638
590.40	4.146
590.73	4.150
591.07	4.023
591.40	3.513
591.74	3.653
592.07	3.328
592.41	4.117
592.74	3.698
593.08	3.320
593.41	3.321
593.75	3.133
594.08	3.696
594.41	3.389
594.75	3.459
595.08	3.429
595.42	3.752
595.75	3.718
596.09	3.580
596.42	3.460
596.75	4.006
597.09	3.879
597.42	3.469
597.75	3.408
598.09	3.734
598.42	3.754
598.76	3.932
599.09	3.751
599.42	3.668
599.76	3.494
600.09	3.729
600.42	3.867
600.76	3.433
601.09	3.141
601.42	3.625
601.76	3.473
602.09	3.458
602.42	3.771
602.76	4.099
603.09	3.808
603.42	3.817
603.76	3.507
604.09	3.511
604.42	3.164
604.76	3.911
605.09	3.755
605.42	4.023
605.75	4.106
606.09	3.864
606.42	4.021
606.75	3.964
607.09	3.711
607.42	3.817
607.75	3.782
608.08	3.818
608.42	4.027
608.75	3.552
609.08	4.136
609.41	4.136
609.75	4.304
610.08	4.047
610.41	4.216
610.74	3.853
611.07	4.457
611.41	4.078
611.74	3.633
612.07	4.143
612.40	3.947
612.73	4.144
613.07	4.359
613.40	4.261
613.73	3.894
614.06	4.250
614.39	4.899
614.72	4.922
615.06	3.660
615.39	3.762
615.72	3.824
616.05	4.370
616.38	4.414
616.71	3.961
617.05	4.613
617.38	3.876
617.71	4.612
618.04	4.599
618.37	4.892
618.70	4.446
619.03	4.274
619.36	4.899
619.69	5.277
620.03	4.958
620.36	4.239
620.69	5.172
621.02	5.299
621.35	4.298
621.68	4.720
622.01	5.756
622.34	4.006
622.67	5.407
623.00	4.561
623.33	4.993
623.66	4.990
623.99	4.932
624.32	5.285
624.65	4.345
624.99	4.801
625.32	4.943
625.65	4.000
625.98	4.254
626.31	5.341
626.64	4.328
626.97	4.667
627.30	4.581
627.63	4.788
627.96	4.460
628.29	5.611
628.62	5.047
628.95	6.028
629.28	5.697
629.61	4.833
629.94	5.099
630.26	5.719
630.59	6.915
630.92	5.740
631.25	7.072
631.58	6.365
631.91	5.519
632.24	4.762
632.57	5.992
632.90	6.729
633.23	6.401
633.56	7.060
633.89	6.324
634.22	5.813
634.55	5.914
634.88	6.243
635.20	6.951
635.53	5.923
635.86	6.040
636.19	6.061
636.52	5.081
636.85	4.315
637.18	7.476
637.51	5.475
637.83	6.178
638.16	7.503
638.49	7.305
638.82	7.746
639.15	5.288
639.48	7.346
639.81	6.838
640.13	6.135
640.46	5.563
640.79	6.242
641.12	5.381
641.45	6.856
641.77	7.266
642.10	8.032
642.43	6.828
642.76	7.102
643.09	7.205
643.41	7.574
643.74	6.475
644.07	6.932
644.40	6.805
644.73	7.508
645.05	8.470
645.38	8.116
645.71	6.525
646.04	8.092
646.36	8.451
646.69	7.360
647.02	8.640
647.35	8.189
647.67	5.997
648.00	8.143
648.33	8.872
648.66	8.182
648.98	6.522
649.31	7.152
649.64	6.086
649.96	7.112
650.29	6.571
650.62	7.216
650.94	9.639
651.27	8.931
651.60	8.294
651.92	9.217
652.25	8.819
652.58	8.085
652.90	7.036
653.23	6.204
653.56	6.973
653.88	7.930
654.21	6.891
654.54	7.321
654.86	8.555
655.19	7.256
655.52	5.366
655.84	2.579
656.17	2.622
656.49	3.530
656.82	4.099
657.15	3.563
657.47	2.596
657.80	1.961
658.13	1.544
658.45	2.446
658.78	2.850
659.10	2.594
659.43	3.345
659.75	3.462
660.08	3.571
660.41	5.989
660.73	8.156
661.06	8.408
661.38	7.325
661.71	7.554
662.03	5.894
662.36	7.619
662.68	11.359
663.01	10.090
663.33	10.189
663.66	8.679
663.98	8.929
664.31	12.313
664.63	12.261
664.96	12.570
665.28	9.040
665.61	8.302
665.93	6.792
666.26	7.477
666.58	11.560
666.91	9.653
667.23	7.430
667.56	9.856
667.88	9.959
668.21	8.607
668.53	11.089
668.86	8.617
669.18	10.998
669.50	8.471
669.83	12.115
670.15	9.979
670.48	6.445
670.80	8.765
671.13	9.960
671.45	11.022
671.77	10.946
672.10	9.515
672.42	7.072
672.75	7.911
673.07	7.631
673.39	7.668
673.72	9.516
674.04	8.602
674.37	10.163
674.69	7.063
675.01	7.836
675.34	10.078
675.66	10.938
675.98	10.651
676.31	7.400
676.63	6.958
676.95	9.127
677.28	8.114
677.60	9.658
677.92	7.937
678.25	9.690
678.57	9.870
678.89	8.861
679.22	9.191
679.54	7.829
679.86	6.632
680.18	8.084
680.51	6.468
680.83	9.966
681.15	9.185
681.48	8.854
681.80	6.830
682.12	9.170
682.44	7.568
682.77	9.609
683.09	9.320
683.41	9.388
683.73	8.858
684.06	8.730
684.38	8.915
684.70	9.353
685.02	7.118
685.34	8.099
685.67	8.682
685.99	7.389
686.31	6.934
686.63	6.504
686.96	8.497
687.28	8.893
687.60	8.362
687.92	9.715
688.24	9.828
688.56	10.854
688.89	7.266
689.21	9.634
689.53	9.486
689.85	7.114
690.17	9.709
690.49	11.089
690.82	9.454
691.14	9.899
691.46	9.446
691.78	11.891
692.10	8.779
692.42	10.345
692.74	9.690
693.06	7.171
693.39	7.312
693.71	10.216
694.03	10.454
694.35	10.643
694.67	10.591
694.99	8.869
695.31	11.937
695.63	11.312
695.95	11.538
696.27	11.283
696.59	9.547
696.91	8.608
697.23	10.633
697.56	9.129
697.88	6.387
698.20	10.566
698.52	6.615
698.84	9.446
699.16	11.087
699.48	9.746
699.80	12.418
700.12	11.547
700.44	12.150
700.76	11.217
701.08	9.922
701.40	10.909
701.72	15.508
702.04	13.821
702.36	11.290
702.68	11.968
703.00	9.524
703.32	9.926
703.64	13.602
703.96	10.677
704.28	10.582
704.60	11.268
704.91	10.644
705.23	13.068
705.55	13.947
705.87	13.968
706.19	15.674
706.51	15.987
706.83	15.044
707.15	13.369
707.47	14.044
707.79	11.494
708.11	8.617
708.43	12.360
708.74	8.371
709.06	13.023
709.38	10.670
709.70	9.537
710.02	9.783
710.34	12.155
710.66	12.500
710.98	10.383
711.29	12.256
711.61	12.813
711.93	13.982
712.25	9.639
712.57	11.897
712.89	11.212
713.20	11.502
713.52	13.084
713.84	14.502
714.16	11.594
714.48	6.340
714.80	13.821
715.11	12.500
715.43	12.011
715.75	10.704
716.07	14.162
716.39	12.571
716.70	11.526
717.02	16.162
717.34	14.388
717.66	14.931
717.97	17.803
718.29	15.141
718.61	10.811
718.93	14.533
719.24	15.101
719.56	10.345
719.88	10.828
720.20	13.226
720.51	12.092
720.83	14.381
721.15	15.986
721.46	13.356
721.78	13.240
722.10	14.583
722.42	17.057
722.73	12.635
723.05	19.649
723.37	18.021
723.68	12.109
724.00	18.561
724.32	15.209
724.63	13.462
724.95	13.333
725.27	15.613
725.58	16.544
725.90	10.211
726.22	13.014
726.53	13.378
726.85	15.961
727.16	16.107
727.48	14.618
727.80	20.144
728.11	13.929
728.43	14.130
728.74	15.035
729.06	12.545
729.38	14.035
729.69	18.667
730.01	17.763
730.32	14.430
730.64	14.286
730.96	14.114
731.27	8.563
731.59	10.345
731.90	12.535
732.22	12.286
732.53	11.681
732.85	15.205
733.16	12.349
733.48	14.420
733.80	16.232
734.11	14.724
734.43	14.035
734.74	10.188
735.06	12.169
735.37	11.598
735.69	13.043
736.00	13.456
736.32	10.303
736.63	9.464
736.95	13.975
737.26	14.329
737.58	13.804
737.89	14.157
738.21	12.252
738.52	15.719
738.83	18.315
739.15	15.679
739.46	16.552
739.78	15.646
740.09	14.286
740.41	12.577
740.72	12.381
741.04	18.531
741.35	14.062
741.66	16.206
741.98	14.592
742.29	17.130
742.61	12.832
742.92	16.525
743.23	14.800
743.55	12.830
743.86	15.686
744.18	15.678
744.49	19.008
744.80	22.581
745.12	19.196
745.43	20.093
745.74	20.444
746.06	16.228
746.37	18.140
746.68	19.027
747.00	10.762
747.31	20.168
747.62	13.115
747.94	17.597
748.25	13.230
748.56	20.339
748.88	16.518
749.19	14.419
749.50	13.242
749.82	18.519
750.13	16.996
750.44	15.000
750.75	15.101
751.07	13.487
751.38	12.871
751.69	14.478
752.01	11.189
752.32	12.957
752.63	14.094
752.94	14.336
753.26	17.969
753.57	18.677
753.88	13.483
754.19	11.913
754.51	13.289
754.82	14.765
755.13	13.851
755.44	14.815
755.75	16.838
756.07	16.096
756.38	11.765
756.69	15.313
757.00	15.727
757.31	14.366
757.63	9.091
757.94	9.309
758.25	11.594
758.56	11.442
758.87	12.281
759.18	15.698
759.50	13.070
759.81	12.463
760.12	15.730
760.43	12.045
760.74	13.418
761.05	7.692
761.36	10.417
761.67	12.399
761.99	13.239
762.30	11.576
762.61	12.847
762.92	14.773
763.23	17.736
763.54	17.308
763.85	11.673
764.16	17.361
764.47	13.851
764.78	14.332
765.10	11.280
765.41	11.932
765.72	11.878
766.03	10.876
766.34	13.937
766.65	12.928
766.96	19.028
767.27	19.159
767.58	22.772
767.89	24.862
768.20	21.951
768.51	18.878
768.82	21.491
769.13	14.902
769.44	12.030
769.75	9.738
770.06	17.647
770.37	10.088
770.68	14.667
770.99	18.220
771.30	16.736
771.61	15.000
771.92	16.412
772.23	14.113
772.54	16.444
772.85	22.277
773.16	19.565
773.47	20.000
773.78	19.802
774.09	16.477
774.39	20.606
774.70	18.235
775.01	19.079
775.32	25.466
775.63	24.658
775.94	36.420
776.25	20.690
776.56	22.137
776.87	30.534
777.18	27.273
777.48	40.945
777.79	27.692
778.10	28.030
778.41	26.119
778.72	24.812
779.03	19.231
779.34	25.000
779.65	24.845
779.95	22.981
780.26	23.810
780.57	31.973
780.88	32.624
781.19	31.667
781.50	27.811
781.80	28.415
782.11	23.810
782.42	27.011
782.73	25.989
783.04	23.871
783.34	23.256
783.65	19.728
783.96	26.452
784.27	23.841
784.57	23.026
784.88	34.783
785.19	21.667
785.50	33.621
785.81	34.884
786.11	29.630
786.42	24.409
786.73	31.532
787.04	30.189
787.34	27.642
787.65	37.121
787.96	34.091
788.26	40.157
788.57	27.007
788.88	21.127
789.19	22.137
789.49	31.757
789.80	27.344
790.11	33.884
790.41	35.185
790.72	30.556
791.03	40.385
791.33	38.384
791.64	42.105
791.95	51.579
792.25	46.875
792.56	45.000
792.87	32.927
793.17	35.227
793.48	42.353
793.79	37.931
794.09	32.955
794.40	41.379
794.70	39.683
795.01	26.154
795.32	27.481
795.62	23.932
795.93	43.697
796.23	38.211
796.54	43.878
796.85	38.636
797.15	57.143
797.46	40.244
797.76	46.250
798.07	50.667
798.37	47.500
798.68	43.750
798.99	45.122
799.29	30.667
799.60	40.698
799.90	52.632
800.21	40.909
800.51	39.437
800.82	46.552
801.12	73.846
801.43	57.333
801.73	56.897
802.04	51.948
802.34	50.685
802.65	66.667
802.95	58.696
803.26	66.129
803.56	70.000
803.87	49.254
804.17	46.032
804.48	58.491
804.78	56.944
805.09	54.545
805.39	61.905
805.70	61.404
806.00	34.286
806.30	48.438
806.61	45.882
806.91	56.667
807.22	40.217
807.52	51.316
807.83	63.158
808.13	57.971
808.43	66.129
808.74	56.164
809.04	71.429
809.35	55.882
809.65	62.121
809.95	74.510
810.26	75.926
810.56	65.625
810.86	81.633
811.17	66.667
811.47	67.391
811.77	46.552
812.08	43.103
812.38	71.429
812.69	85.714
812.99	77.778
813.29	91.429
813.59	103.226
813.90	65.517
814.20	83.607
814.50	64.000
814.81	73.684
815.11	81.481
815.41	67.857
815.72	96.429
816.02	90.000
816.32	78.049
816.62	68.966
816.93	96.970
817.23	129.268
817.53	82.143
817.84	71.111
818.14	76.190
818.44	70.833
818.74	100.000
819.04	82.051
819.35	106.061
819.65	86.538
819.95	98.148
820.25	102.128
820.56	91.892
820.86	110.526
821.16	57.447
821.46	110.526
821.76	87.273
822.07	54.762
822.37	97.368
822.67	76.744
822.97	68.421
823.27	89.130
823.57	118.750
823.88	100.000
824.18	63.636
824.48	113.043
824.78	102.778
825.08	156.522
825.38	117.241
825.69	82.353
825.99	93.617
826.29	83.333
826.59	108.571
826.89	110.000
827.19	97.143
827.49	122.581
827.79	96.154
828.09	78.571
828.39	88.889
828.70	75.676
829.00	121.429
829.30	175.000
829.60	88.889
829.90	148.387
830.20	93.939
830.50	129.730
830.80	150.000
831.10	134.615
831.40	138.095
831.70	150.000
832.00	96.667
832.30	130.435
832.60	183.333
832.90	157.576
833.20	200.000
833.50	118.421
833.80	97.059
834.10	94.737
834.40	173.684
834.70	136.667
835.00	160.000
835.30	72.973
835.60	115.625
835.90	102.703
836.20	146.154
836.50	118.182
836.80	112.195
837.10	169.565
837.40	276.923
837.70	147.368
838.00	113.333
838.30	150.000
838.60	156.000
838.90	180.000
839.19	237.500
839.49	153.333
839.79	124.138
840.09	138.462
840.39	113.333
840.69	194.737
840.99	100.000
841.29	160.870
841.59	195.000
841.88	156.000
842.18	311.111
842.48	107.143
842.78	200.000
843.08	184.615
843.38	150.000
843.68	264.286
843.97	500.000
844.27	130.435
844.57	1100.000
844.87	271.429
845.17	222.222
845.47	138.095
845.76	141.667
846.06	414.286
846.36	158.824
846.66	246.154
846.96	168.750
847.25	207.692
847.55	157.895
847.85	205.556
848.15	540.000
848.44	354.545
848.74	171.429
849.04	220.833
849.34	205.882
849.63	281.250
849.93	181.250
850.23	833.333
850.53	462.500
850.82	309.091
851.12	164.706
851.42	187.500
851.71	200.000
852.01	0.000
852.31	188.235
852.61	390.000
852.90	125.000
853.20	355.556
853.50	-2000.000
853.79	144.000
854.09	121.875
854.39	110.345
854.68	144.828
854.98	180.952
855.28	132.258
855.57	250.000
855.87	155.556
856.17	118.519
856.46	189.474
856.76	112.903
857.05	223.529
857.35	327.273
857.65	215.385
857.94	140.000
858.24	411.111
858.53	221.429
858.83	571.429
859.13	213.043
859.42	355.556
859.72	437.500
860.01	291.667
860.31	875.000
860.60	330.000
860.90	412.500
861.20	269.231
861.49	471.429
861.79	-4100.000
862.08	657.143
862.38	344.444
862.67	257.143
862.97	380.000
863.26	133.333
863.56	700.000
863.85	330.769
864.15	300.000
864.44	216.667
864.74	308.333
865.03	354.545
865.33	375.000
865.62	260.000
865.92	483.333
866.21	875.000
866.51	580.000
866.80	205.556
867.10	1133.333
867.39	3000.000
867.69	780.000
867.98	800.000
868.27	219.048
868.57	340.000
868.86	975.000
869.16	166.667
869.45	3000.000
869.75	-416.667
870.04	800.000
870.33	800.000
870.63	350.000
870.92	164.706
871.22	950.000
871.51	557.143
871.80	325.000
872.10	369.231
>>>>>End Processed Spectral Data<<<<<
