SpectraSuite Data File
++++++++++++++++++++++++++++++++++++
Date: Tue May 12 17:18:47 PDT 2015
User: schluterlab
Dark Spectrum Present: Yes
Reference Spectrum Present: Yes
Number of Sampled Component Spectra: 1
Spectrometers: USB2E3373
Integration Time (usec): 3000 (USB2E3373)
Spectra Averaged: 3 (USB2E3373)
Boxcar Smoothing: 0 (USB2E3373)
Correct for Electrical Dark: No (USB2E3373)
Strobe/Lamp Enabled: No (USB2E3373)
Correct for Detector Non-linearity: No (USB2E3373)
Correct for Stray Light: No (USB2E3373)
Number of Pixels in Processed Spectrum: 2048
>>>>>Begin Processed Spectral Data<<<<<
178.53	0.000
178.91	-225.000
179.29	-650.000
179.67	-3300.000
180.04	-153.333
180.42	675.000
180.80	1800.000
181.18	0.000
181.56	-350.000
181.94	0.000
182.31	1033.333
182.69	-3100.000
183.07	585.714
183.45	-3600.000
183.83	-1400.000
184.20	380.000
184.58	528.571
184.96	-246.154
185.34	-283.333
185.72	1400.000
186.09	-725.000
186.47	-3400.000
186.85	1100.000
187.23	580.000
187.61	1600.000
187.98	425.000
188.36	300.000
188.74	316.667
189.12	383.333
189.49	1125.000
189.87	0.000
190.25	437.500
190.63	3200.000
191.00	-250.000
191.38	-4100.000
191.76	-875.000
192.14	462.500
192.51	-3200.000
192.89	2250.000
193.27	900.000
193.65	-800.000
194.02	-800.000
194.40	585.714
194.78	-200.000
195.15	266.667
195.53	-2900.000
195.91	-560.000
196.29	4400.000
196.66	237.500
197.04	700.000
197.42	-1800.000
197.79	600.000
198.17	375.000
198.55	0.000
198.92	485.714
199.30	1066.667
199.68	1600.000
200.05	750.000
200.43	-583.333
200.81	200.000
201.18	3500.000
201.56	291.667
201.94	-625.000
202.31	-325.000
202.69	-500.000
203.07	2800.000
203.44	-600.000
203.82	308.333
204.19	680.000
204.57	-1250.000
204.95	-850.000
205.32	-580.000
205.70	650.000
206.08	1100.000
206.45	-1000.000
206.83	433.333
207.20	215.789
207.58	241.667
207.96	740.000
208.33	0.000
208.71	642.857
209.08	760.000
209.46	-3500.000
209.84	-750.000
210.21	700.000
210.59	-680.000
210.96	375.000
211.34	-850.000
211.71	363.636
212.09	975.000
212.46	2250.000
212.84	-533.333
213.22	455.556
213.59	-3700.000
213.97	330.000
214.34	875.000
214.72	1033.333
215.09	1066.667
215.47	-2400.000
215.84	-340.000
216.22	-350.000
216.59	0.000
216.97	0.000
217.34	1350.000
217.72	-1300.000
218.09	1000.000
218.47	562.500
218.84	750.000
219.22	1100.000
219.59	1133.333
219.97	542.857
220.34	333.333
220.72	1300.000
221.09	4000.000
221.47	366.667
221.84	1166.667
222.22	420.000
222.59	316.667
222.97	278.571
223.34	281.250
223.72	-2000.000
224.09	1500.000
224.46	300.000
224.84	-525.000
225.21	266.667
225.59	293.333
225.96	1266.667
226.34	-860.000
226.71	-775.000
227.08	-520.000
227.46	0.000
227.83	-550.000
228.21	-2000.000
228.58	375.000
228.95	1100.000
229.33	366.667
229.70	1075.000
230.08	400.000
230.45	4100.000
230.82	-750.000
231.20	-966.667
231.57	-700.000
231.95	460.000
232.32	308.333
232.69	516.667
233.07	241.667
233.44	-1500.000
233.81	266.667
234.19	177.778
234.56	206.250
234.93	223.529
235.31	230.000
235.68	200.000
236.05	178.571
236.43	170.370
236.80	200.000
237.17	137.931
237.55	121.875
237.92	97.500
238.29	148.485
238.67	93.750
239.04	109.756
239.41	72.917
239.79	92.500
240.16	83.333
240.53	60.656
240.91	68.116
241.28	44.068
241.65	63.636
242.02	57.746
242.40	62.857
242.77	45.055
243.14	43.038
243.51	63.636
243.89	47.664
244.26	35.514
244.63	35.644
245.00	41.284
245.38	27.966
245.75	28.030
246.12	37.778
246.49	33.333
246.87	27.049
247.24	36.000
247.61	30.000
247.98	32.653
248.36	30.303
248.73	35.204
249.10	25.000
249.47	26.500
249.84	27.861
250.22	30.270
250.59	24.500
250.96	24.473
251.33	27.907
251.70	23.661
252.08	21.429
252.45	21.912
252.82	20.913
253.19	21.344
253.56	22.308
253.94	23.551
254.31	20.543
254.68	21.603
255.05	23.793
255.42	20.803
255.79	22.150
256.16	21.695
256.54	23.377
256.91	24.510
257.28	18.395
257.65	16.614
258.02	19.174
258.39	22.636
258.76	22.899
259.14	17.714
259.51	20.700
259.88	20.365
260.25	16.484
260.62	18.904
260.99	15.978
261.36	20.056
261.73	18.883
262.10	18.586
262.47	18.000
262.85	18.400
263.22	22.622
263.59	20.205
263.96	17.544
264.33	15.309
264.70	19.410
265.07	18.537
265.44	18.807
265.81	17.689
266.18	18.535
266.55	16.548
266.92	18.345
267.29	17.325
267.66	17.489
268.03	15.695
268.40	18.816
268.77	17.401
269.14	13.883
269.51	15.590
269.88	20.612
270.25	13.391
270.62	16.738
270.99	17.850
271.36	17.480
271.73	16.352
272.10	14.949
272.47	14.683
272.84	15.369
273.21	16.116
273.58	19.028
273.95	13.963
274.32	18.482
274.69	17.520
275.06	16.393
275.43	16.092
275.80	17.736
276.17	17.463
276.54	16.449
276.91	16.604
277.28	14.964
277.65	17.528
278.02	17.279
278.39	15.288
278.76	16.034
279.13	16.370
279.50	14.364
279.87	14.153
280.23	15.654
280.60	15.693
280.97	15.345
281.34	14.686
281.71	16.174
282.08	16.752
282.45	15.034
282.82	15.552
283.19	14.785
283.56	14.215
283.92	15.472
284.29	16.140
284.66	13.445
285.03	15.589
285.40	15.372
285.77	15.278
286.14	14.396
286.51	13.650
286.87	12.025
287.24	12.613
287.61	14.590
287.98	14.627
288.35	14.815
288.72	14.416
289.08	13.964
289.45	14.939
289.82	14.844
290.19	14.202
290.56	15.429
290.93	14.820
291.29	14.503
291.66	12.712
292.03	14.165
292.40	13.415
292.77	11.421
293.13	14.836
293.50	13.225
293.87	11.789
294.24	13.706
294.60	14.266
294.97	13.986
295.34	14.608
295.71	13.798
296.08	14.267
296.44	14.104
296.81	13.275
297.18	11.407
297.55	12.931
297.91	13.916
298.28	14.010
298.65	13.006
299.02	12.666
299.38	13.429
299.75	12.805
300.12	12.385
300.48	13.700
300.85	13.945
301.22	12.907
301.59	14.033
301.95	12.719
302.32	13.271
302.69	13.122
303.05	13.580
303.42	12.444
303.79	13.976
304.15	13.201
304.52	13.108
304.89	13.539
305.25	14.127
305.62	14.392
305.99	13.370
306.35	13.158
306.72	13.944
307.09	13.458
307.45	13.728
307.82	13.992
308.19	14.021
308.55	13.500
308.92	14.426
309.29	15.779
309.65	14.866
310.02	16.024
310.38	14.756
310.75	15.140
311.12	14.847
311.48	16.892
311.85	15.935
312.22	16.237
312.58	15.160
312.95	16.602
313.31	16.011
313.68	16.792
314.05	17.674
314.41	17.691
314.78	17.803
315.14	18.483
315.51	20.057
315.87	19.343
316.24	20.168
316.61	19.964
316.97	19.908
317.34	20.934
317.70	20.720
318.07	22.420
318.43	23.111
318.80	22.767
319.16	22.902
319.53	23.097
319.89	24.014
320.26	24.860
320.62	26.465
320.99	26.120
321.35	26.345
321.72	29.032
322.08	27.147
322.45	27.975
322.81	27.539
323.18	29.929
323.54	29.965
323.91	30.100
324.27	32.184
324.64	31.142
325.00	32.414
325.37	32.884
325.73	32.462
326.10	35.128
326.46	35.343
326.83	34.720
327.19	36.466
327.56	37.540
327.92	38.934
328.29	38.953
328.65	39.640
329.01	40.034
329.38	40.525
329.74	40.820
330.11	41.442
330.47	42.199
330.84	41.242
331.20	42.386
331.56	42.573
331.93	43.028
332.29	42.092
332.66	43.622
333.02	42.526
333.38	44.154
333.75	44.621
334.11	43.792
334.48	44.444
334.84	42.568
335.20	43.028
335.57	44.584
335.93	43.061
336.29	43.449
336.66	46.827
337.02	44.311
337.38	44.368
337.75	45.524
338.11	45.316
338.47	45.893
338.84	46.486
339.20	45.714
339.56	44.912
339.93	44.983
340.29	43.445
340.65	47.611
341.02	46.742
341.38	45.649
341.74	45.515
342.11	46.411
342.47	45.529
342.83	47.662
343.20	45.998
343.56	46.307
343.92	47.316
344.28	46.970
344.65	46.618
345.01	47.222
345.37	46.875
345.73	46.905
346.10	46.932
346.46	49.123
346.82	46.605
347.19	48.223
347.55	46.760
347.91	46.979
348.27	46.863
348.63	49.367
349.00	48.515
349.36	49.027
349.72	48.394
350.08	50.233
350.45	49.276
350.81	49.388
351.17	49.307
351.53	47.883
351.89	50.427
352.26	48.980
352.62	48.567
352.98	50.613
353.34	51.541
353.70	50.459
354.07	50.769
354.43	50.307
354.79	49.506
355.15	50.919
355.51	51.133
355.87	52.033
356.24	52.040
356.60	51.522
356.96	52.237
357.32	52.072
357.68	50.954
358.04	52.204
358.40	52.474
358.77	52.893
359.13	52.553
359.49	51.297
359.85	53.611
360.21	52.972
360.57	51.606
360.93	54.762
361.29	54.113
361.66	54.362
362.02	51.349
362.38	54.257
362.74	54.565
363.10	54.909
363.46	53.453
363.82	53.927
364.18	54.979
364.54	56.223
364.90	56.225
365.26	55.239
365.62	54.765
365.98	54.714
366.35	56.207
366.71	56.766
367.07	55.973
367.43	56.212
367.79	54.056
368.15	55.563
368.51	57.547
368.87	56.658
369.23	56.618
369.59	56.305
369.95	57.902
370.31	58.385
370.67	56.558
371.03	59.034
371.39	58.172
371.75	58.130
372.11	57.580
372.47	57.397
372.83	59.347
373.19	57.779
373.55	58.076
373.91	58.840
374.27	58.796
374.63	58.983
374.99	58.625
375.35	59.879
375.71	58.311
376.07	59.151
376.42	58.696
376.78	61.400
377.14	59.174
377.50	58.989
377.86	60.794
378.22	60.207
378.58	62.167
378.94	60.893
379.30	60.461
379.66	60.144
380.02	61.114
380.38	58.958
380.74	61.476
381.09	60.923
381.45	59.595
381.81	59.870
382.17	60.440
382.53	60.588
382.89	61.384
383.25	61.279
383.61	60.058
383.97	60.588
384.32	61.965
384.68	63.102
385.04	60.082
385.40	61.329
385.76	60.503
386.12	60.977
386.48	61.398
386.83	61.980
387.19	61.779
387.55	60.777
387.91	61.778
388.27	62.106
388.62	60.270
388.98	60.292
389.34	59.964
389.70	60.495
390.06	61.707
390.42	60.765
390.77	61.425
391.13	61.738
391.49	61.585
391.85	60.123
392.20	61.085
392.56	61.051
392.92	61.033
393.28	60.650
393.64	59.920
393.99	59.988
394.35	60.977
394.71	59.469
395.07	60.036
395.42	61.124
395.78	62.060
396.14	61.988
396.50	61.673
396.85	61.646
397.21	60.650
397.57	59.713
397.92	59.272
398.28	59.735
398.64	62.420
399.00	59.327
399.35	58.400
399.71	59.327
400.07	60.331
400.42	58.985
400.78	60.411
401.14	59.542
401.49	60.253
401.85	60.255
402.21	60.164
402.57	59.904
402.92	61.091
403.28	59.129
403.63	59.682
403.99	60.615
404.35	59.555
404.70	59.953
405.06	58.899
405.42	59.246
405.77	59.427
406.13	58.189
406.49	59.466
406.84	57.812
407.20	58.562
407.55	59.508
407.91	59.732
408.27	59.309
408.62	58.664
408.98	60.201
409.34	58.036
409.69	59.054
410.05	57.603
410.40	57.362
410.76	58.100
411.11	57.583
411.47	58.642
411.83	56.649
412.18	58.756
412.54	58.559
412.89	57.699
413.25	58.780
413.60	58.586
413.96	57.331
414.31	58.087
414.67	58.908
415.03	56.960
415.38	58.107
415.74	57.991
416.09	58.463
416.45	58.112
416.80	59.910
417.16	57.543
417.51	58.981
417.87	59.637
418.22	58.080
418.58	59.108
418.93	57.942
419.29	58.349
419.64	57.965
420.00	58.592
420.35	59.001
420.71	57.818
421.06	58.034
421.42	56.880
421.77	57.912
422.12	58.104
422.48	56.805
422.83	57.645
423.19	57.181
423.54	56.939
423.90	57.191
424.25	58.338
424.61	57.632
424.96	57.933
425.31	58.621
425.67	58.474
426.02	57.151
426.38	57.760
426.73	59.167
427.09	57.355
427.44	59.482
427.79	58.205
428.15	59.753
428.50	58.514
428.85	59.318
429.21	58.779
429.56	57.976
429.92	58.727
430.27	58.684
430.62	57.856
430.98	57.186
431.33	58.014
431.68	56.889
432.04	58.769
432.39	58.672
432.74	59.251
433.10	58.472
433.45	60.080
433.80	61.445
434.16	59.065
434.51	59.701
434.86	58.574
435.22	59.751
435.57	59.336
435.92	61.013
436.28	60.196
436.63	59.860
436.98	60.867
437.34	59.018
437.69	59.239
438.04	59.677
438.39	59.778
438.75	60.134
439.10	58.446
439.45	58.677
439.81	58.184
440.16	59.934
440.51	59.516
440.86	61.368
441.22	59.794
441.57	60.472
441.92	59.279
442.27	59.021
442.63	58.892
442.98	58.728
443.33	60.150
443.68	59.356
444.03	59.472
444.39	58.898
444.74	60.093
445.09	59.663
445.44	58.767
445.79	59.942
446.15	58.895
446.50	59.757
446.85	60.110
447.20	59.055
447.55	60.141
447.91	61.055
448.26	58.573
448.61	61.194
448.96	60.621
449.31	60.671
449.66	60.410
450.02	58.995
450.37	60.244
450.72	60.606
451.07	60.151
451.42	59.751
451.77	60.596
452.12	60.692
452.47	60.632
452.83	60.845
453.18	61.982
453.53	60.272
453.88	60.057
454.23	61.011
454.58	59.557
454.93	60.515
455.28	60.771
455.63	61.761
455.98	60.857
456.34	61.398
456.69	61.768
457.04	59.129
457.39	59.257
457.74	61.881
458.09	59.124
458.44	59.091
458.79	59.257
459.14	58.756
459.49	60.362
459.84	60.217
460.19	58.418
460.54	59.544
460.89	60.075
461.24	58.018
461.59	60.204
461.94	59.515
462.29	60.812
462.64	61.181
462.99	61.292
463.34	60.920
463.69	60.073
464.04	60.737
464.39	60.446
464.74	58.617
465.09	59.257
465.44	59.086
465.79	59.390
466.14	57.393
466.49	59.034
466.84	58.807
467.19	59.578
467.54	59.219
467.89	59.977
468.24	59.236
468.59	58.869
468.94	59.722
469.29	60.049
469.64	59.871
469.99	60.797
470.34	60.215
470.68	61.172
471.03	60.440
471.38	60.993
471.73	60.222
472.08	61.709
472.43	61.453
472.78	61.588
473.13	59.449
473.48	60.880
473.83	59.894
474.17	60.790
474.52	60.130
474.87	59.238
475.22	59.280
475.57	58.080
475.92	58.763
476.27	58.760
476.61	59.517
476.96	58.934
477.31	59.743
477.66	61.031
478.01	59.515
478.36	59.114
478.70	58.114
479.05	59.205
479.40	60.466
479.75	59.930
480.10	59.148
480.45	58.730
480.79	58.433
481.14	58.012
481.49	57.823
481.84	58.135
482.19	58.603
482.53	57.708
482.88	58.826
483.23	58.277
483.58	58.662
483.92	59.232
484.27	57.491
484.62	58.701
484.97	57.694
485.31	55.738
485.66	55.351
486.01	53.144
486.36	52.509
486.70	52.704
487.05	53.624
487.40	54.107
487.75	53.579
488.09	54.886
488.44	55.131
488.79	56.092
489.13	56.887
489.48	57.571
489.83	57.840
490.17	57.267
490.52	58.527
490.87	57.586
491.22	58.954
491.56	58.674
491.91	58.065
492.26	58.441
492.60	59.089
492.95	57.997
493.30	57.188
493.64	59.119
493.99	58.408
494.34	58.494
494.68	58.831
495.03	57.746
495.37	58.532
495.72	58.555
496.07	58.221
496.41	57.341
496.76	56.859
497.11	58.655
497.45	57.036
497.80	58.943
498.14	58.345
498.49	58.449
498.84	58.972
499.18	57.404
499.53	58.751
499.87	57.637
500.22	58.637
500.56	57.846
500.91	58.905
501.26	57.878
501.60	58.333
501.95	58.916
502.29	58.622
502.64	57.212
502.98	57.270
503.33	57.461
503.67	56.865
504.02	56.247
504.36	56.833
504.71	58.893
505.06	58.564
505.40	57.604
505.75	56.829
506.09	57.723
506.44	58.882
506.78	58.885
507.13	58.022
507.47	59.486
507.82	58.200
508.16	59.481
508.51	58.696
508.85	58.547
509.19	60.010
509.54	58.057
509.88	60.318
510.23	58.971
510.57	57.819
510.92	60.040
511.26	59.940
511.61	58.641
511.95	59.632
512.30	59.050
512.64	60.644
512.98	60.584
513.33	60.502
513.67	60.280
514.02	61.247
514.36	59.605
514.70	61.973
515.05	59.883
515.39	61.513
515.74	61.345
516.08	60.784
516.42	63.934
516.77	61.387
517.11	61.333
517.46	61.800
517.80	62.206
518.14	63.887
518.49	62.073
518.83	61.813
519.17	62.119
519.52	62.370
519.86	62.507
520.20	63.068
520.55	62.578
520.89	62.586
521.23	64.778
521.58	64.085
521.92	63.557
522.26	63.507
522.61	66.013
522.95	65.165
523.29	65.029
523.64	64.046
523.98	65.023
524.32	64.533
524.66	64.696
525.01	65.444
525.35	63.936
525.69	65.864
526.04	65.794
526.38	64.803
526.72	65.155
527.06	63.335
527.41	66.264
527.75	66.951
528.09	64.058
528.43	65.589
528.78	65.295
529.12	67.369
529.46	65.342
529.80	64.077
530.15	65.351
530.49	64.440
530.83	63.924
531.17	66.421
531.51	66.891
531.86	64.553
532.20	65.204
532.54	65.599
532.88	67.021
533.22	64.839
533.57	66.138
533.91	63.695
534.25	64.859
534.59	65.263
534.93	64.619
535.27	64.200
535.62	64.586
535.96	65.130
536.30	65.996
536.64	65.839
536.98	66.520
537.32	66.062
537.66	65.115
538.01	66.006
538.35	65.003
538.69	64.684
539.03	65.609
539.37	63.956
539.71	65.247
540.05	65.600
540.39	66.918
540.73	66.203
541.07	64.743
541.42	64.303
541.76	65.351
542.10	65.536
542.44	65.898
542.78	66.205
543.12	65.644
543.46	65.100
543.80	65.915
544.14	65.511
544.48	66.180
544.82	64.771
545.16	64.845
545.50	65.212
545.84	66.604
546.18	66.515
546.52	66.295
546.86	66.860
547.20	67.377
547.54	65.294
547.88	65.085
548.22	65.149
548.56	63.760
548.90	64.116
549.24	66.203
549.58	66.173
549.92	67.845
550.26	68.357
550.60	67.399
550.94	69.064
551.28	67.241
551.62	68.414
551.96	67.568
552.30	65.524
552.64	65.502
552.98	65.335
553.32	65.941
553.66	65.407
554.00	64.994
554.34	66.911
554.68	67.204
555.02	66.802
555.36	66.356
555.69	66.296
556.03	65.223
556.37	64.946
556.71	65.254
557.05	65.007
557.39	66.267
557.73	66.981
558.07	66.935
558.41	67.375
558.75	67.784
559.08	68.763
559.42	68.504
559.76	67.498
560.10	66.896
560.44	65.893
560.78	65.537
561.12	66.243
561.45	65.645
561.79	66.479
562.13	65.824
562.47	65.607
562.81	66.168
563.15	66.257
563.48	63.540
563.82	64.566
564.16	66.480
564.50	62.990
564.84	65.653
565.17	64.231
565.51	66.995
565.85	66.070
566.19	64.167
566.52	64.501
566.86	64.507
567.20	64.494
567.54	63.264
567.88	63.328
568.21	60.409
568.55	61.673
568.89	60.036
569.23	59.103
569.56	59.185
569.90	57.384
570.24	57.172
570.57	56.230
570.91	55.881
571.25	55.724
571.59	54.089
571.92	54.279
572.26	53.396
572.60	54.485
572.93	55.635
573.27	54.250
573.61	53.276
573.95	54.034
574.28	54.023
574.62	53.470
574.96	53.052
575.29	52.683
575.63	52.674
575.97	52.191
576.30	52.949
576.64	52.907
576.98	52.798
577.31	52.833
577.65	52.374
577.98	51.587
578.32	51.267
578.66	51.905
578.99	51.836
579.33	51.917
579.67	52.435
580.00	52.052
580.34	51.475
580.67	51.365
581.01	51.920
581.35	52.077
581.68	51.085
582.02	50.634
582.35	50.778
582.69	51.297
583.02	52.033
583.36	52.352
583.70	52.640
584.03	53.691
584.37	53.433
584.70	53.148
585.04	53.129
585.37	52.029
585.71	52.966
586.04	52.679
586.38	53.196
586.72	53.282
587.05	53.165
587.39	52.642
587.72	53.062
588.06	53.092
588.39	53.378
588.73	53.991
589.06	54.071
589.40	55.055
589.73	55.424
590.07	55.903
590.40	56.063
590.73	57.069
591.07	57.306
591.40	57.246
591.74	57.508
592.07	56.864
592.41	57.674
592.74	55.401
593.08	54.720
593.41	54.518
593.75	54.261
594.08	54.173
594.41	54.708
594.75	54.281
595.08	55.041
595.42	54.872
595.75	55.314
596.09	54.605
596.42	55.572
596.75	56.851
597.09	57.449
597.42	56.898
597.75	55.903
598.09	55.847
598.42	56.344
598.76	55.744
599.09	55.535
599.42	54.360
599.76	54.817
600.09	53.627
600.42	55.249
600.76	54.997
601.09	55.264
601.42	54.805
601.76	55.747
602.09	55.077
602.42	54.418
602.76	56.053
603.09	56.222
603.42	55.780
603.76	54.447
604.09	54.615
604.42	56.158
604.76	56.578
605.09	55.429
605.42	55.628
605.75	54.481
606.09	55.624
606.42	55.242
606.75	55.383
607.09	55.310
607.42	55.323
607.75	54.976
608.08	56.052
608.42	56.040
608.75	55.456
609.08	56.357
609.41	57.045
609.75	57.875
610.08	56.610
610.41	57.093
610.74	56.104
611.07	56.980
611.41	56.858
611.74	57.600
612.07	57.659
612.40	56.969
612.73	57.813
613.07	58.439
613.40	58.596
613.73	59.611
614.06	57.600
614.39	57.576
614.72	57.810
615.06	57.221
615.39	56.683
615.72	56.341
616.05	57.860
616.38	57.230
616.71	57.678
617.05	57.111
617.38	58.989
617.71	59.561
618.04	58.385
618.37	58.644
618.70	59.353
619.03	59.402
619.36	60.553
619.69	61.280
620.03	62.557
620.36	61.400
620.69	60.409
621.02	62.500
621.35	61.605
621.68	62.906
622.01	64.280
622.34	62.272
622.67	61.587
623.00	60.722
623.33	62.146
623.66	60.812
623.99	62.397
624.32	62.127
624.65	61.093
624.99	63.151
625.32	61.991
625.65	62.069
625.98	61.785
626.31	64.021
626.64	63.478
626.97	63.045
627.30	64.674
627.63	64.992
627.96	65.415
628.29	66.584
628.62	65.184
628.95	64.716
629.28	66.608
629.61	65.905
629.94	66.897
630.26	65.858
630.59	67.642
630.92	67.265
631.25	67.362
631.58	67.985
631.91	68.506
632.24	68.610
632.57	68.959
632.90	70.807
633.23	71.773
633.56	69.336
633.89	71.597
634.22	71.475
634.55	69.355
634.88	69.989
635.20	72.309
635.53	74.681
635.86	72.148
636.19	71.268
636.52	69.297
636.85	68.177
637.18	69.556
637.51	71.285
637.83	70.366
638.16	72.685
638.49	73.413
638.82	71.714
639.15	71.680
639.48	71.919
639.81	71.062
640.13	71.043
640.46	74.083
640.79	73.862
641.12	74.147
641.45	73.221
641.77	73.844
642.10	74.029
642.43	76.529
642.76	74.290
643.09	77.233
643.41	74.614
643.74	76.115
644.07	76.254
644.40	75.444
644.73	79.580
645.05	74.740
645.38	76.570
645.71	77.845
646.04	77.557
646.36	79.030
646.69	76.480
647.02	78.080
647.35	76.378
647.67	74.716
648.00	78.827
648.33	73.985
648.66	72.879
648.98	72.899
649.31	69.231
649.64	70.816
649.96	73.115
650.29	72.000
650.62	76.141
650.94	73.795
651.27	78.947
651.60	75.587
651.92	74.347
652.25	77.480
652.58	70.071
652.90	73.802
653.23	73.117
653.56	70.772
653.88	71.219
654.21	71.994
654.54	70.717
654.86	71.829
655.19	67.282
655.52	57.496
655.84	43.043
656.17	48.689
656.49	69.340
656.82	79.326
657.15	63.723
657.47	48.269
657.80	35.902
658.13	28.942
658.45	39.041
658.78	47.110
659.10	48.275
659.43	50.458
659.75	53.024
660.08	57.080
660.41	62.069
660.73	68.758
661.06	71.622
661.38	74.787
661.71	77.698
662.03	76.426
662.36	79.238
662.68	75.419
663.01	76.937
663.33	74.340
663.66	75.542
663.98	79.762
664.31	77.425
664.63	77.778
664.96	78.049
665.28	75.895
665.61	76.981
665.93	77.358
666.26	75.701
666.58	74.495
666.91	76.448
667.23	80.120
667.56	77.823
667.88	80.705
668.21	78.074
668.53	79.637
668.86	80.561
669.18	80.244
669.50	76.446
669.83	77.002
670.15	79.418
670.48	73.242
670.80	76.295
671.13	77.490
671.45	74.950
671.77	70.872
672.10	71.993
672.42	66.941
672.75	70.411
673.07	70.747
673.39	68.690
673.72	71.626
674.04	72.043
674.37	71.688
674.69	71.933
675.01	72.575
675.34	73.643
675.66	73.047
675.98	77.318
676.31	76.000
676.63	71.173
676.95	75.397
677.28	75.862
677.60	74.648
677.92	75.794
678.25	75.581
678.57	72.812
678.89	71.971
679.22	72.059
679.54	68.683
679.86	69.459
680.18	70.123
680.51	67.330
680.83	65.709
681.15	68.977
681.48	71.007
681.80	64.974
682.12	69.031
682.44	67.027
682.77	67.794
683.09	71.068
683.41	75.510
683.73	69.291
684.06	72.024
684.38	71.899
684.70	68.705
685.02	68.056
685.34	69.366
685.67	67.524
685.99	67.652
686.31	65.177
686.63	65.528
686.96	66.667
687.28	64.933
687.60	64.676
687.92	67.504
688.24	67.069
688.56	68.505
688.89	68.069
689.21	68.593
689.53	70.751
689.85	68.699
690.17	69.515
690.49	70.161
690.82	71.429
691.14	70.101
691.46	73.306
691.78	69.786
692.10	69.847
692.42	66.425
692.74	66.473
693.06	68.605
693.39	66.996
693.71	66.012
694.03	71.400
694.35	72.088
694.67	69.450
694.99	70.288
695.31	69.820
695.63	73.303
695.95	71.719
696.27	71.903
696.59	72.076
696.91	71.646
697.23	72.172
697.56	65.560
697.88	63.673
698.20	68.302
698.52	63.230
698.84	65.298
699.16	67.591
699.48	68.432
699.80	69.935
700.12	69.053
700.44	73.832
700.76	73.270
701.08	75.718
701.40	77.143
701.72	74.866
702.04	75.339
702.36	73.656
702.68	75.266
703.00	69.925
703.32	72.208
703.64	70.277
703.96	73.438
704.28	72.487
704.60	70.423
704.91	77.871
705.23	75.000
705.55	76.558
705.87	80.000
706.19	77.116
706.51	78.683
706.83	78.466
707.15	70.053
707.47	67.070
707.79	65.747
708.11	64.172
708.43	67.191
708.74	68.100
709.06	64.884
709.38	67.494
709.70	72.207
710.02	71.467
710.34	71.547
710.66	73.611
710.98	71.311
711.29	69.916
711.61	72.981
711.93	73.252
712.25	75.602
712.57	75.241
712.89	73.333
713.20	79.553
713.52	76.324
713.84	79.758
714.16	68.986
714.48	65.418
714.80	68.293
715.11	68.085
715.43	65.922
715.75	72.676
716.07	69.075
716.39	65.143
716.70	69.470
717.02	74.411
717.34	76.259
717.66	78.819
717.97	86.742
718.29	73.239
718.61	69.932
718.93	78.201
719.24	73.154
719.56	69.310
719.88	67.516
720.20	73.548
720.51	70.915
720.83	70.234
721.15	70.068
721.46	75.000
721.78	75.958
722.10	76.389
722.42	74.582
722.73	72.924
723.05	75.088
723.37	75.972
723.68	78.125
724.00	74.242
724.32	76.046
724.63	75.000
724.95	79.216
725.27	72.119
725.58	73.529
725.90	69.366
726.22	67.123
726.53	73.244
726.85	70.684
727.16	71.141
727.48	70.100
727.80	70.863
728.11	71.071
728.43	71.739
728.74	69.580
729.06	68.100
729.38	71.930
729.69	74.000
730.01	69.737
730.32	64.430
730.64	69.435
730.96	65.165
731.27	62.080
731.59	61.207
731.90	57.939
732.22	64.286
732.53	60.684
732.85	67.251
733.16	64.458
733.48	63.636
733.80	61.159
734.11	65.337
734.43	62.865
734.74	58.981
735.06	60.847
735.37	60.825
735.69	62.319
736.00	62.691
736.32	60.303
736.63	58.991
736.95	62.422
737.26	66.463
737.58	62.270
737.89	64.458
738.21	61.589
738.52	63.880
738.83	73.626
739.15	65.854
739.46	65.862
739.78	66.327
740.09	59.767
740.41	58.896
740.72	64.127
741.04	67.133
741.35	73.047
741.66	68.775
741.98	70.815
742.29	75.000
742.61	68.584
742.92	69.915
743.23	65.600
743.55	60.377
743.86	70.980
744.18	72.034
744.49	69.008
744.80	75.576
745.12	71.875
745.43	79.439
745.74	76.444
746.06	70.175
746.37	78.140
746.68	77.876
747.00	71.300
747.31	72.269
747.62	69.672
747.94	73.820
748.25	61.479
748.56	72.458
748.88	76.339
749.19	70.233
749.50	69.863
749.82	69.136
750.13	71.146
750.44	62.000
750.75	64.765
751.07	63.816
751.38	65.347
751.69	67.340
752.01	65.035
752.32	59.136
752.63	67.785
752.94	65.734
753.26	69.141
753.57	67.704
753.88	65.169
754.19	68.592
754.51	60.133
754.82	61.074
755.13	62.838
755.44	65.185
755.75	61.856
756.07	65.411
756.38	58.170
756.69	60.313
757.00	58.457
757.31	56.056
757.63	56.474
757.94	53.989
758.25	56.280
758.56	54.462
758.87	53.383
759.18	63.372
759.50	62.006
759.81	56.677
760.12	56.461
760.43	55.462
760.74	54.937
761.05	55.172
761.36	57.292
761.67	54.987
761.99	58.310
762.30	57.556
762.61	61.806
762.92	59.470
763.23	64.906
763.54	63.846
763.85	60.700
764.16	60.069
764.47	59.459
764.78	57.655
765.10	54.268
765.41	50.284
765.72	53.315
766.03	55.589
766.34	61.324
766.65	59.316
766.96	62.348
767.27	70.093
767.58	71.287
767.89	72.376
768.20	82.927
768.51	68.878
768.82	54.386
769.13	61.961
769.44	62.030
769.75	66.292
770.06	65.966
770.37	59.649
770.68	60.889
770.99	63.559
771.30	61.506
771.61	64.231
771.92	61.069
772.23	62.097
772.54	64.889
772.85	72.277
773.16	70.109
773.47	67.778
773.78	68.317
774.09	74.432
774.39	71.515
774.70	67.059
775.01	76.974
775.32	70.186
775.63	75.342
775.94	80.247
776.25	81.379
776.56	73.282
776.87	82.443
777.18	76.515
777.48	88.189
777.79	80.769
778.10	81.818
778.41	75.373
778.72	85.714
779.03	71.154
779.34	72.973
779.65	73.913
779.95	67.081
780.26	63.095
780.57	74.150
780.88	75.887
781.19	90.000
781.50	73.373
781.80	72.678
782.11	65.608
782.42	66.667
782.73	65.537
783.04	74.839
783.34	75.194
783.65	72.109
783.96	69.677
784.27	64.238
784.57	65.132
784.88	73.188
785.19	76.667
785.50	78.448
785.81	81.395
786.11	71.852
786.42	78.740
786.73	89.189
787.04	90.566
787.34	74.797
787.65	77.273
787.96	81.061
788.26	79.528
788.57	70.073
788.88	74.648
789.19	73.282
789.49	66.892
789.80	73.438
790.11	71.901
790.41	90.741
790.72	82.407
791.03	79.808
791.33	80.808
791.64	94.737
791.95	88.421
792.25	89.583
792.56	92.000
792.87	97.561
793.17	84.091
793.48	95.294
793.79	97.701
794.09	93.182
794.40	86.207
794.70	79.365
795.01	70.000
795.32	70.992
795.62	68.376
795.93	77.311
796.23	65.041
796.54	90.816
796.85	78.409
797.15	105.195
797.46	102.439
797.76	72.500
798.07	100.000
798.37	115.000
798.68	96.250
798.99	91.463
799.29	96.000
799.60	74.419
799.90	85.526
800.21	98.485
800.51	102.817
800.82	108.621
801.12	112.308
801.43	106.667
801.73	98.276
802.04	98.701
802.34	93.151
802.65	117.647
802.95	113.043
803.26	124.194
803.56	111.667
803.87	102.985
804.17	103.175
804.48	96.226
804.78	91.667
805.09	107.576
805.39	117.460
805.70	121.053
806.00	81.429
806.30	110.937
806.61	94.118
806.91	77.778
807.22	78.261
807.52	77.632
807.83	106.579
808.13	97.101
808.43	116.129
808.74	86.301
809.04	119.643
809.35	125.000
809.65	115.152
809.95	139.216
810.26	118.519
810.56	120.313
810.86	126.531
811.17	119.298
811.47	136.957
811.77	120.690
812.08	98.276
812.38	140.476
812.69	133.333
812.99	133.333
813.29	145.714
813.59	187.097
813.90	84.483
814.20	103.279
814.50	114.000
814.81	91.228
815.11	107.407
815.41	132.143
815.72	112.500
816.02	130.000
816.32	139.024
816.62	120.690
816.93	160.606
817.23	121.951
817.53	105.357
817.84	120.000
818.14	133.333
818.44	129.167
818.74	109.434
819.04	146.154
819.35	163.636
819.65	117.308
819.95	133.333
820.25	146.809
820.56	151.351
820.86	165.789
821.16	123.404
821.46	126.316
821.76	120.000
822.07	128.571
822.37	139.474
822.67	137.209
822.97	118.421
823.27	110.870
823.57	146.875
823.88	164.103
824.18	148.485
824.48	165.217
824.78	147.222
825.08	239.130
825.38	213.793
825.69	170.588
825.99	108.511
826.29	122.222
826.59	142.857
826.89	140.000
827.19	122.857
827.49	129.032
827.79	203.846
828.09	126.190
828.39	141.667
828.70	129.730
829.00	203.571
829.30	281.250
829.60	116.667
829.90	174.194
830.20	133.333
830.50	151.351
830.80	237.500
831.10	219.231
831.40	195.238
831.70	212.500
832.00	126.667
832.30	195.652
832.60	212.500
832.90	163.636
833.20	250.000
833.50	173.684
833.80	132.353
834.10	134.211
834.40	173.684
834.70	143.333
835.00	176.000
835.30	124.324
835.60	206.250
835.90	148.649
836.20	188.462
836.50	227.273
836.80	136.585
837.10	160.870
837.40	361.538
837.70	184.211
838.00	170.000
838.30	183.333
838.60	156.000
838.90	440.000
839.19	256.250
839.49	143.333
839.79	162.069
840.09	173.077
840.39	246.667
840.69	242.105
840.99	166.667
841.29	213.043
841.59	205.000
841.88	188.000
842.18	411.111
842.48	200.000
842.78	185.185
843.08	315.385
843.38	227.273
843.68	328.571
843.97	542.857
844.27	230.435
844.57	2100.000
844.87	292.857
845.17	211.111
845.47	138.095
845.76	195.833
846.06	528.571
846.36	205.882
846.66	315.385
846.96	306.250
847.25	238.462
847.55	189.474
847.85	250.000
848.15	760.000
848.44	381.818
848.74	166.667
849.04	170.833
849.34	235.294
849.63	237.500
849.93	243.750
850.23	1133.333
850.53	450.000
850.82	254.545
851.12	200.000
851.42	254.167
851.71	287.500
852.01	0.000
852.31	200.000
852.61	380.000
852.90	175.000
853.20	444.444
853.50	-2600.000
853.79	168.000
854.09	143.750
854.39	168.966
854.68	162.069
854.98	261.905
855.28	161.290
855.57	278.571
855.87	238.889
856.17	140.741
856.46	236.842
856.76	154.839
857.05	300.000
857.35	381.818
857.65	269.231
857.94	175.000
858.24	466.667
858.53	364.286
858.83	657.143
859.13	213.043
859.42	411.111
859.72	387.500
860.01	341.667
860.31	925.000
860.60	410.000
860.90	350.000
861.20	323.077
861.49	357.143
861.79	-3900.000
862.08	528.571
862.38	422.222
862.67	292.857
862.97	470.000
863.26	153.333
863.56	1075.000
863.85	361.538
864.15	282.353
864.44	238.889
864.74	316.667
865.03	318.182
865.33	400.000
865.62	320.000
865.92	716.667
866.21	950.000
866.51	540.000
866.80	277.778
867.10	1100.000
867.39	4300.000
867.69	500.000
867.98	1025.000
868.27	228.571
868.57	306.667
868.86	825.000
869.16	190.476
869.45	3800.000
869.75	-450.000
870.04	1075.000
870.33	480.000
870.63	437.500
870.92	158.824
871.22	575.000
871.51	614.286
871.80	325.000
872.10	246.154
>>>>>End Processed Spectral Data<<<<<
