SpectraSuite Data File
++++++++++++++++++++++++++++++++++++
Date: Tue May 12 15:16:02 PDT 2015
User: schluterlab
Dark Spectrum Present: Yes
Reference Spectrum Present: Yes
Number of Sampled Component Spectra: 1
Spectrometers: USB2E3373
Integration Time (usec): 3000 (USB2E3373)
Spectra Averaged: 3 (USB2E3373)
Boxcar Smoothing: 0 (USB2E3373)
Correct for Electrical Dark: No (USB2E3373)
Strobe/Lamp Enabled: No (USB2E3373)
Correct for Detector Non-linearity: No (USB2E3373)
Correct for Stray Light: No (USB2E3373)
Number of Pixels in Processed Spectrum: 2048
>>>>>Begin Processed Spectral Data<<<<<
178.53	0.000
178.91	-208.333
179.29	-575.000
179.67	-3400.000
180.04	-146.667
180.42	600.000
180.80	1250.000
181.18	0.000
181.56	-287.500
181.94	0.000
182.31	1133.333
182.69	-2700.000
183.07	528.571
183.45	-3200.000
183.83	-1850.000
184.20	340.000
184.58	385.714
184.96	-176.923
185.34	-216.667
185.72	1950.000
186.09	-700.000
186.47	-3200.000
186.85	1066.667
187.23	340.000
187.61	1550.000
187.98	312.500
188.36	250.000
188.74	241.667
189.12	250.000
189.49	850.000
189.87	0.000
190.25	525.000
190.63	2200.000
191.00	-258.333
191.38	-2600.000
191.76	-525.000
192.14	537.500
192.51	-3000.000
192.89	900.000
193.27	466.667
193.65	-1100.000
194.02	-700.000
194.40	457.143
194.78	-171.429
195.15	246.667
195.53	-2800.000
195.91	-520.000
196.29	2600.000
196.66	206.250
197.04	750.000
197.42	-1550.000
197.79	525.000
198.17	300.000
198.55	0.000
198.92	257.143
199.30	1033.333
199.68	1450.000
200.05	450.000
200.43	-466.667
200.81	177.778
201.18	3100.000
201.56	150.000
201.94	-675.000
202.31	-87.500
202.69	-340.000
203.07	2000.000
203.44	-316.667
203.82	291.667
204.19	440.000
204.57	-750.000
204.95	-675.000
205.32	-580.000
205.70	550.000
206.08	650.000
206.45	-466.667
206.83	322.222
207.20	89.474
207.58	158.333
207.96	580.000
208.33	0.000
208.71	514.286
209.08	460.000
209.46	-2500.000
209.84	-675.000
210.21	740.000
210.59	-480.000
210.96	241.667
211.34	-600.000
211.71	290.909
212.09	800.000
212.46	1350.000
212.84	-533.333
213.22	366.667
213.59	-2800.000
213.97	270.000
214.34	850.000
214.72	833.333
215.09	1000.000
215.47	-2900.000
215.84	-270.000
216.22	-237.500
216.59	0.000
216.97	0.000
217.34	1000.000
217.72	-1350.000
218.09	966.667
218.47	300.000
218.84	575.000
219.22	1100.000
219.59	866.667
219.97	385.714
220.34	344.444
220.72	1500.000
221.09	2500.000
221.47	258.333
221.84	700.000
222.22	290.000
222.59	205.556
222.97	135.714
223.34	131.250
223.72	-1150.000
224.09	933.333
224.46	269.231
224.84	-575.000
225.21	244.444
225.59	180.000
225.96	1066.667
226.34	-520.000
226.71	-500.000
227.08	-480.000
227.46	0.000
227.83	-383.333
228.21	-1300.000
228.58	325.000
228.95	700.000
229.33	233.333
229.70	900.000
230.08	184.615
230.45	2300.000
230.82	-750.000
231.20	-433.333
231.57	-866.667
231.95	640.000
232.32	250.000
232.69	316.667
233.07	183.333
233.44	-1450.000
233.81	246.667
234.19	133.333
234.56	143.750
234.93	70.588
235.31	175.000
235.68	206.250
236.05	146.429
236.43	88.889
236.80	92.857
237.17	117.241
237.55	84.375
237.92	87.500
238.29	60.606
238.67	112.500
239.04	73.171
239.41	39.583
239.79	60.000
240.16	66.667
240.53	37.705
240.91	42.029
241.28	49.153
241.65	31.818
242.02	52.113
242.40	47.143
242.77	32.967
243.14	22.785
243.51	36.364
243.89	26.168
244.26	29.907
244.63	21.782
245.00	36.697
245.38	8.475
245.75	25.758
246.12	33.333
246.49	24.823
246.87	11.475
247.24	21.333
247.61	17.500
247.98	17.687
248.36	13.939
248.73	24.490
249.10	10.119
249.47	16.000
249.84	19.403
250.22	21.081
250.59	15.000
250.96	16.456
251.33	13.023
251.70	16.071
252.08	17.647
252.45	13.147
252.82	11.787
253.19	11.462
253.56	11.923
253.94	12.681
254.31	10.078
254.68	10.105
255.05	14.828
255.42	9.124
255.79	10.098
256.16	11.186
256.54	11.364
256.91	8.824
257.28	9.699
257.65	7.837
258.02	8.555
258.39	12.607
258.76	13.333
259.14	8.286
259.51	9.329
259.88	9.119
260.25	7.967
260.62	8.493
260.99	6.336
261.36	8.078
261.73	6.915
262.10	7.592
262.47	10.250
262.85	8.267
263.22	7.712
263.59	8.184
263.96	9.774
264.33	7.654
264.70	7.862
265.07	6.341
265.44	11.239
265.81	8.019
266.18	7.323
266.55	4.728
266.92	5.817
267.29	6.579
267.66	6.726
268.03	7.623
268.40	8.034
268.77	7.709
269.14	2.820
269.51	7.795
269.88	9.184
270.25	4.968
270.62	6.009
270.99	7.505
271.36	7.927
271.73	5.031
272.10	5.051
272.47	6.151
272.84	6.986
273.21	5.785
273.58	8.097
273.95	5.133
274.32	7.782
274.69	6.693
275.06	6.922
275.43	6.322
275.80	5.283
276.17	6.434
276.54	6.729
276.91	7.463
277.28	6.387
277.65	4.797
278.02	7.169
278.39	6.655
278.76	5.690
279.13	4.626
279.50	5.091
279.87	5.773
280.23	4.788
280.60	4.927
280.97	4.828
281.34	5.281
281.71	6.957
282.08	6.667
282.45	5.405
282.82	5.017
283.19	5.564
283.56	6.281
283.92	5.212
284.29	4.493
284.66	5.210
285.03	6.468
285.40	5.785
285.77	4.784
286.14	6.192
286.51	5.061
286.87	2.215
287.24	2.853
287.61	4.255
287.98	5.522
288.35	4.296
288.72	5.008
289.08	5.255
289.45	4.268
289.82	4.531
290.19	6.003
290.56	7.715
290.93	5.036
291.29	6.077
291.66	4.661
292.03	5.189
292.40	6.098
292.77	2.786
293.13	4.280
293.50	4.993
293.87	4.878
294.24	5.594
294.60	4.980
294.97	6.993
295.34	4.250
295.71	5.519
296.08	6.000
296.44	6.226
296.81	5.583
297.18	4.816
297.55	6.527
297.91	3.818
298.28	5.435
298.65	5.890
299.02	6.031
299.38	5.156
299.75	4.024
300.12	6.537
300.48	6.206
300.85	5.840
301.22	5.814
301.59	4.953
301.95	5.251
302.32	5.588
302.69	5.769
303.05	7.071
303.42	5.830
303.79	5.742
304.15	5.611
304.52	4.123
304.89	6.503
305.25	5.784
305.62	6.397
305.99	4.457
306.35	5.368
306.72	6.243
307.09	6.418
307.45	5.702
307.82	5.864
308.19	6.082
308.55	6.300
308.92	5.888
309.29	7.298
309.65	6.541
310.02	6.592
310.38	5.683
310.75	5.689
311.12	5.843
311.48	6.950
311.85	6.870
312.22	6.877
312.58	6.025
312.95	6.505
313.31	6.648
313.68	6.191
314.05	7.418
314.41	6.052
314.78	7.197
315.14	6.825
315.51	7.096
315.87	6.204
316.24	6.536
316.61	6.714
316.97	6.422
317.34	7.457
317.70	7.287
318.07	7.295
318.43	7.557
318.80	7.093
319.16	5.245
319.53	6.637
319.89	7.437
320.26	8.939
320.62	7.509
320.99	8.008
321.35	7.885
321.72	8.444
322.08	8.218
322.45	8.174
322.81	7.868
323.18	9.325
323.54	8.537
323.91	8.976
324.27	8.488
324.64	7.353
325.00	8.707
325.37	8.010
325.73	8.179
326.10	10.688
326.46	8.671
326.83	8.400
327.19	8.434
327.56	8.626
327.92	8.934
328.29	8.674
328.65	10.616
329.01	9.239
329.38	10.068
329.74	8.625
330.11	10.339
330.47	10.571
330.84	8.628
331.20	9.729
331.56	9.931
331.93	8.982
332.29	8.673
332.66	9.354
333.02	8.677
333.38	8.726
333.75	9.758
334.11	8.893
334.48	8.974
334.84	8.446
335.20	8.896
335.57	10.160
335.93	8.915
336.29	8.541
336.66	9.605
337.02	8.982
337.38	8.340
337.75	9.713
338.11	8.776
338.47	8.637
338.84	8.383
339.20	7.965
339.56	8.915
339.93	8.110
340.29	7.563
340.65	8.801
341.02	9.654
341.38	9.688
341.74	9.053
342.11	7.346
342.47	8.039
342.83	8.614
343.20	8.973
343.56	7.863
343.92	7.267
344.28	9.410
344.65	8.313
345.01	8.095
345.37	7.772
345.73	7.937
346.10	8.127
346.46	8.293
346.82	8.025
347.19	9.119
347.55	7.494
347.91	8.233
348.27	7.514
348.63	8.465
349.00	8.149
349.36	7.704
349.72	8.639
350.08	9.006
350.45	8.378
350.81	9.174
351.17	7.473
351.53	8.083
351.89	7.925
352.26	8.314
352.62	8.069
352.98	7.975
353.34	7.781
353.70	7.569
354.07	7.462
354.43	8.679
354.79	8.504
355.15	8.499
355.51	7.855
355.87	9.111
356.24	8.237
356.60	8.219
356.96	7.657
357.32	7.385
357.68	8.811
358.04	8.435
358.40	9.070
358.77	7.588
359.13	7.583
359.49	7.858
359.85	7.893
360.21	7.652
360.57	7.299
360.93	7.937
361.29	7.864
361.66	8.501
362.02	7.315
362.38	7.720
362.74	8.705
363.10	7.504
363.46	6.906
363.82	7.784
364.18	8.108
364.54	8.011
364.90	8.166
365.26	8.536
365.62	7.942
365.98	7.433
366.35	7.724
366.71	8.466
367.07	7.645
367.43	8.328
367.79	8.178
368.15	7.463
368.51	7.719
368.87	6.793
369.23	7.277
369.59	7.889
369.95	7.343
370.31	7.392
370.67	8.744
371.03	8.403
371.39	8.380
371.75	7.327
372.11	7.682
372.47	7.808
372.83	7.614
373.19	8.499
373.55	8.316
373.91	6.699
374.27	7.540
374.63	7.458
374.99	7.480
375.35	7.863
375.71	7.586
376.07	7.825
376.42	7.097
376.78	7.643
377.14	7.471
377.50	7.553
377.86	7.687
378.22	7.800
378.58	8.414
378.94	7.483
379.30	7.762
379.66	8.609
380.02	7.801
380.38	6.616
380.74	8.362
381.09	8.411
381.45	7.514
381.81	6.915
382.17	7.082
382.53	7.978
382.89	7.451
383.25	7.519
383.61	7.205
383.97	7.319
384.32	7.414
384.68	8.259
385.04	7.268
385.40	7.829
385.76	7.899
386.12	7.297
386.48	6.869
386.83	7.274
387.19	7.185
387.55	8.127
387.91	7.968
388.27	7.258
388.62	8.099
388.98	6.647
389.34	7.258
389.70	7.134
390.06	7.134
390.42	7.279
390.77	7.494
391.13	7.785
391.49	7.562
391.85	7.631
392.20	7.688
392.56	7.826
392.92	7.299
393.28	6.558
393.64	6.995
393.99	8.062
394.35	7.298
394.71	6.996
395.07	6.934
395.42	7.611
395.78	7.835
396.14	7.831
396.50	7.160
396.85	7.012
397.21	7.040
397.57	7.233
397.92	7.048
398.28	7.115
398.64	7.970
399.00	7.162
399.35	6.924
399.71	6.898
400.07	7.078
400.42	7.642
400.78	7.566
401.14	6.988
401.49	6.912
401.85	7.474
402.21	6.971
402.57	7.421
402.92	6.667
403.28	6.086
403.63	7.240
403.99	7.539
404.35	7.386
404.70	7.088
405.06	6.794
405.42	6.583
405.77	7.001
406.13	6.941
406.49	6.424
406.84	6.486
407.20	7.135
407.55	5.969
407.91	7.786
408.27	6.974
408.62	7.215
408.98	6.742
409.34	6.955
409.69	7.094
410.05	6.857
410.40	5.948
410.76	5.839
411.11	6.813
411.47	7.531
411.83	6.854
412.18	6.099
412.54	6.967
412.89	5.900
413.25	6.727
413.60	6.600
413.96	6.224
414.31	5.962
414.67	6.456
415.03	6.450
415.38	7.571
415.74	6.759
416.09	6.808
416.45	7.369
416.80	7.697
417.16	6.811
417.51	6.879
417.87	6.008
418.22	6.744
418.58	7.771
418.93	6.901
419.29	6.161
419.64	7.753
420.00	7.279
420.35	6.330
420.71	6.943
421.06	6.004
421.42	7.081
421.77	6.830
422.12	6.670
422.48	6.728
422.83	6.473
423.19	7.019
423.54	7.131
423.90	6.625
424.25	6.384
424.61	7.545
424.96	6.211
425.31	6.787
425.67	7.015
426.02	7.291
426.38	6.651
426.73	6.998
427.09	7.948
427.44	6.866
427.79	6.690
428.15	7.248
428.50	7.943
428.85	7.466
429.21	7.347
429.56	7.328
429.92	7.011
430.27	6.773
430.62	6.363
430.98	7.136
431.33	6.704
431.68	6.272
432.04	6.829
432.39	7.684
432.74	7.670
433.10	6.921
433.45	7.869
433.80	7.998
434.16	7.042
434.51	7.585
434.86	7.458
435.22	7.185
435.57	6.817
435.92	7.854
436.28	8.180
436.63	7.455
436.98	7.658
437.34	7.763
437.69	6.831
438.04	8.172
438.39	8.056
438.75	7.628
439.10	7.663
439.45	7.801
439.81	7.924
440.16	7.430
440.51	7.939
440.86	8.148
441.22	7.630
441.57	7.717
441.92	7.651
442.27	6.701
442.63	7.368
442.98	7.705
443.33	7.231
443.68	7.495
444.03	7.163
444.39	7.674
444.74	7.609
445.09	8.162
445.44	8.183
445.79	6.920
446.15	7.421
446.50	8.017
446.85	7.620
447.20	6.617
447.55	7.504
447.91	8.205
448.26	8.040
448.61	7.794
448.96	8.007
449.31	7.701
449.66	8.250
450.02	7.563
450.37	7.662
450.72	7.879
451.07	8.028
451.42	8.121
451.77	8.763
452.12	8.225
452.47	8.019
452.83	8.056
453.18	7.988
453.53	8.111
453.88	8.229
454.23	8.019
454.58	7.809
454.93	7.848
455.28	8.752
455.63	8.097
455.98	8.291
456.34	8.511
456.69	7.988
457.04	7.876
457.39	7.714
457.74	8.671
458.09	7.748
458.44	7.558
458.79	7.586
459.14	7.856
459.49	8.041
459.84	8.261
460.19	7.853
460.54	8.604
460.89	7.996
461.24	8.419
461.59	8.163
461.94	7.506
462.29	8.238
462.64	8.417
462.99	7.550
463.34	9.138
463.69	9.014
464.04	8.751
464.39	8.701
464.74	7.913
465.09	8.416
465.44	7.726
465.79	7.784
466.14	8.479
466.49	8.085
466.84	8.082
467.19	8.319
467.54	8.108
467.89	8.862
468.24	7.875
468.59	7.381
468.94	8.031
469.29	8.125
469.64	9.068
469.99	8.933
470.34	8.855
470.68	9.103
471.03	8.539
471.38	8.411
471.73	8.230
472.08	9.263
472.43	8.442
472.78	8.771
473.13	7.697
473.48	9.046
473.83	8.245
474.17	8.267
474.52	8.827
474.87	8.186
475.22	7.824
475.57	8.080
475.92	7.511
476.27	7.780
476.61	8.204
476.96	8.307
477.31	7.969
477.66	8.159
478.01	7.891
478.36	8.033
478.70	7.891
479.05	7.584
479.40	8.185
479.75	8.441
480.10	7.938
480.45	7.516
480.79	7.834
481.14	6.990
481.49	7.640
481.84	7.564
482.19	7.860
482.53	7.817
482.88	7.796
483.23	7.488
483.58	7.406
483.92	8.410
484.27	7.705
484.62	8.065
484.97	7.791
485.31	7.360
485.66	7.169
486.01	6.808
486.36	6.882
486.70	6.707
487.05	6.964
487.40	6.933
487.75	7.002
488.09	7.330
488.44	6.883
488.79	7.636
489.13	7.428
489.48	7.591
489.83	7.673
490.17	7.762
490.52	7.537
490.87	8.103
491.22	7.934
491.56	7.949
491.91	7.034
492.26	7.884
492.60	8.018
492.95	7.567
493.30	7.825
493.64	8.176
493.99	8.184
494.34	7.037
494.68	7.703
495.03	7.903
495.37	8.240
495.72	7.692
496.07	7.772
496.41	7.819
496.76	7.894
497.11	8.740
497.45	7.804
497.80	8.063
498.14	7.952
498.49	7.846
498.84	8.084
499.18	6.993
499.53	7.350
499.87	7.547
500.22	7.784
500.56	7.707
500.91	8.302
501.26	7.855
501.60	7.923
501.95	7.527
502.29	8.089
502.64	7.455
502.98	7.514
503.33	7.483
503.67	8.212
504.02	7.210
504.36	8.009
504.71	8.231
505.06	7.555
505.40	7.674
505.75	7.297
506.09	8.213
506.44	7.754
506.78	8.648
507.13	7.998
507.47	8.248
507.82	8.467
508.16	8.231
508.51	7.440
508.85	8.025
509.19	7.930
509.54	7.910
509.88	8.056
510.23	8.431
510.57	7.722
510.92	7.542
511.26	7.781
511.61	7.386
511.95	8.064
512.30	8.350
512.64	7.269
512.98	7.381
513.33	8.197
513.67	8.079
514.02	7.948
514.36	7.996
514.70	7.307
515.05	7.246
515.39	8.059
515.74	8.037
516.08	8.279
516.42	8.525
516.77	7.413
517.11	8.107
517.46	8.297
517.80	7.646
518.14	8.451
518.49	8.545
518.83	7.527
519.17	8.430
519.52	7.919
519.86	8.501
520.20	8.274
520.55	8.253
520.89	8.046
521.23	8.645
521.58	8.147
521.92	8.163
522.26	7.879
522.61	8.556
522.95	8.108
523.29	8.655
523.64	7.746
523.98	7.512
524.32	8.016
524.66	8.232
525.01	7.633
525.35	8.132
525.69	8.067
526.04	8.864
526.38	8.534
526.72	7.757
527.06	7.983
527.41	8.525
527.75	8.338
528.09	8.308
528.43	8.481
528.78	7.931
529.12	8.669
529.46	7.890
529.80	8.002
530.15	8.368
530.49	7.521
530.83	8.714
531.17	7.872
531.51	7.603
531.86	8.152
532.20	8.035
532.54	8.098
532.88	8.057
533.22	8.044
533.57	8.176
533.91	6.818
534.25	6.694
534.59	8.363
534.93	7.679
535.27	7.001
535.62	7.293
535.96	7.801
536.30	8.410
536.64	8.012
536.98	7.804
537.32	7.750
537.66	7.334
538.01	8.669
538.35	7.860
538.69	8.070
539.03	7.774
539.37	7.646
539.71	8.457
540.05	7.508
540.39	8.302
540.73	7.405
541.07	6.838
541.42	8.333
541.76	8.076
542.10	7.953
542.44	7.855
542.78	8.244
543.12	7.485
543.46	7.456
543.80	7.957
544.14	7.802
544.48	7.603
544.82	8.379
545.16	7.529
545.50	8.666
545.84	8.460
546.18	8.127
546.52	8.852
546.86	8.575
547.20	7.881
547.54	8.043
547.88	7.664
548.22	7.772
548.56	7.955
548.90	7.770
549.24	8.149
549.58	7.990
549.92	7.597
550.26	8.654
550.60	7.186
550.94	8.412
551.28	8.759
551.62	7.655
551.96	7.905
552.30	6.724
552.64	7.508
552.98	6.572
553.32	7.234
553.66	8.274
554.00	8.044
554.34	8.589
554.68	8.401
555.02	7.468
555.36	7.846
555.69	7.984
556.03	7.643
556.37	7.648
556.71	8.018
557.05	7.602
557.39	7.267
557.73	8.288
558.07	7.713
558.41	8.568
558.75	7.866
559.08	7.791
559.42	7.659
559.76	8.624
560.10	6.607
560.44	7.631
560.78	8.184
561.12	7.057
561.45	7.322
561.79	7.678
562.13	7.391
562.47	7.333
562.81	7.157
563.15	6.723
563.48	6.957
563.82	7.611
564.16	7.027
564.50	6.811
564.84	7.903
565.17	7.724
565.51	6.527
565.85	7.465
566.19	6.964
566.52	6.679
566.86	7.589
567.20	7.079
567.54	6.878
567.88	7.094
568.21	6.940
568.55	6.809
568.89	6.706
569.23	6.255
569.56	6.829
569.90	6.360
570.24	6.405
570.57	6.457
570.91	5.928
571.25	6.317
571.59	5.838
571.92	5.813
572.26	5.660
572.60	5.721
572.93	6.124
573.27	6.146
573.61	5.577
573.95	5.553
574.28	5.502
574.62	5.636
574.96	5.606
575.29	5.411
575.63	5.771
575.97	5.404
576.30	5.214
576.64	5.911
576.98	5.456
577.31	5.778
577.65	5.602
577.98	5.407
578.32	5.125
578.66	5.346
578.99	5.664
579.33	5.571
579.67	5.493
580.00	5.136
580.34	5.498
580.67	5.302
581.01	5.596
581.35	5.367
581.68	5.009
582.02	5.302
582.35	5.287
582.69	5.450
583.02	5.135
583.36	5.505
583.70	5.903
584.03	5.692
584.37	5.755
584.70	5.350
585.04	5.187
585.37	5.320
585.71	5.640
586.04	5.381
586.38	5.291
586.72	5.071
587.05	5.764
587.39	5.512
587.72	5.611
588.06	5.513
588.39	5.834
588.73	5.530
589.06	5.603
589.40	5.759
589.73	5.834
590.07	5.971
590.40	5.958
590.73	6.353
591.07	6.300
591.40	5.709
591.74	6.575
592.07	5.616
592.41	6.075
592.74	5.749
593.08	5.241
593.41	5.356
593.75	5.622
594.08	6.160
594.41	5.800
594.75	5.514
595.08	6.070
595.42	5.958
595.75	6.186
596.09	5.839
596.42	6.118
596.75	5.849
597.09	6.397
597.42	5.633
597.75	5.639
598.09	5.704
598.42	5.998
598.76	5.898
599.09	5.921
599.42	4.706
599.76	6.174
600.09	5.661
600.42	5.490
600.76	5.167
601.09	5.523
601.42	5.808
601.76	5.657
602.09	6.255
602.42	5.693
602.76	5.844
603.09	6.071
603.42	6.349
603.76	5.351
604.09	5.501
604.42	5.838
604.76	5.294
605.09	6.163
605.42	6.095
605.75	6.040
606.09	5.968
606.42	5.825
606.75	5.441
607.09	6.080
607.42	6.067
607.75	6.011
608.08	5.321
608.42	5.872
608.75	5.392
609.08	5.939
609.41	6.545
609.75	6.273
610.08	6.340
610.41	6.280
610.74	5.887
611.07	6.003
611.41	5.931
611.74	6.214
612.07	5.925
612.40	6.384
612.73	6.141
613.07	6.336
613.40	6.216
613.73	6.041
614.06	6.000
614.39	6.465
614.72	6.077
615.06	6.182
615.39	6.188
615.72	5.712
616.05	5.575
616.38	6.342
616.71	5.426
617.05	6.590
617.38	6.011
617.71	5.399
618.04	5.440
618.37	5.392
618.70	5.543
619.03	6.349
619.36	6.847
619.69	6.530
620.03	7.893
620.36	6.551
620.69	7.471
621.02	6.861
621.35	6.375
621.68	7.080
622.01	6.863
622.34	5.462
622.67	6.671
623.00	7.012
623.33	6.883
623.66	6.919
623.99	6.507
624.32	6.504
624.65	6.847
624.99	6.356
625.32	6.880
625.65	5.862
625.98	5.997
626.31	6.751
626.64	5.847
626.97	6.886
627.30	6.134
627.63	7.143
627.96	6.103
628.29	6.683
628.62	6.587
628.95	7.181
629.28	8.063
629.61	6.415
629.94	7.347
630.26	7.019
630.59	7.801
630.92	7.444
631.25	7.888
631.58	7.232
631.91	7.517
632.24	7.969
632.57	7.564
632.90	7.453
633.23	7.450
633.56	7.692
633.89	8.253
634.22	7.104
634.55	7.097
634.88	7.886
635.20	8.184
635.53	6.736
635.86	9.732
636.19	7.407
636.52	7.784
636.85	6.796
637.18	8.234
637.51	6.369
637.83	7.094
638.16	7.972
638.49	7.545
638.82	7.629
639.15	6.463
639.48	8.175
639.81	7.326
640.13	9.448
640.46	7.332
640.79	7.802
641.12	6.955
641.45	7.762
641.77	8.851
642.10	8.568
642.43	8.393
642.76	7.528
643.09	8.790
643.41	9.257
643.74	8.058
644.07	8.260
644.40	7.396
644.73	9.309
645.05	11.590
645.38	6.279
645.71	9.560
646.04	9.466
646.36	8.138
646.69	9.120
647.02	7.520
647.35	8.661
647.67	8.590
648.00	9.446
648.33	8.271
648.66	8.485
648.98	7.536
649.31	9.177
649.64	7.469
649.96	7.255
650.29	7.429
650.62	9.720
650.94	9.187
651.27	11.802
651.60	8.138
651.92	10.445
652.25	9.449
652.58	8.794
652.90	8.383
653.23	7.829
653.56	9.199
653.88	7.636
654.21	9.238
654.54	8.199
654.86	6.932
655.19	9.103
655.52	6.303
655.84	3.825
656.17	4.192
656.49	6.237
656.82	7.027
657.15	5.633
657.47	4.259
657.80	3.344
658.13	2.519
658.45	3.453
658.78	4.414
659.10	4.429
659.43	4.639
659.75	5.039
660.08	5.890
660.41	6.715
660.73	8.783
661.06	7.508
661.38	10.221
661.71	7.554
662.03	8.555
662.36	10.286
662.68	8.194
663.01	11.712
663.33	8.491
663.66	8.481
663.98	7.738
664.31	12.500
664.63	12.261
664.96	10.131
665.28	8.475
665.61	8.302
665.93	7.358
666.26	10.654
666.58	11.560
666.91	10.232
667.23	11.647
667.56	10.883
667.88	10.581
668.21	10.861
668.53	11.290
668.86	11.423
669.18	10.591
669.50	10.537
669.83	9.240
670.15	8.316
670.48	8.789
670.80	9.960
671.13	9.363
671.45	11.824
671.77	12.616
672.10	10.592
672.42	9.704
672.75	9.810
673.07	9.857
673.39	8.307
673.72	9.862
674.04	8.602
674.37	9.437
674.69	7.621
675.01	9.142
675.34	7.558
675.66	10.352
675.98	11.243
676.31	10.400
676.63	7.555
676.95	11.310
677.28	11.359
677.60	9.457
677.92	6.944
678.25	10.465
678.57	10.987
678.89	9.946
679.22	9.375
679.54	7.473
679.86	10.471
680.18	8.260
680.51	8.292
680.83	8.953
681.15	9.012
681.48	9.375
681.80	9.807
682.12	9.862
682.44	8.288
682.77	9.609
683.09	8.544
683.41	10.204
683.73	9.252
684.06	8.333
684.38	10.465
684.70	8.094
685.02	7.465
685.34	10.915
685.67	9.003
685.99	7.553
686.31	9.707
686.63	6.992
686.96	9.150
687.28	8.389
687.60	7.850
687.92	9.548
688.24	10.517
688.56	11.032
688.89	6.883
689.21	8.671
689.53	11.462
689.85	9.553
690.17	8.155
690.49	10.887
690.82	9.034
691.14	10.505
691.46	10.267
691.78	9.747
692.10	10.496
692.42	8.167
692.74	8.140
693.06	9.690
693.39	8.300
693.71	9.234
694.03	12.032
694.35	11.647
694.67	10.387
694.99	8.426
695.31	11.261
695.63	9.729
695.95	9.276
696.27	10.841
696.59	8.115
696.91	9.114
697.23	11.765
697.56	8.299
697.88	7.585
698.20	8.679
698.52	6.031
698.84	11.088
699.16	11.087
699.48	10.169
699.80	11.547
700.12	12.471
700.44	10.514
700.76	10.979
701.08	9.922
701.40	9.870
701.72	11.765
702.04	11.111
702.36	9.677
702.68	14.628
703.00	10.777
703.32	10.918
703.64	8.816
703.96	9.115
704.28	8.730
704.60	13.239
704.91	8.683
705.23	11.648
705.55	16.617
705.87	9.206
706.19	13.166
706.51	15.674
706.83	10.324
707.15	14.706
707.47	11.138
707.79	12.414
708.11	9.751
708.43	7.640
708.74	9.729
709.06	10.698
709.38	12.903
709.70	11.444
710.02	9.783
710.34	11.326
710.66	11.389
710.98	12.022
711.29	10.585
711.61	11.978
711.93	11.246
712.25	11.446
712.57	11.254
712.89	11.515
713.20	10.224
713.52	12.773
713.84	12.991
714.16	7.536
714.48	5.187
714.80	9.485
715.11	8.245
715.43	5.587
715.75	10.141
716.07	10.983
716.39	11.714
716.70	9.969
717.02	11.111
717.34	15.108
717.66	15.278
717.97	14.773
718.29	13.732
718.61	12.500
718.93	12.457
719.24	12.081
719.56	12.414
719.88	10.191
720.20	13.226
720.51	9.804
720.83	12.709
721.15	11.905
721.46	13.014
721.78	12.544
722.10	14.236
722.42	14.047
722.73	11.552
723.05	12.632
723.37	14.488
723.68	7.031
724.00	12.879
724.32	15.589
724.63	14.231
724.95	14.902
725.27	13.383
725.58	14.338
725.90	7.746
726.22	8.904
726.53	13.712
726.85	14.658
727.16	17.785
727.48	10.299
727.80	15.827
728.11	15.714
728.43	9.420
728.74	13.287
729.06	10.036
729.38	15.789
729.69	16.000
730.01	14.145
730.32	10.403
730.64	13.621
730.96	12.312
731.27	6.422
731.59	9.483
731.90	10.585
732.22	13.143
732.53	9.972
732.85	13.158
733.16	12.952
733.48	14.107
733.80	13.623
734.11	14.417
734.43	7.895
734.74	11.528
735.06	13.228
735.37	11.856
735.69	10.145
736.00	11.621
736.32	10.000
736.63	9.464
736.95	11.801
737.26	14.329
737.58	12.270
737.89	10.843
738.21	12.914
738.52	11.706
738.83	17.216
739.15	13.589
739.46	13.448
739.78	12.925
740.09	14.869
740.41	11.656
740.72	14.603
741.04	13.636
741.35	14.062
741.66	12.253
741.98	14.592
742.29	20.833
742.61	15.929
742.92	13.983
743.23	16.400
743.55	14.717
743.86	18.039
744.18	17.373
744.49	14.463
744.80	18.894
745.12	15.179
745.43	19.626
745.74	15.111
746.06	13.596
746.37	17.209
746.68	22.124
747.00	17.040
747.31	17.647
747.62	15.164
747.94	14.592
748.25	15.953
748.56	14.407
748.88	19.196
749.19	13.953
749.50	17.352
749.82	13.169
750.13	15.810
750.44	9.667
750.75	12.752
751.07	12.500
751.38	16.172
751.69	13.468
752.01	8.392
752.32	13.289
752.63	14.430
752.94	12.937
753.26	9.766
753.57	12.062
753.88	15.730
754.19	15.162
754.51	16.944
754.82	12.752
755.13	14.527
755.44	15.926
755.75	16.495
756.07	12.671
756.38	12.418
756.69	11.563
757.00	14.837
757.31	12.394
757.63	11.019
757.94	10.638
758.25	10.870
758.56	10.984
758.87	10.276
759.18	13.081
759.50	10.030
759.81	14.243
760.12	12.640
760.43	11.204
760.74	12.152
761.05	7.958
761.36	8.333
761.67	8.356
761.99	9.014
762.30	12.540
762.61	12.153
762.92	11.742
763.23	13.208
763.54	14.231
763.85	13.230
764.16	16.319
764.47	15.878
764.78	14.007
765.10	13.415
765.41	11.648
765.72	10.221
766.03	10.876
766.34	10.801
766.65	13.308
766.96	14.170
767.27	18.224
767.58	16.832
767.89	19.337
768.20	18.293
768.51	12.245
768.82	16.667
769.13	13.725
769.44	15.414
769.75	13.858
770.06	13.025
770.37	10.088
770.68	11.111
770.99	16.949
771.30	14.644
771.61	16.154
771.92	15.267
772.23	14.113
772.54	16.444
772.85	19.307
773.16	17.935
773.47	13.333
773.78	16.832
774.09	18.182
774.39	24.242
774.70	17.647
775.01	17.105
775.32	13.043
775.63	21.233
775.94	28.395
776.25	22.759
776.56	19.084
776.87	22.901
777.18	18.939
777.48	22.835
777.79	31.538
778.10	23.485
778.41	29.851
778.72	11.278
779.03	19.231
779.34	16.892
779.65	24.845
779.95	22.981
780.26	15.476
780.57	27.891
780.88	27.660
781.19	25.000
781.50	21.302
781.80	26.776
782.11	15.873
782.42	17.241
782.73	22.034
783.04	20.000
783.34	13.953
783.65	19.048
783.96	22.581
784.27	13.907
784.57	21.053
784.88	24.638
785.19	23.333
785.50	24.138
785.81	31.008
786.11	22.963
786.42	25.984
786.73	28.829
787.04	29.245
787.34	17.886
787.65	30.303
787.96	29.545
788.26	24.409
788.57	24.818
788.88	25.352
789.19	22.901
789.49	30.405
789.80	25.000
790.11	21.488
790.41	33.333
790.72	34.259
791.03	37.500
791.33	38.384
791.64	25.263
791.95	37.895
792.25	22.917
792.56	20.000
792.87	31.707
793.17	31.818
793.48	41.176
793.79	43.678
794.09	19.318
794.40	31.897
794.70	27.778
795.01	16.923
795.32	21.374
795.62	18.803
795.93	29.412
796.23	28.455
796.54	24.490
796.85	34.091
797.15	48.052
797.46	51.220
797.76	36.250
798.07	50.667
798.37	26.250
798.68	45.000
798.99	41.463
799.29	42.667
799.60	30.233
799.90	42.105
800.21	24.242
800.51	29.577
800.82	50.000
801.12	58.462
801.43	46.667
801.73	39.655
802.04	33.766
802.34	58.904
802.65	58.824
802.95	50.000
803.26	61.290
803.56	60.000
803.87	55.224
804.17	39.683
804.48	35.849
804.78	47.222
805.09	42.424
805.39	46.032
805.70	59.649
806.00	40.000
806.30	48.438
806.61	48.235
806.91	41.111
807.22	18.478
807.52	26.316
807.83	44.737
808.13	40.580
808.43	72.581
808.74	47.945
809.04	32.143
809.35	61.765
809.65	40.909
809.95	56.863
810.26	50.000
810.56	54.688
810.86	55.102
811.17	49.123
811.47	54.348
811.77	48.276
812.08	34.483
812.38	47.619
812.69	64.286
812.99	75.556
813.29	57.143
813.59	74.194
813.90	43.103
814.20	62.295
814.50	50.000
814.81	35.088
815.11	70.370
815.41	75.000
815.72	62.500
816.02	66.000
816.32	56.098
816.62	55.172
816.93	72.727
817.23	60.976
817.53	64.286
817.84	55.556
818.14	52.381
818.44	64.583
818.74	56.604
819.04	61.538
819.35	45.455
819.65	84.615
819.95	92.593
820.25	78.723
820.56	64.865
820.86	84.211
821.16	51.064
821.46	92.105
821.76	74.545
822.07	42.857
822.37	73.684
822.67	86.047
822.97	52.632
823.27	78.261
823.57	68.750
823.88	74.359
824.18	60.606
824.48	147.826
824.78	88.889
825.08	60.870
825.38	131.034
825.69	79.412
825.99	80.851
826.29	61.111
826.59	80.000
826.89	106.667
827.19	71.429
827.49	116.129
827.79	103.846
828.09	73.810
828.39	30.556
828.70	67.568
829.00	96.429
829.30	131.250
829.60	77.778
829.90	77.419
830.20	78.788
830.50	118.919
830.80	91.667
831.10	142.308
831.40	119.048
831.70	141.667
832.00	93.333
832.30	121.739
832.60	150.000
832.90	142.424
833.20	110.000
833.50	97.368
833.80	82.353
834.10	86.842
834.40	84.211
834.70	93.333
835.00	168.000
835.30	81.081
835.60	103.125
835.90	86.486
836.20	107.692
836.50	104.545
836.80	80.488
837.10	100.000
837.40	261.538
837.70	105.263
838.00	96.667
838.30	133.333
838.60	104.000
838.90	220.000
839.19	143.750
839.49	83.333
839.79	103.448
840.09	126.923
840.39	133.333
840.69	168.421
840.99	109.524
841.29	152.174
841.59	155.000
841.88	124.000
842.18	288.889
842.48	135.714
842.78	137.037
843.08	215.385
843.38	109.091
843.68	164.286
843.97	371.429
844.27	130.435
844.57	850.000
844.87	235.714
845.17	216.667
845.47	85.714
845.76	162.500
846.06	457.143
846.36	129.412
846.66	169.231
846.96	150.000
847.25	123.077
847.55	142.105
847.85	138.889
848.15	300.000
848.44	190.909
848.74	85.714
849.04	141.667
849.34	135.294
849.63	200.000
849.93	181.250
850.23	766.667
850.53	375.000
850.82	181.818
851.12	152.941
851.42	116.667
851.71	225.000
852.01	0.000
852.31	123.529
852.61	300.000
852.90	133.333
853.20	322.222
853.50	-1400.000
853.79	108.000
854.09	143.750
854.39	89.655
854.68	148.276
854.98	185.714
855.28	109.677
855.57	164.286
855.87	100.000
856.17	118.519
856.46	142.105
856.76	119.355
857.05	188.235
857.35	145.455
857.65	176.923
857.94	105.000
858.24	300.000
858.53	221.429
858.83	428.571
859.13	152.174
859.42	255.556
859.72	275.000
860.01	208.333
860.31	650.000
860.60	320.000
860.90	337.500
861.20	161.538
861.49	242.857
861.79	-2000.000
862.08	485.714
862.38	311.111
862.67	192.857
862.97	310.000
863.26	123.333
863.56	700.000
863.85	223.077
864.15	241.176
864.44	188.889
864.74	283.333
865.03	245.455
865.33	362.500
865.62	180.000
865.92	450.000
866.21	525.000
866.51	560.000
866.80	183.333
867.10	566.667
867.39	1500.000
867.69	500.000
867.98	850.000
868.27	157.143
868.57	153.333
868.86	400.000
869.16	161.905
869.45	3300.000
869.75	-400.000
870.04	450.000
870.33	460.000
870.63	312.500
870.92	152.941
871.22	650.000
871.51	328.571
871.80	250.000
872.10	276.923
>>>>>End Processed Spectral Data<<<<<
