SpectraSuite Data File
++++++++++++++++++++++++++++++++++++
Date: Tue May 12 17:17:21 PDT 2015
User: schluterlab
Dark Spectrum Present: Yes
Reference Spectrum Present: Yes
Number of Sampled Component Spectra: 1
Spectrometers: USB2E3373
Integration Time (usec): 3000 (USB2E3373)
Spectra Averaged: 3 (USB2E3373)
Boxcar Smoothing: 0 (USB2E3373)
Correct for Electrical Dark: No (USB2E3373)
Strobe/Lamp Enabled: No (USB2E3373)
Correct for Detector Non-linearity: No (USB2E3373)
Correct for Stray Light: No (USB2E3373)
Number of Pixels in Processed Spectrum: 2048
>>>>>Begin Processed Spectral Data<<<<<
178.53	0.000
178.91	-183.333
179.29	-625.000
179.67	-3700.000
180.04	-73.333
180.42	650.000
180.80	1850.000
181.18	0.000
181.56	-412.500
181.94	0.000
182.31	1066.667
182.69	-3200.000
183.07	557.143
183.45	-2900.000
183.83	-1700.000
184.20	350.000
184.58	471.429
184.96	-207.692
185.34	-241.667
185.72	1800.000
186.09	-775.000
186.47	-3400.000
186.85	1533.333
187.23	560.000
187.61	1650.000
187.98	487.500
188.36	228.571
188.74	408.333
189.12	383.333
189.49	950.000
189.87	0.000
190.25	562.500
190.63	3700.000
191.00	-150.000
191.38	-3600.000
191.76	-550.000
192.14	450.000
192.51	-2800.000
192.89	1700.000
193.27	1000.000
193.65	-1066.667
194.02	-880.000
194.40	528.571
194.78	-185.714
195.15	253.333
195.53	-2400.000
195.91	-500.000
196.29	4400.000
196.66	243.750
197.04	875.000
197.42	-1150.000
197.79	725.000
198.17	366.667
198.55	0.000
198.92	514.286
199.30	1166.667
199.68	2400.000
200.05	633.333
200.43	-433.333
200.81	161.111
201.18	2800.000
201.56	233.333
201.94	-750.000
202.31	-262.500
202.69	-540.000
203.07	2800.000
203.44	-566.667
203.82	250.000
204.19	700.000
204.57	-1500.000
204.95	-750.000
205.32	-640.000
205.70	500.000
206.08	875.000
206.45	-666.667
206.83	422.222
207.20	200.000
207.58	250.000
207.96	580.000
208.33	0.000
208.71	400.000
209.08	560.000
209.46	-2800.000
209.84	-875.000
210.21	720.000
210.59	-640.000
210.96	300.000
211.34	-975.000
211.71	309.091
212.09	950.000
212.46	1700.000
212.84	-466.667
213.22	466.667
213.59	-3100.000
213.97	320.000
214.34	1050.000
214.72	966.667
215.09	866.667
215.47	-3200.000
215.84	-340.000
216.22	-587.500
216.59	0.000
216.97	0.000
217.34	1250.000
217.72	-1250.000
218.09	1000.000
218.47	400.000
218.84	525.000
219.22	966.667
219.59	533.333
219.97	600.000
220.34	411.111
220.72	1750.000
221.09	3900.000
221.47	325.000
221.84	1200.000
222.22	330.000
222.59	261.111
222.97	278.571
223.34	237.500
223.72	-1450.000
224.09	1433.333
224.46	269.231
224.84	-775.000
225.21	355.556
225.59	280.000
225.96	1400.000
226.34	-660.000
226.71	-675.000
227.08	-500.000
227.46	0.000
227.83	-500.000
228.21	-1300.000
228.58	433.333
228.95	900.000
229.33	322.222
229.70	1000.000
230.08	353.846
230.45	4300.000
230.82	-800.000
231.20	-733.333
231.57	-1033.333
231.95	680.000
232.32	350.000
232.69	533.333
233.07	258.333
233.44	-1500.000
233.81	273.333
234.19	174.074
234.56	212.500
234.93	135.294
235.31	250.000
235.68	206.250
236.05	167.857
236.43	155.556
236.80	207.143
237.17	206.897
237.55	153.125
237.92	107.500
238.29	163.636
238.67	137.500
239.04	131.707
239.41	85.417
239.79	90.000
240.16	112.500
240.53	78.689
240.91	85.507
241.28	100.000
241.65	81.818
242.02	88.732
242.40	92.857
242.77	65.934
243.14	64.557
243.51	74.747
243.89	62.617
244.26	66.355
244.63	66.337
245.00	59.633
245.38	54.237
245.75	58.333
246.12	67.407
246.49	56.738
246.87	53.279
247.24	55.333
247.61	54.375
247.98	59.184
248.36	55.152
248.73	53.061
249.10	55.952
249.47	58.000
249.84	52.736
250.22	50.270
250.59	49.000
250.96	46.835
251.33	48.372
251.70	51.786
252.08	49.160
252.45	43.426
252.82	44.106
253.19	46.245
253.56	49.231
253.94	45.652
254.31	44.574
254.68	44.948
255.05	49.310
255.42	45.985
255.79	45.277
256.16	46.441
256.54	45.130
256.91	44.444
257.28	47.157
257.65	42.633
258.02	43.953
258.39	43.553
258.76	42.609
259.14	43.714
259.51	43.149
259.88	45.593
260.25	42.308
260.62	42.192
260.99	41.047
261.36	40.111
261.73	42.819
262.10	45.026
262.47	44.000
262.85	41.067
263.22	42.674
263.59	41.944
263.96	41.604
264.33	39.753
264.70	39.558
265.07	44.146
265.44	42.431
265.81	41.745
266.18	40.503
266.55	41.371
266.92	42.506
267.29	40.351
267.66	39.013
268.03	40.807
268.40	38.689
268.77	42.731
269.14	39.913
269.51	41.871
269.88	40.000
270.25	38.013
270.62	40.558
270.99	43.408
271.36	42.886
271.73	39.413
272.10	38.990
272.47	40.873
272.84	39.122
273.21	40.083
273.58	40.283
273.95	39.014
274.32	40.467
274.69	42.126
275.06	39.526
275.43	38.506
275.80	36.604
276.17	38.603
276.54	38.505
276.91	38.806
277.28	35.949
277.65	39.114
278.02	39.890
278.39	38.129
278.76	38.448
279.13	37.189
279.50	37.455
279.87	36.127
280.23	39.595
280.60	40.511
280.97	39.655
281.34	36.469
281.71	37.739
282.08	37.607
282.45	37.500
282.82	39.465
283.19	36.725
283.56	34.876
283.92	37.948
284.29	34.775
284.66	38.824
285.03	38.308
285.40	36.860
285.77	35.494
286.14	37.616
286.51	35.890
286.87	35.285
287.24	32.733
287.61	37.690
287.98	35.075
288.35	34.667
288.72	35.660
289.08	35.886
289.45	34.451
289.82	35.781
290.19	34.553
290.56	34.498
290.93	35.252
291.29	35.083
291.66	34.040
292.03	34.642
292.40	33.875
292.77	32.869
293.13	33.238
293.50	31.714
293.87	32.520
294.24	33.986
294.60	34.051
294.97	34.825
295.34	32.271
295.71	32.326
296.08	31.733
296.44	31.131
296.81	30.893
297.18	31.686
297.55	30.911
297.91	29.187
298.28	31.280
298.65	31.288
299.02	28.709
299.38	30.456
299.75	30.366
300.12	30.390
300.48	31.382
300.85	31.704
301.22	30.814
301.59	30.071
301.95	30.338
302.32	31.665
302.69	32.240
303.05	31.089
303.42	30.045
303.79	31.311
304.15	29.263
304.52	30.761
304.89	31.130
305.25	30.923
305.62	30.384
305.99	29.130
306.35	29.895
306.72	32.154
307.09	30.538
307.45	31.257
307.82	31.584
308.19	30.825
308.55	31.700
308.92	30.815
309.29	32.051
309.65	31.417
310.02	32.860
310.38	31.605
310.75	31.437
311.12	31.992
311.48	32.915
311.85	32.729
312.22	32.665
312.58	32.264
312.95	34.854
313.31	33.521
313.68	34.053
314.05	35.348
314.41	34.823
314.78	34.564
315.14	35.450
315.51	35.856
315.87	35.858
316.24	36.228
316.61	35.004
316.97	37.798
317.34	38.544
317.70	38.806
318.07	38.434
318.43	39.543
318.80	39.405
319.16	40.559
319.53	40.708
319.89	39.964
320.26	41.620
320.62	42.582
320.99	41.277
321.35	41.558
321.72	42.694
322.08	42.936
322.45	43.597
322.81	43.641
323.18	42.806
323.54	45.470
323.91	46.782
324.27	46.773
324.64	47.405
325.00	50.259
325.37	48.904
325.73	49.831
326.10	50.124
326.46	50.702
326.83	50.160
327.19	51.084
327.56	51.358
327.92	54.344
328.29	52.373
328.65	54.024
329.01	55.261
329.38	55.584
329.74	55.508
330.11	55.083
330.47	55.840
330.84	54.012
331.20	55.584
331.56	58.981
331.93	56.886
332.29	56.207
332.66	58.759
333.02	55.670
333.38	58.115
333.75	57.381
334.11	55.369
334.48	58.718
334.84	56.757
335.20	59.966
335.57	57.599
335.93	59.125
336.29	55.556
336.66	59.863
337.02	59.110
337.38	57.524
337.75	58.868
338.11	58.734
338.47	58.086
338.84	57.409
339.20	57.922
339.56	57.527
339.93	58.027
340.29	58.655
340.65	58.424
341.02	58.005
341.38	59.524
341.74	58.472
342.11	59.015
342.47	57.998
342.83	59.311
343.20	58.448
343.56	57.109
343.92	59.703
344.28	58.772
344.65	59.576
345.01	58.175
345.37	58.173
345.73	58.571
346.10	57.689
346.46	59.888
346.82	57.099
347.19	58.733
347.55	57.143
347.91	57.704
348.27	57.320
348.63	58.703
349.00	58.797
349.36	59.066
349.72	59.557
350.08	57.453
350.45	59.711
350.81	57.722
351.17	58.243
351.53	58.584
351.89	58.275
352.26	58.730
352.62	58.371
352.98	58.512
353.34	59.630
353.70	58.945
354.07	58.077
354.43	57.680
354.79	57.783
355.15	59.265
355.51	58.610
355.87	59.563
356.24	59.507
356.60	59.056
356.96	58.984
357.32	59.081
357.68	58.884
358.04	59.498
358.40	57.871
358.77	58.152
359.13	59.910
359.49	58.043
359.85	59.345
360.21	58.321
360.57	57.445
360.93	59.740
361.29	58.009
361.66	59.060
362.02	58.381
362.38	58.081
362.74	57.962
363.10	58.836
363.46	57.390
363.82	58.696
364.18	56.757
364.54	59.084
364.90	58.768
365.26	58.848
365.62	58.909
365.98	57.192
366.35	58.552
366.71	59.126
367.07	57.474
367.43	58.428
367.79	57.912
368.15	56.309
368.51	58.649
368.87	58.220
369.23	58.281
369.59	58.463
369.95	59.371
370.31	58.385
370.67	58.570
371.03	58.964
371.39	58.864
371.75	59.037
372.11	59.143
372.47	57.192
372.83	57.240
373.19	57.368
373.55	57.320
373.91	57.597
374.27	58.466
374.63	58.034
374.99	58.625
375.35	59.543
375.71	57.322
376.07	58.554
376.42	57.928
376.78	57.482
377.14	58.716
377.50	56.991
377.86	59.001
378.22	58.074
378.58	60.230
378.94	58.479
379.30	57.853
379.66	58.098
380.02	58.182
380.38	57.670
380.74	58.016
381.09	58.061
381.45	57.457
381.81	57.979
382.17	57.082
382.53	57.049
382.89	57.363
383.25	58.496
383.61	57.867
383.97	57.169
384.32	58.288
384.68	59.002
385.04	58.441
385.40	57.651
385.76	56.875
386.12	57.823
386.48	58.845
386.83	59.230
387.19	58.952
387.55	59.011
387.91	58.199
388.27	58.180
388.62	56.866
388.98	57.668
389.34	57.585
389.70	58.196
390.06	58.354
390.42	56.693
390.77	57.862
391.13	57.695
391.49	57.229
391.85	58.769
392.20	57.271
392.56	58.005
392.92	57.327
393.28	56.502
393.64	56.594
393.99	56.254
394.35	56.975
394.71	57.539
395.07	56.265
395.42	56.909
395.78	58.359
396.14	56.988
396.50	56.739
396.85	56.037
397.21	56.679
397.57	56.904
397.92	56.153
398.28	56.812
398.64	57.359
399.00	55.265
399.35	55.233
399.71	55.905
400.07	56.050
400.42	56.060
400.78	56.540
401.14	56.078
401.49	56.912
401.85	56.663
402.21	55.185
402.57	56.254
402.92	57.152
403.28	55.788
403.63	56.504
403.99	56.092
404.35	55.979
404.70	56.999
405.06	55.755
405.42	55.356
405.77	55.788
406.13	55.315
406.49	54.633
406.84	54.089
407.20	55.194
407.55	55.754
407.91	56.158
408.27	55.367
408.62	54.997
408.98	54.583
409.34	53.828
409.69	55.072
410.05	54.383
410.40	54.829
410.76	54.951
411.11	56.280
411.47	55.556
411.83	55.185
412.18	54.891
412.54	55.315
412.89	54.277
413.25	54.903
413.60	54.089
413.96	55.595
414.31	55.077
414.67	57.107
415.03	54.662
415.38	54.322
415.74	56.349
416.09	55.278
416.45	56.820
416.80	55.997
417.16	54.106
417.51	55.414
417.87	54.944
418.22	54.070
418.58	55.223
418.93	54.491
419.29	54.097
419.64	55.118
420.00	54.535
420.35	54.065
420.71	54.376
421.06	54.032
421.42	53.886
421.77	55.025
422.12	53.969
422.48	53.005
422.83	54.576
423.19	53.402
423.54	52.660
423.90	53.907
424.25	54.210
424.61	55.136
424.96	52.964
425.31	53.859
425.67	54.882
426.02	53.393
426.38	53.967
426.73	54.598
427.09	54.626
427.44	53.630
427.79	54.603
428.15	54.685
428.50	55.029
428.85	55.320
429.21	52.836
429.56	54.187
429.92	54.102
430.27	53.701
430.62	52.961
430.98	53.743
431.33	54.183
431.68	51.951
432.04	54.889
432.39	53.842
432.74	53.571
433.10	54.097
433.45	54.279
433.80	55.157
434.16	54.598
434.51	54.902
434.86	54.818
435.22	54.187
435.57	54.357
435.92	55.037
436.28	54.666
436.63	53.593
436.98	54.786
437.34	54.909
437.69	53.807
438.04	52.204
438.39	54.291
438.75	54.120
439.10	53.967
439.45	52.742
439.81	55.061
440.16	53.825
440.51	54.110
440.86	56.125
441.22	54.275
441.57	54.278
441.92	53.504
442.27	53.144
442.63	52.642
442.98	53.879
443.33	54.205
443.68	53.320
444.03	53.346
444.39	54.143
444.74	53.002
445.09	53.449
445.44	54.304
445.79	52.973
446.15	52.053
446.50	54.061
446.85	53.137
447.20	52.886
447.55	53.834
447.91	53.543
448.26	52.556
448.61	54.616
448.96	54.357
449.31	54.125
449.66	53.488
450.02	53.106
450.37	54.081
450.72	53.278
451.07	53.287
451.42	54.001
451.77	54.181
452.12	54.793
452.47	53.098
452.83	54.141
453.18	54.294
453.53	53.878
453.88	53.829
454.23	53.806
454.58	53.497
454.93	52.790
455.28	54.100
455.63	54.610
455.98	52.792
456.34	54.164
456.69	53.537
457.04	53.520
457.39	53.657
457.74	53.435
458.09	53.172
458.44	52.464
458.79	53.687
459.14	52.100
459.49	53.737
459.84	53.750
460.19	51.243
460.54	53.447
460.89	52.345
461.24	52.749
461.59	53.288
461.94	53.664
462.29	53.432
462.64	54.711
462.99	53.167
463.34	53.532
463.69	54.023
464.04	54.519
464.39	51.918
464.74	51.817
465.09	52.234
465.44	53.210
465.79	52.749
466.14	52.040
466.49	52.035
466.84	52.508
467.19	52.607
467.54	52.192
467.89	52.876
468.24	53.214
468.59	52.143
468.94	53.865
469.29	52.596
469.64	53.183
469.99	54.499
470.34	52.309
470.68	54.207
471.03	54.103
471.38	52.450
471.73	53.625
472.08	53.686
472.43	54.252
472.78	53.329
473.13	52.253
473.48	51.406
473.83	52.709
474.17	53.131
474.52	53.318
474.87	52.644
475.22	52.427
475.57	52.151
475.92	52.069
476.27	51.795
476.61	51.903
476.96	51.776
477.31	53.419
477.66	53.086
478.01	51.934
478.36	52.317
478.70	51.117
479.05	51.778
479.40	52.381
479.75	52.135
480.10	52.517
480.45	50.420
480.79	51.106
481.14	51.308
481.49	50.549
481.84	51.759
482.19	51.397
482.53	50.549
482.88	50.986
483.23	50.834
483.58	51.885
483.92	52.879
484.27	51.156
484.62	50.000
484.97	50.253
485.31	49.878
485.66	48.208
486.01	47.080
486.36	46.481
486.70	46.474
487.05	46.761
487.40	47.958
487.75	48.029
488.09	48.011
488.44	47.992
488.79	49.115
489.13	49.608
489.48	50.180
489.83	50.500
490.17	49.959
490.52	50.560
490.87	50.259
491.22	50.842
491.56	51.252
491.91	50.762
492.26	51.225
492.60	51.162
492.95	50.793
493.30	50.637
493.64	50.270
493.99	50.850
494.34	50.919
494.68	50.996
495.03	51.055
495.37	51.103
495.72	51.235
496.07	51.213
496.41	50.000
496.76	49.599
497.11	50.300
497.45	50.373
497.80	50.927
498.14	50.578
498.49	49.721
498.84	50.654
499.18	50.183
499.53	50.528
499.87	49.730
500.22	50.806
500.56	49.954
500.91	51.160
501.26	50.253
501.60	50.046
501.95	50.851
502.29	50.089
502.64	49.228
502.98	49.444
503.33	50.468
503.67	49.801
504.02	49.037
504.36	50.271
504.71	50.331
505.06	50.211
505.40	50.538
505.75	48.737
506.09	50.163
506.44	50.235
506.78	49.716
507.13	51.285
507.47	49.782
507.82	50.365
508.16	51.298
508.51	50.193
508.85	50.095
509.19	49.731
509.54	49.561
509.88	50.820
510.23	49.902
510.57	48.552
510.92	50.849
511.26	51.054
511.61	49.237
511.95	48.980
512.30	50.000
512.64	50.467
512.98	50.026
513.33	50.359
513.67	49.767
514.02	50.078
514.36	50.260
514.70	50.667
515.05	50.133
515.39	50.603
515.74	51.886
516.08	50.218
516.42	52.350
516.77	50.293
517.11	50.507
517.46	50.485
517.80	50.137
518.14	52.282
518.49	50.827
518.83	50.000
519.17	50.361
519.52	50.847
519.86	51.117
520.20	51.890
520.55	51.159
520.89	50.690
521.23	52.629
521.58	50.258
521.92	51.312
522.26	50.652
522.61	51.337
522.95	53.033
523.29	50.468
523.64	50.462
523.98	50.646
524.32	51.442
524.66	50.725
525.01	50.710
525.35	50.442
525.69	51.234
526.04	52.171
526.38	50.971
526.72	50.000
527.06	50.325
527.41	52.177
527.75	52.587
528.09	50.753
528.43	51.007
528.78	50.686
529.12	52.077
529.46	50.497
529.80	50.058
530.15	50.029
530.49	50.241
530.83	51.493
531.17	50.308
531.51	50.092
531.86	50.000
532.20	49.753
532.54	51.664
532.88	50.906
533.22	50.945
533.57	51.739
533.91	49.126
534.25	49.221
534.59	50.000
534.93	49.317
535.27	47.467
535.62	48.541
535.96	49.468
536.30	50.274
536.64	49.565
536.98	50.472
537.32	49.563
537.66	49.681
538.01	49.226
538.35	49.719
538.69	49.211
539.03	49.627
539.37	48.058
539.71	48.827
540.05	48.000
540.39	50.377
540.73	49.114
541.07	48.306
541.42	48.383
541.76	48.150
542.10	49.568
542.44	49.190
542.78	49.213
543.12	47.853
543.46	47.556
543.80	49.123
544.14	49.226
544.48	47.871
544.82	48.563
545.16	46.873
545.50	47.695
545.84	49.369
546.18	49.740
546.52	49.443
546.86	48.356
547.20	48.902
547.54	48.005
547.88	48.479
548.22	47.662
548.56	46.376
548.90	47.153
549.24	47.884
549.58	47.165
549.92	49.836
550.26	47.938
550.60	47.305
550.94	50.339
551.28	49.172
551.62	48.828
551.96	47.568
552.30	47.001
552.64	49.191
552.98	47.680
553.32	46.735
553.66	47.296
554.00	48.520
554.34	49.201
554.68	47.446
555.02	48.880
555.36	47.141
555.69	46.924
556.03	46.561
556.37	46.654
556.71	48.631
557.05	46.330
557.39	47.933
557.73	48.383
558.07	48.021
558.41	46.607
558.75	47.880
559.08	48.821
559.42	49.893
559.76	49.038
560.10	47.419
560.44	47.976
560.78	47.059
561.12	46.535
561.45	46.621
561.79	45.880
562.13	46.052
562.47	47.696
562.81	48.081
563.15	46.736
563.48	44.969
563.82	47.598
564.16	45.958
564.50	44.605
564.84	46.748
565.17	45.157
565.51	47.229
565.85	46.021
566.19	46.190
566.52	45.788
566.86	46.410
567.20	47.247
567.54	44.924
567.88	45.644
568.21	43.535
568.55	43.580
568.89	43.385
569.23	42.925
569.56	43.011
569.90	41.286
570.24	41.431
570.57	41.272
570.91	40.468
571.25	40.184
571.59	39.143
571.92	38.644
572.26	37.951
572.60	39.156
572.93	39.132
573.27	38.914
573.61	39.172
573.95	38.845
574.28	38.778
574.62	38.449
574.96	37.952
575.29	37.514
575.63	37.644
575.97	37.853
576.30	38.193
576.64	38.093
576.98	37.706
577.31	37.895
577.65	37.984
577.98	37.368
578.32	37.188
578.66	37.422
578.99	37.550
579.33	37.303
579.67	37.480
580.00	37.193
580.34	36.969
580.67	37.136
581.01	37.393
581.35	37.050
581.68	36.040
582.02	36.312
582.35	36.557
582.69	37.280
583.02	36.801
583.36	37.482
583.70	37.330
584.03	38.205
584.37	38.188
584.70	37.696
585.04	37.449
585.37	36.970
585.71	37.596
586.04	36.943
586.38	37.539
586.72	37.426
587.05	37.391
587.39	36.612
587.72	37.741
588.06	36.777
588.39	37.845
588.73	37.265
589.06	38.167
589.40	38.685
589.73	38.053
590.07	39.808
590.40	39.094
590.73	39.846
591.07	39.317
591.40	38.683
591.74	39.935
592.07	38.935
592.41	38.689
592.74	38.008
593.08	37.598
593.41	37.582
593.75	36.955
594.08	37.666
594.41	37.406
594.75	37.774
595.08	37.826
595.42	37.327
595.75	37.315
596.09	37.713
596.42	38.092
596.75	38.862
597.09	38.795
597.42	38.898
597.75	38.053
598.09	38.162
598.42	38.678
598.76	38.049
599.09	38.102
599.42	37.232
599.76	37.585
600.09	36.780
600.42	36.464
600.76	36.710
601.09	37.314
601.42	37.416
601.76	37.379
602.09	38.079
602.42	37.375
602.76	37.761
603.09	37.368
603.42	37.248
603.76	36.913
604.09	37.315
604.42	36.911
604.76	37.614
605.09	36.939
605.42	37.749
605.75	37.544
606.09	37.299
606.42	37.016
606.75	37.388
607.09	37.071
607.42	37.164
607.75	37.619
608.08	36.718
608.42	37.584
608.75	37.826
609.08	37.835
609.41	38.455
609.75	38.507
610.08	37.815
610.41	38.076
610.74	37.706
611.07	38.381
611.41	38.369
611.74	38.910
612.07	38.536
612.40	38.645
612.73	39.441
613.07	38.773
613.40	39.148
613.73	38.592
614.06	38.150
614.39	39.141
614.72	38.875
615.06	37.389
615.39	38.911
615.72	37.318
616.05	38.925
616.38	37.443
616.71	39.067
617.05	38.880
617.38	38.652
617.71	38.526
618.04	40.157
618.37	38.132
618.70	38.799
619.03	39.866
619.36	40.641
619.69	39.380
620.03	40.965
620.36	40.141
620.69	40.294
621.02	41.848
621.35	41.261
621.68	41.888
622.01	41.845
622.34	41.224
622.67	40.801
623.00	40.504
623.33	41.161
623.66	39.787
623.99	41.164
624.32	40.041
624.65	38.841
624.99	40.703
625.32	40.548
625.65	39.793
625.98	39.121
626.31	41.469
626.64	40.699
626.97	40.321
627.30	41.693
627.63	41.523
627.96	40.767
628.29	42.162
628.62	41.660
628.95	42.642
629.28	44.522
629.61	43.497
629.94	42.956
630.26	43.934
630.59	44.681
630.92	43.767
631.25	43.518
631.58	43.877
631.91	43.197
632.24	43.246
632.57	42.338
632.90	45.342
633.23	45.540
633.56	44.257
633.89	44.802
634.22	44.887
634.55	43.333
634.88	44.907
635.20	45.964
635.53	46.109
635.86	45.749
636.19	46.016
636.52	43.892
636.85	43.366
637.18	43.879
637.51	45.251
637.83	44.622
638.16	47.011
638.49	46.347
638.82	44.366
639.15	44.418
639.48	45.142
639.81	45.055
640.13	45.153
640.46	46.271
640.79	47.724
641.12	45.538
641.45	48.900
641.77	46.896
642.10	44.444
642.43	46.088
642.76	45.597
643.09	47.118
643.41	46.564
643.74	48.489
644.07	48.083
644.40	47.041
644.73	49.399
645.05	47.845
645.38	47.626
645.71	49.924
646.04	48.244
646.36	49.296
646.69	48.640
647.02	49.120
647.35	45.512
647.67	47.326
648.00	49.186
648.33	46.917
648.66	46.970
648.98	44.783
649.31	43.050
649.64	43.015
649.96	45.804
650.29	45.571
650.62	47.570
650.94	46.837
651.27	48.485
651.60	46.009
651.92	46.237
652.25	48.346
652.58	44.255
652.90	46.108
653.23	44.756
653.56	44.807
653.88	46.990
654.21	44.575
654.54	45.681
654.86	45.428
655.19	44.723
655.52	36.286
655.84	28.075
656.17	32.233
656.49	46.419
656.82	53.662
657.15	43.641
657.47	32.983
657.80	24.172
658.13	18.992
658.45	25.762
658.78	30.562
659.10	31.441
659.43	32.534
659.75	34.224
660.08	36.341
660.41	40.109
660.73	44.793
661.06	46.697
661.38	47.019
661.71	46.942
662.03	46.768
662.36	46.095
662.68	47.858
663.01	48.288
663.33	46.226
663.66	50.888
663.98	51.190
664.31	47.761
664.63	48.276
664.96	49.719
665.28	46.516
665.61	46.604
665.93	50.377
666.26	46.355
666.58	49.358
666.91	48.069
667.23	47.590
667.56	49.281
667.88	49.793
668.21	49.385
668.53	46.976
668.86	47.896
669.18	46.436
669.50	48.347
669.83	48.255
670.15	51.975
670.48	46.875
670.80	48.008
671.13	46.614
671.45	47.896
671.77	47.866
672.10	47.397
672.42	42.599
672.75	44.146
673.07	44.515
673.39	45.208
673.72	43.599
674.04	47.312
674.37	45.372
674.69	44.610
675.01	45.709
675.34	45.349
675.66	45.508
675.98	45.562
676.31	47.600
676.63	45.129
676.95	48.413
677.28	45.030
677.60	46.278
677.92	44.841
678.25	47.287
678.57	45.065
678.89	45.931
679.22	43.934
679.54	43.238
679.86	43.805
680.18	42.707
680.51	42.786
680.83	41.892
681.15	44.021
681.48	46.701
681.80	41.506
682.12	42.561
682.44	42.523
682.77	43.060
683.09	46.019
683.41	45.102
683.73	45.472
684.06	44.048
684.38	44.767
684.70	44.604
685.02	42.014
685.34	42.430
685.67	44.051
685.99	43.678
686.31	39.908
686.63	40.325
686.96	43.301
687.28	41.275
687.60	41.297
687.92	40.201
688.24	43.276
688.56	43.950
688.89	41.109
689.21	41.426
689.53	45.257
689.85	45.732
690.17	43.689
690.49	45.161
690.82	45.798
691.14	45.657
691.46	47.023
691.78	47.563
692.10	43.130
692.42	41.198
692.74	43.605
693.06	43.023
693.39	44.071
693.71	43.615
694.03	43.590
694.35	43.775
694.67	44.603
694.99	46.341
695.31	44.369
695.63	45.475
695.95	44.344
696.27	46.239
696.59	45.107
696.91	47.595
697.23	47.059
697.56	40.249
697.88	41.317
698.20	42.453
698.52	42.023
698.84	41.889
699.16	42.431
699.48	43.432
699.80	46.623
700.12	46.420
700.44	46.729
700.76	45.346
701.08	45.431
701.40	45.714
701.72	50.535
702.04	48.238
702.36	48.118
702.68	48.404
703.00	44.612
703.32	48.635
703.64	48.111
703.96	47.135
704.28	48.148
704.60	48.451
704.91	47.059
705.23	48.580
705.55	49.258
705.87	48.571
706.19	53.605
706.51	52.038
706.83	49.853
707.15	48.930
707.47	44.552
707.79	44.368
708.11	41.497
708.43	42.697
708.74	45.023
709.06	43.953
709.38	44.169
709.70	48.229
710.02	41.848
710.34	45.304
710.66	49.167
710.98	44.809
711.29	46.518
711.61	45.125
711.93	48.328
712.25	46.084
712.57	49.196
712.89	45.758
713.20	51.757
713.52	46.106
713.84	46.224
714.16	45.217
714.48	40.922
714.80	46.070
715.11	43.617
715.43	44.972
715.75	46.761
716.07	46.821
716.39	45.714
716.70	48.910
717.02	51.515
717.34	52.518
717.66	55.208
717.97	55.682
718.29	49.296
718.61	45.946
718.93	50.519
719.24	51.007
719.56	48.621
719.88	46.497
720.20	48.065
720.51	44.118
720.83	46.154
721.15	52.041
721.46	47.603
721.78	50.174
722.10	47.569
722.42	47.492
722.73	50.181
723.05	44.211
723.37	45.936
723.68	50.000
724.00	48.485
724.32	51.711
724.63	46.923
724.95	53.333
725.27	50.558
725.58	46.691
725.90	42.254
726.22	47.260
726.53	45.819
726.85	44.625
727.16	47.651
727.48	43.189
727.80	51.079
728.11	50.714
728.43	46.014
728.74	44.056
729.06	44.444
729.38	45.965
729.69	49.333
730.01	50.658
730.32	47.315
730.64	48.837
730.96	43.243
731.27	38.838
731.59	42.241
731.90	43.733
732.22	42.571
732.53	40.171
732.85	42.398
733.16	43.373
733.48	42.633
733.80	42.029
734.11	43.558
734.43	40.936
734.74	40.751
735.06	41.534
735.37	39.948
735.69	38.551
736.00	43.731
736.32	39.697
736.63	40.379
736.95	42.857
737.26	42.988
737.58	42.025
737.89	43.675
738.21	45.364
738.52	42.475
738.83	49.451
739.15	42.160
739.46	44.483
739.78	46.259
740.09	44.606
740.41	40.798
740.72	42.540
741.04	48.252
741.35	49.609
741.66	44.269
741.98	50.215
742.29	55.093
742.61	48.230
742.92	45.763
743.23	46.400
743.55	44.906
743.86	49.020
744.18	44.492
744.49	49.174
744.80	51.152
745.12	50.893
745.43	47.664
745.74	53.778
746.06	47.807
746.37	42.326
746.68	58.850
747.00	48.430
747.31	47.479
747.62	44.672
747.94	50.215
748.25	49.027
748.56	52.119
748.88	48.661
749.19	50.698
749.50	47.489
749.82	46.914
750.13	48.221
750.44	42.000
750.75	47.651
751.07	43.092
751.38	41.914
751.69	43.098
752.01	42.308
752.32	43.189
752.63	43.289
752.94	46.853
753.26	47.266
753.57	43.969
753.88	44.195
754.19	41.516
754.51	44.518
754.82	40.268
755.13	43.581
755.44	45.926
755.75	47.079
756.07	40.753
756.38	39.216
756.69	39.063
757.00	42.136
757.31	38.873
757.63	42.700
757.94	41.489
758.25	36.957
758.56	37.529
758.87	40.351
759.18	42.733
759.50	41.641
759.81	44.510
760.12	38.202
760.43	40.896
760.74	36.709
761.05	39.788
761.36	36.198
761.67	42.588
761.99	40.563
762.30	38.907
762.61	45.139
762.92	43.561
763.23	44.151
763.54	43.462
763.85	46.693
764.16	41.667
764.47	39.865
764.78	41.042
765.10	37.805
765.41	32.955
765.72	35.635
766.03	39.577
766.34	35.540
766.65	41.825
766.96	46.154
767.27	44.393
767.58	51.485
767.89	56.906
768.20	60.366
768.51	46.429
768.82	42.544
769.13	43.922
769.44	45.489
769.75	43.071
770.06	43.697
770.37	40.789
770.68	45.778
770.99	47.458
771.30	45.188
771.61	41.923
771.92	43.511
772.23	43.145
772.54	50.222
772.85	49.505
773.16	55.978
773.47	53.333
773.78	47.525
774.09	51.136
774.39	60.606
774.70	49.412
775.01	51.974
775.32	53.416
775.63	58.219
775.94	59.259
776.25	55.172
776.56	62.595
776.87	64.122
777.18	52.273
777.48	62.205
777.79	58.462
778.10	46.212
778.41	58.955
778.72	61.654
779.03	46.154
779.34	60.135
779.65	49.689
779.95	53.416
780.26	54.167
780.57	57.823
780.88	59.574
781.19	55.000
781.50	50.888
781.80	53.552
782.11	44.974
782.42	42.529
782.73	52.542
783.04	48.387
783.34	56.589
783.65	57.823
783.96	52.903
784.27	50.993
784.57	45.395
784.88	57.971
785.19	57.500
785.50	56.034
785.81	62.791
786.11	62.963
786.42	62.205
786.73	61.261
787.04	56.604
787.34	53.659
787.65	62.879
787.96	59.091
788.26	74.016
788.57	53.285
788.88	56.338
789.19	54.962
789.49	56.081
789.80	52.344
790.11	59.504
790.41	62.963
790.72	60.185
791.03	65.385
791.33	73.737
791.64	66.316
791.95	64.211
792.25	57.292
792.56	56.000
792.87	65.854
793.17	68.182
793.48	83.529
793.79	66.667
794.09	71.591
794.40	63.793
794.70	54.762
795.01	52.308
795.32	48.092
795.62	52.991
795.93	57.143
796.23	58.537
796.54	70.408
796.85	61.364
797.15	87.013
797.46	82.927
797.76	71.250
798.07	73.333
798.37	73.750
798.68	83.750
798.99	68.293
799.29	77.333
799.60	61.628
799.90	75.000
800.21	78.788
800.51	74.648
800.82	84.483
801.12	78.462
801.43	89.333
801.73	91.379
802.04	70.130
802.34	72.603
802.65	111.765
802.95	82.609
803.26	98.387
803.56	88.333
803.87	82.090
804.17	79.365
804.48	94.340
804.78	77.778
805.09	96.970
805.39	84.127
805.70	96.491
806.00	67.143
806.30	67.188
806.61	76.471
806.91	71.111
807.22	64.130
807.52	55.263
807.83	76.316
808.13	73.913
808.43	98.387
808.74	75.342
809.04	92.857
809.35	80.882
809.65	92.424
809.95	84.314
810.26	94.444
810.56	101.563
810.86	100.000
811.17	100.000
811.47	80.435
811.77	91.379
812.08	62.069
812.38	100.000
812.69	130.952
812.99	77.778
813.29	114.286
813.59	129.032
813.90	70.690
814.20	93.443
814.50	80.000
814.81	84.211
815.11	92.593
815.41	98.214
815.72	85.714
816.02	106.000
816.32	126.829
816.62	93.103
816.93	127.273
817.23	114.634
817.53	103.571
817.84	84.444
818.14	116.667
818.44	104.167
818.74	107.547
819.04	130.769
819.35	106.061
819.65	115.385
819.95	122.222
820.25	106.383
820.56	148.649
820.86	126.316
821.16	93.617
821.46	128.947
821.76	105.455
822.07	73.810
822.37	113.158
822.67	148.837
822.97	89.474
823.27	113.043
823.57	112.500
823.88	105.128
824.18	133.333
824.48	169.565
824.78	116.667
825.08	165.217
825.38	141.379
825.69	158.824
825.99	89.362
826.29	127.778
826.59	145.714
826.89	113.333
827.19	122.857
827.49	158.065
827.79	150.000
828.09	88.095
828.39	113.889
828.70	100.000
829.00	146.429
829.30	231.250
829.60	113.889
829.90	141.935
830.20	127.273
830.50	132.432
830.80	200.000
831.10	138.462
831.40	171.429
831.70	195.833
832.00	113.333
832.30	165.217
832.60	216.667
832.90	142.424
833.20	205.000
833.50	131.579
833.80	141.176
834.10	110.526
834.40	168.421
834.70	110.000
835.00	152.000
835.30	118.919
835.60	140.625
835.90	118.919
836.20	146.154
836.50	190.909
836.80	109.756
837.10	173.913
837.40	315.385
837.70	121.053
838.00	153.333
838.30	166.667
838.60	168.000
838.90	320.000
839.19	175.000
839.49	153.333
839.79	137.931
840.09	150.000
840.39	226.667
840.69	194.737
840.99	133.333
841.29	204.348
841.59	205.000
841.88	212.000
842.18	377.778
842.48	139.286
842.78	137.037
843.08	238.462
843.38	159.091
843.68	285.714
843.97	471.429
844.27	173.913
844.57	1250.000
844.87	250.000
845.17	238.889
845.47	195.238
845.76	195.833
846.06	471.429
846.36	147.059
846.66	223.077
846.96	225.000
847.25	315.385
847.55	168.421
847.85	227.778
848.15	540.000
848.44	327.273
848.74	180.952
849.04	170.833
849.34	188.235
849.63	312.500
849.93	193.750
850.23	1000.000
850.53	462.500
850.82	254.545
851.12	235.294
851.42	170.833
851.71	250.000
852.01	0.000
852.31	200.000
852.61	320.000
852.90	170.833
853.20	400.000
853.50	-2800.000
853.79	164.000
854.09	153.125
854.39	117.241
854.68	162.069
854.98	247.619
855.28	158.065
855.57	171.429
855.87	194.444
856.17	159.259
856.46	215.789
856.76	125.806
857.05	176.471
857.35	363.636
857.65	292.308
857.94	165.000
858.24	488.889
858.53	328.571
858.83	728.571
859.13	182.609
859.42	333.333
859.72	350.000
860.01	316.667
860.31	825.000
860.60	400.000
860.90	537.500
861.20	346.154
861.49	471.429
861.79	-2700.000
862.08	614.286
862.38	366.667
862.67	278.571
862.97	340.000
863.26	146.667
863.56	750.000
863.85	292.308
864.15	264.706
864.44	166.667
864.74	358.333
865.03	363.636
865.33	200.000
865.62	246.667
865.92	600.000
866.21	850.000
866.51	680.000
866.80	266.667
867.10	1066.667
867.39	3600.000
867.69	700.000
867.98	925.000
868.27	185.714
868.57	266.667
868.86	875.000
869.16	185.714
869.45	4200.000
869.75	-483.333
870.04	775.000
870.33	600.000
870.63	350.000
870.92	247.059
871.22	925.000
871.51	471.429
871.80	358.333
872.10	338.462
>>>>>End Processed Spectral Data<<<<<
