SpectraSuite Data File
++++++++++++++++++++++++++++++++++++
Date: Tue May 12 17:04:15 PDT 2015
User: schluterlab
Dark Spectrum Present: Yes
Reference Spectrum Present: Yes
Number of Sampled Component Spectra: 1
Spectrometers: USB2E3373
Integration Time (usec): 3000 (USB2E3373)
Spectra Averaged: 3 (USB2E3373)
Boxcar Smoothing: 0 (USB2E3373)
Correct for Electrical Dark: No (USB2E3373)
Strobe/Lamp Enabled: No (USB2E3373)
Correct for Detector Non-linearity: No (USB2E3373)
Correct for Stray Light: No (USB2E3373)
Number of Pixels in Processed Spectrum: 2048
>>>>>Begin Processed Spectral Data<<<<<
178.53	0.000
178.91	-233.333
179.29	-550.000
179.67	-3500.000
180.04	-193.333
180.42	650.000
180.80	1600.000
181.18	0.000
181.56	-250.000
181.94	0.000
182.31	1400.000
182.69	-3500.000
183.07	542.857
183.45	-3800.000
183.83	-1600.000
184.20	470.000
184.58	642.857
184.96	-230.769
185.34	-200.000
185.72	1350.000
186.09	-725.000
186.47	-3000.000
186.85	1133.333
187.23	640.000
187.61	1800.000
187.98	537.500
188.36	292.857
188.74	391.667
189.12	400.000
189.49	850.000
189.87	0.000
190.25	562.500
190.63	3500.000
191.00	-266.667
191.38	-4200.000
191.76	-900.000
192.14	637.500
192.51	-3100.000
192.89	1900.000
193.27	1100.000
193.65	-1100.000
194.02	-560.000
194.40	600.000
194.78	-214.286
195.15	253.333
195.53	-2600.000
195.91	-680.000
196.29	3900.000
196.66	256.250
197.04	875.000
197.42	-1400.000
197.79	775.000
198.17	325.000
198.55	0.000
198.92	428.571
199.30	1233.333
199.68	2200.000
200.05	683.333
200.43	-450.000
200.81	250.000
201.18	3500.000
201.56	350.000
201.94	-775.000
202.31	-312.500
202.69	-560.000
203.07	3200.000
203.44	-583.333
203.82	375.000
204.19	560.000
204.57	-1300.000
204.95	-775.000
205.32	-720.000
205.70	533.333
206.08	850.000
206.45	-866.667
206.83	477.778
207.20	205.263
207.58	325.000
207.96	700.000
208.33	0.000
208.71	557.143
209.08	600.000
209.46	-3300.000
209.84	-775.000
210.21	740.000
210.59	-620.000
210.96	300.000
211.34	-975.000
211.71	390.909
212.09	1075.000
212.46	2000.000
212.84	-416.667
213.22	411.111
213.59	-3500.000
213.97	340.000
214.34	850.000
214.72	1233.333
215.09	1200.000
215.47	-3400.000
215.84	-350.000
216.22	-362.500
216.59	0.000
216.97	0.000
217.34	1250.000
217.72	-2250.000
218.09	1266.667
218.47	587.500
218.84	725.000
219.22	1300.000
219.59	800.000
219.97	614.286
220.34	355.556
220.72	1400.000
221.09	3200.000
221.47	275.000
221.84	900.000
222.22	380.000
222.59	300.000
222.97	257.143
223.34	256.250
223.72	-1650.000
224.09	1300.000
224.46	292.308
224.84	-875.000
225.21	500.000
225.59	246.667
225.96	1266.667
226.34	-600.000
226.71	-825.000
227.08	-500.000
227.46	0.000
227.83	-550.000
228.21	-1750.000
228.58	350.000
228.95	1050.000
229.33	466.667
229.70	1125.000
230.08	346.154
230.45	3100.000
230.82	-950.000
231.20	-866.667
231.57	-1200.000
231.95	540.000
232.32	383.333
232.69	700.000
233.07	308.333
233.44	-1950.000
233.81	280.000
234.19	185.185
234.56	256.250
234.93	188.235
235.31	205.000
235.68	293.750
236.05	160.714
236.43	185.185
236.80	285.714
237.17	179.310
237.55	162.500
237.92	132.500
238.29	154.545
238.67	165.625
239.04	139.024
239.41	108.333
239.79	130.000
240.16	116.667
240.53	86.885
240.91	84.058
241.28	91.525
241.65	96.970
242.02	107.042
242.40	107.143
242.77	82.418
243.14	91.139
243.51	91.919
243.89	73.832
244.26	71.028
244.63	84.158
245.00	85.321
245.38	77.966
245.75	71.212
246.12	85.926
246.49	75.177
246.87	78.689
247.24	73.333
247.61	77.500
247.98	83.673
248.36	64.848
248.73	66.837
249.10	66.667
249.47	64.500
249.84	65.174
250.22	72.432
250.59	61.000
250.96	62.025
251.33	70.698
251.70	65.625
252.08	64.706
252.45	64.542
252.82	61.977
253.19	60.870
253.56	61.154
253.94	60.507
254.31	61.240
254.68	59.582
255.05	60.345
255.42	59.124
255.79	59.935
256.16	65.085
256.54	63.312
256.91	60.784
257.28	61.204
257.65	56.426
258.02	58.702
258.39	58.166
258.76	58.261
259.14	56.857
259.51	57.143
259.88	61.702
260.25	54.121
260.62	56.986
260.99	57.300
261.36	60.724
261.73	58.245
262.10	56.806
262.47	54.000
262.85	59.200
263.22	57.326
263.59	56.777
263.96	54.887
264.33	56.296
264.70	58.231
265.07	55.366
265.44	55.275
265.81	56.604
266.18	55.835
266.55	60.284
266.92	56.376
267.29	57.895
267.66	54.709
268.03	56.951
268.40	51.586
268.77	55.286
269.14	55.098
269.51	55.679
269.88	56.327
270.25	51.836
270.62	55.150
270.99	54.767
271.36	52.033
271.73	55.346
272.10	53.535
272.47	51.389
272.84	51.896
273.21	51.653
273.58	54.858
273.95	52.977
274.32	53.891
274.69	54.921
275.06	54.645
275.43	50.766
275.80	54.340
276.17	53.676
276.54	55.701
276.91	52.985
277.28	52.737
277.65	52.583
278.02	52.574
278.39	52.518
278.76	52.414
279.13	51.068
279.50	52.545
279.87	51.210
280.23	50.276
280.60	55.292
280.97	52.931
281.34	48.680
281.71	52.870
282.08	53.162
282.45	50.169
282.82	52.341
283.19	51.828
283.56	52.727
283.92	51.629
284.29	51.414
284.66	48.403
285.03	48.922
285.40	50.909
285.77	48.920
286.14	50.774
286.51	52.147
286.87	47.943
287.24	46.246
287.61	47.872
287.98	49.701
288.35	47.111
288.72	48.407
289.08	48.198
289.45	48.476
289.82	46.562
290.19	48.316
290.56	47.598
290.93	46.763
291.29	46.409
291.66	45.621
292.03	45.863
292.40	45.528
292.77	43.593
293.13	44.508
293.50	43.860
293.87	43.225
294.24	44.755
294.60	44.684
294.97	46.573
295.34	44.622
295.71	43.364
296.08	43.067
296.44	43.456
296.81	42.060
297.18	40.558
297.55	42.488
297.91	40.764
298.28	41.184
298.65	40.000
299.02	40.531
299.38	41.247
299.75	40.122
300.12	41.170
300.48	41.920
300.85	39.213
301.22	40.581
301.59	40.802
301.95	40.140
302.32	40.047
302.69	38.801
303.05	40.516
303.42	39.910
303.79	40.412
304.15	40.814
304.52	39.323
304.89	38.806
305.25	40.267
305.62	41.365
305.99	40.761
306.35	39.684
306.72	41.415
307.09	39.337
307.45	41.394
307.82	40.226
308.19	40.928
308.55	39.300
308.92	40.726
309.29	41.321
309.65	41.031
310.02	41.785
310.38	41.276
310.75	39.537
311.12	39.176
311.48	41.795
311.85	41.985
312.22	41.738
312.58	42.954
312.95	41.456
313.31	41.292
313.68	41.932
314.05	43.132
314.41	42.924
314.78	42.330
315.14	44.265
315.51	43.141
315.87	42.427
316.24	43.604
316.61	43.062
316.97	43.119
317.34	44.924
317.70	45.654
318.07	45.552
318.43	44.112
318.80	45.184
319.16	45.280
319.53	44.159
319.89	46.595
320.26	47.300
320.62	46.245
320.99	46.520
321.35	47.032
321.72	47.533
322.08	46.630
322.45	47.775
322.81	48.124
323.18	49.112
323.54	48.606
323.91	48.957
324.27	48.364
324.64	47.318
325.00	49.310
325.37	48.482
325.73	47.723
326.10	49.379
326.46	49.711
326.83	49.520
327.19	50.843
327.56	49.281
327.92	50.410
328.29	50.082
328.65	51.969
329.01	51.069
329.38	51.100
329.74	49.018
330.11	51.173
330.47	52.174
330.84	49.612
331.20	51.100
331.56	51.468
331.93	52.524
332.29	50.765
332.66	51.616
333.02	50.086
333.38	51.396
333.75	51.793
334.11	50.252
334.48	51.624
334.84	50.929
335.20	50.385
335.57	51.301
335.93	52.229
336.29	50.083
336.66	51.372
337.02	49.615
337.38	51.075
337.75	51.774
338.11	51.224
338.47	49.958
338.84	49.111
339.20	50.823
339.56	49.958
339.93	49.498
340.29	48.739
340.65	50.964
341.02	50.845
341.38	51.232
341.74	50.083
342.11	49.583
342.47	50.943
342.83	50.123
343.20	49.879
343.56	48.213
343.92	50.454
344.28	49.920
344.65	52.078
345.01	48.730
345.37	50.240
345.73	50.079
346.10	51.394
346.46	49.761
346.82	48.611
347.19	50.155
347.55	48.712
347.91	49.396
348.27	49.032
348.63	49.842
349.00	49.886
349.36	51.206
349.72	52.599
350.08	50.078
350.45	49.657
350.81	48.777
351.17	49.076
351.53	50.346
351.89	49.417
352.26	49.358
352.62	49.020
352.98	47.699
353.34	49.230
353.70	49.465
354.07	50.692
354.43	50.691
354.79	49.279
355.15	50.689
355.51	49.622
355.87	49.849
356.24	50.346
356.60	48.935
356.96	49.886
357.32	48.757
357.68	50.073
358.04	49.848
358.40	49.400
358.77	51.315
359.13	48.423
359.49	49.963
359.85	49.144
360.21	48.217
360.57	48.905
360.93	51.515
361.29	49.351
361.66	49.888
362.02	49.006
362.38	50.794
362.74	50.106
363.10	50.982
363.46	49.378
363.82	49.369
364.18	50.213
364.54	51.144
364.90	50.602
365.26	50.035
365.62	49.240
365.98	48.933
366.35	48.897
366.71	50.798
367.07	50.648
367.43	49.966
367.79	49.069
368.15	49.661
368.51	49.552
368.87	50.136
369.23	50.173
369.59	49.697
369.95	51.259
370.31	50.308
370.67	49.827
371.03	49.440
371.39	50.346
371.75	50.733
372.11	50.578
372.47	51.027
372.83	50.442
373.19	52.090
373.55	50.241
373.91	49.793
374.27	50.265
374.63	49.898
374.99	50.000
375.35	51.546
375.71	49.340
376.07	51.127
376.42	48.529
376.78	50.803
377.14	50.262
377.50	50.375
377.86	49.520
378.22	50.396
378.58	51.755
378.94	51.056
379.30	51.061
379.66	50.692
380.02	51.437
380.38	50.527
380.74	50.923
381.09	50.935
381.45	49.884
381.81	50.414
382.17	49.878
382.53	50.450
382.89	50.680
383.25	51.332
383.61	50.490
383.97	50.150
384.32	50.452
384.68	51.515
385.04	50.352
385.40	50.119
385.76	50.322
386.12	51.020
386.48	51.489
386.83	51.895
387.19	50.059
387.55	49.941
387.91	51.155
388.27	50.327
388.62	51.643
388.98	50.496
389.34	49.613
389.70	48.998
390.06	51.159
390.42	50.216
390.77	50.123
391.13	50.513
391.49	49.728
391.85	50.585
392.20	50.119
392.56	49.701
392.92	50.140
393.28	51.065
393.64	49.541
393.99	50.622
394.35	50.383
394.71	49.337
395.07	49.939
395.42	49.180
395.78	50.586
396.14	50.181
396.50	50.241
396.85	49.268
397.21	50.181
397.57	50.747
397.92	48.931
398.28	50.414
398.64	50.320
399.00	48.691
399.35	49.705
399.71	49.669
400.07	49.144
400.42	48.716
400.78	49.795
401.14	48.503
401.49	49.021
401.85	50.579
402.21	49.385
402.57	48.773
402.92	49.030
403.28	48.628
403.63	49.088
403.99	47.708
404.35	48.945
404.70	50.266
405.06	46.828
405.42	48.654
405.77	48.071
406.13	47.939
406.49	47.300
406.84	46.757
407.20	49.429
407.55	48.862
407.91	49.521
408.27	48.332
408.62	49.261
408.98	47.723
409.34	48.334
409.69	48.787
410.05	48.062
410.40	47.762
410.76	47.052
411.11	47.216
411.47	48.272
411.83	46.339
412.18	47.886
412.54	47.087
412.89	47.257
413.25	47.092
413.60	47.839
413.96	47.038
414.31	47.875
414.67	47.362
415.03	47.254
415.38	46.751
415.74	48.010
416.09	48.032
416.45	46.736
416.80	48.493
417.16	46.085
417.51	47.006
417.87	46.308
418.22	45.990
418.58	47.197
418.93	45.628
419.29	45.964
419.64	46.941
420.00	47.673
420.35	47.967
420.71	46.733
421.06	46.204
421.42	47.381
421.77	46.752
422.12	46.968
422.48	45.660
422.83	46.596
423.19	45.680
423.54	45.584
423.90	46.546
424.25	47.771
424.61	46.431
424.96	45.567
425.31	46.689
425.67	46.801
426.02	46.887
426.38	45.624
426.73	46.559
427.09	46.323
427.44	46.708
427.79	46.312
428.15	47.319
428.50	45.886
428.85	46.091
429.21	45.975
429.56	46.211
429.92	45.947
430.27	45.235
430.62	44.934
430.98	46.457
431.33	45.514
431.68	45.235
432.04	45.784
432.39	46.597
432.74	46.019
433.10	46.678
433.45	45.836
433.80	46.884
434.16	45.927
434.51	45.975
434.86	45.563
435.22	45.111
435.57	45.762
435.92	47.126
436.28	46.371
436.63	46.083
436.98	46.791
437.34	46.290
437.69	45.353
438.04	45.914
438.39	45.651
438.75	45.824
439.10	45.224
439.45	45.732
439.81	47.253
440.16	46.615
440.51	44.820
440.86	46.610
441.22	45.779
441.57	45.879
441.92	44.423
442.27	44.691
442.63	46.138
442.98	45.366
443.33	46.385
443.68	46.076
444.03	44.958
444.39	45.810
444.74	45.549
445.09	46.024
445.44	45.643
445.79	44.493
446.15	45.263
446.50	45.781
446.85	46.016
447.20	45.274
447.55	45.731
447.91	46.457
448.26	46.060
448.61	45.716
448.96	46.242
449.31	45.545
449.66	45.792
450.02	45.759
450.37	45.752
450.72	46.446
451.07	45.957
451.42	45.880
451.77	45.017
452.12	44.923
452.47	46.416
452.83	45.915
453.18	46.066
453.53	45.352
453.88	46.514
454.23	45.962
454.58	45.163
454.93	45.494
455.28	46.818
455.63	45.804
455.98	45.347
456.34	45.653
456.69	46.585
457.04	45.465
457.39	44.800
457.74	45.833
458.09	45.424
458.44	44.688
458.79	46.154
459.14	45.390
459.49	46.036
459.84	45.707
460.19	45.480
460.54	45.185
460.89	45.469
461.24	44.502
461.59	45.011
461.94	43.676
462.29	44.908
462.64	44.410
462.99	45.298
463.34	45.690
463.69	44.646
464.04	45.826
464.39	44.705
464.74	44.490
465.09	44.980
465.44	44.668
465.79	44.420
466.14	43.296
466.49	44.221
466.84	43.645
467.19	43.351
467.54	42.943
467.89	45.012
468.24	44.123
468.59	43.869
468.94	45.652
469.29	45.266
469.64	43.473
469.99	43.380
470.34	43.327
470.68	43.931
471.03	44.363
471.38	44.106
471.73	43.697
472.08	44.618
472.43	43.700
472.78	44.366
473.13	42.929
473.48	44.010
473.83	43.816
474.17	43.283
474.52	43.187
474.87	43.036
475.22	43.861
475.57	43.809
475.92	43.383
476.27	42.982
476.61	42.949
476.96	43.051
477.31	42.931
477.66	43.317
478.01	42.651
478.36	42.945
478.70	41.340
479.05	42.730
479.40	43.006
479.75	42.502
480.10	42.788
480.45	42.624
480.79	42.857
481.14	43.176
481.49	41.537
481.84	42.172
482.19	43.188
482.53	42.776
482.88	42.697
483.23	41.543
483.58	42.325
483.92	43.144
484.27	42.166
484.62	42.572
484.97	41.761
485.31	42.065
485.66	41.856
486.01	41.592
486.36	41.401
486.70	41.032
487.05	40.995
487.40	40.598
487.75	40.897
488.09	41.080
488.44	41.300
488.79	41.166
489.13	41.881
489.48	41.350
489.83	40.659
490.17	40.751
490.52	41.258
490.87	41.810
491.22	41.711
491.56	41.458
491.91	40.995
492.26	40.668
492.60	41.777
492.95	41.006
493.30	40.582
493.64	41.554
493.99	41.234
494.34	41.103
494.68	41.124
495.03	40.683
495.37	41.603
495.72	41.212
496.07	40.656
496.41	40.704
496.76	40.144
497.11	41.003
497.45	41.122
497.80	40.732
498.14	39.898
498.49	40.483
498.84	42.243
499.18	39.945
499.53	41.295
499.87	41.375
500.22	40.488
500.56	41.086
500.91	41.048
501.26	40.606
501.60	40.209
501.95	39.830
502.29	40.844
502.64	39.215
502.98	39.351
503.33	40.713
503.67	40.353
504.02	39.364
504.36	40.226
504.71	40.587
505.06	40.685
505.40	41.039
505.75	40.131
506.09	40.084
506.44	39.709
506.78	40.170
507.13	40.620
507.47	40.320
507.82	40.584
508.16	40.176
508.51	40.483
508.85	39.601
509.19	40.039
509.54	40.234
509.88	39.980
510.23	40.784
510.57	39.093
510.92	40.559
511.26	40.361
511.61	39.537
511.95	40.020
512.30	39.800
512.64	39.408
512.98	39.826
513.33	39.191
513.67	40.290
514.02	38.909
514.36	39.875
514.70	40.320
515.05	39.052
515.39	39.857
515.74	40.295
516.08	39.706
516.42	41.366
516.77	39.520
517.11	39.253
517.46	39.170
517.80	38.394
518.14	40.225
518.49	39.305
518.83	38.901
519.17	39.989
519.52	39.323
519.86	39.292
520.20	39.781
520.55	39.683
520.89	38.046
521.23	39.311
521.58	38.898
521.92	38.542
522.26	38.211
522.61	39.929
522.95	38.559
523.29	39.181
523.64	39.075
523.98	39.143
524.32	39.100
524.66	38.899
525.01	39.586
525.35	38.656
525.69	39.314
526.04	39.679
526.38	39.317
526.72	39.260
527.06	38.557
527.41	39.359
527.75	39.501
528.09	38.772
528.43	39.902
528.78	38.819
529.12	39.735
529.46	38.749
529.80	38.435
530.15	39.599
530.49	38.087
530.83	38.879
531.17	39.360
531.51	39.485
531.86	38.104
532.20	38.381
532.54	39.611
532.88	37.664
533.22	37.965
533.57	39.658
533.91	37.704
534.25	37.623
534.59	38.772
534.93	38.282
535.27	36.710
535.62	38.215
535.96	38.475
536.30	38.696
536.64	38.385
536.98	38.200
537.32	38.312
537.66	37.054
538.01	36.966
538.35	38.989
538.69	37.621
539.03	37.998
539.37	37.803
539.71	38.457
540.05	36.800
540.39	38.113
540.73	37.911
541.07	38.269
541.42	38.433
541.76	37.361
542.10	36.868
542.44	37.843
542.78	37.697
543.12	37.607
543.46	37.281
543.80	38.722
544.14	38.204
544.48	36.740
544.82	37.187
545.16	37.158
545.50	37.124
545.84	37.311
546.18	38.362
546.52	38.230
546.86	37.782
547.20	36.757
547.54	36.985
547.88	37.591
548.22	38.251
548.56	37.124
548.90	36.121
549.24	37.208
549.58	36.340
549.92	38.638
550.26	36.849
550.60	37.192
550.94	37.992
551.28	37.172
551.62	37.931
551.96	37.770
552.30	37.310
552.64	37.929
552.98	35.116
553.32	36.556
553.66	36.743
554.00	37.259
554.34	39.148
554.68	37.164
555.02	37.475
555.36	36.436
555.69	37.238
556.03	36.561
556.37	36.584
556.71	37.549
557.05	35.256
557.39	36.733
557.73	37.264
558.07	36.888
558.41	36.326
558.75	36.799
559.08	38.242
559.42	37.938
559.76	37.562
560.10	37.371
560.44	36.231
560.78	37.084
561.12	36.300
561.45	36.671
561.79	36.454
562.13	36.071
562.47	36.600
562.81	36.370
563.15	36.652
563.48	36.335
563.82	37.305
564.16	37.313
564.50	36.347
564.84	36.292
565.17	36.364
565.51	38.424
565.85	37.631
566.19	36.250
566.52	36.041
566.86	37.245
567.20	37.022
567.54	36.845
567.88	36.881
568.21	35.447
568.55	36.138
568.89	36.907
569.23	36.238
569.56	36.621
569.90	35.717
570.24	37.138
570.57	36.145
570.91	35.694
571.25	35.943
571.59	34.941
571.92	35.576
572.26	34.825
572.60	35.435
572.93	35.854
573.27	35.612
573.61	35.355
573.95	35.782
574.28	35.628
574.62	35.282
574.96	34.946
575.29	35.182
575.63	35.053
575.97	34.348
576.30	34.953
576.64	35.150
576.98	35.315
577.31	35.745
577.65	35.673
577.98	35.463
578.32	35.423
578.66	34.895
578.99	34.991
579.33	35.363
579.67	35.080
580.00	35.221
580.34	35.248
580.67	34.676
581.01	35.133
581.35	35.619
581.68	34.756
582.02	35.228
582.35	35.001
582.69	35.434
583.02	35.045
583.36	35.457
583.70	35.209
584.03	35.222
584.37	35.159
584.70	35.108
585.04	34.808
585.37	34.874
585.71	35.955
586.04	34.750
586.38	34.522
586.72	35.238
587.05	34.792
587.39	35.348
587.72	35.033
588.06	34.989
588.39	34.928
588.73	34.732
589.06	35.454
589.40	35.055
589.73	34.710
590.07	35.621
590.40	35.714
590.73	35.953
591.07	36.053
591.40	35.050
591.74	35.268
592.07	34.567
592.41	35.132
592.74	34.676
593.08	35.026
593.41	34.321
593.75	34.348
594.08	34.801
594.41	34.734
594.75	34.521
595.08	35.425
595.42	34.365
595.75	35.209
596.09	34.967
596.42	34.924
596.75	35.737
597.09	35.493
597.42	34.653
597.75	35.091
598.09	34.674
598.42	34.353
598.76	34.426
599.09	34.719
599.42	34.810
599.76	34.701
600.09	34.576
600.42	34.012
600.76	34.670
601.09	35.071
601.42	34.460
601.76	34.694
602.09	34.621
602.42	33.678
602.76	34.573
603.09	34.842
603.42	34.606
603.76	34.309
604.09	34.709
604.42	33.974
604.76	34.611
605.09	34.408
605.42	34.742
605.75	34.544
606.09	34.239
606.42	33.935
606.75	35.095
607.09	33.715
607.42	34.512
607.75	34.713
608.08	34.240
608.42	34.312
608.75	33.847
609.08	33.524
609.41	34.409
609.75	34.295
610.08	34.982
610.41	33.685
610.74	34.416
611.07	34.834
611.41	34.013
611.74	34.417
612.07	34.441
612.40	35.380
612.73	34.448
613.07	34.161
613.40	34.336
613.73	34.998
614.06	34.550
614.39	33.889
614.72	33.400
615.06	33.630
615.39	34.356
615.72	33.156
616.05	34.756
616.38	33.993
616.71	34.292
617.05	33.992
617.38	33.427
617.71	35.264
618.04	33.539
618.37	34.742
618.70	33.661
619.03	34.493
619.36	34.359
619.69	33.377
620.03	34.964
620.36	35.260
620.69	35.632
621.02	34.579
621.35	34.169
621.68	34.218
622.01	35.572
622.34	35.106
622.67	34.410
623.00	34.105
623.33	34.076
623.66	34.531
623.99	34.041
624.32	34.350
624.65	33.311
624.99	33.266
625.32	34.736
625.65	33.862
625.98	32.497
626.31	33.828
626.64	33.865
626.97	33.282
627.30	33.851
627.63	34.223
627.96	34.194
628.29	33.663
628.62	32.506
628.95	34.220
629.28	34.268
629.61	34.271
629.94	34.572
630.26	33.276
630.59	35.284
630.92	32.825
631.25	33.908
631.58	34.330
631.91	33.397
632.24	33.431
632.57	34.578
632.90	34.990
633.23	34.313
633.56	34.247
633.89	35.263
634.22	34.984
634.55	34.301
634.88	35.268
635.20	34.753
635.53	34.959
635.86	34.452
636.19	35.690
636.52	32.216
636.85	34.736
637.18	34.236
637.51	35.084
637.83	33.410
638.16	34.701
638.49	33.653
638.82	34.859
639.15	34.900
639.48	34.834
639.81	34.188
640.13	32.638
640.46	34.260
640.79	36.151
641.12	33.465
641.45	34.670
641.77	34.478
642.10	33.199
642.43	35.420
642.76	34.517
643.09	35.591
643.41	33.661
643.74	35.827
644.07	34.661
644.40	36.243
644.73	34.985
645.05	34.770
645.38	35.681
645.71	34.901
646.04	36.794
646.36	36.620
646.69	33.920
647.02	33.760
647.35	34.646
647.67	34.846
648.00	34.202
648.33	32.030
648.66	34.394
648.98	34.928
649.31	34.143
649.64	31.674
649.96	31.721
650.29	33.571
650.62	36.819
650.94	33.886
651.27	36.523
651.60	35.055
651.92	35.791
652.25	37.008
652.58	36.454
652.90	33.683
653.23	34.860
653.56	34.570
653.88	33.627
654.21	32.845
654.54	33.968
654.86	33.333
655.19	34.697
655.52	32.027
655.84	29.707
656.17	35.942
656.49	52.037
656.82	58.907
657.15	46.687
657.47	34.569
657.80	25.598
658.13	20.180
658.45	27.006
658.78	32.245
659.10	33.154
659.43	33.607
659.75	34.049
660.08	35.401
660.41	34.846
660.73	35.508
661.06	36.036
661.38	34.753
661.71	34.173
662.03	34.601
662.36	34.857
662.68	32.588
663.01	36.036
663.33	33.019
663.66	34.320
663.98	34.325
664.31	35.261
664.63	35.249
664.96	35.084
665.28	33.710
665.61	36.981
665.93	35.283
666.26	33.645
666.58	36.697
666.91	33.977
667.23	32.731
667.56	36.140
667.88	38.589
668.21	34.631
668.53	32.258
668.86	36.273
669.18	35.234
669.50	36.983
669.83	35.318
670.15	35.135
670.48	34.180
670.80	36.454
671.13	33.068
671.45	36.072
671.77	34.508
672.10	33.932
672.42	34.539
672.75	35.285
673.07	34.181
673.39	32.907
673.72	35.640
674.04	31.183
674.37	35.390
674.69	33.271
675.01	34.328
675.34	33.915
675.66	35.938
675.98	35.897
676.31	32.400
676.63	34.195
676.95	36.111
677.28	33.671
677.60	34.205
677.92	34.722
678.25	35.465
678.57	35.009
678.89	35.443
679.22	35.294
679.54	34.875
679.86	34.904
680.18	35.325
680.51	32.836
680.83	33.615
681.15	33.622
681.48	34.028
681.80	34.676
682.12	33.910
682.44	33.333
682.77	33.808
683.09	35.728
683.41	35.510
683.73	36.024
684.06	34.722
684.38	33.333
684.70	33.453
685.02	31.944
685.34	36.092
685.67	32.637
685.99	36.782
686.31	33.590
686.63	33.821
686.96	35.131
687.28	32.383
687.60	32.594
687.92	34.171
688.24	35.345
688.56	34.698
688.89	33.461
689.21	34.104
689.53	33.992
689.85	36.382
690.17	34.757
690.49	33.871
690.82	34.874
691.14	36.970
691.46	36.345
691.78	36.452
692.10	36.832
692.42	35.390
692.74	34.884
693.06	36.434
693.39	34.190
693.71	36.542
694.03	35.306
694.35	38.554
694.67	32.383
694.99	35.920
695.31	39.189
695.63	34.163
695.95	35.068
696.27	37.611
696.59	34.368
696.91	38.734
697.23	37.330
697.56	32.988
697.88	32.535
698.20	34.906
698.52	31.518
698.84	34.702
699.16	35.608
699.48	36.441
699.80	36.601
700.12	38.106
700.44	36.215
700.76	37.470
701.08	36.815
701.40	35.065
701.72	37.433
702.04	35.230
702.36	40.054
702.68	36.702
703.00	34.837
703.32	35.732
703.64	38.791
703.96	37.500
704.28	34.921
704.60	37.465
704.91	35.574
705.23	36.648
705.55	39.466
705.87	35.556
706.19	41.693
706.51	41.693
706.83	38.348
707.15	41.444
707.47	36.804
707.79	37.701
708.11	36.508
708.43	35.955
708.74	33.710
709.06	34.884
709.38	38.462
709.70	34.332
710.02	39.402
710.34	37.845
710.66	35.833
710.98	39.891
711.29	38.440
711.61	40.111
711.93	36.778
712.25	37.651
712.57	36.977
712.89	38.788
713.20	39.297
713.52	38.006
713.84	37.160
714.16	34.493
714.48	35.735
714.80	34.146
715.11	34.840
715.43	33.799
715.75	37.183
716.07	35.260
716.39	34.286
716.70	37.383
717.02	40.067
717.34	36.331
717.66	39.931
717.97	40.909
718.29	38.028
718.61	35.473
718.93	38.754
719.24	41.275
719.56	38.966
719.88	33.439
720.20	40.323
720.51	34.314
720.83	39.130
721.15	38.776
721.46	35.616
721.78	39.024
722.10	39.236
722.42	40.803
722.73	38.628
723.05	41.754
723.37	41.696
723.68	35.547
724.00	40.152
724.32	46.008
724.63	40.769
724.95	40.000
725.27	40.892
725.58	38.971
725.90	38.028
726.22	38.699
726.53	39.799
726.85	40.391
727.16	42.282
727.48	33.887
727.80	42.086
728.11	38.214
728.43	41.304
728.74	41.259
729.06	37.993
729.38	40.351
729.69	42.000
730.01	36.842
730.32	37.919
730.64	40.532
730.96	36.336
731.27	35.474
731.59	34.195
731.90	36.212
732.22	39.714
732.53	35.897
732.85	38.889
733.16	36.446
733.48	36.050
733.80	38.841
734.11	37.730
734.43	38.012
734.74	35.925
735.06	39.153
735.37	33.763
735.69	35.942
736.00	37.920
736.32	37.879
736.63	36.909
736.95	40.062
737.26	39.024
737.58	40.184
737.89	37.048
738.21	37.086
738.52	39.130
738.83	42.491
739.15	40.070
739.46	35.862
739.78	37.755
740.09	40.233
740.41	40.184
740.72	42.222
741.04	38.462
741.35	40.625
741.66	41.107
741.98	42.489
742.29	40.278
742.61	42.478
742.92	36.864
743.23	38.800
743.55	38.491
743.86	38.431
744.18	38.983
744.49	42.975
744.80	43.318
745.12	42.411
745.43	46.729
745.74	48.000
746.06	42.544
746.37	43.256
746.68	45.575
747.00	42.152
747.31	44.538
747.62	35.656
747.94	42.060
748.25	41.634
748.56	38.983
748.88	41.518
749.19	47.442
749.50	42.466
749.82	38.683
750.13	41.107
750.44	38.667
750.75	41.611
751.07	44.079
751.38	41.254
751.69	37.037
752.01	40.559
752.32	39.867
752.63	38.926
752.94	41.958
753.26	39.844
753.57	39.689
753.88	41.948
754.19	39.350
754.51	40.864
754.82	35.906
755.13	37.500
755.44	41.852
755.75	41.924
756.07	44.178
756.38	39.542
756.69	36.250
757.00	40.059
757.31	37.746
757.63	36.364
757.94	36.436
758.25	36.473
758.56	36.156
758.87	35.840
759.18	39.826
759.50	34.650
759.81	35.905
760.12	37.360
760.43	36.134
760.74	35.949
761.05	37.401
761.36	36.719
761.67	37.466
761.99	38.028
762.30	36.013
762.61	36.806
762.92	37.879
763.23	37.358
763.54	43.077
763.85	38.132
764.16	41.319
764.47	38.851
764.78	35.831
765.10	35.671
765.41	35.511
765.72	35.359
766.03	37.764
766.34	36.237
766.65	40.684
766.96	43.725
767.27	47.664
767.58	45.545
767.89	45.856
768.20	44.512
768.51	39.286
768.82	44.298
769.13	40.392
769.44	36.842
769.75	40.824
770.06	39.916
770.37	41.228
770.68	42.667
770.99	43.220
771.30	42.259
771.61	38.462
771.92	41.221
772.23	38.710
772.54	39.111
772.85	43.069
773.16	48.370
773.47	43.333
773.78	45.545
774.09	46.023
774.39	47.273
774.70	45.294
775.01	40.132
775.32	45.342
775.63	52.740
775.94	50.000
776.25	48.966
776.56	49.618
776.87	53.435
777.18	50.758
777.48	60.630
777.79	50.769
778.10	46.212
778.41	58.209
778.72	42.857
779.03	44.231
779.34	47.297
779.65	50.932
779.95	47.826
780.26	45.238
780.57	58.503
780.88	51.773
781.19	47.500
781.50	50.888
781.80	50.820
782.11	44.444
782.42	49.425
782.73	50.847
783.04	58.710
783.34	47.287
783.65	42.857
783.96	47.742
784.27	37.748
784.57	43.421
784.88	55.072
785.19	52.500
785.50	57.759
785.81	59.690
786.11	48.148
786.42	51.181
786.73	63.063
787.04	61.321
787.34	43.902
787.65	58.333
787.96	55.303
788.26	57.480
788.57	48.905
788.88	54.225
789.19	54.962
789.49	60.811
789.80	53.125
790.11	57.025
790.41	59.259
790.72	52.778
791.03	66.346
791.33	69.697
791.64	61.053
791.95	60.000
792.25	54.167
792.56	61.000
792.87	60.976
793.17	60.227
793.48	54.118
793.79	64.368
794.09	67.045
794.40	68.966
794.70	53.968
795.01	51.538
795.32	57.252
795.62	52.137
795.93	54.622
796.23	56.911
796.54	59.184
796.85	70.455
797.15	90.909
797.46	73.171
797.76	72.500
798.07	78.667
798.37	70.000
798.68	66.250
798.99	71.951
799.29	64.000
799.60	55.814
799.90	65.789
800.21	69.697
800.51	59.155
800.82	82.759
801.12	78.462
801.43	82.667
801.73	60.345
802.04	77.922
802.34	63.014
802.65	105.882
802.95	86.957
803.26	85.484
803.56	86.667
803.87	82.090
804.17	87.302
804.48	86.792
804.78	79.167
805.09	81.818
805.39	84.127
805.70	100.000
806.00	51.429
806.30	85.938
806.61	67.059
806.91	66.667
807.22	51.087
807.52	61.842
807.83	80.263
808.13	62.319
808.43	87.097
808.74	89.041
809.04	75.000
809.35	77.941
809.65	87.879
809.95	94.118
810.26	100.000
810.56	92.188
810.86	79.592
811.17	80.702
811.47	100.000
811.77	62.069
812.08	87.931
812.38	76.190
812.69	104.762
812.99	93.333
813.29	120.000
813.59	129.032
813.90	75.862
814.20	91.803
814.50	74.000
814.81	78.947
815.11	105.556
815.41	89.286
815.72	92.857
816.02	94.000
816.32	109.756
816.62	93.103
816.93	145.455
817.23	124.390
817.53	98.214
817.84	73.333
818.14	83.333
818.44	112.500
818.74	92.453
819.04	135.897
819.35	115.152
819.65	113.462
819.95	120.370
820.25	108.511
820.56	129.730
820.86	139.474
821.16	85.106
821.46	118.421
821.76	85.455
822.07	80.952
822.37	131.579
822.67	109.302
822.97	107.895
823.27	115.217
823.57	118.750
823.88	133.333
824.18	127.273
824.48	117.391
824.78	105.556
825.08	182.609
825.38	141.379
825.69	129.412
825.99	97.872
826.29	113.889
826.59	128.571
826.89	126.667
827.19	134.286
827.49	148.387
827.79	157.692
828.09	80.952
828.39	108.333
828.70	124.324
829.00	125.000
829.30	212.500
829.60	113.889
829.90	141.935
830.20	139.394
830.50	121.622
830.80	162.500
831.10	184.615
831.40	171.429
831.70	170.833
832.00	106.667
832.30	182.609
832.60	154.167
832.90	154.545
833.20	130.000
833.50	100.000
833.80	167.647
834.10	113.158
834.40	200.000
834.70	110.000
835.00	180.000
835.30	108.108
835.60	190.625
835.90	121.622
836.20	146.154
836.50	150.000
836.80	95.122
837.10	152.174
837.40	292.308
837.70	189.474
838.00	136.667
838.30	200.000
838.60	156.000
838.90	330.000
839.19	206.250
839.49	150.000
839.79	117.241
840.09	165.385
840.39	246.667
840.69	152.632
840.99	138.095
841.29	200.000
841.59	215.000
841.88	212.000
842.18	422.222
842.48	203.571
842.78	170.370
843.08	215.385
843.38	177.273
843.68	285.714
843.97	385.714
844.27	139.130
844.57	1200.000
844.87	350.000
845.17	194.444
845.47	166.667
845.76	162.500
846.06	571.429
846.36	176.471
846.66	246.154
846.96	268.750
847.25	230.769
847.55	163.158
847.85	194.444
848.15	520.000
848.44	200.000
848.74	142.857
849.04	208.333
849.34	182.353
849.63	212.500
849.93	243.750
850.23	1000.000
850.53	387.500
850.82	300.000
851.12	152.941
851.42	212.500
851.71	218.750
852.01	0.000
852.31	235.294
852.61	340.000
852.90	137.500
853.20	300.000
853.50	-1400.000
853.79	148.000
854.09	125.000
854.39	168.966
854.68	148.276
854.98	214.286
855.28	138.710
855.57	242.857
855.87	261.111
856.17	137.037
856.46	205.263
856.76	138.710
857.05	276.471
857.35	209.091
857.65	238.462
857.94	180.000
858.24	400.000
858.53	285.714
858.83	485.714
859.13	160.870
859.42	277.778
859.72	300.000
860.01	291.667
860.31	950.000
860.60	390.000
860.90	425.000
861.20	300.000
861.49	485.714
861.79	-3200.000
862.08	485.714
862.38	444.444
862.67	221.429
862.97	370.000
863.26	133.333
863.56	950.000
863.85	307.692
864.15	235.294
864.44	222.222
864.74	325.000
865.03	354.545
865.33	275.000
865.62	240.000
865.92	566.667
866.21	875.000
866.51	660.000
866.80	238.889
867.10	800.000
867.39	2700.000
867.69	900.000
867.98	1025.000
868.27	166.667
868.57	240.000
868.86	675.000
869.16	190.476
869.45	4100.000
869.75	-233.333
870.04	650.000
870.33	640.000
870.63	387.500
870.92	229.412
871.22	875.000
871.51	385.714
871.80	416.667
872.10	369.231
>>>>>End Processed Spectral Data<<<<<
