SpectraSuite Data File
++++++++++++++++++++++++++++++++++++
Date: Tue May 12 16:05:59 PDT 2015
User: schluterlab
Dark Spectrum Present: Yes
Reference Spectrum Present: Yes
Number of Sampled Component Spectra: 1
Spectrometers: USB2E3373
Integration Time (usec): 3000 (USB2E3373)
Spectra Averaged: 3 (USB2E3373)
Boxcar Smoothing: 0 (USB2E3373)
Correct for Electrical Dark: No (USB2E3373)
Strobe/Lamp Enabled: No (USB2E3373)
Correct for Detector Non-linearity: No (USB2E3373)
Correct for Stray Light: No (USB2E3373)
Number of Pixels in Processed Spectrum: 2048
>>>>>Begin Processed Spectral Data<<<<<
178.53	0.000
178.91	-333.333
179.29	-700.000
179.67	-3900.000
180.04	-160.000
180.42	750.000
180.80	1800.000
181.18	0.000
181.56	-337.500
181.94	0.000
182.31	1533.333
182.69	-3300.000
183.07	728.571
183.45	-4300.000
183.83	-1750.000
184.20	390.000
184.58	542.857
184.96	-253.846
185.34	-200.000
185.72	1800.000
186.09	-950.000
186.47	-4000.000
186.85	1033.333
187.23	840.000
187.61	1750.000
187.98	475.000
188.36	250.000
188.74	325.000
189.12	408.333
189.49	1000.000
189.87	0.000
190.25	475.000
190.63	3100.000
191.00	-291.667
191.38	-3600.000
191.76	-850.000
192.14	575.000
192.51	-3500.000
192.89	1950.000
193.27	900.000
193.65	-1133.333
194.02	-760.000
194.40	628.571
194.78	-271.429
195.15	346.667
195.53	-3000.000
195.91	-740.000
196.29	4000.000
196.66	225.000
197.04	950.000
197.42	-1450.000
197.79	725.000
198.17	408.333
198.55	0.000
198.92	457.143
199.30	1233.333
199.68	2500.000
200.05	716.667
200.43	-550.000
200.81	233.333
201.18	3300.000
201.56	225.000
201.94	-825.000
202.31	-400.000
202.69	-540.000
203.07	2900.000
203.44	-550.000
203.82	275.000
204.19	760.000
204.57	-1750.000
204.95	-800.000
205.32	-820.000
205.70	483.333
206.08	725.000
206.45	-966.667
206.83	377.778
207.20	184.211
207.58	250.000
207.96	780.000
208.33	0.000
208.71	585.714
209.08	700.000
209.46	-3200.000
209.84	-725.000
210.21	880.000
210.59	-620.000
210.96	408.333
211.34	-1175.000
211.71	463.636
212.09	850.000
212.46	1700.000
212.84	-450.000
213.22	522.222
213.59	-1900.000
213.97	320.000
214.34	850.000
214.72	1300.000
215.09	900.000
215.47	-3400.000
215.84	-320.000
216.22	-362.500
216.59	0.000
216.97	0.000
217.34	2050.000
217.72	-1350.000
218.09	1133.333
218.47	562.500
218.84	950.000
219.22	966.667
219.59	800.000
219.97	657.143
220.34	377.778
220.72	1650.000
221.09	3600.000
221.47	275.000
221.84	1100.000
222.22	400.000
222.59	261.111
222.97	257.143
223.34	262.500
223.72	-1500.000
224.09	1366.667
224.46	323.077
224.84	-900.000
225.21	377.778
225.59	266.667
225.96	1500.000
226.34	-800.000
226.71	-625.000
227.08	-580.000
227.46	0.000
227.83	-683.333
228.21	-1550.000
228.58	425.000
228.95	800.000
229.33	377.778
229.70	1100.000
230.08	353.846
230.45	3600.000
230.82	-925.000
231.20	-966.667
231.57	-1000.000
231.95	700.000
232.32	350.000
232.69	600.000
233.07	400.000
233.44	-1800.000
233.81	293.333
234.19	181.481
234.56	193.750
234.93	235.294
235.31	170.000
235.68	250.000
236.05	182.143
236.43	162.963
236.80	285.714
237.17	203.448
237.55	96.875
237.92	120.000
238.29	151.515
238.67	140.625
239.04	107.317
239.41	83.333
239.79	100.000
240.16	91.667
240.53	65.574
240.91	73.913
241.28	84.746
241.65	62.121
242.02	80.282
242.40	85.714
242.77	54.945
243.14	55.696
243.51	63.636
243.89	45.794
244.26	49.533
244.63	47.525
245.00	57.798
245.38	42.373
245.75	40.909
246.12	42.963
246.49	35.461
246.87	36.885
247.24	49.333
247.61	37.500
247.98	43.537
248.36	39.394
248.73	41.837
249.10	35.119
249.47	40.000
249.84	33.333
250.22	30.811
250.59	26.500
250.96	35.021
251.33	38.605
251.70	29.018
252.08	28.992
252.45	30.279
252.82	28.517
253.19	28.458
253.56	27.692
253.94	30.797
254.31	30.620
254.68	29.965
255.05	27.931
255.42	26.642
255.79	31.596
256.16	27.458
256.54	28.571
256.91	29.412
257.28	28.094
257.65	26.019
258.02	24.484
258.39	27.221
258.76	30.145
259.14	23.714
259.51	29.155
259.88	27.356
260.25	24.725
260.62	25.205
260.99	26.722
261.36	27.298
261.73	24.468
262.10	26.702
262.47	26.250
262.85	26.400
263.22	27.506
263.59	26.854
263.96	25.313
264.33	23.457
264.70	26.290
265.07	24.146
265.44	24.541
265.81	26.179
266.18	23.570
266.55	24.113
266.92	21.700
267.29	25.219
267.66	23.318
268.03	23.991
268.40	23.679
268.77	27.974
269.14	21.041
269.51	21.158
269.88	23.878
270.25	21.166
270.62	23.391
270.99	24.341
271.36	22.967
271.73	23.480
272.10	23.232
272.47	24.603
272.84	23.752
273.21	24.587
273.58	24.291
273.95	21.561
274.32	22.568
274.69	25.394
275.06	24.044
275.43	22.031
275.80	23.774
276.17	22.610
276.54	23.178
276.91	25.746
277.28	19.891
277.65	23.247
278.02	22.610
278.39	22.482
278.76	20.690
279.13	21.530
279.50	23.818
279.87	20.670
280.23	21.731
280.60	22.080
280.97	23.276
281.34	21.287
281.71	20.696
282.08	21.026
282.45	20.270
282.82	21.070
283.19	22.099
283.56	20.331
283.92	22.313
284.29	22.130
284.66	17.983
285.03	21.725
285.40	20.496
285.77	20.988
286.14	20.124
286.51	20.552
286.87	18.829
287.24	18.769
287.61	20.517
287.98	20.000
288.35	21.037
288.72	18.361
289.08	20.120
289.45	20.274
289.82	20.781
290.19	19.327
290.56	21.106
290.93	19.424
291.29	19.199
291.66	19.774
292.03	18.093
292.40	18.835
292.77	20.891
293.13	17.689
293.50	19.433
293.87	18.699
294.24	20.000
294.60	20.592
294.97	20.140
295.34	19.124
295.71	19.185
296.08	18.533
296.44	19.187
296.81	17.990
297.18	17.617
297.55	19.828
297.91	18.227
298.28	18.478
298.65	18.160
299.02	18.697
299.38	18.825
299.75	17.561
300.12	18.922
300.48	18.501
300.85	18.951
301.22	17.442
301.59	17.335
301.95	18.436
302.32	18.626
302.69	19.118
303.05	18.967
303.42	16.480
303.79	19.177
304.15	18.372
304.52	18.499
304.89	17.804
305.25	19.355
305.62	19.403
305.99	18.043
306.35	19.368
306.72	20.083
307.09	17.909
307.45	17.951
307.82	18.930
308.19	19.588
308.55	19.000
308.92	19.627
309.29	20.907
309.65	20.218
310.02	20.588
310.38	18.744
310.75	18.322
311.12	19.732
311.48	20.656
311.85	21.469
312.22	21.490
312.58	19.339
312.95	20.874
313.31	22.285
313.68	21.857
314.05	22.711
314.41	22.067
314.78	21.307
315.14	23.697
315.51	22.990
315.87	22.445
316.24	23.716
316.61	23.814
316.97	23.119
317.34	24.169
317.70	24.671
318.07	26.601
318.43	25.659
318.80	25.919
319.16	25.524
319.53	26.106
319.89	25.358
320.26	26.536
320.62	27.198
320.99	28.122
321.35	28.015
321.72	28.653
322.08	28.809
322.45	29.700
322.81	29.552
323.18	30.107
323.54	31.446
323.91	31.369
324.27	31.388
324.64	31.315
325.00	32.586
325.37	32.125
325.73	33.052
326.10	35.128
326.46	33.443
326.83	34.800
327.19	35.663
327.56	35.543
327.92	37.377
328.29	36.579
328.65	36.729
329.01	37.639
329.38	37.563
329.74	37.489
330.11	38.836
330.47	38.534
330.84	37.532
331.20	39.594
331.56	38.860
331.93	38.751
332.29	38.776
332.66	39.286
333.02	39.175
333.38	40.489
333.75	39.199
334.11	38.591
334.48	39.915
334.84	38.007
335.20	38.922
335.57	37.951
335.93	38.856
336.29	38.640
336.66	40.137
337.02	38.751
337.38	39.037
337.75	39.696
338.11	39.494
338.47	40.051
338.84	38.103
339.20	38.788
339.56	38.520
339.93	39.298
340.29	39.160
340.65	38.977
341.02	38.134
341.38	39.901
341.74	38.538
342.11	39.816
342.47	38.720
342.83	38.884
343.20	38.642
343.56	37.331
343.92	38.976
344.28	38.278
344.65	39.283
345.01	38.651
345.37	37.580
345.73	37.619
346.10	38.805
346.46	39.872
346.82	38.194
347.19	39.335
347.55	38.173
347.91	37.689
348.27	38.110
348.63	38.370
349.00	38.462
349.36	38.988
349.72	39.144
350.08	39.053
350.45	39.299
350.81	37.691
351.17	37.982
351.53	38.491
351.89	38.073
352.26	38.171
352.62	37.707
352.98	37.347
353.34	37.211
353.70	37.920
354.07	38.538
354.43	37.634
354.79	37.889
355.15	38.055
355.51	37.840
355.87	37.651
356.24	37.105
356.60	36.758
356.96	38.287
357.32	37.604
357.68	37.959
358.04	37.462
358.40	38.681
358.77	37.791
359.13	37.913
359.49	37.361
359.85	38.198
360.21	36.478
360.57	37.445
360.93	37.879
361.29	37.662
361.66	38.479
362.02	36.861
362.38	38.672
362.74	38.429
363.10	38.149
363.46	36.395
363.82	36.325
364.18	37.553
364.54	37.840
364.90	37.349
365.26	37.890
365.62	36.602
365.98	36.270
366.35	35.862
366.71	37.821
367.07	37.679
367.43	37.408
367.79	37.101
368.15	35.753
368.51	38.043
368.87	37.024
369.23	36.798
369.59	36.952
369.95	37.273
370.31	36.413
370.67	36.294
371.03	36.555
371.39	36.219
371.75	36.706
372.11	36.778
372.47	37.945
372.83	36.438
373.19	36.943
373.55	38.076
373.91	35.773
374.27	35.780
374.63	36.678
374.99	36.658
375.35	36.559
375.71	36.675
376.07	37.334
376.42	35.550
376.78	36.930
377.14	35.911
377.50	35.893
377.86	35.618
378.22	36.076
378.58	36.743
378.94	36.210
379.30	36.143
379.66	37.086
380.02	35.718
380.38	36.066
380.74	36.159
381.09	37.325
381.45	34.566
381.81	36.052
382.17	36.020
382.53	37.193
382.89	36.251
383.25	35.287
383.61	34.986
383.97	36.053
384.32	35.503
384.68	37.017
385.04	36.694
385.40	36.477
385.76	35.108
386.12	35.993
386.48	36.170
386.83	35.269
387.19	35.807
387.55	35.512
387.91	34.873
388.27	36.228
388.62	35.974
388.98	36.152
389.34	34.741
389.70	35.377
390.06	35.793
390.42	36.521
390.77	35.688
391.13	36.210
391.49	35.027
391.85	36.000
392.20	35.221
392.56	34.886
392.92	34.924
393.28	35.090
393.64	34.920
393.99	33.788
394.35	35.491
394.71	34.379
395.07	35.036
395.42	35.246
395.78	35.287
396.14	35.964
396.50	34.597
396.85	34.329
397.21	34.537
397.57	35.445
397.92	34.662
398.28	35.190
398.64	35.253
399.00	33.405
399.35	34.085
399.71	33.940
400.07	35.788
400.42	34.567
400.78	34.135
401.14	34.645
401.49	34.044
401.85	34.473
402.21	34.329
402.57	34.650
402.92	35.030
403.28	33.890
403.63	34.197
403.99	34.680
404.35	34.408
404.70	34.377
405.06	33.240
405.42	34.470
405.77	33.572
406.13	33.134
406.49	33.428
406.84	34.461
407.20	33.904
407.55	33.538
407.91	35.290
408.27	34.021
408.62	34.240
408.98	33.708
409.34	33.431
409.69	33.167
410.05	33.870
410.40	33.451
410.76	32.856
411.11	33.886
411.47	32.654
411.83	33.743
412.18	32.850
412.54	33.453
412.89	33.333
413.25	33.409
413.60	33.762
413.96	34.650
414.31	33.176
414.67	34.202
415.03	33.525
415.38	33.691
415.74	33.797
416.09	34.041
416.45	34.131
416.80	34.124
417.16	33.291
417.51	34.013
417.87	33.104
418.22	34.143
418.58	34.395
418.93	33.135
419.29	33.210
419.64	33.313
420.00	34.248
420.35	33.798
420.71	33.781
421.06	33.314
421.42	34.542
421.77	34.314
422.12	33.241
422.48	33.436
422.83	33.036
423.19	33.747
423.54	33.297
423.90	34.088
424.25	33.627
424.61	34.127
424.96	32.750
425.31	33.935
425.67	34.063
426.02	33.595
426.38	33.897
426.73	34.876
427.09	34.520
427.44	33.765
427.79	34.191
428.15	34.001
428.50	34.686
428.85	35.626
429.21	34.036
429.56	34.048
429.92	33.615
430.27	33.914
430.62	32.403
430.98	33.283
431.33	32.812
431.68	32.691
432.04	33.109
432.39	34.248
432.74	35.129
433.10	34.109
433.45	33.716
433.80	34.584
434.16	33.631
434.51	35.449
434.86	34.948
435.22	33.982
435.57	34.025
435.92	34.946
436.28	33.929
436.63	34.414
436.98	34.741
437.34	34.589
437.69	33.651
438.04	34.892
438.39	34.793
438.75	35.022
439.10	34.053
439.45	34.200
439.81	34.413
440.16	35.113
440.51	33.727
440.86	36.011
441.22	35.065
441.57	34.278
441.92	34.403
442.27	34.124
442.63	34.045
442.98	33.297
443.33	35.351
443.68	35.211
444.03	34.072
444.39	34.181
444.74	33.851
445.09	34.229
445.44	35.335
445.79	34.844
446.15	34.789
446.50	34.810
446.85	34.612
447.20	34.328
447.55	35.835
447.91	35.376
448.26	34.824
448.61	34.992
448.96	35.512
449.31	35.644
449.66	35.770
450.02	34.900
450.37	35.758
450.72	35.317
451.07	35.544
451.42	34.499
451.77	35.452
452.12	34.657
452.47	36.391
452.83	36.000
453.18	35.616
453.53	36.116
453.88	36.343
454.23	36.897
454.58	35.548
454.93	35.868
455.28	36.597
455.63	35.106
455.98	34.969
456.34	35.866
456.69	35.915
457.04	35.621
457.39	35.429
457.74	36.768
458.09	35.261
458.44	35.926
458.79	35.703
459.14	36.116
459.49	35.787
459.84	36.413
460.19	36.441
460.54	35.271
460.89	35.128
461.24	35.166
461.59	35.828
461.94	35.579
462.29	36.670
462.64	37.249
462.99	35.573
463.34	36.099
463.69	36.661
464.04	36.442
464.39	37.035
464.74	34.642
465.09	35.577
465.44	35.528
465.79	36.364
466.14	35.029
466.49	35.648
466.84	36.455
467.19	36.262
467.54	35.736
467.89	36.209
468.24	35.553
468.59	35.000
468.94	36.413
469.29	36.652
469.64	35.305
469.99	36.375
470.34	36.369
470.68	36.759
471.03	36.224
471.38	36.358
471.73	36.577
472.08	36.856
472.43	35.630
472.78	36.812
473.13	35.044
473.48	36.980
473.83	36.219
474.17	36.535
474.52	36.967
474.87	35.361
475.22	36.151
475.57	35.677
475.92	36.127
476.27	35.528
476.61	35.871
476.96	35.789
477.31	37.121
477.66	36.554
478.01	36.050
478.36	35.788
478.70	35.037
479.05	35.513
479.40	35.268
479.75	35.849
480.10	36.157
480.45	35.434
480.79	35.530
481.14	35.283
481.49	35.178
481.84	35.268
482.19	35.983
482.53	35.573
482.88	35.170
483.23	34.687
483.58	35.952
483.92	36.380
484.27	35.488
484.62	35.696
484.97	33.697
485.31	34.670
485.66	33.737
486.01	32.124
486.36	31.676
486.70	31.103
487.05	32.041
487.40	32.407
487.75	32.469
488.09	33.125
488.44	34.098
488.79	34.398
489.13	34.789
489.48	34.878
489.83	34.904
490.17	34.310
490.52	35.099
490.87	35.216
491.22	36.791
491.56	35.617
491.91	34.812
492.26	35.457
492.60	35.854
492.95	34.527
493.30	35.987
493.64	35.804
493.99	34.973
494.34	35.096
494.68	34.883
495.03	34.845
495.37	35.254
495.72	35.804
496.07	34.951
496.41	34.883
496.76	35.163
497.11	34.619
497.45	34.634
497.80	35.681
498.14	35.784
498.49	35.562
498.84	35.794
499.18	35.238
499.53	35.599
499.87	34.367
500.22	34.178
500.56	35.330
500.91	35.761
501.26	36.105
501.60	35.656
501.95	34.588
502.29	34.489
502.64	34.892
502.98	33.615
503.33	34.788
503.67	34.923
504.02	34.886
504.36	35.475
504.71	35.289
505.06	35.148
505.40	34.815
505.75	34.518
506.09	35.184
506.44	34.539
506.78	35.633
507.13	36.064
507.47	34.934
507.82	35.961
508.16	36.012
508.51	35.459
508.85	35.945
509.19	35.144
509.54	35.791
509.88	36.300
510.23	34.804
510.57	35.039
510.92	35.514
511.26	35.994
511.61	35.746
511.95	35.092
512.30	34.650
512.64	35.306
512.98	35.161
513.33	35.502
513.67	34.956
514.02	35.377
514.36	34.995
514.70	36.800
515.05	35.056
515.39	36.458
515.74	36.687
516.08	35.349
516.42	36.885
516.77	36.320
517.11	36.587
517.46	35.722
517.80	34.954
518.14	36.789
518.49	34.620
518.83	35.495
519.17	36.439
519.52	35.882
519.86	36.185
520.20	36.219
520.55	35.387
520.89	35.862
521.23	36.390
521.58	35.743
521.92	36.152
522.26	35.782
522.61	36.304
522.95	36.456
523.29	37.310
523.64	35.954
523.98	36.326
524.32	36.505
524.66	36.928
525.01	35.740
525.35	34.944
525.69	36.544
526.04	36.645
526.38	35.374
526.72	35.919
527.06	34.299
527.41	36.941
527.75	36.397
528.09	35.400
528.43	36.181
528.78	35.659
529.12	37.809
529.46	35.827
529.80	34.521
530.15	35.003
530.49	36.101
530.83	35.954
531.17	34.932
531.51	36.052
531.86	34.903
532.20	35.167
532.54	35.405
532.88	36.040
533.22	35.710
533.57	35.143
533.91	33.800
534.25	34.218
534.59	34.854
534.93	34.357
535.27	33.182
535.62	34.131
535.96	34.574
536.30	35.954
536.64	34.720
536.98	35.053
537.32	34.125
537.66	33.929
538.01	33.994
538.35	35.059
538.69	34.284
539.03	34.080
539.37	34.345
539.71	34.383
540.05	33.908
540.39	35.409
540.73	34.557
541.07	33.626
541.42	35.012
541.76	34.834
542.10	33.724
542.44	35.100
542.78	34.235
543.12	33.067
543.46	33.772
543.80	34.085
544.14	34.799
544.48	33.333
544.82	34.128
545.16	33.576
545.50	32.821
545.84	34.659
546.18	35.826
546.52	35.213
546.86	33.914
547.20	33.979
547.54	33.756
547.88	34.550
548.22	32.908
548.56	32.882
548.90	33.096
549.24	33.797
549.58	33.441
549.92	34.054
550.26	34.686
550.60	34.132
550.94	34.328
551.28	33.931
551.62	35.034
551.96	33.514
552.30	33.751
552.64	33.592
552.98	32.925
553.32	32.907
553.66	32.704
554.00	33.269
554.34	34.554
554.68	33.535
555.02	34.623
555.36	34.043
555.69	34.031
556.03	33.057
556.37	33.078
556.71	33.312
557.05	33.486
557.39	33.467
557.73	34.232
558.07	34.004
558.41	33.927
558.75	34.542
559.08	34.024
559.42	34.646
559.76	34.212
560.10	33.792
560.44	32.050
560.78	33.376
561.12	34.139
561.45	32.416
561.79	32.335
562.13	32.470
562.47	32.641
562.81	32.010
563.15	33.032
563.48	31.366
563.82	33.687
564.16	32.774
564.50	32.188
564.84	31.672
565.17	31.610
565.51	32.451
565.85	32.819
566.19	31.786
566.52	31.889
566.86	31.173
567.20	31.966
567.54	30.841
567.88	30.569
568.21	30.255
568.55	30.496
568.89	29.973
569.23	29.465
569.56	29.073
569.90	27.812
570.24	27.973
570.57	27.969
570.91	28.144
571.25	27.076
571.59	27.016
571.92	25.861
572.26	26.092
572.60	26.604
572.93	27.458
573.27	26.852
573.61	26.394
573.95	26.594
574.28	26.539
574.62	25.803
574.96	25.542
575.29	25.424
575.63	25.465
575.97	25.195
576.30	25.614
576.64	25.614
576.98	25.818
577.31	26.069
577.65	25.510
577.98	25.399
578.32	24.836
578.66	25.194
578.99	25.005
579.33	25.665
579.67	25.225
580.00	24.742
580.34	24.519
580.67	25.168
581.01	25.280
581.35	24.588
581.68	23.888
582.02	24.625
582.35	24.193
582.69	24.882
583.02	24.585
583.36	25.311
583.70	25.340
584.03	25.404
584.37	25.745
584.70	25.454
585.04	25.054
585.37	24.527
585.71	25.438
586.04	24.825
586.38	25.521
586.72	25.611
587.05	25.425
587.39	24.930
587.72	25.445
588.06	25.453
588.39	25.000
588.73	25.143
589.06	25.970
589.40	26.197
589.73	26.090
590.07	26.081
590.40	26.969
590.73	27.617
591.07	27.211
591.40	26.747
591.74	26.623
592.07	27.038
592.41	26.739
592.74	26.108
593.08	25.391
593.41	25.554
593.75	24.685
594.08	25.624
594.41	25.155
594.75	25.925
595.08	25.480
595.42	25.609
595.75	25.732
596.09	26.034
596.42	26.001
596.75	27.244
597.09	26.909
597.42	26.571
597.75	26.613
598.09	25.810
598.42	25.785
598.76	26.291
599.09	25.671
599.42	25.190
599.76	25.611
600.09	25.119
600.42	25.069
600.76	25.493
601.09	25.302
601.42	25.132
601.76	25.636
602.09	26.343
602.42	24.991
602.76	25.769
603.09	26.244
603.42	25.688
603.76	25.452
604.09	25.588
604.42	25.612
604.76	25.998
605.09	25.510
605.42	25.843
605.75	25.622
606.09	25.478
606.42	25.780
606.75	24.951
607.09	24.398
607.42	25.151
607.75	25.955
608.08	25.589
608.42	25.797
608.75	25.289
609.08	25.561
609.41	26.045
609.75	25.778
610.08	26.574
610.41	25.823
610.74	25.758
611.07	25.739
611.41	26.135
611.74	27.055
612.07	26.349
612.40	26.023
612.73	26.111
613.07	26.964
613.40	26.216
613.73	26.610
614.06	25.600
614.39	26.566
614.72	25.465
615.06	25.865
615.39	25.644
615.72	25.653
616.05	26.017
616.38	25.926
616.71	27.564
617.05	26.469
617.38	26.124
617.71	26.434
618.04	26.472
618.37	26.737
618.70	26.270
619.03	26.801
619.36	27.889
619.69	27.375
620.03	28.376
620.36	27.232
620.69	28.033
621.02	28.668
621.35	28.009
621.68	28.245
622.01	28.118
622.34	28.405
622.67	27.949
623.00	28.931
623.33	28.003
623.66	26.414
623.99	28.425
624.32	27.236
624.65	28.045
624.99	27.316
625.32	27.321
625.65	26.552
625.98	26.778
626.31	27.448
626.64	27.335
626.97	29.151
627.30	28.882
627.63	28.336
627.96	27.934
628.29	29.290
628.62	28.400
628.95	29.787
629.28	30.412
629.61	31.107
629.94	29.905
630.26	28.856
630.59	32.092
630.92	28.879
631.25	29.374
631.58	30.473
631.91	29.971
632.24	30.321
632.57	29.273
632.90	32.402
633.23	31.794
633.56	29.505
633.89	31.511
634.22	32.400
634.55	31.505
634.88	31.654
635.20	31.390
635.53	33.101
635.86	32.215
636.19	30.640
636.52	29.189
636.85	29.126
637.18	32.394
637.51	29.944
637.83	31.693
638.16	31.653
638.49	30.778
638.82	31.103
639.15	30.787
639.48	33.412
639.81	30.891
640.13	32.393
640.46	33.755
640.79	32.770
641.12	30.840
641.45	30.918
641.77	32.232
642.10	34.137
642.43	33.144
642.76	31.818
643.09	32.997
643.41	32.679
643.74	33.094
644.07	33.628
644.40	33.136
644.73	34.535
645.05	35.958
645.38	35.222
645.71	33.991
646.04	33.588
646.36	34.116
646.69	34.080
647.02	34.720
647.35	32.598
647.67	33.874
648.00	35.179
648.33	33.684
648.66	33.636
648.98	33.333
649.31	31.039
649.64	31.397
649.96	29.730
650.29	32.143
650.62	32.548
650.94	34.488
651.27	34.609
651.60	35.211
651.92	33.333
652.25	34.488
652.58	30.638
652.90	31.886
653.23	30.871
653.56	31.899
653.88	31.571
654.21	30.205
654.54	32.796
654.86	30.973
655.19	31.266
655.52	26.320
655.84	17.880
656.17	20.597
656.49	29.353
656.82	33.905
657.15	27.556
657.47	20.623
657.80	15.040
658.13	11.850
658.45	16.662
658.78	20.150
659.10	21.042
659.43	21.931
659.75	23.094
660.08	25.313
660.41	27.768
660.73	30.991
661.06	31.832
661.38	36.627
661.71	33.273
662.03	34.030
662.36	34.667
662.68	35.196
663.01	35.495
663.33	35.472
663.66	35.108
663.98	32.937
664.31	36.007
664.63	36.015
664.96	34.522
665.28	33.522
665.61	32.642
665.93	34.906
666.26	34.019
666.58	35.413
666.91	34.942
667.23	36.145
667.56	33.881
667.88	37.759
668.21	35.656
668.53	34.677
668.86	35.070
669.18	36.660
669.50	34.504
669.83	36.140
670.15	33.472
670.48	33.398
670.80	33.665
671.13	37.849
671.45	36.473
671.77	35.436
672.10	33.214
672.42	29.605
672.75	31.962
673.07	31.161
673.39	30.511
673.72	31.488
674.04	33.692
674.37	33.575
674.69	32.156
675.01	30.970
675.34	33.333
675.66	34.180
675.98	34.320
676.31	36.600
676.63	32.604
676.95	34.524
677.28	34.483
677.60	33.199
677.92	32.341
678.25	34.302
678.57	33.520
678.89	35.081
679.22	31.985
679.54	32.384
679.86	33.682
680.18	30.580
680.51	28.690
680.83	30.068
681.15	31.542
681.48	31.597
681.80	31.173
682.12	31.315
682.44	28.649
682.77	32.384
683.09	33.010
683.41	34.286
683.73	31.496
684.06	33.730
684.38	34.302
684.70	32.374
685.02	31.597
685.34	32.570
685.67	30.707
685.99	30.049
686.31	29.892
686.63	30.081
686.96	31.863
687.28	29.866
687.60	29.010
687.92	30.486
688.24	31.034
688.56	29.893
688.89	28.489
689.21	31.407
689.53	30.632
689.85	31.301
690.17	32.039
690.49	33.266
690.82	32.143
691.14	35.354
691.46	33.470
691.78	30.994
692.10	29.198
692.42	29.583
692.74	31.202
693.06	32.946
693.39	31.225
693.71	31.631
694.03	33.333
694.35	32.329
694.67	31.365
694.99	31.929
695.31	38.063
695.63	33.484
695.95	31.448
696.27	35.177
696.59	33.652
696.91	31.392
697.23	32.127
697.56	28.631
697.88	27.545
698.20	29.811
698.52	30.739
698.84	30.390
699.16	32.196
699.48	31.356
699.80	33.987
700.12	36.721
700.44	31.776
700.76	35.322
701.08	34.726
701.40	33.247
701.72	38.770
702.04	36.856
702.36	35.753
702.68	35.638
703.00	30.827
703.32	34.243
703.64	36.524
703.96	33.854
704.28	34.392
704.60	35.493
704.91	39.216
705.23	33.523
705.55	37.685
705.87	34.921
706.19	37.931
706.51	44.201
706.83	37.168
707.15	36.096
707.47	30.508
707.79	32.184
708.11	28.571
708.43	31.011
708.74	29.864
709.06	30.000
709.38	31.266
709.70	30.245
710.02	32.609
710.34	33.702
710.66	34.722
710.98	39.891
711.29	33.983
711.61	34.819
711.93	36.170
712.25	32.831
712.57	39.228
712.89	35.758
713.20	38.019
713.52	34.268
713.84	32.931
714.16	31.884
714.48	28.818
714.80	31.165
715.11	30.319
715.43	33.799
715.75	33.521
716.07	34.104
716.39	35.429
716.70	33.333
717.02	37.037
717.34	41.367
717.66	40.278
717.97	40.909
718.29	35.915
718.61	33.446
718.93	35.986
719.24	38.591
719.56	35.517
719.88	33.121
720.20	32.258
720.51	35.621
720.83	36.789
721.15	34.014
721.46	38.356
721.78	37.631
722.10	37.153
722.42	39.130
722.73	37.545
723.05	33.684
723.37	37.809
723.68	35.156
724.00	39.394
724.32	39.163
724.63	38.462
724.95	37.647
725.27	38.662
725.58	39.338
725.90	33.099
726.22	36.986
726.53	36.120
726.85	36.808
727.16	36.913
727.48	34.551
727.80	31.655
728.11	37.857
728.43	37.681
728.74	37.762
729.06	34.050
729.38	38.596
729.69	38.333
730.01	36.842
730.32	35.906
730.64	28.239
730.96	33.333
731.27	31.193
731.59	30.460
731.90	29.805
732.22	29.714
732.53	30.769
732.85	31.579
733.16	27.711
733.48	32.288
733.80	33.623
734.11	31.595
734.43	30.702
734.74	33.244
735.06	28.307
735.37	28.351
735.69	33.913
736.00	34.862
736.32	29.697
736.63	31.546
736.95	32.609
737.26	33.841
737.58	29.755
737.89	32.229
738.21	31.788
738.52	33.110
738.83	34.066
739.15	39.024
739.46	33.103
739.78	32.653
740.09	31.778
740.41	33.742
740.72	35.873
741.04	37.413
741.35	31.250
741.66	38.735
741.98	36.910
742.29	37.500
742.61	33.628
742.92	39.831
743.23	36.000
743.55	34.717
743.86	36.078
744.18	40.678
744.49	38.430
744.80	34.562
745.12	40.625
745.43	37.850
745.74	40.444
746.06	35.088
746.37	41.860
746.68	39.823
747.00	39.910
747.31	37.395
747.62	38.934
747.94	38.627
748.25	36.965
748.56	38.136
748.88	37.054
749.19	36.744
749.50	34.703
749.82	39.506
750.13	33.202
750.44	32.000
750.75	35.906
751.07	34.868
751.38	33.333
751.69	31.987
752.01	30.769
752.32	34.219
752.63	30.201
752.94	31.119
753.26	37.500
753.57	34.630
753.88	35.581
754.19	34.657
754.51	36.877
754.82	27.517
755.13	32.432
755.44	34.074
755.75	35.395
756.07	32.877
756.38	28.105
756.69	29.375
757.00	34.421
757.31	29.296
757.63	28.926
757.94	29.255
758.25	29.469
758.56	28.375
758.87	30.576
759.18	32.849
759.50	31.915
759.81	33.828
760.12	29.213
760.43	28.852
760.74	31.392
761.05	29.443
761.36	29.167
761.67	33.423
761.99	29.577
762.30	33.119
762.61	33.681
762.92	34.848
763.23	36.226
763.54	35.385
763.85	32.685
764.16	35.764
764.47	33.446
764.78	28.339
765.10	28.354
765.41	28.977
765.72	29.558
766.03	31.722
766.34	26.132
766.65	36.122
766.96	38.866
767.27	43.925
767.58	38.119
767.89	48.066
768.20	39.024
768.51	37.755
768.82	38.158
769.13	33.725
769.44	31.579
769.75	29.588
770.06	35.714
770.37	32.895
770.68	32.444
770.99	32.627
771.30	35.146
771.61	36.923
771.92	32.061
772.23	31.855
772.54	39.111
772.85	42.079
773.16	34.783
773.47	40.000
773.78	38.119
774.09	45.455
774.39	42.424
774.70	38.824
775.01	43.421
775.32	44.099
775.63	51.370
775.94	57.407
776.25	47.586
776.56	47.328
776.87	45.802
777.18	42.424
777.48	57.480
777.79	49.231
778.10	50.758
778.41	48.507
778.72	57.143
779.03	39.103
779.34	43.243
779.65	47.826
779.95	44.720
780.26	41.071
780.57	46.939
780.88	43.972
781.19	61.667
781.50	43.195
781.80	49.180
782.11	39.683
782.42	32.184
782.73	42.938
783.04	41.935
783.34	43.411
783.65	44.218
783.96	42.581
784.27	43.046
784.57	36.842
784.88	46.377
785.19	40.000
785.50	54.310
785.81	52.713
786.11	44.444
786.42	43.307
786.73	48.649
787.04	54.717
787.34	43.089
787.65	56.818
787.96	53.788
788.26	57.480
788.57	50.365
788.88	45.070
789.19	41.221
789.49	52.703
789.80	41.406
790.11	55.372
790.41	56.481
790.72	54.630
791.03	50.000
791.33	66.667
791.64	53.684
791.95	58.947
792.25	57.292
792.56	51.000
792.87	65.854
793.17	61.364
793.48	58.824
793.79	52.874
794.09	60.227
794.40	56.897
794.70	53.175
795.01	51.538
795.32	44.275
795.62	48.718
795.93	47.899
796.23	52.846
796.54	61.224
796.85	57.955
797.15	74.026
797.46	64.634
797.76	61.250
798.07	68.000
798.37	80.000
798.68	70.000
798.99	80.488
799.29	77.333
799.60	50.000
799.90	67.105
800.21	71.212
800.51	66.197
800.82	79.310
801.12	83.077
801.43	90.667
801.73	91.379
802.04	80.519
802.34	78.082
802.65	105.882
802.95	89.130
803.26	82.258
803.56	81.667
803.87	68.657
804.17	79.365
804.48	81.132
804.78	72.222
805.09	89.394
805.39	80.952
805.70	94.737
806.00	68.571
806.30	78.125
806.61	64.706
806.91	71.111
807.22	54.348
807.52	71.053
807.83	78.947
808.13	62.319
808.43	90.323
808.74	73.973
809.04	82.143
809.35	72.059
809.65	75.758
809.95	90.196
810.26	107.407
810.56	89.063
810.86	110.204
811.17	103.509
811.47	91.304
811.77	68.966
812.08	89.655
812.38	71.429
812.69	116.667
812.99	108.889
813.29	142.857
813.59	125.806
813.90	79.310
814.20	101.639
814.50	86.000
814.81	66.667
815.11	87.037
815.41	78.571
815.72	94.643
816.02	114.000
816.32	121.951
816.62	75.862
816.93	142.424
817.23	119.512
817.53	96.429
817.84	80.000
818.14	95.238
818.44	95.833
818.74	75.472
819.04	97.436
819.35	103.030
819.65	100.000
819.95	107.407
820.25	102.128
820.56	132.432
820.86	110.526
821.16	104.255
821.46	92.105
821.76	105.455
822.07	104.762
822.37	131.579
822.67	116.279
822.97	105.263
823.27	100.000
823.57	140.625
823.88	141.026
824.18	112.121
824.48	169.565
824.78	133.333
825.08	173.913
825.38	120.690
825.69	138.235
825.99	89.362
826.29	102.778
826.59	125.714
826.89	163.333
827.19	131.429
827.49	138.710
827.79	165.385
828.09	102.381
828.39	119.444
828.70	102.703
829.00	171.429
829.30	175.000
829.60	122.222
829.90	138.710
830.20	115.152
830.50	156.757
830.80	208.333
831.10	200.000
831.40	157.143
831.70	204.167
832.00	146.667
832.30	173.913
832.60	162.500
832.90	166.667
833.20	225.000
833.50	121.053
833.80	155.882
834.10	81.579
834.40	173.684
834.70	120.000
835.00	188.000
835.30	121.622
835.60	162.500
835.90	118.919
836.20	119.231
836.50	140.909
836.80	119.512
837.10	169.565
837.40	307.692
837.70	168.421
838.00	183.333
838.30	187.500
838.60	152.000
838.90	320.000
839.19	218.750
839.49	166.667
839.79	113.793
840.09	130.769
840.39	246.667
840.69	273.684
840.99	166.667
841.29	178.261
841.59	195.000
841.88	172.000
842.18	322.222
842.48	164.286
842.78	166.667
843.08	215.385
843.38	190.909
843.68	292.857
843.97	557.143
844.27	173.913
844.57	1800.000
844.87	385.714
845.17	183.333
845.47	147.619
845.76	183.333
846.06	642.857
846.36	200.000
846.66	246.154
846.96	275.000
847.25	153.846
847.55	136.842
847.85	188.889
848.15	460.000
848.44	327.273
848.74	176.190
849.04	170.833
849.34	205.882
849.63	225.000
849.93	243.750
850.23	1400.000
850.53	500.000
850.82	281.818
851.12	229.412
851.42	183.333
851.71	281.250
852.01	0.000
852.31	176.471
852.61	370.000
852.90	195.833
853.20	411.111
853.50	-2700.000
853.79	168.000
854.09	146.875
854.39	137.931
854.68	151.724
854.98	223.810
855.28	145.161
855.57	328.571
855.87	205.556
856.17	144.444
856.46	215.789
856.76	154.839
857.05	258.824
857.35	272.727
857.65	246.154
857.94	180.000
858.24	411.111
858.53	342.857
858.83	757.143
859.13	191.304
859.42	355.556
859.72	287.500
860.01	358.333
860.31	800.000
860.60	380.000
860.90	425.000
861.20	353.846
861.49	485.714
861.79	-3200.000
862.08	500.000
862.38	400.000
862.67	285.714
862.97	370.000
863.26	153.333
863.56	800.000
863.85	330.769
864.15	270.588
864.44	205.556
864.74	391.667
865.03	336.364
865.33	375.000
865.62	286.667
865.92	533.333
866.21	875.000
866.51	840.000
866.80	255.556
867.10	1133.333
867.39	3400.000
867.69	500.000
867.98	900.000
868.27	133.333
868.57	220.000
868.86	900.000
869.16	195.238
869.45	2900.000
869.75	-383.333
870.04	725.000
870.33	700.000
870.63	387.500
870.92	217.647
871.22	950.000
871.51	457.143
871.80	425.000
872.10	338.462
>>>>>End Processed Spectral Data<<<<<
