SpectraSuite Data File
++++++++++++++++++++++++++++++++++++
Date: Tue May 12 15:10:50 PDT 2015
User: schluterlab
Dark Spectrum Present: Yes
Reference Spectrum Present: Yes
Number of Sampled Component Spectra: 1
Spectrometers: USB2E3373
Integration Time (usec): 3000 (USB2E3373)
Spectra Averaged: 3 (USB2E3373)
Boxcar Smoothing: 0 (USB2E3373)
Correct for Electrical Dark: No (USB2E3373)
Strobe/Lamp Enabled: No (USB2E3373)
Correct for Detector Non-linearity: No (USB2E3373)
Correct for Stray Light: No (USB2E3373)
Number of Pixels in Processed Spectrum: 2048
>>>>>Begin Processed Spectral Data<<<<<
178.53	0.000
178.91	-75.000
179.29	-450.000
179.67	-2100.000
180.04	-33.333
180.42	350.000
180.80	1250.000
181.18	0.000
181.56	-225.000
181.94	0.000
182.31	600.000
182.69	-2100.000
183.07	400.000
183.45	-2700.000
183.83	-1000.000
184.20	260.000
184.58	285.714
184.96	-107.692
185.34	-75.000
185.72	1050.000
186.09	-475.000
186.47	-2100.000
186.85	666.667
187.23	360.000
187.61	1200.000
187.98	262.500
188.36	235.714
188.74	250.000
189.12	191.667
189.49	800.000
189.87	0.000
190.25	375.000
190.63	1200.000
191.00	-125.000
191.38	-2400.000
191.76	-450.000
192.14	312.500
192.51	-1200.000
192.89	550.000
193.27	733.333
193.65	-500.000
194.02	-560.000
194.40	300.000
194.78	-78.571
195.15	160.000
195.53	-2000.000
195.91	-460.000
196.29	2400.000
196.66	162.500
197.04	425.000
197.42	-850.000
197.79	200.000
198.17	216.667
198.55	0.000
198.92	314.286
199.30	766.667
199.68	1250.000
200.05	433.333
200.43	-383.333
200.81	161.111
201.18	2100.000
201.56	200.000
201.94	-450.000
202.31	-125.000
202.69	-200.000
203.07	600.000
203.44	-283.333
203.82	233.333
204.19	460.000
204.57	-750.000
204.95	-350.000
205.32	-200.000
205.70	366.667
206.08	500.000
206.45	-433.333
206.83	166.667
207.20	105.263
207.58	216.667
207.96	520.000
208.33	0.000
208.71	457.143
209.08	320.000
209.46	-2200.000
209.84	-400.000
210.21	740.000
210.59	-340.000
210.96	183.333
211.34	-425.000
211.71	209.091
212.09	500.000
212.46	1250.000
212.84	-350.000
213.22	322.222
213.59	-1100.000
213.97	160.000
214.34	650.000
214.72	333.333
215.09	766.667
215.47	-200.000
215.84	-150.000
216.22	-250.000
216.59	0.000
216.97	0.000
217.34	650.000
217.72	-800.000
218.09	866.667
218.47	300.000
218.84	625.000
219.22	833.333
219.59	633.333
219.97	357.143
220.34	333.333
220.72	950.000
221.09	1800.000
221.47	116.667
221.84	600.000
222.22	170.000
222.59	205.556
222.97	171.429
223.34	131.250
223.72	-1000.000
224.09	533.333
224.46	153.846
224.84	-350.000
225.21	233.333
225.59	193.333
225.96	1033.333
226.34	-440.000
226.71	-425.000
227.08	-260.000
227.46	0.000
227.83	-400.000
228.21	-1150.000
228.58	275.000
228.95	775.000
229.33	266.667
229.70	750.000
230.08	184.615
230.45	1300.000
230.82	-650.000
231.20	100.000
231.57	-533.333
231.95	380.000
232.32	100.000
232.69	433.333
233.07	225.000
233.44	-950.000
233.81	113.333
234.19	148.148
234.56	112.500
234.93	94.118
235.31	135.000
235.68	162.500
236.05	71.429
236.43	59.259
236.80	128.571
237.17	96.552
237.55	93.750
237.92	85.000
238.29	60.606
238.67	56.250
239.04	56.098
239.41	43.750
239.79	30.000
240.16	54.167
240.53	49.180
240.91	37.681
241.28	37.288
241.65	43.939
242.02	39.437
242.40	40.000
242.77	32.967
243.14	27.848
243.51	44.444
243.89	28.037
244.26	20.561
244.63	17.822
245.00	23.853
245.38	11.864
245.75	26.515
246.12	34.815
246.49	21.277
246.87	19.672
247.24	31.333
247.61	23.750
247.98	20.408
248.36	18.182
248.73	25.510
249.10	12.500
249.47	19.000
249.84	14.925
250.22	18.919
250.59	19.000
250.96	18.565
251.33	19.070
251.70	17.411
252.08	16.387
252.45	17.131
252.82	15.589
253.19	15.020
253.56	15.000
253.94	18.116
254.31	13.566
254.68	16.028
255.05	14.828
255.42	16.423
255.79	17.264
256.16	14.237
256.54	14.610
256.91	12.418
257.28	11.037
257.65	9.718
258.02	13.569
258.39	16.046
258.76	17.681
259.14	10.571
259.51	12.536
259.88	13.678
260.25	12.088
260.62	14.795
260.99	12.948
261.36	9.749
261.73	12.500
262.10	13.351
262.47	11.500
262.85	10.933
263.22	10.026
263.59	13.811
263.96	12.030
264.33	11.605
264.70	13.514
265.07	11.463
265.44	13.761
265.81	12.972
266.18	14.188
266.55	13.475
266.92	12.752
267.29	12.500
267.66	13.229
268.03	10.762
268.40	10.148
268.77	13.216
269.14	9.544
269.51	10.913
269.88	13.673
270.25	10.799
270.62	11.373
270.99	13.793
271.36	11.992
271.73	12.579
272.10	10.101
272.47	11.508
272.84	7.984
273.21	11.364
273.58	9.919
273.95	9.651
274.32	10.895
274.69	13.976
275.06	12.022
275.43	10.345
275.80	10.377
276.17	11.765
276.54	11.589
276.91	11.381
277.28	10.401
277.65	11.993
278.02	11.213
278.39	11.151
278.76	10.172
279.13	11.032
279.50	10.182
279.87	9.683
280.23	9.761
280.60	8.577
280.97	8.793
281.34	9.076
281.71	8.696
282.08	11.966
282.45	9.966
282.82	9.699
283.19	9.857
283.56	7.603
283.92	10.098
284.29	9.318
284.66	10.756
285.03	10.614
285.40	10.413
285.77	10.031
286.14	11.920
286.51	11.656
286.87	10.601
287.24	9.009
287.61	8.815
287.98	10.746
288.35	11.111
288.72	8.649
289.08	9.610
289.45	11.585
289.82	10.469
290.19	8.785
290.56	9.461
290.93	10.647
291.29	9.669
291.66	8.475
292.03	11.080
292.40	10.705
292.77	9.610
293.13	10.271
293.50	9.717
293.87	8.808
294.24	10.070
294.60	9.287
294.97	9.231
295.34	10.624
295.71	10.644
296.08	11.600
296.44	10.928
296.81	9.553
297.18	9.379
297.55	9.483
297.91	8.128
298.28	10.145
298.65	9.816
299.02	10.374
299.38	9.712
299.75	9.268
300.12	11.697
300.48	11.475
300.85	10.369
301.22	9.767
301.59	8.255
301.95	9.568
302.32	11.176
302.69	9.842
303.05	11.672
303.42	9.305
303.79	10.184
304.15	11.331
304.52	10.254
304.89	11.301
305.25	11.346
305.62	11.194
305.99	10.435
306.35	10.632
306.72	11.134
307.09	10.455
307.45	10.454
307.82	10.597
308.19	11.237
308.55	10.900
308.92	12.267
309.29	12.426
309.65	11.596
310.02	12.779
310.38	12.164
310.75	11.090
311.12	10.441
311.48	12.066
311.85	11.832
312.22	12.225
312.58	12.731
312.95	13.495
313.31	12.828
313.68	12.946
314.05	14.194
314.41	12.197
314.78	12.595
315.14	13.270
315.51	14.286
315.87	13.139
316.24	14.659
316.61	14.324
316.97	13.578
317.34	15.094
317.70	15.277
318.07	15.925
318.43	16.432
318.80	15.061
319.16	15.997
319.53	15.752
319.89	16.039
320.26	15.736
320.62	17.033
320.99	16.111
321.35	17.811
321.72	19.545
322.08	16.713
322.45	18.347
322.81	17.932
323.18	19.538
323.54	19.861
323.91	19.583
324.27	19.275
324.64	19.118
325.00	20.259
325.37	20.742
325.73	20.911
326.10	21.541
326.46	20.727
326.83	21.440
327.19	22.410
327.56	22.524
327.92	23.361
328.29	23.241
328.65	23.545
329.01	22.583
329.38	23.266
329.74	22.374
330.11	24.761
330.47	24.808
330.84	23.469
331.20	23.858
331.56	24.093
331.93	22.840
332.29	23.469
332.66	24.150
333.02	23.883
333.38	25.131
333.75	24.437
334.11	25.755
334.48	24.103
334.84	25.338
335.20	23.952
335.57	24.181
335.93	24.811
336.29	24.129
336.66	26.501
337.02	24.380
337.38	24.678
337.75	25.169
338.11	25.485
338.47	24.894
338.84	23.793
339.20	23.290
339.56	24.138
339.93	23.829
340.29	23.697
340.65	24.308
341.02	25.181
341.38	25.534
341.74	24.668
342.11	23.957
342.47	23.790
342.83	25.677
343.20	25.061
343.56	24.940
343.92	25.103
344.28	25.439
344.65	24.613
345.01	24.206
345.37	25.721
345.73	24.524
346.10	25.339
346.46	26.635
346.82	24.846
347.19	25.889
347.55	24.980
347.91	23.565
348.27	23.703
348.63	25.475
349.00	25.133
349.36	25.914
349.72	26.529
350.08	25.233
350.45	25.209
350.81	25.382
351.17	24.422
351.53	24.634
351.89	24.320
352.26	25.019
352.62	24.359
352.98	25.844
353.34	27.042
353.70	24.465
354.07	25.231
354.43	24.885
354.79	24.981
355.15	26.417
355.51	25.529
355.87	25.979
356.24	25.712
356.60	25.875
356.96	25.550
357.32	25.019
357.68	25.698
358.04	25.912
358.40	26.687
358.77	26.521
359.13	26.877
359.49	25.945
359.85	26.061
360.21	25.929
360.57	26.569
360.93	25.830
361.29	26.479
361.66	26.100
362.02	25.355
362.38	26.407
362.74	25.973
363.10	26.087
363.46	26.657
363.82	26.718
364.18	25.391
364.54	26.252
364.90	26.707
365.26	26.856
365.62	26.657
365.98	26.841
366.35	26.138
366.71	26.509
367.07	26.962
367.43	26.125
367.79	26.995
368.15	26.323
368.51	27.223
368.87	26.698
369.23	26.958
369.59	27.040
369.95	26.573
370.31	26.215
370.67	25.746
371.03	28.151
371.39	26.801
371.75	27.006
372.11	27.124
372.47	27.808
372.83	27.056
373.19	27.073
373.55	28.110
373.91	27.417
374.27	27.116
374.63	27.390
374.99	27.695
375.35	27.890
375.71	27.573
376.07	27.188
376.42	27.046
376.78	28.966
377.14	27.588
377.50	28.027
377.86	28.059
378.22	27.483
378.58	28.148
378.94	27.339
379.30	26.501
379.66	27.393
380.02	28.328
380.38	27.342
380.74	28.028
381.09	27.862
381.45	27.457
381.81	27.423
382.17	26.801
382.53	27.295
382.89	27.321
383.25	27.946
383.61	27.262
383.97	27.235
384.32	27.848
384.68	28.342
385.04	27.315
385.40	27.995
385.76	26.214
386.12	27.087
386.48	28.328
386.83	28.606
387.19	27.621
387.55	28.092
387.91	28.522
388.27	27.543
388.62	28.228
388.98	27.872
389.34	26.353
389.70	27.123
390.06	28.720
390.42	26.157
390.77	27.518
391.13	27.761
391.49	27.344
391.85	27.938
392.20	28.129
392.56	28.196
392.92	27.400
393.28	26.570
393.64	27.466
393.99	26.971
394.35	26.133
394.71	26.900
395.07	27.129
395.42	26.815
395.78	28.254
396.14	27.349
396.50	27.196
396.85	26.829
397.21	27.196
397.57	27.256
397.92	25.881
398.28	26.751
398.64	27.225
399.00	27.044
399.35	26.892
399.71	26.656
400.07	26.712
400.42	26.567
400.78	26.628
401.14	26.189
401.49	25.403
401.85	26.999
402.21	26.245
402.57	26.511
402.92	26.424
403.28	26.313
403.63	26.251
403.99	25.995
404.35	26.084
404.70	26.285
405.06	25.379
405.42	25.733
405.77	26.957
406.13	26.302
406.49	24.446
406.84	25.888
407.20	25.742
407.55	25.846
407.91	26.420
408.27	25.834
408.62	25.961
408.98	25.429
409.34	25.599
409.69	24.891
410.05	25.522
410.40	25.736
410.76	24.957
411.11	25.237
411.47	25.741
411.83	25.015
412.18	25.302
412.54	25.225
412.89	24.366
413.25	26.112
413.60	25.526
413.96	25.733
414.31	25.502
414.67	26.133
415.03	25.096
415.38	25.741
415.74	24.953
416.09	25.859
416.45	25.469
416.80	27.133
417.16	25.207
417.51	24.650
417.87	25.156
418.22	26.245
418.58	26.115
418.93	25.223
419.29	24.584
419.64	25.439
420.00	26.909
420.35	25.784
420.71	26.954
421.06	25.191
421.42	26.310
421.77	27.041
422.12	26.736
422.48	26.348
422.83	27.846
423.19	26.080
423.54	27.043
423.90	26.501
424.25	27.133
424.61	27.974
424.96	26.595
425.31	27.586
425.67	28.002
426.02	26.921
426.38	26.196
426.73	27.646
427.09	27.699
427.44	26.449
427.79	27.158
428.15	28.757
428.50	28.914
428.85	28.395
429.21	27.553
429.56	27.717
429.92	28.195
430.27	28.108
430.62	27.509
430.98	28.144
431.33	28.075
431.68	27.605
432.04	28.298
432.39	29.089
432.74	28.747
433.10	28.627
433.45	29.121
433.80	29.068
434.16	28.586
434.51	28.483
434.86	29.396
435.22	28.633
435.57	29.105
435.92	29.482
436.28	30.472
436.63	29.335
436.98	30.912
437.34	30.422
437.69	28.499
438.04	29.677
438.39	29.889
438.75	30.178
439.10	29.574
439.45	29.226
439.81	31.174
440.16	30.215
440.51	29.505
440.86	30.712
441.22	29.978
441.57	30.079
441.92	30.207
442.27	29.845
442.63	30.132
442.98	29.957
443.33	29.888
443.68	30.533
444.03	30.631
444.39	31.827
444.74	31.159
445.09	30.542
445.44	31.615
445.79	30.994
446.15	30.684
446.50	31.435
446.85	31.026
447.20	30.398
447.55	31.213
447.91	32.339
448.26	31.203
448.61	31.509
448.96	31.917
449.31	32.398
449.66	32.171
450.02	30.956
450.37	31.760
450.72	32.397
451.07	32.228
451.42	31.832
451.77	31.901
452.12	31.934
452.47	31.531
452.83	31.887
453.18	33.093
453.53	32.623
453.88	31.943
454.23	32.307
454.58	31.876
454.93	32.189
455.28	33.354
455.63	32.033
455.98	31.810
456.34	32.827
456.69	32.256
457.04	32.339
457.39	32.000
457.74	33.221
458.09	32.229
458.44	32.859
458.79	33.103
459.14	31.860
459.49	33.012
459.84	32.174
460.19	31.921
460.54	32.251
460.89	33.209
461.24	32.302
461.59	33.333
461.94	32.329
462.29	32.838
462.64	33.040
462.99	33.717
463.34	33.701
463.69	32.547
464.04	33.391
464.39	32.284
464.74	32.181
465.09	33.082
465.44	33.243
465.79	33.587
466.14	31.691
466.49	32.610
466.84	32.497
467.19	33.099
467.54	32.913
467.89	32.453
468.24	32.774
468.59	33.333
468.94	32.669
469.29	32.865
469.64	33.891
469.99	33.612
470.34	32.954
470.68	32.621
471.03	32.221
471.38	33.444
471.73	32.854
472.08	35.029
472.43	34.078
472.78	33.739
473.13	32.228
473.48	33.496
473.83	34.040
474.17	33.313
474.52	33.235
474.87	33.030
475.22	33.238
475.57	32.844
475.92	32.908
476.27	31.937
476.61	32.922
476.96	33.699
477.31	33.522
477.66	34.031
478.01	32.543
478.36	32.544
478.70	33.052
479.05	33.159
479.40	33.482
479.75	33.466
480.10	33.640
480.45	32.820
480.79	32.627
481.14	32.810
481.49	33.120
481.84	33.201
482.19	33.450
482.53	32.543
482.88	33.154
483.23	33.108
483.58	33.618
483.92	33.501
484.27	32.834
484.62	33.192
484.97	32.918
485.31	32.752
485.66	33.052
486.01	32.385
486.36	32.111
486.70	31.711
487.05	31.736
487.40	31.956
487.75	32.080
488.09	32.358
488.44	32.186
488.79	32.246
489.13	32.773
489.48	32.721
489.83	32.444
490.17	33.361
490.52	33.333
490.87	33.362
491.22	33.023
491.56	33.245
491.91	33.333
492.26	32.517
492.60	32.711
492.95	32.578
493.30	32.985
493.64	32.794
493.99	33.005
494.34	32.945
494.68	32.891
495.03	32.959
495.37	33.814
495.72	33.473
496.07	33.423
496.41	32.971
496.76	33.685
497.11	33.033
497.45	32.267
497.80	32.762
498.14	33.518
498.49	33.287
498.84	33.084
499.18	32.633
499.53	32.338
499.87	32.570
500.22	32.796
500.56	33.565
500.91	33.673
501.26	32.981
501.60	33.379
501.95	32.258
502.29	33.244
502.64	33.348
502.98	31.703
503.33	33.719
503.67	32.848
504.02	32.691
504.36	32.896
504.71	33.633
505.06	32.755
505.40	33.786
505.75	33.115
506.09	33.504
506.44	33.741
506.78	33.223
507.13	33.010
507.47	32.703
507.82	33.820
508.16	34.395
508.51	33.478
508.85	33.001
509.19	33.235
509.54	33.496
509.88	33.416
510.23	32.745
510.57	32.288
510.92	33.467
511.26	33.283
511.61	32.890
511.95	33.549
512.30	33.700
512.64	33.229
512.98	32.855
513.33	32.838
513.67	33.713
514.02	34.078
514.36	33.853
514.70	32.960
515.05	33.138
515.39	33.717
515.74	34.226
516.08	33.279
516.42	35.628
516.77	33.173
517.11	34.613
517.46	33.998
517.80	33.206
518.14	33.521
518.49	32.690
518.83	33.297
519.17	34.498
519.52	34.626
519.86	34.278
520.20	34.027
520.55	33.804
520.89	34.253
521.23	35.164
521.58	33.678
521.92	34.052
522.26	33.531
522.61	35.354
522.95	34.054
523.29	34.678
523.64	33.121
523.98	35.563
524.32	34.256
524.66	34.609
525.01	34.497
525.35	33.176
525.69	34.497
526.04	35.039
526.38	33.608
526.72	32.816
527.06	32.998
527.41	34.583
527.75	33.962
528.09	34.256
528.43	34.960
528.78	33.930
529.12	34.738
529.46	33.898
529.80	33.119
530.15	34.649
530.49	34.176
530.83	34.065
531.17	34.133
531.51	33.170
531.86	33.756
532.20	32.509
532.54	33.710
532.88	33.666
533.22	33.821
533.57	34.167
533.91	33.217
534.25	33.410
534.59	34.737
534.93	32.992
535.27	33.068
535.62	33.897
535.96	33.038
536.30	34.613
536.64	32.298
536.98	32.662
537.32	32.938
537.66	32.844
538.01	33.622
538.35	34.248
538.69	33.010
539.03	32.649
539.37	33.313
539.71	33.765
540.05	33.231
540.39	34.088
540.73	32.975
541.07	32.622
541.42	33.706
541.76	32.737
542.10	32.552
542.44	34.352
542.78	33.543
543.12	33.558
543.46	33.208
543.80	33.208
544.14	34.303
544.48	34.246
544.82	33.884
545.16	32.240
545.50	33.374
545.84	34.091
546.18	34.005
546.52	33.311
546.86	33.849
547.20	32.364
547.54	33.376
547.88	33.333
548.22	33.455
548.56	33.117
548.90	33.333
549.24	34.239
549.58	33.441
549.92	33.071
550.26	33.401
550.60	33.134
550.94	33.718
551.28	34.069
551.62	34.414
551.96	33.919
552.30	32.301
552.64	34.045
552.98	32.023
553.32	33.419
553.66	32.769
554.00	33.398
554.34	35.419
554.68	34.140
555.02	34.148
555.36	33.311
555.69	33.442
556.03	34.013
556.37	33.716
556.71	34.615
557.05	32.110
557.39	33.000
557.73	34.569
558.07	33.736
558.41	33.448
558.75	33.311
559.08	34.167
559.42	33.429
559.76	33.143
560.10	33.861
560.44	33.245
560.78	34.271
561.12	33.058
561.45	33.292
561.79	33.208
562.13	32.786
562.47	32.317
562.81	33.182
563.15	33.549
563.48	31.242
563.82	33.999
564.16	32.960
564.50	32.369
564.84	32.158
565.17	31.551
565.51	33.436
565.85	33.560
566.19	33.155
566.52	31.167
566.86	32.925
567.20	32.528
567.54	32.533
567.88	32.968
568.21	31.802
568.55	32.977
568.89	31.843
569.23	31.752
569.56	32.109
569.90	31.728
570.24	31.244
570.57	31.343
570.91	30.920
571.25	30.605
571.59	30.711
571.92	31.055
572.26	30.782
572.60	30.769
572.93	31.369
573.27	30.471
573.61	30.374
573.95	31.001
574.28	30.805
574.62	30.880
574.96	30.357
575.29	30.813
575.63	30.530
575.97	29.869
576.30	30.499
576.64	30.552
576.98	30.067
577.31	30.952
577.65	30.237
577.98	30.017
578.32	30.355
578.66	30.404
578.99	30.417
579.33	30.650
579.67	30.048
580.00	29.741
580.34	30.063
580.67	30.403
581.01	30.305
581.35	30.093
581.68	30.561
582.02	30.810
582.35	30.299
582.69	30.507
583.02	30.063
583.36	30.078
583.70	30.643
584.03	30.375
584.37	31.247
584.70	30.555
585.04	30.883
585.37	30.117
585.71	30.854
586.04	30.726
586.38	30.261
586.72	30.502
587.05	30.726
587.39	30.822
587.72	30.642
588.06	30.891
588.39	30.271
588.73	30.455
589.06	31.369
589.40	31.268
589.73	30.744
590.07	31.778
590.40	32.091
590.73	31.840
591.07	31.727
591.40	31.257
591.74	31.412
592.07	31.614
592.41	31.495
592.74	31.124
593.08	30.566
593.41	31.358
593.75	31.069
594.08	31.475
594.41	32.128
594.75	30.959
595.08	31.756
595.42	31.205
595.75	31.227
596.09	31.665
596.42	30.918
596.75	31.971
597.09	31.407
597.42	30.531
597.75	31.805
598.09	31.350
598.42	32.354
598.76	31.920
599.09	31.887
599.42	30.934
599.76	31.547
600.09	31.322
600.42	31.319
600.76	31.407
601.09	31.515
601.42	31.292
601.76	30.791
602.09	32.230
602.42	30.980
602.76	31.575
603.09	31.599
603.42	31.156
603.76	30.766
604.09	29.750
604.42	30.433
604.76	31.845
605.09	31.469
605.42	31.126
605.75	30.951
606.09	31.331
606.42	30.365
606.75	30.976
607.09	30.320
607.42	31.137
607.75	31.807
608.08	31.072
608.42	31.502
608.75	31.151
609.08	31.720
609.41	31.818
609.75	30.952
610.08	31.475
610.41	30.303
610.74	31.082
611.07	30.923
611.41	31.974
611.74	31.549
612.07	31.358
612.40	31.238
612.73	31.702
613.07	31.880
613.40	31.629
613.73	30.804
614.06	30.850
614.39	31.515
614.72	31.843
615.06	30.712
615.39	30.248
615.72	29.671
616.05	30.839
616.38	30.847
616.71	30.819
617.05	30.862
617.38	32.303
617.71	31.721
618.04	30.174
618.37	30.850
618.70	30.947
619.03	30.525
619.36	31.533
619.69	30.607
620.03	32.355
620.36	31.920
620.69	32.120
621.02	32.337
621.35	31.662
621.68	31.121
622.01	32.030
622.34	31.391
622.67	31.039
623.00	31.246
623.33	31.174
623.66	30.938
623.99	30.822
624.32	30.827
624.65	31.139
624.99	31.305
625.32	31.062
625.65	29.724
625.98	31.241
626.31	31.528
626.64	30.144
626.97	31.064
627.30	32.453
627.63	31.633
627.96	31.142
628.29	32.013
628.62	31.737
628.95	32.092
629.28	32.603
629.61	31.722
629.94	32.325
630.26	32.236
630.59	32.624
630.92	30.762
631.25	31.732
631.58	33.269
631.91	32.636
632.24	30.904
632.57	31.041
632.90	32.609
633.23	31.584
633.56	31.718
633.89	33.119
634.22	31.862
634.55	31.505
634.88	33.187
635.20	33.184
635.53	33.217
635.86	32.550
636.19	32.660
636.52	31.676
636.85	29.989
637.18	33.044
637.51	30.391
637.83	30.320
638.16	31.301
638.49	32.455
638.82	33.099
639.15	30.200
639.48	32.346
639.81	31.746
640.13	32.270
640.46	32.491
640.79	30.169
641.12	30.840
641.45	32.600
641.77	31.572
642.10	31.325
642.43	33.713
642.76	31.392
643.09	31.988
643.41	33.380
643.74	32.806
644.07	33.776
644.40	30.769
644.73	33.784
645.05	33.581
645.38	31.547
645.71	31.866
646.04	31.908
646.36	34.116
646.69	31.200
647.02	32.960
647.35	31.339
647.67	30.956
648.00	32.736
648.33	32.030
648.66	32.273
648.98	32.899
649.31	30.229
649.64	31.535
649.96	28.876
650.29	29.857
650.62	30.486
650.94	32.982
651.27	33.652
651.60	31.768
651.92	31.183
652.25	33.228
652.58	31.348
652.90	31.287
653.23	30.576
653.56	31.454
653.88	32.012
654.21	29.472
654.54	31.479
654.86	31.268
655.19	32.190
655.52	28.876
655.84	25.531
656.17	30.349
656.49	43.271
656.82	49.571
657.15	39.467
657.47	29.479
657.80	21.482
658.13	16.770
658.45	22.729
658.78	27.276
659.10	27.600
659.43	28.085
659.75	29.053
660.08	30.702
660.41	31.397
660.73	32.622
661.06	33.033
661.38	32.368
661.71	31.475
662.03	30.228
662.36	34.857
662.68	30.354
663.01	32.432
663.33	28.491
663.66	30.375
663.98	32.738
664.31	32.649
664.63	33.142
664.96	35.460
665.28	32.580
665.61	31.132
665.93	31.698
666.26	31.402
666.58	34.128
666.91	30.116
667.23	28.916
667.56	28.953
667.88	34.647
668.21	29.713
668.53	32.661
668.86	33.267
669.18	32.383
669.50	29.339
669.83	30.595
670.15	33.264
670.48	31.641
670.80	33.068
671.13	30.876
671.45	33.667
671.77	33.952
672.10	33.752
672.42	31.743
672.75	30.222
673.07	31.797
673.39	30.192
673.72	33.218
674.04	31.900
674.37	31.397
674.69	30.855
675.01	29.478
675.34	29.264
675.66	33.008
675.98	29.389
676.31	31.800
676.63	29.225
676.95	33.135
677.28	30.832
677.60	28.974
677.92	30.556
678.25	31.977
678.57	30.354
678.89	33.092
679.22	31.801
679.54	29.893
679.86	30.890
680.18	29.525
680.51	28.690
680.83	30.743
681.15	29.636
681.48	30.208
681.80	28.196
682.12	30.796
682.44	29.730
682.77	31.139
683.09	29.903
683.41	30.204
683.73	30.512
684.06	30.357
684.38	32.364
684.70	31.115
685.02	29.340
685.34	28.873
685.67	28.939
685.99	30.542
686.31	29.892
686.63	29.431
686.96	30.065
687.28	27.852
687.60	30.034
687.92	29.983
688.24	30.345
688.56	29.893
688.89	28.107
689.21	26.975
689.53	29.447
689.85	28.862
690.17	31.650
690.49	29.234
690.82	30.462
691.14	31.111
691.46	30.801
691.78	32.749
692.10	28.817
692.42	27.405
692.74	29.457
693.06	30.620
693.39	28.854
693.71	29.666
694.03	30.572
694.35	30.522
694.67	27.495
694.99	29.490
695.31	30.856
695.63	29.412
695.95	30.769
696.27	32.301
696.59	30.310
696.91	30.633
697.23	33.484
697.56	27.593
697.88	26.347
698.20	29.623
698.52	27.432
698.84	29.569
699.16	32.623
699.48	30.508
699.80	31.808
700.12	32.102
700.44	30.374
700.76	30.310
701.08	32.898
701.40	29.870
701.72	33.422
702.04	30.623
702.36	30.645
702.68	30.319
703.00	27.820
703.32	31.514
703.64	30.730
703.96	27.604
704.28	33.333
704.60	33.521
704.91	33.053
705.23	31.818
705.55	33.531
705.87	28.889
706.19	34.169
706.51	36.677
706.83	32.153
707.15	31.016
707.47	29.540
707.79	29.885
708.11	28.118
708.43	31.685
708.74	25.792
709.06	27.907
709.38	31.017
709.70	29.700
710.02	32.337
710.34	30.387
710.66	30.833
710.98	29.235
711.29	27.577
711.61	29.526
711.93	29.483
712.25	27.711
712.57	28.296
712.89	31.818
713.20	33.866
713.52	32.399
713.84	30.514
714.16	23.768
714.48	28.818
714.80	27.913
715.11	26.862
715.43	27.654
715.75	29.859
716.07	29.769
716.39	29.714
716.70	29.907
717.02	31.987
717.34	36.331
717.66	35.764
717.97	31.061
718.29	28.521
718.61	29.730
718.93	32.180
719.24	33.893
719.56	30.345
719.88	27.707
720.20	31.613
720.51	32.026
720.83	32.441
721.15	31.633
721.46	28.767
721.78	29.965
722.10	33.681
722.42	33.445
722.73	27.437
723.05	32.281
723.37	33.569
723.68	27.344
724.00	35.985
724.32	31.179
724.63	30.769
724.95	34.510
725.27	31.227
725.58	31.618
725.90	26.761
726.22	27.740
726.53	33.110
726.85	30.293
727.16	35.570
727.48	28.239
727.80	27.698
728.11	29.286
728.43	33.696
728.74	29.720
729.06	28.315
729.38	31.579
729.69	31.333
730.01	32.566
730.32	28.523
730.64	35.216
730.96	30.030
731.27	24.465
731.59	27.586
731.90	31.476
732.22	30.857
732.53	25.641
732.85	30.409
733.16	31.024
733.48	31.661
733.80	29.275
734.11	30.982
734.43	28.947
734.74	27.346
735.06	30.159
735.37	26.804
735.69	28.116
736.00	31.193
736.32	26.667
736.63	23.344
736.95	31.366
737.26	29.878
737.58	31.288
737.89	28.916
738.21	28.146
738.52	30.100
738.83	32.234
739.15	29.965
739.46	26.897
739.78	29.592
740.09	31.195
740.41	29.448
740.72	26.032
741.04	34.615
741.35	38.281
741.66	28.854
741.98	33.047
742.29	31.944
742.61	30.531
742.92	26.695
743.23	31.600
743.55	29.057
743.86	29.412
744.18	34.746
744.49	34.711
744.80	28.111
745.12	31.696
745.43	34.579
745.74	32.444
746.06	25.877
746.37	35.349
746.68	29.646
747.00	32.735
747.31	31.092
747.62	31.967
747.94	30.043
748.25	31.128
748.56	32.627
748.88	27.679
749.19	29.302
749.50	29.680
749.82	28.807
750.13	33.202
750.44	26.667
750.75	31.879
751.07	25.658
751.38	32.013
751.69	30.976
752.01	28.322
752.32	25.914
752.63	29.195
752.94	27.622
753.26	30.859
753.57	29.183
753.88	32.584
754.19	27.798
754.51	27.243
754.82	27.517
755.13	30.068
755.44	26.667
755.75	31.959
756.07	25.685
756.38	24.837
756.69	22.813
757.00	28.190
757.31	25.352
757.63	26.446
757.94	26.862
758.25	25.121
758.56	25.400
758.87	29.825
759.18	30.814
759.50	27.356
759.81	28.783
760.12	27.809
760.43	25.490
760.74	24.810
761.05	26.790
761.36	23.958
761.67	28.841
761.99	26.197
762.30	28.296
762.61	26.736
762.92	28.788
763.23	27.925
763.54	28.846
763.85	26.848
764.16	25.694
764.47	26.014
764.78	24.756
765.10	28.963
765.41	24.716
765.72	27.901
766.03	30.514
766.34	27.875
766.65	29.658
766.96	33.198
767.27	34.112
767.58	32.673
767.89	33.149
768.20	39.634
768.51	29.592
768.82	29.386
769.13	29.020
769.44	25.940
769.75	26.592
770.06	30.252
770.37	27.193
770.68	29.333
770.99	30.932
771.30	36.820
771.61	28.077
771.92	31.679
772.23	28.629
772.54	36.889
772.85	31.188
773.16	29.348
773.47	27.778
773.78	32.673
774.09	32.955
774.39	34.545
774.70	26.471
775.01	28.947
775.32	36.025
775.63	37.671
775.94	37.654
776.25	32.414
776.56	38.931
776.87	42.748
777.18	34.848
777.48	41.732
777.79	34.615
778.10	30.303
778.41	42.537
778.72	28.571
779.03	37.821
779.34	37.838
779.65	30.435
779.95	36.025
780.26	35.119
780.57	39.456
780.88	39.716
781.19	44.167
781.50	37.870
781.80	33.333
782.11	38.095
782.42	30.460
782.73	34.463
783.04	27.742
783.34	34.109
783.65	41.497
783.96	27.097
784.27	27.152
784.57	28.289
784.88	32.609
785.19	32.500
785.50	29.310
785.81	36.434
786.11	31.111
786.42	37.795
786.73	35.135
787.04	38.679
787.34	33.333
787.65	37.121
787.96	41.667
788.26	35.433
788.57	34.307
788.88	33.803
789.19	26.718
789.49	32.432
789.80	36.719
790.11	30.579
790.41	48.148
790.72	35.185
791.03	43.269
791.33	38.384
791.64	42.105
791.95	44.211
792.25	38.542
792.56	41.000
792.87	41.463
793.17	30.682
793.48	38.824
793.79	39.080
794.09	37.500
794.40	40.517
794.70	37.302
795.01	35.385
795.32	42.748
795.62	30.769
795.93	36.975
796.23	32.520
796.54	45.918
796.85	43.182
797.15	49.351
797.46	50.000
797.76	37.500
798.07	46.667
798.37	45.000
798.68	50.000
798.99	53.659
799.29	52.000
799.60	40.698
799.90	31.579
800.21	50.000
800.51	52.113
800.82	56.897
801.12	53.846
801.43	58.667
801.73	48.276
802.04	44.156
802.34	36.986
802.65	56.863
802.95	65.217
803.26	38.710
803.56	58.333
803.87	52.239
804.17	34.921
804.48	32.075
804.78	48.611
805.09	53.030
805.39	50.794
805.70	56.140
806.00	38.571
806.30	54.687
806.61	50.588
806.91	45.556
807.22	44.565
807.52	34.211
807.83	42.105
808.13	55.072
808.43	53.226
808.74	68.493
809.04	48.214
809.35	45.588
809.65	57.576
809.95	66.667
810.26	66.667
810.56	57.812
810.86	69.388
811.17	64.912
811.47	43.478
811.77	51.724
812.08	48.276
812.38	54.762
812.69	61.905
812.99	57.778
813.29	62.857
813.59	83.871
813.90	68.966
814.20	75.410
814.50	50.000
814.81	47.368
815.11	72.222
815.41	69.643
815.72	66.071
816.02	58.000
816.32	73.171
816.62	65.517
816.93	63.636
817.23	78.049
817.53	67.857
817.84	66.667
818.14	59.524
818.44	64.583
818.74	84.906
819.04	51.282
819.35	78.788
819.65	86.538
819.95	81.481
820.25	87.234
820.56	105.405
820.86	68.421
821.16	72.340
821.46	86.842
821.76	67.273
822.07	42.857
822.37	57.895
822.67	76.744
822.97	63.158
823.27	86.957
823.57	75.000
823.88	89.744
824.18	78.788
824.48	86.957
824.78	97.222
825.08	113.043
825.38	100.000
825.69	58.824
825.99	44.681
826.29	52.778
826.59	80.000
826.89	80.000
827.19	51.429
827.49	96.774
827.79	100.000
828.09	59.524
828.39	61.111
828.70	64.865
829.00	100.000
829.30	100.000
829.60	72.222
829.90	83.871
830.20	69.697
830.50	78.378
830.80	112.500
831.10	130.769
831.40	66.667
831.70	120.833
832.00	66.667
832.30	126.087
832.60	120.833
832.90	93.939
833.20	130.000
833.50	89.474
833.80	52.941
834.10	92.105
834.40	100.000
834.70	76.667
835.00	108.000
835.30	78.378
835.60	96.875
835.90	83.784
836.20	76.923
836.50	81.818
836.80	78.049
837.10	130.435
837.40	238.462
837.70	73.684
838.00	116.667
838.30	112.500
838.60	116.000
838.90	260.000
839.19	75.000
839.49	93.333
839.79	79.310
840.09	103.846
840.39	86.667
840.69	121.053
840.99	114.286
841.29	143.478
841.59	160.000
841.88	140.000
842.18	77.778
842.48	78.571
842.78	111.111
843.08	123.077
843.38	100.000
843.68	157.143
843.97	385.714
844.27	113.043
844.57	1000.000
844.87	171.429
845.17	133.333
845.47	109.524
845.76	116.667
846.06	414.286
846.36	111.765
846.66	230.769
846.96	143.750
847.25	115.385
847.55	121.053
847.85	50.000
848.15	380.000
848.44	254.545
848.74	119.048
849.04	145.833
849.34	100.000
849.63	150.000
849.93	212.500
850.23	600.000
850.53	300.000
850.82	209.091
851.12	129.412
851.42	108.333
851.71	175.000
852.01	0.000
852.31	152.941
852.61	330.000
852.90	104.167
853.20	155.556
853.50	-400.000
853.79	76.000
854.09	93.750
854.39	75.862
854.68	79.310
854.98	90.476
855.28	116.129
855.57	200.000
855.87	133.333
856.17	81.481
856.46	131.579
856.76	116.129
857.05	170.588
857.35	209.091
857.65	153.846
857.94	65.000
858.24	222.222
858.53	128.571
858.83	285.714
859.13	143.478
859.42	244.444
859.72	187.500
860.01	175.000
860.31	700.000
860.60	180.000
860.90	362.500
861.20	223.077
861.49	285.714
861.79	-2000.000
862.08	371.429
862.38	200.000
862.67	128.571
862.97	350.000
863.26	106.667
863.56	575.000
863.85	276.923
864.15	188.235
864.44	155.556
864.74	225.000
865.03	209.091
865.33	162.500
865.62	153.333
865.92	300.000
866.21	375.000
866.51	340.000
866.80	166.667
867.10	300.000
867.39	1900.000
867.69	340.000
867.98	625.000
868.27	133.333
868.57	160.000
868.86	550.000
869.16	128.571
869.45	2200.000
869.75	-316.667
870.04	400.000
870.33	360.000
870.63	162.500
870.92	152.941
871.22	475.000
871.51	371.429
871.80	225.000
872.10	169.231
>>>>>End Processed Spectral Data<<<<<
