SpectraSuite Data File
++++++++++++++++++++++++++++++++++++
Date: Tue May 12 17:11:18 PDT 2015
User: schluterlab
Dark Spectrum Present: Yes
Reference Spectrum Present: Yes
Number of Sampled Component Spectra: 1
Spectrometers: USB2E3373
Integration Time (usec): 3000 (USB2E3373)
Spectra Averaged: 3 (USB2E3373)
Boxcar Smoothing: 0 (USB2E3373)
Correct for Electrical Dark: No (USB2E3373)
Strobe/Lamp Enabled: No (USB2E3373)
Correct for Detector Non-linearity: No (USB2E3373)
Correct for Stray Light: No (USB2E3373)
Number of Pixels in Processed Spectrum: 2048
>>>>>Begin Processed Spectral Data<<<<<
178.53	0.000
178.91	-200.000
179.29	-725.000
179.67	-3600.000
180.04	-146.667
180.42	750.000
180.80	1700.000
181.18	0.000
181.56	-425.000
181.94	0.000
182.31	1300.000
182.69	-2800.000
183.07	742.857
183.45	-2800.000
183.83	-1500.000
184.20	380.000
184.58	485.714
184.96	-176.923
185.34	-141.667
185.72	1650.000
186.09	-600.000
186.47	-2800.000
186.85	966.667
187.23	620.000
187.61	1600.000
187.98	575.000
188.36	328.571
188.74	316.667
189.12	300.000
189.49	900.000
189.87	0.000
190.25	500.000
190.63	2100.000
191.00	-166.667
191.38	-2600.000
191.76	-700.000
192.14	500.000
192.51	-3200.000
192.89	1400.000
193.27	1000.000
193.65	-1066.667
194.02	-640.000
194.40	557.143
194.78	-200.000
195.15	246.667
195.53	-2800.000
195.91	-380.000
196.29	4100.000
196.66	262.500
197.04	625.000
197.42	-1700.000
197.79	650.000
198.17	291.667
198.55	0.000
198.92	528.571
199.30	966.667
199.68	1700.000
200.05	566.667
200.43	-350.000
200.81	194.444
201.18	3700.000
201.56	258.333
201.94	-650.000
202.31	-262.500
202.69	-300.000
203.07	3100.000
203.44	-450.000
203.82	283.333
204.19	640.000
204.57	-850.000
204.95	-675.000
205.32	-520.000
205.70	566.667
206.08	800.000
206.45	-900.000
206.83	377.778
207.20	184.211
207.58	191.667
207.96	520.000
208.33	0.000
208.71	471.429
209.08	680.000
209.46	-2600.000
209.84	-925.000
210.21	720.000
210.59	-460.000
210.96	275.000
211.34	-800.000
211.71	381.818
212.09	750.000
212.46	1100.000
212.84	-350.000
213.22	422.222
213.59	-2100.000
213.97	230.000
214.34	800.000
214.72	766.667
215.09	833.333
215.47	-2500.000
215.84	-330.000
216.22	-325.000
216.59	0.000
216.97	0.000
217.34	1150.000
217.72	-1100.000
218.09	866.667
218.47	337.500
218.84	475.000
219.22	866.667
219.59	833.333
219.97	557.143
220.34	433.333
220.72	1600.000
221.09	3300.000
221.47	275.000
221.84	1133.333
222.22	310.000
222.59	244.444
222.97	221.429
223.34	175.000
223.72	-1750.000
224.09	933.333
224.46	169.231
224.84	-775.000
225.21	433.333
225.59	260.000
225.96	1200.000
226.34	-440.000
226.71	-625.000
227.08	-460.000
227.46	0.000
227.83	-433.333
228.21	-1500.000
228.58	325.000
228.95	1050.000
229.33	322.222
229.70	950.000
230.08	384.615
230.45	3100.000
230.82	-900.000
231.20	-700.000
231.57	-1033.333
231.95	460.000
232.32	233.333
232.69	650.000
233.07	275.000
233.44	-1500.000
233.81	253.333
234.19	151.852
234.56	168.750
234.93	123.529
235.31	185.000
235.68	218.750
236.05	110.714
236.43	100.000
236.80	214.286
237.17	124.138
237.55	93.750
237.92	102.500
238.29	112.121
238.67	75.000
239.04	73.171
239.41	60.417
239.79	47.500
240.16	68.750
240.53	55.738
240.91	49.275
241.28	55.932
241.65	42.424
242.02	56.338
242.40	34.286
242.77	48.352
243.14	34.177
243.51	49.495
243.89	26.168
244.26	37.383
244.63	35.644
245.00	31.193
245.38	30.508
245.75	24.242
246.12	32.593
246.49	20.567
246.87	20.492
247.24	20.000
247.61	27.500
247.98	23.810
248.36	20.606
248.73	25.000
249.10	10.714
249.47	21.000
249.84	14.428
250.22	15.135
250.59	17.000
250.96	17.300
251.33	11.628
251.70	17.411
252.08	16.387
252.45	13.944
252.82	13.308
253.19	13.439
253.56	13.077
253.94	11.957
254.31	12.016
254.68	13.240
255.05	15.517
255.42	17.153
255.79	13.029
256.16	12.203
256.54	12.662
256.91	10.784
257.28	12.709
257.65	9.091
258.02	10.619
258.39	14.900
258.76	16.232
259.14	9.714
259.51	13.703
259.88	10.030
260.25	9.615
260.62	9.863
260.99	9.642
261.36	10.864
261.73	10.372
262.10	10.471
262.47	10.750
262.85	8.800
263.22	12.339
263.59	10.230
263.96	9.524
264.33	9.877
264.70	12.776
265.07	10.732
265.44	9.404
265.81	10.613
266.18	11.899
266.55	7.092
266.92	9.396
267.29	9.211
267.66	8.744
268.03	10.538
268.40	9.937
268.77	9.031
269.14	7.158
269.51	7.795
269.88	10.816
270.25	7.559
270.62	6.867
270.99	11.156
271.36	11.382
271.73	6.289
272.10	6.465
272.47	6.746
272.84	6.986
273.21	6.818
273.58	11.741
273.95	7.187
274.32	8.949
274.69	8.858
275.06	10.018
275.43	8.238
275.80	7.547
276.17	9.375
276.54	8.411
276.91	9.328
277.28	7.299
277.65	7.565
278.02	7.537
278.39	8.813
278.76	10.000
279.13	7.295
279.50	10.727
279.87	8.380
280.23	7.919
280.60	6.934
280.97	7.759
281.34	8.581
281.71	7.652
282.08	8.205
282.45	7.770
282.82	8.696
283.19	9.062
283.56	7.603
283.92	6.840
284.29	6.822
284.66	6.050
285.03	8.126
285.40	6.942
285.77	7.099
286.14	9.288
286.51	8.129
286.87	5.854
287.24	4.204
287.61	5.927
287.98	8.060
288.35	7.111
288.72	6.980
289.08	7.057
289.45	8.994
289.82	6.719
290.19	8.785
290.56	9.898
290.93	7.626
291.29	7.182
291.66	6.921
292.03	8.555
292.40	7.453
292.77	7.382
293.13	7.703
293.50	6.883
293.87	7.046
294.24	8.392
294.60	8.075
294.97	7.832
295.34	7.437
295.71	8.016
296.08	7.867
296.44	8.005
296.81	7.692
297.18	7.224
297.55	8.867
297.91	6.897
298.28	8.454
298.65	8.834
299.02	10.133
299.38	8.513
299.75	9.390
300.12	9.518
300.48	10.304
300.85	9.297
301.22	8.953
301.59	8.962
301.95	8.401
302.32	9.662
302.69	9.729
303.05	11.223
303.42	9.417
303.79	10.293
304.15	9.791
304.52	9.408
304.89	11.407
305.25	10.345
305.62	11.407
305.99	8.370
306.35	9.789
306.72	10.094
307.09	10.145
307.45	11.299
307.82	10.494
308.19	11.340
308.55	11.600
308.92	12.365
309.29	12.623
309.65	11.397
310.02	12.475
310.38	11.167
310.75	10.511
311.12	11.686
311.48	12.741
311.85	11.164
312.22	12.034
312.58	11.467
312.95	12.427
313.31	12.453
313.68	11.163
314.05	14.103
314.41	12.477
314.78	12.500
315.14	13.081
315.51	13.434
315.87	14.416
316.24	13.632
316.61	14.056
316.97	13.945
317.34	14.106
317.70	13.521
318.07	14.858
318.43	14.851
318.80	14.974
319.16	14.073
319.53	14.779
319.89	14.068
320.26	14.898
320.62	15.110
320.99	15.157
321.35	16.605
321.72	15.560
322.08	16.343
322.45	16.440
322.81	15.188
323.18	15.631
323.54	17.509
323.91	17.770
324.27	16.004
324.64	16.522
325.00	17.586
325.37	16.695
325.73	18.044
326.10	17.896
326.46	18.662
326.83	16.800
327.19	18.233
327.56	18.211
327.92	18.607
328.29	18.903
328.65	20.377
329.01	17.964
329.38	18.951
329.74	18.958
330.11	18.158
330.47	19.437
330.84	18.896
331.20	19.374
331.56	19.603
331.93	18.820
332.29	18.622
332.66	19.813
333.02	18.643
333.38	17.539
333.75	19.516
334.11	19.211
334.48	18.205
334.84	18.412
335.20	17.879
335.57	18.472
335.93	19.512
336.29	18.242
336.66	20.154
337.02	18.477
337.38	19.776
337.75	19.341
338.11	18.565
338.47	18.798
338.84	17.528
339.20	18.268
339.56	19.176
339.93	18.478
340.29	18.151
340.65	19.698
341.02	20.998
341.38	18.555
341.74	19.186
342.11	18.364
342.47	19.114
342.83	19.852
343.20	18.674
343.56	18.348
343.92	18.662
344.28	17.384
344.65	18.174
345.01	17.540
345.37	16.987
345.73	17.937
346.10	17.769
346.46	20.096
346.82	18.210
347.19	19.165
347.55	17.330
347.91	18.278
348.27	17.971
348.63	18.671
349.00	18.355
349.36	18.132
349.72	19.037
350.08	18.866
350.45	18.888
350.81	18.578
351.17	17.565
351.53	18.245
351.89	18.415
352.26	18.972
352.62	19.005
352.98	18.175
353.34	19.029
353.70	17.966
354.07	18.846
354.43	18.664
354.79	18.603
355.15	17.764
355.51	17.900
355.87	18.599
356.24	19.092
356.60	17.960
356.96	18.271
357.32	19.216
357.68	18.429
358.04	19.377
358.40	18.666
358.77	19.609
359.13	18.318
359.49	17.420
359.85	18.466
360.21	17.905
360.57	19.051
360.93	18.038
361.29	18.038
361.66	18.717
362.02	17.188
362.38	16.667
362.74	19.038
363.10	19.355
363.46	19.130
363.82	18.654
364.18	18.492
364.54	19.027
364.90	19.009
365.26	19.639
365.62	19.130
365.98	18.720
366.35	18.966
366.71	19.639
367.07	19.113
367.43	18.872
367.79	18.152
368.15	18.114
368.51	19.090
368.87	18.682
369.23	19.265
369.59	18.476
369.95	19.301
370.31	18.823
370.67	18.459
371.03	19.118
371.39	19.668
371.75	18.772
372.11	19.443
372.47	19.658
372.83	18.695
373.19	19.534
373.55	19.107
373.91	18.992
374.27	20.040
374.63	18.373
374.99	18.329
375.35	19.086
375.71	18.799
376.07	19.164
376.42	18.542
376.78	19.717
377.14	19.069
377.50	19.538
377.86	18.898
378.22	19.439
378.58	20.157
378.94	19.553
379.30	18.617
379.66	19.145
380.02	19.120
380.38	17.564
380.74	20.358
381.09	18.984
381.45	18.150
381.81	18.262
382.17	18.315
382.53	19.196
382.89	19.397
383.25	19.420
383.61	19.424
383.97	18.596
384.32	18.927
384.68	19.430
385.04	19.519
385.40	18.624
385.76	18.900
386.12	18.738
386.48	18.784
386.83	18.949
387.19	17.786
387.55	19.317
387.91	18.938
388.27	18.798
388.62	19.660
388.98	18.542
389.34	18.084
389.70	19.045
390.06	19.756
390.42	18.137
390.77	18.673
391.13	19.131
391.49	20.085
391.85	18.708
392.20	19.368
392.56	18.877
392.92	18.192
393.28	18.049
393.64	17.775
393.99	17.902
394.35	18.069
394.71	18.516
395.07	18.309
395.42	18.970
395.78	19.926
396.14	19.217
396.50	17.930
396.85	18.354
397.21	17.990
397.57	18.709
397.92	17.504
398.28	17.650
398.64	18.790
399.00	17.638
399.35	17.767
399.71	18.102
400.07	18.265
400.42	18.209
400.78	18.944
401.14	18.555
401.49	17.915
401.85	19.409
402.21	18.336
402.57	18.193
402.92	18.303
403.28	17.422
403.63	18.128
403.99	18.516
404.35	18.464
404.70	17.897
405.06	17.687
405.42	18.312
405.77	18.578
406.13	17.625
406.49	17.681
406.84	17.541
407.20	19.235
407.55	17.662
407.91	18.698
408.27	18.496
408.62	17.918
408.98	17.859
409.34	17.534
409.69	17.735
410.05	17.114
410.40	17.197
410.76	17.459
411.11	17.773
411.47	17.346
411.83	16.930
412.18	16.667
412.54	17.357
412.89	16.637
413.25	17.503
413.60	18.166
413.96	17.893
414.31	17.355
414.67	17.629
415.03	17.178
415.38	17.350
415.74	17.941
416.09	17.364
416.45	18.229
416.80	18.409
417.16	17.187
417.51	17.643
417.87	17.272
418.22	17.375
418.58	17.134
418.93	17.371
419.29	16.451
419.64	17.989
420.00	17.900
420.35	17.189
420.71	17.095
421.06	17.187
421.42	17.904
421.77	16.824
422.12	17.310
422.48	16.230
422.83	16.908
423.19	17.819
423.54	16.786
423.90	17.837
424.25	17.226
424.61	17.702
424.96	16.827
425.31	17.241
425.67	17.284
426.02	17.779
426.38	17.620
426.73	17.814
427.09	16.845
427.44	16.882
427.79	16.981
428.15	17.678
428.50	17.886
428.85	17.284
429.21	17.666
429.56	16.949
429.92	17.454
430.27	17.417
430.62	16.055
430.98	17.764
431.33	16.633
431.68	17.284
432.04	16.503
432.39	17.838
432.74	17.623
433.10	17.608
433.45	17.519
433.80	18.257
434.16	17.078
434.51	18.318
434.86	17.746
435.22	16.964
435.57	17.368
435.92	17.985
436.28	17.742
436.63	17.504
436.98	17.962
437.34	18.493
437.69	16.237
438.04	17.527
438.39	18.097
438.75	17.873
439.10	17.593
439.45	17.976
439.81	18.623
440.16	17.281
440.51	18.187
440.86	18.291
441.22	17.100
441.57	18.110
441.92	17.473
442.27	16.959
442.63	18.140
442.98	17.565
443.33	17.997
443.68	17.757
444.03	17.719
444.39	17.655
444.74	17.961
445.09	17.641
445.44	17.322
445.79	17.593
446.15	17.158
446.50	17.300
446.85	18.327
447.20	17.214
447.55	17.238
447.91	18.007
448.26	17.785
448.61	18.076
448.96	17.810
449.31	17.382
449.66	18.937
450.02	17.936
450.37	17.934
450.72	18.292
451.07	17.801
451.42	18.494
451.77	18.099
452.12	18.264
452.47	18.044
452.83	18.310
453.18	17.778
453.53	18.472
453.88	19.086
454.23	17.897
454.58	18.531
454.93	18.210
455.28	18.299
455.63	18.203
455.98	17.823
456.34	17.751
456.69	18.476
457.04	16.826
457.39	17.429
457.74	18.806
458.09	18.304
458.44	16.977
458.79	17.241
459.14	17.294
459.49	18.403
459.84	17.663
460.19	17.401
460.54	18.348
460.89	18.070
461.24	17.869
461.59	17.177
461.94	17.258
462.29	17.906
462.64	18.781
462.99	18.682
463.34	18.341
463.69	18.693
464.04	17.732
464.39	17.459
464.74	17.116
465.09	17.992
465.44	17.356
465.79	16.930
466.14	16.428
466.49	17.037
466.84	17.559
467.19	17.399
467.54	17.297
467.89	17.723
468.24	17.719
468.59	17.976
468.94	18.599
469.29	17.838
469.64	19.871
469.99	18.445
470.34	18.533
470.68	17.655
471.03	18.679
471.38	19.007
471.73	17.897
472.08	18.200
472.43	18.436
472.78	18.758
473.13	18.023
473.48	17.726
473.83	17.609
474.17	17.690
474.52	18.009
474.87	17.681
475.22	18.275
475.57	17.786
475.92	17.476
476.27	16.812
476.61	16.836
476.96	18.182
477.31	18.149
477.66	17.767
478.01	17.741
478.36	17.817
478.70	17.370
479.05	16.632
479.40	17.212
479.75	18.024
480.10	17.715
480.45	16.947
480.79	17.281
481.14	17.309
481.49	16.834
481.84	17.018
482.19	17.424
482.53	16.820
482.88	17.518
483.23	17.501
483.58	17.774
483.92	18.007
484.27	17.466
484.62	17.487
484.97	17.063
485.31	16.672
485.66	15.630
486.01	15.234
486.36	15.458
486.70	15.732
487.05	15.919
487.40	15.836
487.75	16.053
488.09	16.449
488.44	16.444
488.79	16.210
489.13	16.947
489.48	17.379
489.83	16.889
490.17	16.804
490.52	16.624
490.87	17.155
491.22	16.401
491.56	17.655
491.91	16.532
492.26	17.194
492.60	17.403
492.95	16.946
493.30	17.698
493.64	16.217
493.99	16.905
494.34	16.540
494.68	17.043
495.03	17.333
495.37	17.515
495.72	16.597
496.07	17.026
496.41	17.550
496.76	16.800
497.11	17.395
497.45	17.054
497.80	16.914
498.14	16.782
498.49	17.038
498.84	17.383
499.18	16.590
499.53	17.042
499.87	16.891
500.22	16.720
500.56	17.409
500.91	17.532
501.26	17.042
501.60	17.259
501.95	17.518
502.29	17.156
502.64	16.762
502.98	16.274
503.33	16.927
503.67	17.307
504.02	17.062
504.36	17.149
504.71	17.124
505.06	17.081
505.40	16.986
505.75	17.306
506.09	18.432
506.44	17.575
506.78	17.250
507.13	17.450
507.47	18.195
507.82	18.297
508.16	18.177
508.51	18.309
508.85	17.854
509.19	18.404
509.54	17.920
509.88	18.797
510.23	17.549
510.57	17.568
510.92	18.032
511.26	18.474
511.61	17.873
511.95	17.969
512.30	17.750
512.64	17.653
512.98	18.760
513.33	18.801
513.67	18.488
514.02	18.753
514.36	18.120
514.70	18.240
515.05	18.221
515.39	18.092
515.74	18.535
516.08	19.009
516.42	20.000
516.77	18.080
517.11	18.613
517.46	19.019
517.80	17.914
518.14	18.761
518.49	18.302
518.83	18.297
519.17	18.580
519.52	19.388
519.86	18.910
520.20	18.685
520.55	18.655
520.89	19.598
521.23	19.860
521.58	18.703
521.92	18.542
522.26	19.076
522.61	19.608
522.95	19.219
523.29	18.889
523.64	18.844
523.98	19.601
524.32	19.319
524.66	19.710
525.01	18.698
525.35	19.505
525.69	20.048
526.04	20.345
526.38	19.482
526.72	19.809
527.06	18.865
527.41	20.012
527.75	20.511
528.09	19.928
528.43	20.073
528.78	20.394
529.12	21.132
529.46	19.462
529.80	20.152
530.15	20.212
530.49	19.194
530.83	19.378
531.17	20.049
531.51	20.172
531.86	19.444
532.20	19.778
532.54	18.832
532.88	20.112
533.22	20.902
533.57	19.707
533.91	18.939
534.25	19.792
534.59	19.357
534.93	19.397
535.27	18.441
535.62	19.253
535.96	19.031
536.30	20.049
536.64	19.565
536.98	20.201
537.32	20.375
537.66	19.452
538.01	19.938
538.35	19.963
538.69	19.903
539.03	18.657
539.37	18.871
539.71	20.494
540.05	19.262
540.39	20.000
540.73	20.506
541.07	19.385
541.42	19.154
541.76	19.667
542.10	19.975
542.44	19.389
542.78	19.509
543.12	19.448
543.46	19.674
543.80	19.674
544.14	19.752
544.48	19.282
544.82	20.245
545.16	19.247
545.50	18.931
545.84	20.202
546.18	21.196
546.52	19.869
546.86	20.374
547.20	19.121
547.54	20.456
547.88	19.282
548.22	19.672
548.56	19.387
548.90	20.047
549.24	20.152
549.58	19.072
549.92	20.432
550.26	20.081
550.60	19.827
550.94	19.946
551.28	21.103
551.62	20.828
551.96	20.608
552.30	18.919
552.64	20.129
552.98	20.168
553.32	19.142
553.66	19.283
554.00	20.077
554.34	20.772
554.68	20.565
555.02	20.638
555.36	20.146
555.69	20.746
556.03	19.873
556.37	19.822
556.71	21.186
557.05	18.742
557.39	20.267
557.73	20.081
558.07	20.054
558.41	20.493
558.75	19.631
559.08	20.658
559.42	20.258
559.76	21.169
560.10	20.372
560.44	20.040
560.78	20.332
561.12	19.580
561.45	19.274
561.79	19.913
562.13	19.267
562.47	19.598
562.81	19.909
563.15	19.716
563.48	18.509
563.82	19.588
564.16	20.336
564.50	19.470
564.84	19.331
565.17	19.667
565.51	19.889
565.85	20.666
566.19	19.464
566.52	19.434
566.86	20.198
567.20	19.551
567.54	19.814
567.88	19.144
568.21	18.772
568.55	18.434
568.89	19.389
569.23	18.335
569.56	18.610
569.90	17.966
570.24	18.194
570.57	17.586
570.91	17.067
571.25	17.171
571.59	17.146
571.92	16.577
572.26	16.604
572.60	16.968
572.93	17.136
573.27	16.858
573.61	16.784
573.95	16.907
574.28	17.450
574.62	16.511
574.96	16.252
575.29	16.504
575.63	16.443
575.97	16.237
576.30	16.477
576.64	16.614
576.98	16.647
577.31	16.887
577.65	16.535
577.98	16.548
578.32	16.144
578.66	16.349
578.99	16.677
579.33	16.576
579.67	16.224
580.00	16.258
580.34	16.339
580.67	16.085
581.01	16.634
581.35	16.140
581.68	16.094
582.02	15.872
582.35	16.011
582.69	16.228
583.02	16.415
583.36	17.001
583.70	16.371
584.03	16.779
584.37	16.759
584.70	16.845
585.04	16.488
585.37	16.163
585.71	16.674
586.04	16.482
586.38	16.064
586.72	16.705
587.05	16.675
587.39	16.561
587.72	17.029
588.06	16.414
588.39	16.837
588.73	16.562
589.06	16.895
589.40	17.308
589.73	16.978
590.07	17.879
590.40	17.840
590.73	18.142
591.07	17.723
591.40	17.725
591.74	17.735
592.07	16.930
592.41	17.146
592.74	16.880
593.08	16.960
593.41	16.846
593.75	16.925
594.08	17.247
594.41	17.041
594.75	17.123
595.08	17.147
595.42	17.446
595.75	17.012
596.09	16.997
596.42	17.116
596.75	17.909
597.09	17.705
597.42	18.122
597.75	17.647
598.09	17.481
598.42	17.258
598.76	17.425
599.09	17.617
599.42	16.644
599.76	16.927
600.09	17.119
600.42	17.265
600.76	16.587
601.09	17.535
601.42	17.247
601.76	16.971
602.09	17.513
602.42	16.747
602.76	17.495
603.09	17.195
603.42	17.248
603.76	17.209
604.09	16.793
604.42	17.326
604.76	17.424
605.09	17.388
605.42	17.513
605.75	17.765
606.09	17.521
606.42	17.174
606.75	17.450
607.09	16.818
607.42	17.678
607.75	17.436
608.08	17.547
608.42	17.659
608.75	17.116
609.08	17.246
609.41	17.500
609.75	17.628
610.08	17.491
610.41	17.260
610.74	17.359
611.07	17.826
611.41	17.702
611.74	17.256
612.07	17.245
612.40	17.446
612.73	18.123
613.07	18.094
613.40	17.945
613.73	17.823
614.06	17.750
614.39	18.687
614.72	18.081
615.06	17.804
615.39	17.574
615.72	18.103
616.05	18.132
616.38	17.910
616.71	18.285
617.05	18.396
617.38	17.135
617.71	18.504
618.04	18.564
618.37	17.843
618.70	18.245
619.03	18.315
619.36	19.033
619.69	19.195
620.03	19.309
620.36	18.947
620.69	19.221
621.02	19.022
621.35	18.052
621.68	18.732
622.01	19.410
622.34	18.645
622.67	19.452
623.00	19.197
623.33	19.568
623.66	18.297
623.99	19.863
624.32	19.106
624.65	18.104
624.99	19.540
625.32	19.172
625.65	18.000
625.98	18.201
626.31	19.436
626.64	19.210
626.97	19.510
627.30	20.264
627.63	20.722
627.96	18.936
628.29	19.719
628.62	18.991
628.95	21.277
629.28	20.596
629.61	20.211
629.94	20.138
630.26	20.451
630.59	21.543
630.92	20.179
631.25	20.490
631.58	21.215
631.91	20.362
632.24	19.339
632.57	20.530
632.90	21.946
633.23	21.826
633.56	21.707
633.89	21.115
634.22	21.851
634.55	21.290
634.88	20.591
635.20	22.870
635.53	22.648
635.86	22.371
636.19	21.773
636.52	19.243
636.85	20.280
637.18	22.319
637.51	21.117
637.83	20.481
638.16	22.509
638.49	23.353
638.82	22.887
639.15	21.857
639.48	22.393
639.81	22.100
640.13	21.595
640.46	21.871
640.79	21.196
641.12	22.047
641.45	23.027
641.77	24.174
642.10	22.892
642.43	22.475
642.76	21.591
643.09	23.343
643.41	21.879
643.74	23.453
644.07	23.451
644.40	24.112
644.73	22.823
645.05	24.814
645.38	24.349
645.71	22.458
646.04	24.885
646.36	21.127
646.69	22.400
647.02	23.360
647.35	22.205
647.67	23.663
648.00	23.779
648.33	24.962
648.66	23.030
648.98	22.029
649.31	22.267
649.64	21.024
649.96	21.195
650.29	20.571
650.62	24.153
650.94	23.343
651.27	24.880
651.60	22.379
651.92	24.117
652.25	23.780
652.58	23.404
652.90	21.257
653.23	22.600
653.56	22.849
653.88	23.201
654.21	22.287
654.54	20.791
654.86	21.534
655.19	23.219
655.52	18.399
655.84	13.809
656.17	15.633
656.49	22.649
656.82	25.893
657.15	20.820
657.47	15.618
657.80	11.339
658.13	9.161
658.45	12.413
658.78	15.222
659.10	15.464
659.43	16.220
659.75	16.345
660.08	17.168
660.41	19.964
660.73	22.334
661.06	23.273
661.38	24.361
661.71	23.741
662.03	23.574
662.36	23.429
662.68	22.905
663.01	24.865
663.33	21.887
663.66	24.655
663.98	22.817
664.31	25.187
664.63	26.628
664.96	26.454
665.28	23.729
665.61	22.453
665.93	23.396
666.26	25.047
666.58	25.872
666.91	22.780
667.23	24.096
667.56	24.846
667.88	26.349
668.21	26.844
668.53	22.177
668.86	28.056
669.18	24.440
669.50	20.868
669.83	24.846
670.15	25.364
670.48	24.023
670.80	24.502
671.13	24.701
671.45	25.050
671.77	25.232
672.10	22.262
672.42	23.520
672.75	21.835
673.07	23.529
673.39	22.204
673.72	22.837
674.04	23.656
674.37	22.505
674.69	21.933
675.01	21.828
675.34	21.124
675.66	25.000
675.98	25.641
676.31	23.200
676.63	24.254
676.95	27.579
677.28	24.138
677.60	24.950
677.92	23.413
678.25	24.419
678.57	24.581
678.89	25.136
679.22	25.000
679.54	24.199
679.86	23.560
680.18	22.320
680.51	22.222
680.83	22.804
681.15	25.130
681.48	24.826
681.80	23.117
682.12	23.183
682.44	22.703
682.77	22.954
683.09	22.136
683.41	23.673
683.73	24.016
684.06	24.603
684.38	22.868
684.70	21.763
685.02	22.396
685.34	23.239
685.67	22.990
685.99	20.690
686.31	20.801
686.63	20.488
686.96	21.078
687.28	19.463
687.60	21.843
687.92	23.953
688.24	22.759
688.56	23.310
688.89	21.989
689.21	21.965
689.53	24.111
689.85	22.154
690.17	21.942
690.49	22.984
690.82	23.529
691.14	22.020
691.46	24.846
691.78	24.172
692.10	22.901
692.42	22.323
692.74	21.124
693.06	23.256
693.39	21.937
693.71	24.361
694.03	24.063
694.35	25.301
694.67	23.218
694.99	25.277
695.31	23.198
695.63	24.661
695.95	25.113
696.27	25.221
696.59	23.389
696.91	24.557
697.23	24.434
697.56	23.029
697.88	20.359
698.20	23.396
698.52	21.595
698.84	23.819
699.16	23.454
699.48	24.788
699.80	24.183
700.12	26.790
700.44	22.430
700.76	25.776
701.08	27.415
701.40	23.636
701.72	28.877
702.04	26.016
702.36	23.118
702.68	29.787
703.00	21.303
703.32	25.806
703.64	26.700
703.96	24.219
704.28	24.339
704.60	25.070
704.91	24.650
705.23	26.705
705.55	27.893
705.87	25.397
706.19	27.900
706.51	26.959
706.83	28.614
707.15	26.738
707.47	22.518
707.79	22.989
708.11	24.263
708.43	23.371
708.74	23.529
709.06	24.884
709.38	27.047
709.70	22.888
710.02	23.913
710.34	22.928
710.66	24.167
710.98	22.951
711.29	27.577
711.61	26.462
711.93	23.100
712.25	24.398
712.57	27.653
712.89	26.061
713.20	26.518
713.52	23.988
713.84	25.982
714.16	24.638
714.48	21.326
714.80	22.493
715.11	23.138
715.43	22.346
715.75	24.507
716.07	23.121
716.39	25.714
716.70	25.234
717.02	28.956
717.34	29.496
717.66	29.861
717.97	31.061
718.29	28.521
718.61	25.000
718.93	27.336
719.24	29.195
719.56	24.483
719.88	24.841
720.20	25.484
720.51	24.183
720.83	25.753
721.15	27.211
721.46	30.822
721.78	28.223
722.10	26.736
722.42	31.438
722.73	29.603
723.05	27.368
723.37	29.682
723.68	26.172
724.00	26.894
724.32	26.236
724.63	29.231
724.95	29.412
725.27	25.279
725.58	22.426
725.90	23.592
726.22	27.055
726.53	27.090
726.85	29.967
727.16	27.517
727.48	25.249
727.80	26.259
728.11	27.857
728.43	30.435
728.74	25.874
729.06	24.373
729.38	31.228
729.69	28.000
730.01	28.618
730.32	25.503
730.64	28.571
730.96	21.021
731.27	20.489
731.59	20.977
731.90	21.448
732.22	22.286
732.53	20.513
732.85	23.684
733.16	23.795
733.48	26.019
733.80	23.188
734.11	27.914
734.43	17.836
734.74	23.861
735.06	24.339
735.37	23.711
735.69	21.739
736.00	28.135
736.32	26.061
736.63	22.397
736.95	22.981
737.26	23.780
737.58	25.767
737.89	25.000
738.21	20.861
738.52	25.084
738.83	26.374
739.15	26.829
739.46	23.448
739.78	25.850
740.09	23.615
740.41	23.620
740.72	26.349
741.04	27.972
741.35	27.344
741.66	26.087
741.98	32.618
742.29	27.315
742.61	26.991
742.92	25.847
743.23	28.000
743.55	26.415
743.86	26.667
744.18	27.966
744.49	26.860
744.80	30.415
745.12	28.571
745.43	32.710
745.74	28.444
746.06	24.561
746.37	35.349
746.68	33.186
747.00	31.390
747.31	29.412
747.62	25.000
747.94	29.614
748.25	27.626
748.56	32.203
748.88	27.232
749.19	23.721
749.50	30.594
749.82	27.572
750.13	24.506
750.44	23.667
750.75	23.490
751.07	27.303
751.38	23.102
751.69	24.916
752.01	24.126
752.32	24.252
752.63	29.195
752.94	29.021
753.26	27.344
753.57	27.626
753.88	24.719
754.19	25.993
754.51	25.249
754.82	22.819
755.13	25.338
755.44	25.185
755.75	30.928
756.07	23.973
756.38	22.549
756.69	20.938
757.00	25.816
757.31	24.507
757.63	22.865
757.94	22.340
758.25	24.155
758.56	21.281
758.87	23.810
759.18	22.674
759.50	24.924
759.81	24.926
760.12	26.124
760.43	23.529
760.74	24.304
761.05	22.546
761.36	22.656
761.67	21.294
761.99	24.789
762.30	22.508
762.61	21.875
762.92	26.894
763.23	32.453
763.54	28.846
763.85	19.844
764.16	27.431
764.47	26.689
764.78	22.476
765.10	17.073
765.41	20.170
765.72	21.823
766.03	20.846
766.34	22.648
766.65	28.137
766.96	29.150
767.27	29.439
767.58	30.693
767.89	32.044
768.20	42.073
768.51	30.102
768.82	29.825
769.13	23.529
769.44	25.940
769.75	25.468
770.06	25.210
770.37	24.561
770.68	22.222
770.99	27.966
771.30	25.941
771.61	28.846
771.92	23.664
772.23	22.984
772.54	31.556
772.85	30.693
773.16	29.891
773.47	30.556
773.78	31.188
774.09	29.545
774.39	39.394
774.70	29.412
775.01	29.605
775.32	40.373
775.63	36.986
775.94	45.679
776.25	37.241
776.56	41.221
776.87	39.695
777.18	38.636
777.48	44.094
777.79	40.000
778.10	43.182
778.41	38.060
778.72	34.586
779.03	32.051
779.34	36.486
779.65	41.615
779.95	27.329
780.26	32.738
780.57	38.776
780.88	36.170
781.19	35.000
781.50	36.095
781.80	41.530
782.11	29.101
782.42	29.885
782.73	25.989
783.04	34.839
783.34	35.659
783.65	37.415
783.96	36.129
784.27	20.530
784.57	28.947
784.88	31.884
785.19	40.000
785.50	37.931
785.81	47.287
786.11	37.778
786.42	33.071
786.73	45.946
787.04	46.226
787.34	40.650
787.65	45.455
787.96	41.667
788.26	35.433
788.57	45.255
788.88	35.211
789.19	38.168
789.49	37.838
789.80	42.969
790.11	47.934
790.41	43.519
790.72	37.037
791.03	41.346
791.33	45.455
791.64	42.105
791.95	44.211
792.25	39.583
792.56	45.000
792.87	47.561
793.17	42.045
793.48	56.471
793.79	51.724
794.09	51.136
794.40	47.414
794.70	44.444
795.01	35.385
795.32	33.588
795.62	35.043
795.93	40.336
796.23	49.593
796.54	54.082
796.85	55.682
797.15	61.039
797.46	54.878
797.76	47.500
798.07	73.333
798.37	60.000
798.68	67.500
798.99	51.220
799.29	54.667
799.60	34.884
799.90	51.316
800.21	62.121
800.51	63.380
800.82	79.310
801.12	60.000
801.43	73.333
801.73	58.621
802.04	51.948
802.34	58.904
802.65	64.706
802.95	69.565
803.26	88.710
803.56	83.333
803.87	73.134
804.17	63.492
804.48	52.830
804.78	55.556
805.09	74.242
805.39	61.905
805.70	64.912
806.00	37.143
806.30	64.062
806.61	65.882
806.91	62.222
807.22	44.565
807.52	53.947
807.83	76.316
808.13	65.217
808.43	70.968
808.74	63.014
809.04	62.500
809.35	80.882
809.65	74.242
809.95	68.627
810.26	77.778
810.56	82.813
810.86	51.020
811.17	64.912
811.47	78.261
811.77	79.310
812.08	67.241
812.38	100.000
812.69	78.571
812.99	75.556
813.29	100.000
813.59	119.355
813.90	72.414
814.20	77.049
814.50	72.000
814.81	52.632
815.11	85.185
815.41	62.500
815.72	76.786
816.02	90.000
816.32	65.854
816.62	89.655
816.93	78.788
817.23	100.000
817.53	71.429
817.84	84.444
818.14	92.857
818.44	77.083
818.74	79.245
819.04	61.538
819.35	106.061
819.65	101.923
819.95	112.963
820.25	78.723
820.56	100.000
820.86	92.105
821.16	65.957
821.46	102.632
821.76	78.182
822.07	71.429
822.37	92.105
822.67	104.651
822.97	63.158
823.27	78.261
823.57	103.125
823.88	84.615
824.18	81.818
824.48	139.130
824.78	83.333
825.08	113.043
825.38	131.034
825.69	82.353
825.99	68.085
826.29	94.444
826.59	108.571
826.89	113.333
827.19	82.857
827.49	103.226
827.79	134.615
828.09	85.714
828.39	88.889
828.70	48.649
829.00	139.286
829.30	181.250
829.60	113.889
829.90	100.000
830.20	109.091
830.50	105.405
830.80	137.500
831.10	134.615
831.40	95.238
831.70	166.667
832.00	113.333
832.30	165.217
832.60	133.333
832.90	115.152
833.20	180.000
833.50	115.789
833.80	85.294
834.10	100.000
834.40	200.000
834.70	116.667
835.00	140.000
835.30	97.297
835.60	109.375
835.90	121.622
836.20	157.692
836.50	95.455
836.80	100.000
837.10	113.043
837.40	246.154
837.70	152.632
838.00	130.000
838.30	145.833
838.60	160.000
838.90	290.000
839.19	175.000
839.49	136.667
839.79	134.483
840.09	107.692
840.39	133.333
840.69	231.579
840.99	123.810
841.29	156.522
841.59	170.000
841.88	108.000
842.18	277.778
842.48	121.429
842.78	148.148
843.08	176.923
843.38	150.000
843.68	285.714
843.97	571.429
844.27	143.478
844.57	1250.000
844.87	235.714
845.17	222.222
845.47	119.048
845.76	129.167
846.06	428.571
846.36	170.588
846.66	284.615
846.96	218.750
847.25	176.923
847.55	173.684
847.85	211.111
848.15	620.000
848.44	281.818
848.74	171.429
849.04	133.333
849.34	129.412
849.63	175.000
849.93	256.250
850.23	966.667
850.53	437.500
850.82	209.091
851.12	188.235
851.42	195.833
851.71	225.000
852.01	0.000
852.31	211.765
852.61	430.000
852.90	129.167
853.20	311.111
853.50	-2200.000
853.79	160.000
854.09	115.625
854.39	151.724
854.68	117.241
854.98	209.524
855.28	96.774
855.57	207.143
855.87	166.667
856.17	85.185
856.46	194.737
856.76	119.355
857.05	176.471
857.35	254.545
857.65	207.692
857.94	155.000
858.24	277.778
858.53	221.429
858.83	585.714
859.13	143.478
859.42	233.333
859.72	400.000
860.01	191.667
860.31	850.000
860.60	430.000
860.90	237.500
861.20	238.462
861.49	285.714
861.79	-3100.000
862.08	585.714
862.38	322.222
862.67	257.143
862.97	270.000
863.26	143.333
863.56	800.000
863.85	253.846
864.15	235.294
864.44	183.333
864.74	275.000
865.03	227.273
865.33	400.000
865.62	193.333
865.92	566.667
866.21	600.000
866.51	620.000
866.80	244.444
867.10	833.333
867.39	4200.000
867.69	560.000
867.98	750.000
868.27	214.286
868.57	293.333
868.86	775.000
869.16	128.571
869.45	2700.000
869.75	-450.000
870.04	625.000
870.33	800.000
870.63	287.500
870.92	152.941
871.22	950.000
871.51	471.429
871.80	266.667
872.10	300.000
>>>>>End Processed Spectral Data<<<<<
