SpectraSuite Data File
++++++++++++++++++++++++++++++++++++
Date: Tue May 12 16:45:49 PDT 2015
User: schluterlab
Dark Spectrum Present: Yes
Reference Spectrum Present: Yes
Number of Sampled Component Spectra: 1
Spectrometers: USB2E3373
Integration Time (usec): 3000 (USB2E3373)
Spectra Averaged: 3 (USB2E3373)
Boxcar Smoothing: 0 (USB2E3373)
Correct for Electrical Dark: No (USB2E3373)
Strobe/Lamp Enabled: No (USB2E3373)
Correct for Detector Non-linearity: No (USB2E3373)
Correct for Stray Light: No (USB2E3373)
Number of Pixels in Processed Spectrum: 2048
>>>>>Begin Processed Spectral Data<<<<<
178.53	0.000
178.91	-208.333
179.29	-725.000
179.67	-2700.000
180.04	-146.667
180.42	750.000
180.80	1550.000
181.18	0.000
181.56	-275.000
181.94	0.000
182.31	1133.333
182.69	-2500.000
183.07	657.143
183.45	-3200.000
183.83	-1750.000
184.20	360.000
184.58	457.143
184.96	-230.769
185.34	-250.000
185.72	2100.000
186.09	-875.000
186.47	-3000.000
186.85	1066.667
187.23	540.000
187.61	1950.000
187.98	500.000
188.36	257.143
188.74	350.000
189.12	316.667
189.49	1000.000
189.87	0.000
190.25	575.000
190.63	2300.000
191.00	-200.000
191.38	-4000.000
191.76	-700.000
192.14	512.500
192.51	-2100.000
192.89	1850.000
193.27	800.000
193.65	-966.667
194.02	-820.000
194.40	500.000
194.78	-185.714
195.15	253.333
195.53	-3000.000
195.91	-560.000
196.29	2800.000
196.66	181.250
197.04	725.000
197.42	-1250.000
197.79	625.000
198.17	316.667
198.55	0.000
198.92	500.000
199.30	1166.667
199.68	1850.000
200.05	683.333
200.43	-483.333
200.81	250.000
201.18	3900.000
201.56	291.667
201.94	-825.000
202.31	-337.500
202.69	-500.000
203.07	3600.000
203.44	-500.000
203.82	350.000
204.19	580.000
204.57	-1200.000
204.95	-975.000
205.32	-840.000
205.70	583.333
206.08	675.000
206.45	-566.667
206.83	422.222
207.20	163.158
207.58	233.333
207.96	660.000
208.33	0.000
208.71	557.143
209.08	500.000
209.46	-2900.000
209.84	-675.000
210.21	940.000
210.59	-540.000
210.96	333.333
211.34	-600.000
211.71	390.909
212.09	1200.000
212.46	1800.000
212.84	-416.667
213.22	266.667
213.59	-2500.000
213.97	330.000
214.34	825.000
214.72	1166.667
215.09	933.333
215.47	-3400.000
215.84	-270.000
216.22	-450.000
216.59	0.000
216.97	0.000
217.34	1300.000
217.72	-1400.000
218.09	1000.000
218.47	450.000
218.84	900.000
219.22	1166.667
219.59	1166.667
219.97	542.857
220.34	355.556
220.72	1550.000
221.09	3000.000
221.47	383.333
221.84	1033.333
222.22	360.000
222.59	238.889
222.97	278.571
223.34	243.750
223.72	-1700.000
224.09	1200.000
224.46	276.923
224.84	-700.000
225.21	377.778
225.59	293.333
225.96	1166.667
226.34	-560.000
226.71	-825.000
227.08	-420.000
227.46	0.000
227.83	-466.667
228.21	-1600.000
228.58	358.333
228.95	800.000
229.33	422.222
229.70	1050.000
230.08	361.538
230.45	3500.000
230.82	-850.000
231.20	-800.000
231.57	-1066.667
231.95	620.000
232.32	358.333
232.69	600.000
233.07	208.333
233.44	-1150.000
233.81	253.333
234.19	174.074
234.56	200.000
234.93	223.529
235.31	200.000
235.68	200.000
236.05	146.429
236.43	100.000
236.80	178.571
237.17	148.276
237.55	115.625
237.92	115.000
238.29	121.212
238.67	93.750
239.04	97.561
239.41	60.417
239.79	97.500
240.16	83.333
240.53	68.852
240.91	73.913
241.28	76.271
241.65	66.667
242.02	80.282
242.40	65.714
242.77	58.242
243.14	55.696
243.51	67.677
243.89	54.206
244.26	57.944
244.63	56.436
245.00	54.128
245.38	40.678
245.75	46.970
246.12	50.370
246.49	39.007
246.87	36.066
247.24	36.000
247.61	43.125
247.98	36.735
248.36	34.545
248.73	39.796
249.10	39.286
249.47	42.500
249.84	33.333
250.22	35.676
250.59	29.500
250.96	31.646
251.33	36.744
251.70	32.143
252.08	34.454
252.45	33.865
252.82	31.939
253.19	32.806
253.56	30.385
253.94	31.522
254.31	33.721
254.68	34.843
255.05	31.034
255.42	31.022
255.79	28.990
256.16	31.186
256.54	30.519
256.91	30.719
257.28	30.435
257.65	25.705
258.02	26.844
258.39	30.086
258.76	30.725
259.14	27.714
259.51	27.697
259.88	27.356
260.25	27.198
260.62	25.479
260.99	27.548
261.36	28.969
261.73	28.723
262.10	28.272
262.47	25.500
262.85	26.400
263.22	28.535
263.59	30.435
263.96	26.566
264.33	26.173
264.70	27.764
265.07	29.268
265.44	27.982
265.81	26.179
266.18	24.485
266.55	28.369
266.92	27.293
267.29	26.096
267.66	24.664
268.03	24.439
268.40	25.793
268.77	30.176
269.14	23.861
269.51	23.608
269.88	25.714
270.25	23.326
270.62	27.039
270.99	26.369
271.36	23.780
271.73	24.528
272.10	23.434
272.47	23.214
272.84	23.752
273.21	23.967
273.58	25.911
273.95	22.587
274.32	24.125
274.69	26.181
275.06	25.683
275.43	22.989
275.80	23.962
276.17	25.735
276.54	22.056
276.91	24.067
277.28	23.175
277.65	23.063
278.02	23.346
278.39	23.381
278.76	25.690
279.13	24.555
279.50	24.000
279.87	21.974
280.23	22.652
280.60	22.445
280.97	23.621
281.34	21.122
281.71	25.739
282.08	25.641
282.45	25.338
282.82	22.575
283.19	24.165
283.56	23.140
283.92	24.104
284.29	23.461
284.66	23.361
285.03	23.217
285.40	23.306
285.77	21.914
286.14	22.446
286.51	22.239
286.87	21.519
287.24	21.471
287.61	24.012
287.98	25.373
288.35	21.481
288.72	21.396
289.08	22.673
289.45	25.762
289.82	25.000
290.19	22.401
290.56	24.309
290.93	24.029
291.29	23.895
291.66	22.881
292.03	23.562
292.40	23.171
292.77	21.448
293.13	23.110
293.50	23.212
293.87	22.087
294.24	24.196
294.60	25.303
294.97	24.895
295.34	24.436
295.71	24.836
296.08	24.667
296.44	25.159
296.81	23.449
297.18	23.067
297.55	26.847
297.91	23.276
298.28	24.758
298.65	25.890
299.02	25.332
299.38	26.379
299.75	24.878
300.12	26.606
300.48	26.932
300.85	25.268
301.22	24.535
301.59	25.708
301.95	25.438
302.32	26.659
302.69	26.923
303.05	27.497
303.42	26.121
303.79	26.977
304.15	26.953
304.52	26.004
304.89	25.906
305.25	25.584
305.62	26.972
305.99	25.217
306.35	26.105
306.72	26.015
307.09	26.915
307.45	27.561
307.82	26.337
308.19	27.010
308.55	26.200
308.92	26.889
309.29	28.600
309.65	29.435
310.02	26.775
310.38	27.218
310.75	26.615
311.12	27.778
311.48	29.151
311.85	28.435
312.22	28.653
312.58	28.474
312.95	26.699
313.31	27.996
313.68	29.081
314.05	29.945
314.41	28.026
314.78	27.841
315.14	29.384
315.51	29.707
315.87	28.923
316.24	28.852
316.61	30.349
316.97	28.716
317.34	30.907
317.70	30.817
318.07	30.071
318.43	31.019
318.80	29.947
319.16	30.944
319.53	31.062
319.89	31.810
320.26	32.123
320.62	32.875
320.99	32.126
321.35	32.468
321.72	33.302
322.08	32.779
322.45	33.152
322.81	34.309
323.18	34.902
323.54	35.540
323.91	35.539
324.27	35.455
324.64	35.208
325.00	37.328
325.37	36.003
325.73	37.015
326.10	36.703
326.46	38.233
326.83	36.720
327.19	38.715
327.56	37.220
327.92	39.672
328.29	39.280
328.65	40.582
329.01	39.179
329.38	39.848
329.74	38.087
330.11	40.139
330.47	39.727
330.84	39.603
331.20	39.509
331.56	41.883
331.93	41.403
332.29	38.776
332.66	40.646
333.02	39.089
333.38	40.140
333.75	39.867
334.11	39.262
334.48	40.085
334.84	38.345
335.20	39.435
335.57	40.050
335.93	40.286
336.29	38.640
336.66	40.566
337.02	39.093
337.38	39.381
337.75	40.287
338.11	40.000
338.47	39.119
338.84	38.527
339.20	37.922
339.56	39.613
339.93	39.130
340.29	38.403
340.65	39.983
341.02	39.984
341.38	39.901
341.74	39.120
342.11	38.397
342.47	39.048
342.83	39.377
343.20	39.046
343.56	37.569
343.92	38.150
344.28	39.474
344.65	39.772
345.01	37.381
345.37	38.221
345.73	39.603
346.10	38.008
346.46	38.676
346.82	38.117
347.19	38.949
347.55	38.095
347.91	36.405
348.27	37.413
348.63	39.478
349.00	38.233
349.36	38.599
349.72	39.450
350.08	38.665
350.45	38.919
350.81	38.150
351.17	36.749
351.53	39.646
351.89	38.073
352.26	37.868
352.62	37.632
352.98	37.500
353.34	38.290
353.70	37.080
354.07	38.615
354.43	38.172
354.79	37.661
355.15	38.361
355.51	37.160
355.87	38.102
356.24	38.491
356.60	37.747
356.96	37.604
357.32	38.206
357.68	37.592
358.04	38.526
358.40	37.856
358.77	37.415
359.13	37.988
359.49	37.361
359.85	37.677
360.21	36.850
360.57	37.153
360.93	37.879
361.29	38.745
361.66	38.628
362.02	37.997
362.38	36.364
362.74	38.287
363.10	38.079
363.46	37.500
363.82	37.798
364.18	38.478
364.54	37.697
364.90	37.818
365.26	37.821
365.62	37.569
365.98	37.027
366.35	36.828
366.71	36.641
367.07	37.201
367.43	37.743
367.79	36.636
368.15	37.856
368.51	37.009
368.87	37.092
369.23	37.076
369.59	36.413
369.95	37.972
370.31	36.756
370.67	37.266
371.03	36.975
371.39	38.019
371.75	37.334
372.11	36.642
372.47	38.151
372.83	37.593
373.19	36.943
373.55	37.320
373.91	36.533
374.27	36.640
374.63	36.814
374.99	37.129
375.35	37.298
375.71	35.752
376.07	37.334
376.42	35.294
376.78	36.866
377.14	36.566
377.50	35.456
377.86	36.323
378.22	36.258
378.58	37.167
378.94	37.296
379.30	36.264
379.66	36.785
380.02	37.595
380.38	35.714
380.74	37.140
381.09	36.682
381.45	36.069
381.81	35.697
382.17	36.081
382.53	36.173
382.89	36.606
383.25	36.057
383.61	35.562
383.97	34.913
384.32	36.347
384.68	37.433
385.04	35.639
385.40	35.824
385.76	35.693
386.12	34.941
386.48	35.258
386.83	35.330
387.19	35.512
387.55	34.865
387.91	36.374
388.27	35.574
388.62	34.977
388.98	35.044
389.34	34.979
389.70	35.318
390.06	35.244
390.42	34.423
390.77	35.442
391.13	34.822
391.49	33.212
391.85	35.569
392.20	35.757
392.56	35.006
392.92	34.363
393.28	33.072
393.64	34.289
393.99	33.610
394.35	33.255
394.71	32.268
395.07	33.151
395.42	33.197
395.78	34.917
396.14	34.398
396.50	34.356
396.85	32.622
397.21	33.875
397.57	33.234
397.92	32.813
398.28	33.039
398.64	34.613
399.00	31.748
399.35	32.475
399.71	32.837
400.07	32.591
400.42	33.194
400.78	32.727
401.14	32.237
401.49	32.028
401.85	33.024
402.21	32.748
402.57	32.914
402.92	32.485
403.28	32.757
403.63	31.960
403.99	31.966
404.35	31.770
404.70	32.073
405.06	31.724
405.42	32.017
405.77	31.422
406.13	30.965
406.49	30.870
406.84	30.344
407.20	32.420
407.55	31.692
407.91	31.398
408.27	31.959
408.62	31.165
408.98	30.928
409.34	30.684
409.69	31.052
410.05	29.636
410.40	30.153
410.76	29.823
411.11	30.509
411.47	30.988
411.83	29.818
412.18	30.495
412.54	31.111
412.89	29.735
413.25	30.901
413.60	30.783
413.96	29.563
414.31	30.224
414.67	31.285
415.03	30.268
415.38	30.662
415.74	30.764
416.09	30.793
416.45	32.321
416.80	32.072
417.16	30.363
417.51	30.955
417.87	31.665
418.22	31.045
418.58	31.019
418.93	30.637
419.29	29.883
419.64	31.617
420.00	31.265
420.35	30.894
420.71	30.397
421.06	31.254
421.42	30.455
421.77	30.594
422.12	31.533
422.48	31.228
422.83	31.027
423.19	30.724
423.54	31.871
423.90	31.823
424.25	31.535
424.61	31.341
424.96	31.677
425.31	31.637
425.67	32.997
426.02	32.193
426.38	31.739
426.73	33.025
427.09	32.028
427.44	31.007
427.79	32.190
428.15	32.587
428.50	32.686
428.85	32.040
429.21	32.037
429.56	31.904
429.92	32.024
430.27	33.188
430.62	31.963
430.98	31.936
431.33	32.762
431.68	31.506
432.04	32.799
432.39	32.931
432.74	32.377
433.10	33.666
433.45	33.314
433.80	33.977
434.16	33.526
434.51	32.663
434.86	33.696
435.22	33.657
435.57	34.084
435.92	34.604
436.28	34.332
436.63	33.820
436.98	34.910
437.34	33.961
437.69	33.595
438.04	34.946
438.39	35.026
438.75	34.911
439.10	34.107
439.45	34.200
439.81	34.297
440.16	34.342
440.51	34.065
440.86	34.986
441.22	34.145
441.57	36.063
441.92	34.946
442.27	33.711
442.63	33.537
442.98	34.429
443.33	34.922
443.68	35.463
444.03	34.920
444.39	35.311
444.74	35.300
445.09	35.071
445.44	35.228
445.79	34.844
446.15	34.316
446.50	36.023
446.85	35.060
447.20	35.423
447.55	35.182
447.91	36.015
448.26	35.836
448.61	36.208
448.96	35.458
449.31	35.809
449.66	36.268
450.02	35.278
450.37	37.146
450.72	35.482
451.07	36.358
451.42	36.574
451.77	36.655
452.12	36.472
452.47	36.270
452.83	37.296
453.18	36.517
453.53	37.063
453.88	36.857
454.23	36.374
454.58	36.538
454.93	36.787
455.28	37.760
455.63	36.407
455.98	36.774
456.34	36.596
456.69	37.378
457.04	36.933
457.39	36.229
457.74	36.937
458.09	35.317
458.44	36.418
458.79	36.127
459.14	36.334
459.49	36.410
459.84	35.652
460.19	36.271
460.54	37.550
460.89	36.461
461.24	36.884
461.59	37.132
461.94	35.697
462.29	36.670
462.64	36.997
462.99	37.172
463.34	36.747
463.69	37.145
464.04	36.730
464.39	36.291
464.74	36.166
465.09	35.810
465.44	36.834
465.79	36.690
466.14	35.082
466.49	36.137
466.84	36.009
467.19	37.727
467.54	36.096
467.89	37.031
468.24	37.001
468.59	37.381
468.94	37.319
469.29	37.996
469.64	37.556
469.99	36.568
470.34	37.508
470.68	38.069
471.03	38.225
471.38	38.079
471.73	38.668
472.08	39.400
472.43	37.306
472.78	37.772
473.13	36.295
473.48	36.858
473.83	38.221
474.17	37.690
474.52	37.322
474.87	36.896
475.22	37.464
475.57	36.464
475.92	36.280
476.27	36.453
476.61	36.461
476.96	36.886
477.31	37.635
477.66	37.842
478.01	37.803
478.36	36.869
478.70	36.824
479.05	36.768
479.40	36.607
479.75	38.381
480.10	38.141
480.45	36.695
480.79	36.682
481.14	36.567
481.49	36.597
481.84	36.544
482.19	36.900
482.53	36.451
482.88	36.649
483.23	36.491
483.58	37.029
483.92	38.208
484.27	36.301
484.62	36.715
484.97	35.684
485.31	34.915
485.66	33.184
486.01	32.236
486.36	31.878
486.70	31.794
487.05	32.731
487.40	33.120
487.75	33.999
488.09	33.949
488.44	34.863
488.79	35.821
489.13	35.461
489.48	35.757
489.83	36.697
490.17	35.921
490.52	36.649
490.87	36.379
491.22	37.145
491.56	36.539
491.91	37.007
492.26	37.595
492.60	37.494
492.95	37.245
493.30	36.852
493.64	36.388
493.99	36.717
494.34	36.576
494.68	36.565
495.03	36.507
495.37	36.470
495.72	37.716
496.07	36.208
496.41	36.447
496.76	36.640
497.11	36.375
497.45	36.563
497.80	37.488
498.14	37.448
498.49	36.305
498.84	37.430
499.18	36.746
499.53	36.380
499.87	37.017
500.22	38.231
500.56	37.140
500.91	37.152
501.26	36.886
501.60	36.612
501.95	36.290
502.29	36.356
502.64	37.009
502.98	36.105
503.33	35.947
503.67	36.954
504.02	35.378
504.36	36.244
504.71	37.890
505.06	37.260
505.40	37.342
505.75	36.670
506.09	36.258
506.44	37.030
506.78	37.618
507.13	37.179
507.47	37.166
507.82	37.713
508.16	38.168
508.51	36.957
508.85	37.322
509.19	37.445
509.54	37.158
509.88	37.693
510.23	37.353
510.57	36.631
510.92	36.913
511.26	38.052
511.61	36.829
511.95	38.228
512.30	36.750
512.64	38.422
512.98	37.622
513.33	37.398
513.67	37.908
514.02	37.247
514.36	37.487
514.70	37.920
515.05	37.773
515.39	39.254
515.74	38.382
516.08	38.453
516.42	40.219
516.77	37.333
517.11	38.293
517.46	39.278
517.80	38.012
518.14	39.099
518.49	37.486
518.83	38.022
519.17	37.493
519.52	38.449
519.86	38.420
520.20	37.808
520.55	38.270
520.89	38.276
521.23	40.245
521.58	38.153
521.92	39.184
522.26	37.974
522.61	40.226
522.95	39.940
523.29	38.187
523.64	38.671
523.98	39.143
524.32	38.178
524.66	38.377
525.01	38.047
525.35	38.598
525.69	39.856
526.04	39.441
526.38	39.376
526.72	38.663
527.06	37.729
527.41	39.661
527.75	38.588
528.09	38.230
528.43	39.536
528.78	38.521
529.12	39.314
529.46	37.288
529.80	37.734
530.15	37.655
530.49	37.244
530.83	38.452
531.17	38.499
531.51	37.339
531.86	38.164
532.20	37.577
532.54	38.104
532.88	37.789
533.22	37.843
533.57	38.133
533.91	36.888
534.25	36.007
534.59	36.842
534.93	37.656
535.27	35.401
535.62	36.931
535.96	36.761
536.30	37.843
536.64	36.832
536.98	37.256
537.32	36.562
537.66	36.862
538.01	37.461
538.35	37.867
538.69	35.922
539.03	36.256
539.37	35.983
539.71	37.346
540.05	36.492
540.39	37.673
540.73	37.532
541.07	36.700
541.42	36.754
541.76	35.512
542.10	35.697
542.44	36.596
542.78	37.697
543.12	36.687
543.46	35.965
543.80	36.654
544.14	37.337
544.48	36.557
544.82	37.431
545.16	35.155
545.50	36.570
545.84	37.058
546.18	38.427
546.52	37.049
546.86	37.653
547.20	36.047
547.54	36.922
547.88	35.888
548.22	35.823
548.56	34.826
548.90	35.943
549.24	36.260
549.58	36.920
549.92	37.132
550.26	37.728
550.60	36.194
550.94	37.517
551.28	37.655
551.62	37.931
551.96	36.554
552.30	36.058
552.64	36.375
552.98	35.180
553.32	35.531
553.66	36.026
554.00	36.486
554.34	37.683
554.68	37.433
555.02	37.203
555.36	36.237
555.69	36.257
556.03	35.541
556.37	36.520
556.71	36.962
557.05	36.435
557.39	37.333
557.73	36.995
558.07	36.150
558.41	37.286
558.75	37.483
559.08	37.956
559.42	37.938
559.76	38.133
560.10	37.164
560.44	36.430
560.78	36.445
561.12	36.236
561.45	36.921
561.79	35.456
562.13	36.323
562.47	36.600
562.81	37.345
563.15	35.229
563.48	34.658
563.82	36.868
564.16	35.012
564.50	35.021
564.84	36.292
565.17	35.116
565.51	36.700
565.85	36.274
566.19	35.714
566.52	35.078
566.86	35.260
567.20	33.933
567.54	34.552
567.88	34.377
568.21	33.400
568.55	33.123
568.89	31.980
569.23	32.097
569.56	31.869
569.90	31.046
570.24	29.881
570.57	29.883
570.91	29.204
571.25	28.974
571.59	28.793
571.92	28.364
572.26	27.736
572.60	28.659
572.93	29.097
573.27	29.408
573.61	28.343
573.95	28.212
574.28	27.508
574.62	27.643
574.96	26.854
575.29	27.258
575.63	27.420
575.97	27.361
576.30	27.259
576.64	27.366
576.98	27.444
577.31	27.279
577.65	27.093
577.98	26.381
578.32	26.450
578.66	26.827
578.99	26.893
579.33	27.289
579.67	27.071
580.00	26.920
580.34	26.688
580.67	26.913
581.01	26.860
581.35	26.694
581.68	26.311
582.02	25.975
582.35	26.200
582.69	26.084
583.02	26.971
583.36	27.505
583.70	27.946
584.03	27.914
584.37	28.395
584.70	27.395
585.04	27.242
585.37	27.457
585.71	27.213
586.04	26.973
586.38	27.412
586.72	27.516
587.05	27.741
587.39	27.863
587.72	27.348
588.06	27.465
588.39	28.173
588.73	28.248
589.06	28.130
589.40	29.577
589.73	29.302
590.07	29.581
590.40	30.174
590.73	30.518
591.07	30.778
591.40	30.180
591.74	30.722
592.07	30.408
592.41	30.256
592.74	29.257
593.08	29.134
593.41	28.247
593.75	27.467
594.08	28.703
594.41	29.521
594.75	28.904
595.08	29.150
595.42	29.394
595.75	29.681
596.09	29.301
596.42	29.133
596.75	30.088
597.09	31.036
597.42	30.408
597.75	29.574
598.09	29.955
598.42	29.131
598.76	29.684
599.09	30.048
599.42	27.924
599.76	28.969
600.09	27.932
600.42	29.075
600.76	29.266
601.09	28.719
601.42	29.074
601.76	29.538
602.09	29.544
602.42	28.392
602.76	29.146
603.09	29.940
603.42	29.945
603.76	29.320
604.09	28.918
604.42	28.851
604.76	30.423
605.09	30.245
605.42	30.110
605.75	29.491
606.09	29.725
606.42	28.749
606.75	29.654
607.09	28.938
607.42	29.851
607.75	29.658
608.08	29.691
608.42	30.117
608.75	29.482
609.08	29.784
609.41	29.818
609.75	31.456
610.08	31.250
610.41	29.600
610.74	30.390
611.07	31.241
611.41	30.955
611.74	30.832
612.07	30.732
612.40	31.774
612.73	31.752
613.07	30.816
613.40	31.579
613.73	31.003
614.06	30.100
614.39	31.919
614.72	31.592
615.06	31.058
615.39	30.297
615.72	30.348
616.05	30.688
616.38	31.050
616.71	30.385
617.05	31.631
617.38	31.573
617.71	32.790
618.04	31.800
618.37	31.128
618.70	31.697
619.03	32.295
619.36	32.663
619.69	32.586
620.03	33.464
620.36	33.911
620.69	34.355
621.02	34.443
621.35	34.026
621.68	34.956
622.01	34.760
622.34	33.867
622.67	34.480
623.00	33.969
623.33	33.603
623.66	32.801
623.99	34.658
624.32	33.537
624.65	32.653
624.99	33.807
625.32	34.402
625.65	33.241
625.98	33.473
626.31	34.570
626.64	34.320
626.97	33.741
627.30	33.851
627.63	36.342
627.96	34.507
628.29	36.469
628.62	35.500
628.95	36.436
629.28	37.949
629.61	35.940
629.94	36.560
630.26	37.522
630.59	36.702
630.92	36.054
631.25	38.441
631.58	38.476
631.91	36.727
632.24	39.067
632.57	38.507
632.90	38.406
633.23	40.294
633.56	39.515
633.89	39.335
634.22	40.581
634.55	37.957
634.88	39.321
635.20	40.583
635.53	39.257
635.86	39.485
636.19	38.272
636.52	37.730
636.85	36.570
637.18	38.678
637.51	39.441
637.83	38.558
638.16	41.501
638.49	40.958
638.82	39.554
639.15	40.776
639.48	40.877
639.81	40.781
640.13	39.755
640.46	40.076
640.79	41.352
641.12	40.682
641.45	41.656
641.77	42.404
642.10	40.830
642.43	42.959
642.76	41.761
643.09	42.075
643.41	41.234
643.74	42.590
644.07	43.510
644.40	42.012
644.73	44.144
645.05	42.942
645.38	41.348
645.71	43.854
646.04	43.359
646.36	44.914
646.69	44.000
647.02	45.440
647.35	42.362
647.67	46.191
648.00	43.485
648.33	41.353
648.66	42.121
648.98	42.899
649.31	37.652
649.64	41.079
649.96	42.105
650.29	39.429
650.62	40.501
650.94	43.223
651.27	44.179
651.60	44.288
651.92	42.550
652.25	44.252
652.58	40.284
652.90	40.868
653.23	41.507
653.56	41.840
653.88	41.850
654.21	40.616
654.54	40.996
654.86	39.381
655.19	40.106
655.52	32.453
655.84	21.513
656.17	24.383
656.49	34.674
656.82	39.701
657.15	32.383
657.47	24.253
657.80	18.197
658.13	14.768
658.45	19.863
658.78	24.466
659.10	24.713
659.43	26.033
659.75	27.476
660.08	30.388
660.41	33.485
660.73	39.900
661.06	40.541
661.38	43.782
661.71	44.604
662.03	42.966
662.36	45.905
662.68	43.948
663.01	45.405
663.33	43.019
663.66	45.168
663.98	44.841
664.31	46.642
664.63	45.402
664.96	45.403
665.28	42.373
665.61	42.830
665.93	44.528
666.26	44.860
666.58	48.257
666.91	44.015
667.23	46.185
667.56	50.308
667.88	47.718
668.21	47.131
668.53	47.379
668.86	47.495
669.18	46.843
669.50	42.562
669.83	48.871
670.15	44.491
670.48	42.383
670.80	42.629
671.13	45.618
671.45	44.890
671.77	43.228
672.10	43.268
672.42	39.803
672.75	40.823
673.07	39.428
673.39	41.214
673.72	42.907
674.04	42.473
674.37	41.561
674.69	42.007
675.01	41.791
675.34	43.411
675.66	46.289
675.98	43.984
676.31	42.200
676.63	45.924
676.95	47.024
677.28	44.219
677.60	44.668
677.92	42.857
678.25	42.829
678.57	41.527
678.89	40.325
679.22	41.912
679.54	41.815
679.86	40.489
680.18	39.895
680.51	39.635
680.83	38.851
681.15	40.035
681.48	40.451
681.80	38.354
682.12	43.253
682.44	38.739
682.77	40.214
683.09	42.136
683.41	42.857
683.73	43.701
684.06	40.476
684.38	41.473
684.70	39.928
685.02	39.063
685.34	38.908
685.67	39.068
685.99	41.051
686.31	36.210
686.63	39.350
686.96	39.052
687.28	35.738
687.60	39.761
687.92	38.191
688.24	38.103
688.56	41.815
688.89	40.535
689.21	39.692
689.53	41.107
689.85	39.431
690.17	40.777
690.49	43.548
690.82	42.857
691.14	43.030
691.46	43.943
691.78	43.470
692.10	38.931
692.42	38.113
692.74	40.504
693.06	41.085
693.39	39.526
693.71	38.310
694.03	43.590
694.35	45.382
694.67	41.344
694.99	43.237
695.31	42.793
695.63	42.986
695.95	40.271
696.27	45.133
696.59	39.618
696.91	43.291
697.23	40.950
697.56	38.589
697.88	37.924
698.20	38.302
698.52	35.214
698.84	40.862
699.16	43.710
699.48	40.466
699.80	44.009
700.12	46.882
700.44	40.888
700.76	45.585
701.08	44.648
701.40	42.078
701.72	48.663
702.04	47.425
702.36	46.774
702.68	43.883
703.00	41.855
703.32	43.176
703.64	43.829
703.96	42.187
704.28	44.180
704.60	45.634
704.91	47.059
705.23	46.307
705.55	49.258
705.87	48.254
706.19	48.589
706.51	51.411
706.83	45.428
707.15	47.594
707.47	41.404
707.79	38.621
708.11	39.909
708.43	42.247
708.74	39.819
709.06	38.372
709.38	40.695
709.70	43.869
710.02	41.576
710.34	43.646
710.66	45.833
710.98	43.989
711.29	44.290
711.61	43.454
711.93	45.897
712.25	43.072
712.57	46.302
712.89	46.970
713.20	46.645
713.52	47.040
713.84	44.109
714.16	40.580
714.48	40.922
714.80	40.379
715.11	40.426
715.43	41.899
715.75	41.408
716.07	39.884
716.39	42.857
716.70	46.417
717.02	46.128
717.34	51.799
717.66	51.042
717.97	52.652
718.29	47.535
718.61	42.568
718.93	44.983
719.24	44.966
719.56	44.483
719.88	42.675
720.20	45.161
720.51	44.118
720.83	42.809
721.15	44.218
721.46	47.603
721.78	47.735
722.10	46.875
722.42	45.485
722.73	45.848
723.05	47.018
723.37	46.996
723.68	41.016
724.00	47.727
724.32	47.529
724.63	48.846
724.95	51.373
725.27	49.071
725.58	49.265
725.90	46.479
726.22	43.493
726.53	41.472
726.85	43.322
727.16	44.631
727.48	45.847
727.80	50.719
728.11	41.429
728.43	42.029
728.74	44.755
729.06	43.011
729.38	43.158
729.69	46.333
730.01	48.684
730.32	39.262
730.64	43.189
730.96	39.940
731.27	37.309
731.59	37.644
731.90	37.883
732.22	37.714
732.53	35.043
732.85	40.058
733.16	41.265
733.48	37.304
733.80	43.768
734.11	44.785
734.43	35.673
734.74	36.729
735.06	40.212
735.37	35.052
735.69	36.812
736.00	39.755
736.32	38.788
736.63	37.855
736.95	40.683
737.26	43.293
737.58	41.718
737.89	37.952
738.21	42.053
738.52	43.478
738.83	46.154
739.15	44.599
739.46	42.759
739.78	42.177
740.09	42.857
740.41	40.491
740.72	45.397
741.04	44.755
741.35	48.828
741.66	48.221
741.98	45.923
742.29	48.148
742.61	45.133
742.92	48.729
743.23	45.200
743.55	39.245
743.86	41.569
744.18	47.034
744.49	46.694
744.80	53.456
745.12	49.107
745.43	49.065
745.74	49.333
746.06	43.860
746.37	44.651
746.68	49.558
747.00	47.085
747.31	45.798
747.62	41.803
747.94	43.348
748.25	40.078
748.56	48.729
748.88	48.214
749.19	44.186
749.50	52.055
749.82	45.679
750.13	46.640
750.44	36.000
750.75	41.946
751.07	38.816
751.38	34.653
751.69	38.721
752.01	42.657
752.32	40.864
752.63	39.933
752.94	45.105
753.26	45.313
753.57	44.358
753.88	42.322
754.19	43.321
754.51	36.877
754.82	40.604
755.13	39.189
755.44	42.593
755.75	42.612
756.07	47.260
756.38	33.987
756.69	39.688
757.00	40.653
757.31	39.718
757.63	37.190
757.94	34.309
758.25	35.507
758.56	32.037
758.87	38.847
759.18	33.721
759.50	40.122
759.81	36.499
760.12	35.112
760.43	38.936
760.74	38.228
761.05	35.809
761.36	32.552
761.67	35.310
761.99	36.338
762.30	39.871
762.61	40.972
762.92	41.667
763.23	44.906
763.54	39.231
763.85	38.911
764.16	43.056
764.47	35.473
764.78	37.134
765.10	35.976
765.41	35.227
765.72	37.017
766.03	32.931
766.34	41.115
766.65	38.403
766.96	42.915
767.27	44.860
767.58	43.069
767.89	51.381
768.20	51.220
768.51	47.449
768.82	41.667
769.13	36.863
769.44	40.977
769.75	38.202
770.06	44.118
770.37	34.649
770.68	40.000
770.99	50.847
771.30	41.004
771.61	45.385
771.92	39.695
772.23	39.919
772.54	48.444
772.85	46.040
773.16	42.935
773.47	50.556
773.78	41.584
774.09	44.318
774.39	49.091
774.70	47.647
775.01	44.737
775.32	43.478
775.63	49.315
775.94	57.407
776.25	57.931
776.56	48.855
776.87	57.252
777.18	50.758
777.48	66.142
777.79	62.308
778.10	59.091
778.41	58.209
778.72	55.639
779.03	41.667
779.34	50.676
779.65	49.689
779.95	50.932
780.26	49.405
780.57	59.184
780.88	54.610
781.19	60.000
781.50	54.438
781.80	43.169
782.11	48.677
782.42	45.402
782.73	50.847
783.04	46.452
783.34	45.736
783.65	49.660
783.96	46.452
784.27	45.033
784.57	42.763
784.88	50.000
785.19	50.833
785.50	54.310
785.81	63.566
786.11	54.815
786.42	52.756
786.73	51.351
787.04	56.604
787.34	47.967
787.65	68.182
787.96	52.273
788.26	56.693
788.57	56.204
788.88	45.070
789.19	52.672
789.49	46.622
789.80	56.250
790.11	50.413
790.41	57.407
790.72	55.556
791.03	51.923
791.33	56.566
791.64	73.684
791.95	61.053
792.25	54.167
792.56	58.000
792.87	69.512
793.17	62.500
793.48	63.529
793.79	75.862
794.09	65.909
794.40	68.103
794.70	50.794
795.01	44.615
795.32	48.855
795.62	55.556
795.93	49.580
796.23	49.593
796.54	62.245
796.85	65.909
797.15	89.610
797.46	75.610
797.76	67.500
798.07	77.333
798.37	77.500
798.68	81.250
798.99	75.610
799.29	81.333
799.60	53.488
799.90	69.737
800.21	93.939
800.51	73.239
800.82	86.207
801.12	92.308
801.43	81.333
801.73	70.690
802.04	67.532
802.34	73.973
802.65	98.039
802.95	93.478
803.26	100.000
803.56	100.000
803.87	86.567
804.17	74.603
804.48	88.679
804.78	63.889
805.09	81.818
805.39	74.603
805.70	100.000
806.00	72.857
806.30	87.500
806.61	60.000
806.91	77.778
807.22	61.957
807.52	63.158
807.83	89.474
808.13	79.710
808.43	82.258
808.74	63.014
809.04	92.857
809.35	76.471
809.65	83.333
809.95	103.922
810.26	88.889
810.56	90.625
810.86	69.388
811.17	92.982
811.47	97.826
811.77	86.207
812.08	87.931
812.38	97.619
812.69	104.762
812.99	91.111
813.29	114.286
813.59	161.290
813.90	74.138
814.20	98.361
814.50	88.000
814.81	78.947
815.11	101.852
815.41	119.643
815.72	101.786
816.02	118.000
816.32	107.317
816.62	96.552
816.93	112.121
817.23	119.512
817.53	98.214
817.84	93.333
818.14	83.333
818.44	125.000
818.74	88.679
819.04	105.128
819.35	136.364
819.65	109.615
819.95	118.519
820.25	82.979
820.56	137.838
820.86	110.526
821.16	70.213
821.46	142.105
821.76	85.455
822.07	85.714
822.37	107.895
822.67	118.605
822.97	94.737
823.27	113.043
823.57	156.250
823.88	94.872
824.18	93.939
824.48	169.565
824.78	125.000
825.08	169.565
825.38	151.724
825.69	129.412
825.99	106.383
826.29	108.333
826.59	97.143
826.89	130.000
827.19	111.429
827.49	112.903
827.79	138.462
828.09	102.381
828.39	108.333
828.70	81.081
829.00	146.429
829.30	250.000
829.60	130.556
829.90	122.581
830.20	93.939
830.50	148.649
830.80	187.500
831.10	157.692
831.40	180.952
831.70	170.833
832.00	150.000
832.30	208.696
832.60	170.833
832.90	175.758
833.20	195.000
833.50	144.737
833.80	117.647
834.10	94.737
834.40	136.842
834.70	103.333
835.00	140.000
835.30	108.108
835.60	187.500
835.90	116.216
836.20	157.692
836.50	172.727
836.80	114.634
837.10	139.130
837.40	261.538
837.70	142.105
838.00	150.000
838.30	170.833
838.60	156.000
838.90	330.000
839.19	237.500
839.49	136.667
839.79	155.172
840.09	157.692
840.39	186.667
840.69	184.211
840.99	100.000
841.29	143.478
841.59	195.000
841.88	164.000
842.18	388.889
842.48	167.857
842.78	144.444
843.08	230.769
843.38	150.000
843.68	242.857
843.97	471.429
844.27	191.304
844.57	1600.000
844.87	314.286
845.17	211.111
845.47	119.048
845.76	170.833
846.06	671.429
846.36	182.353
846.66	207.692
846.96	262.500
847.25	253.846
847.55	178.947
847.85	177.778
848.15	500.000
848.44	354.545
848.74	185.714
849.04	175.000
849.34	158.824
849.63	218.750
849.93	250.000
850.23	1066.667
850.53	362.500
850.82	218.182
851.12	229.412
851.42	179.167
851.71	225.000
852.01	0.000
852.31	217.647
852.61	390.000
852.90	166.667
853.20	411.111
853.50	-2600.000
853.79	148.000
854.09	156.250
854.39	127.586
854.68	148.276
854.98	271.429
855.28	119.355
855.57	292.857
855.87	155.556
856.17	140.741
856.46	194.737
856.76	132.258
857.05	247.059
857.35	272.727
857.65	284.615
857.94	165.000
858.24	311.111
858.53	292.857
858.83	600.000
859.13	182.609
859.42	222.222
859.72	425.000
860.01	250.000
860.31	850.000
860.60	350.000
860.90	425.000
861.20	253.846
861.49	385.714
861.79	-3000.000
862.08	400.000
862.38	344.444
862.67	228.571
862.97	290.000
863.26	110.000
863.56	800.000
863.85	376.923
864.15	311.765
864.44	183.333
864.74	241.667
865.03	309.091
865.33	462.500
865.62	213.333
865.92	683.333
866.21	525.000
866.51	600.000
866.80	255.556
867.10	900.000
867.39	4300.000
867.69	640.000
867.98	750.000
868.27	209.524
868.57	273.333
868.86	725.000
869.16	161.905
869.45	3600.000
869.75	-416.667
870.04	600.000
870.33	760.000
870.63	450.000
870.92	200.000
871.22	650.000
871.51	585.714
871.80	333.333
872.10	253.846
>>>>>End Processed Spectral Data<<<<<
