SpectraSuite Data File
++++++++++++++++++++++++++++++++++++
Date: Tue May 12 17:05:59 PDT 2015
User: schluterlab
Dark Spectrum Present: Yes
Reference Spectrum Present: Yes
Number of Sampled Component Spectra: 1
Spectrometers: USB2E3373
Integration Time (usec): 3000 (USB2E3373)
Spectra Averaged: 3 (USB2E3373)
Boxcar Smoothing: 0 (USB2E3373)
Correct for Electrical Dark: No (USB2E3373)
Strobe/Lamp Enabled: No (USB2E3373)
Correct for Detector Non-linearity: No (USB2E3373)
Correct for Stray Light: No (USB2E3373)
Number of Pixels in Processed Spectrum: 2048
>>>>>Begin Processed Spectral Data<<<<<
178.53	0.000
178.91	-250.000
179.29	-800.000
179.67	-3500.000
180.04	-153.333
180.42	700.000
180.80	1450.000
181.18	0.000
181.56	-225.000
181.94	0.000
182.31	1233.333
182.69	-3300.000
183.07	657.143
183.45	-3300.000
183.83	-1650.000
184.20	340.000
184.58	585.714
184.96	-261.538
185.34	-225.000
185.72	1750.000
186.09	-1000.000
186.47	-3500.000
186.85	1000.000
187.23	620.000
187.61	1350.000
187.98	387.500
188.36	292.857
188.74	375.000
189.12	358.333
189.49	850.000
189.87	0.000
190.25	550.000
190.63	3300.000
191.00	-200.000
191.38	-4000.000
191.76	-725.000
192.14	550.000
192.51	-2800.000
192.89	1750.000
193.27	1366.667
193.65	-1033.333
194.02	-840.000
194.40	442.857
194.78	-235.714
195.15	266.667
195.53	-3300.000
195.91	-720.000
196.29	4300.000
196.66	281.250
197.04	925.000
197.42	-1500.000
197.79	625.000
198.17	358.333
198.55	0.000
198.92	628.571
199.30	1033.333
199.68	2000.000
200.05	683.333
200.43	-483.333
200.81	194.444
201.18	3400.000
201.56	391.667
201.94	-1000.000
202.31	-325.000
202.69	-480.000
203.07	3500.000
203.44	-500.000
203.82	391.667
204.19	840.000
204.57	-1450.000
204.95	-875.000
205.32	-800.000
205.70	666.667
206.08	850.000
206.45	-1066.667
206.83	411.111
207.20	173.684
207.58	241.667
207.96	660.000
208.33	0.000
208.71	700.000
209.08	760.000
209.46	-3400.000
209.84	-1050.000
210.21	1020.000
210.59	-640.000
210.96	341.667
211.34	-975.000
211.71	400.000
212.09	825.000
212.46	1450.000
212.84	-433.333
213.22	455.556
213.59	-3100.000
213.97	360.000
214.34	925.000
214.72	1333.333
215.09	1100.000
215.47	-3300.000
215.84	-310.000
216.22	-375.000
216.59	0.000
216.97	0.000
217.34	1350.000
217.72	-1400.000
218.09	1433.333
218.47	550.000
218.84	925.000
219.22	1533.333
219.59	933.333
219.97	542.857
220.34	422.222
220.72	2050.000
221.09	2700.000
221.47	275.000
221.84	1200.000
222.22	360.000
222.59	261.111
222.97	185.714
223.34	200.000
223.72	-1300.000
224.09	1166.667
224.46	292.308
224.84	-925.000
225.21	466.667
225.59	320.000
225.96	1333.333
226.34	-860.000
226.71	-700.000
227.08	-660.000
227.46	0.000
227.83	-633.333
228.21	-1750.000
228.58	375.000
228.95	925.000
229.33	411.111
229.70	1050.000
230.08	330.769
230.45	4400.000
230.82	-900.000
231.20	-700.000
231.57	-933.333
231.95	720.000
232.32	358.333
232.69	583.333
233.07	350.000
233.44	-1900.000
233.81	293.333
234.19	211.111
234.56	293.750
234.93	241.176
235.31	225.000
235.68	281.250
236.05	142.857
236.43	181.481
236.80	257.143
237.17	182.759
237.55	153.125
237.92	145.000
238.29	148.485
238.67	184.375
239.04	136.585
239.41	125.000
239.79	137.500
240.16	120.833
240.53	86.885
240.91	92.754
241.28	96.610
241.65	106.061
242.02	102.817
242.40	92.857
242.77	83.516
243.14	96.203
243.51	84.848
243.89	83.178
244.26	79.439
244.63	86.139
245.00	71.560
245.38	72.881
245.75	59.848
246.12	80.741
246.49	73.759
246.87	74.590
247.24	76.000
247.61	73.125
247.98	68.707
248.36	65.455
248.73	69.898
249.10	64.286
249.47	69.500
249.84	61.194
250.22	67.568
250.59	64.500
250.96	60.759
251.33	61.860
251.70	61.161
252.08	62.185
252.45	59.761
252.82	54.373
253.19	58.498
253.56	63.846
253.94	56.159
254.31	63.178
254.68	59.233
255.05	58.276
255.42	60.949
255.79	57.329
256.16	56.949
256.54	61.039
256.91	55.229
257.28	59.197
257.65	52.665
258.02	56.342
258.39	55.301
258.76	53.333
259.14	56.000
259.51	56.851
259.88	57.751
260.25	53.846
260.62	53.973
260.99	53.444
261.36	55.989
261.73	54.787
262.10	54.974
262.47	53.750
262.85	51.733
263.22	56.812
263.59	53.708
263.96	55.388
264.33	55.556
264.70	54.791
265.07	55.610
265.44	55.734
265.81	53.066
266.18	53.547
266.55	54.374
266.92	52.573
267.29	53.289
267.66	54.260
268.03	54.709
268.40	49.049
268.77	52.863
269.14	50.976
269.51	51.225
269.88	51.837
270.25	52.700
270.62	54.077
270.99	50.913
271.36	53.659
271.73	52.201
272.10	50.303
272.47	50.000
272.84	47.705
273.21	49.174
273.58	52.632
273.95	52.977
274.32	52.724
274.69	54.921
275.06	49.545
275.43	52.299
275.80	50.943
276.17	50.368
276.54	51.028
276.91	53.545
277.28	50.912
277.65	50.554
278.02	54.044
278.39	49.281
278.76	50.862
279.13	50.000
279.50	50.909
279.87	50.093
280.23	47.514
280.60	52.372
280.97	50.690
281.34	49.010
281.71	49.913
282.08	50.085
282.45	49.155
282.82	50.502
283.19	51.192
283.56	49.421
283.92	50.489
284.29	51.747
284.66	49.412
285.03	50.415
285.40	46.942
285.77	46.759
286.14	47.678
286.51	49.233
286.87	45.411
287.24	46.997
287.61	49.088
287.98	46.716
288.35	46.963
288.72	46.737
289.08	45.796
289.45	46.646
289.82	47.969
290.19	45.242
290.56	49.345
290.93	45.324
291.29	46.271
291.66	45.621
292.03	44.881
292.40	45.122
292.77	44.429
293.13	44.650
293.50	44.804
293.87	43.767
294.24	44.895
294.60	46.030
294.97	45.315
295.34	41.833
295.71	43.101
296.08	44.667
296.44	43.964
296.81	43.797
297.18	42.205
297.55	42.980
297.91	40.640
298.28	43.599
298.65	42.822
299.02	43.185
299.38	43.405
299.75	42.073
300.12	40.940
300.48	43.911
300.85	42.193
301.22	42.674
301.59	41.156
301.95	41.424
302.32	42.724
302.69	43.326
303.05	43.210
303.42	40.695
303.79	43.337
304.15	42.794
304.52	41.966
304.89	42.431
305.25	43.604
305.62	42.964
305.99	42.935
306.35	43.158
306.72	44.953
307.09	43.375
307.45	43.506
307.82	42.593
308.19	44.948
308.55	44.300
308.92	44.259
309.29	44.181
309.65	44.202
310.02	45.335
310.38	45.464
310.75	44.841
311.12	44.923
311.48	47.008
311.85	45.134
312.22	45.368
312.58	46.453
312.95	48.350
313.31	47.097
313.68	46.998
314.05	47.344
314.41	48.324
314.78	48.958
315.14	50.047
315.51	50.993
315.87	49.361
316.24	49.860
316.61	48.702
316.97	49.725
317.34	51.393
317.70	50.658
318.07	52.491
318.43	52.373
318.80	53.590
319.16	52.972
319.53	53.805
319.89	53.763
320.26	59.032
320.62	56.685
320.99	56.816
321.35	54.824
321.72	57.116
322.08	59.464
322.45	59.855
322.81	59.835
323.18	62.433
323.54	62.718
323.91	62.919
324.27	62.953
324.64	62.716
325.00	63.793
325.37	63.491
325.73	67.960
326.10	67.109
326.46	66.722
326.83	68.400
327.19	70.361
327.56	68.850
327.92	70.984
328.29	71.522
328.65	70.034
329.01	72.284
329.38	72.081
329.74	69.769
330.11	74.718
330.47	72.464
330.84	70.578
331.20	72.927
331.56	73.748
331.93	75.278
332.29	73.214
332.66	75.425
333.02	73.110
333.38	73.647
333.75	73.311
334.11	74.245
334.48	74.786
334.84	71.875
335.20	73.139
335.57	71.620
335.93	71.993
336.29	68.905
336.66	75.129
337.02	74.423
337.38	73.861
337.75	74.071
338.11	74.599
338.47	73.243
338.84	75.021
339.20	73.333
339.56	73.087
339.93	72.742
340.29	72.857
340.65	73.764
341.02	73.532
341.38	74.302
341.74	74.502
342.11	75.125
342.47	74.077
342.83	73.175
343.20	73.484
343.56	71.803
343.92	72.585
344.28	72.648
344.65	76.039
345.01	72.619
345.37	73.558
345.73	73.889
346.10	72.590
346.46	73.844
346.82	72.685
347.19	72.488
347.55	72.365
347.91	72.054
348.27	71.650
348.63	73.180
349.00	74.105
349.36	74.864
349.72	73.242
350.08	73.214
350.45	74.410
350.81	72.324
351.17	72.881
351.53	73.364
351.89	72.106
352.26	72.562
352.62	72.624
352.98	72.163
353.34	73.575
353.70	71.101
354.07	72.846
354.43	72.811
354.79	71.602
355.15	73.124
355.51	71.752
355.87	71.461
356.24	74.134
356.60	72.146
356.96	72.100
357.32	71.439
357.68	70.338
358.04	72.188
358.40	71.739
358.77	72.352
359.13	72.598
359.49	72.053
359.85	73.567
360.21	72.140
360.57	70.803
360.93	74.026
361.29	72.872
361.66	73.751
362.02	71.804
362.38	70.851
362.74	71.408
363.10	72.581
363.46	70.994
363.82	71.879
364.18	73.329
364.54	73.319
364.90	70.214
365.26	72.519
365.62	72.169
365.98	71.645
366.35	72.138
366.71	72.727
367.07	71.809
367.43	70.517
367.79	71.410
368.15	71.303
368.51	72.846
368.87	71.739
369.23	73.666
369.59	71.342
369.95	71.748
370.31	71.869
370.67	71.686
371.03	70.728
371.39	72.853
371.75	71.807
372.11	71.720
372.47	71.781
372.83	72.060
373.19	71.899
373.55	72.509
373.91	70.304
374.27	70.503
374.63	70.847
374.99	72.102
375.35	72.043
375.71	72.427
376.07	72.016
376.42	70.716
376.78	72.768
377.14	73.198
377.50	71.536
377.86	72.069
378.22	72.273
378.58	72.518
378.94	71.998
379.30	70.831
379.66	73.691
380.02	72.375
380.38	70.492
380.74	71.626
381.09	72.196
381.45	70.751
381.81	71.395
382.17	73.504
382.53	71.386
382.89	70.727
383.25	72.351
383.61	69.798
383.97	72.466
384.32	71.007
384.68	73.262
385.04	70.223
385.40	70.996
385.76	70.275
386.12	71.676
386.48	72.036
386.83	72.738
387.19	71.084
387.55	70.671
387.91	71.016
388.27	70.791
388.62	69.953
388.98	69.621
389.34	68.590
389.70	69.222
390.06	70.122
390.42	70.512
390.77	68.857
391.13	71.998
391.49	69.389
391.85	71.631
392.20	70.143
392.56	69.474
392.92	69.792
393.28	69.563
393.64	69.094
393.99	69.828
394.35	69.511
394.71	69.964
395.07	69.221
395.42	69.145
395.78	70.080
396.14	69.940
396.50	68.532
396.85	69.756
397.21	68.712
397.57	69.396
397.92	67.591
398.28	69.608
398.64	69.459
399.00	66.756
399.35	67.740
399.71	67.660
400.07	68.037
400.42	69.254
400.78	67.801
401.14	69.055
401.49	68.491
401.85	67.613
402.21	67.428
402.57	69.120
402.92	67.879
403.28	68.377
403.63	66.686
403.99	68.456
404.35	67.937
404.70	67.809
405.06	67.546
405.42	67.026
405.77	65.766
406.13	66.106
406.49	67.140
406.84	65.539
407.20	66.952
407.55	68.000
407.91	68.028
408.27	66.828
408.62	66.824
408.98	67.061
409.34	66.043
409.69	67.019
410.05	65.355
410.40	65.194
410.76	65.713
411.11	66.706
411.47	65.123
411.83	65.261
412.18	67.089
412.54	66.006
412.89	64.307
413.25	66.420
413.60	65.713
413.96	66.906
414.31	66.057
414.67	66.418
415.03	65.964
415.38	66.246
415.74	66.330
416.09	66.271
416.45	66.451
416.80	67.992
417.16	65.309
417.51	65.096
417.87	65.832
418.22	66.646
418.58	66.115
418.93	64.842
419.29	66.297
419.64	65.475
420.00	66.647
420.35	66.144
420.71	65.053
421.06	66.922
421.42	65.976
421.77	66.074
422.12	65.380
422.48	64.458
422.83	65.569
423.19	64.363
423.54	65.826
423.90	66.761
424.25	66.593
424.61	66.048
424.96	66.347
425.31	65.079
425.67	67.284
426.02	66.461
426.38	65.053
426.73	67.438
427.09	65.896
427.44	65.729
427.79	67.067
428.15	67.177
428.50	66.629
428.85	66.549
429.21	66.234
429.56	65.055
429.92	66.335
430.27	65.070
430.62	64.464
430.98	66.118
431.33	65.575
431.68	65.037
432.04	64.873
432.39	65.642
432.74	66.569
433.10	67.442
433.45	68.064
433.80	66.961
434.16	65.949
434.51	65.325
434.86	67.011
435.22	66.991
435.57	67.635
435.92	67.501
436.28	67.224
436.63	66.288
436.98	67.455
437.34	67.237
437.69	66.461
438.04	66.022
438.39	67.075
438.75	66.648
439.10	66.972
439.45	65.913
439.81	68.132
440.16	67.474
440.51	65.878
440.86	68.376
441.22	65.422
441.57	66.772
441.92	66.338
442.27	66.907
442.63	65.904
442.98	64.817
443.33	67.006
443.68	65.895
444.03	66.117
444.39	66.243
444.74	67.081
445.09	66.877
445.44	66.738
445.79	66.520
446.15	65.579
446.50	67.089
446.85	67.281
447.20	65.622
447.55	67.863
447.91	66.649
448.26	66.613
448.61	68.049
448.96	68.682
449.31	67.767
449.66	67.442
450.02	66.775
450.37	66.852
450.72	67.273
451.07	66.550
451.42	66.331
451.77	67.640
452.12	66.194
452.47	66.768
452.83	67.831
453.18	67.568
453.53	68.206
453.88	67.486
454.23	67.112
454.58	66.259
454.93	67.075
455.28	66.401
455.63	68.203
455.98	66.215
456.34	67.477
456.69	67.988
457.04	67.303
457.39	66.343
457.74	67.624
458.09	66.367
458.44	66.320
458.79	67.162
459.14	67.267
459.49	67.327
459.84	66.902
460.19	65.085
460.54	66.724
460.89	66.578
461.24	65.464
461.59	66.327
461.94	67.376
462.29	66.419
462.64	67.337
462.99	67.051
463.34	68.114
463.69	66.667
464.04	66.494
464.39	66.571
464.74	65.709
465.09	64.539
465.44	65.615
465.79	65.542
466.14	64.600
466.49	64.840
466.84	64.939
467.19	65.554
467.54	65.045
467.89	65.376
468.24	66.300
468.59	66.488
468.94	67.029
469.29	66.158
469.64	66.174
469.99	65.810
470.34	66.034
470.68	67.793
471.03	65.911
471.38	67.020
471.73	65.905
472.08	68.037
472.43	66.977
472.78	66.517
473.13	65.394
473.48	65.648
473.83	65.371
474.17	65.957
474.52	65.225
474.87	64.355
475.22	65.734
475.57	64.008
475.92	64.027
476.27	63.384
476.61	64.182
476.96	63.114
477.31	65.347
477.66	65.110
478.01	63.899
478.36	65.242
478.70	62.481
479.05	63.964
479.40	64.931
479.75	65.293
480.10	64.908
480.45	62.885
480.79	63.180
481.14	64.670
481.49	63.312
481.84	64.028
482.19	63.581
482.53	63.417
482.88	63.441
483.23	63.464
483.58	63.420
483.92	63.940
484.27	62.800
484.62	63.540
484.97	61.356
485.31	62.190
485.66	60.807
486.01	59.598
486.36	58.801
486.70	57.998
487.05	59.168
487.40	59.046
487.75	59.518
488.09	59.972
488.44	59.943
488.79	60.986
489.13	61.441
489.48	62.845
489.83	62.052
490.17	62.799
490.52	62.102
490.87	63.017
491.22	62.810
491.56	62.451
491.91	61.918
492.26	62.717
492.60	63.690
492.95	62.619
493.30	62.739
493.64	62.624
493.99	62.209
494.34	61.811
494.68	62.948
495.03	61.428
495.37	63.035
495.72	62.611
496.07	61.950
496.41	60.165
496.76	61.334
497.11	61.397
497.45	62.078
497.80	62.512
498.14	62.413
498.49	60.492
498.84	62.477
499.18	60.101
499.53	62.104
499.87	61.815
500.22	62.690
500.56	61.699
500.91	61.317
501.26	60.726
501.60	61.475
501.95	61.156
502.29	60.756
502.64	60.565
502.98	60.960
503.33	60.713
503.67	62.163
504.02	59.695
504.36	60.045
504.71	61.164
505.06	61.286
505.40	60.131
505.75	59.682
506.09	60.569
506.44	60.385
506.78	61.484
507.13	61.367
507.47	59.971
507.82	61.363
508.16	61.146
508.51	61.256
508.85	60.541
509.19	61.087
509.54	60.010
509.88	61.363
510.23	61.471
510.57	59.556
510.92	60.939
511.26	60.944
511.61	58.936
511.95	59.930
512.30	60.350
512.64	59.086
512.98	60.072
513.33	59.785
513.67	61.108
514.02	59.377
514.36	60.073
514.70	61.760
515.05	60.202
515.39	60.965
515.74	61.454
516.08	59.259
516.42	62.678
516.77	60.267
517.11	60.373
517.46	59.267
517.80	60.786
518.14	61.577
518.49	60.364
518.83	59.615
519.17	59.900
519.52	59.967
519.86	59.510
520.20	60.603
520.55	60.034
520.89	61.207
521.23	60.689
521.58	60.585
521.92	59.359
522.26	60.071
522.61	60.665
522.95	60.541
523.29	60.058
523.64	59.422
523.98	59.742
524.32	60.092
524.66	59.304
525.01	60.059
525.35	59.988
525.69	60.927
526.04	60.321
526.38	60.212
526.72	59.905
527.06	60.083
527.41	59.553
527.75	60.560
528.09	58.278
528.43	59.549
528.78	59.630
529.12	60.446
529.46	59.848
529.80	58.411
530.15	58.103
530.49	57.401
530.83	58.927
531.17	59.533
531.51	58.369
531.86	56.763
532.20	58.158
532.54	58.318
532.88	58.901
533.22	57.770
533.57	58.145
533.91	56.760
534.25	56.434
534.59	58.480
534.93	55.006
535.27	54.354
535.62	56.593
535.96	55.910
536.30	58.684
536.64	56.273
536.98	55.507
537.32	56.688
537.66	56.441
538.01	56.471
538.35	56.581
538.69	55.400
539.03	56.343
539.37	55.522
539.71	57.222
540.05	56.000
540.39	57.610
540.73	56.899
541.07	54.831
541.42	57.276
541.76	56.104
542.10	55.487
542.44	55.424
542.78	55.821
543.12	55.706
543.46	54.261
543.80	56.015
544.14	55.975
544.48	54.927
544.82	56.024
545.16	54.463
545.50	54.272
545.84	55.240
546.18	56.372
546.52	56.066
546.86	55.642
547.20	54.328
547.54	54.275
547.88	54.075
548.22	54.523
548.56	53.801
548.90	52.966
549.24	54.959
549.58	54.381
549.92	54.944
550.26	55.578
550.60	53.892
550.94	55.767
551.28	56.276
551.62	57.310
551.96	54.459
552.30	54.186
552.64	56.505
552.98	54.188
553.32	53.329
553.66	54.397
554.00	53.797
554.34	55.126
554.68	54.435
555.02	53.971
555.36	53.989
555.69	53.861
556.03	54.331
556.37	53.155
556.71	54.433
557.05	52.949
557.39	54.000
557.73	54.852
558.07	54.058
558.41	54.626
558.75	53.557
559.08	55.254
559.42	55.548
559.76	54.597
560.10	53.200
560.44	53.948
560.78	54.604
561.12	53.401
561.45	52.378
561.79	51.561
562.13	52.306
562.47	53.342
562.81	52.960
563.15	52.877
563.48	51.056
563.82	53.088
564.16	52.612
564.50	52.321
564.84	52.158
565.17	51.872
565.51	53.017
565.85	53.054
566.19	51.131
566.52	51.444
566.86	52.481
567.20	51.573
567.54	51.365
567.88	50.652
568.21	48.228
568.55	50.535
568.89	47.719
569.23	49.180
569.56	49.241
569.90	46.928
570.24	47.155
570.57	47.307
570.91	46.240
571.25	45.611
571.59	45.262
571.92	45.102
572.26	45.094
572.60	44.765
572.93	45.888
573.27	45.319
573.61	44.369
573.95	45.418
574.28	44.668
574.62	44.481
574.96	43.829
575.29	44.057
575.63	43.534
575.97	43.549
576.30	43.938
576.64	43.955
576.98	44.370
577.31	43.807
577.65	44.252
577.98	43.487
578.32	43.308
578.66	43.410
578.99	43.088
579.33	44.023
579.67	43.596
580.00	43.155
580.34	43.250
580.67	43.445
581.01	43.603
581.35	43.272
581.68	42.857
582.02	43.048
582.35	42.948
582.69	42.800
583.02	42.508
583.36	43.387
583.70	42.956
584.03	44.544
584.37	43.942
584.70	43.394
585.04	42.731
585.37	43.102
585.71	43.303
586.04	43.025
586.38	42.423
586.72	43.423
587.05	43.129
587.39	43.464
587.72	43.498
588.06	43.233
588.39	42.784
588.73	43.830
589.06	43.974
589.40	43.912
589.73	44.051
590.07	44.647
590.40	44.774
590.73	45.832
591.07	45.958
591.40	44.750
591.74	44.562
592.07	43.885
592.41	43.805
592.74	44.416
593.08	42.969
593.41	43.148
593.75	42.489
594.08	43.609
594.41	43.239
594.75	42.568
595.08	43.553
595.42	43.713
595.75	43.304
596.09	43.726
596.42	43.154
596.75	44.511
597.09	44.614
597.42	44.122
597.75	43.773
598.09	43.701
598.42	43.574
598.76	43.562
599.09	44.538
599.42	43.356
599.76	43.318
600.09	42.034
600.42	42.749
600.76	42.794
601.09	42.941
601.42	42.274
601.76	43.179
602.09	42.678
602.42	42.921
602.76	42.846
603.09	43.477
603.42	43.339
603.76	42.444
604.09	41.621
604.42	42.561
604.76	43.422
605.09	42.980
605.42	42.828
605.75	42.321
606.09	41.890
606.42	42.014
606.75	42.946
607.09	43.032
607.42	42.949
607.75	42.118
608.08	42.892
608.42	42.785
608.75	43.218
609.08	42.763
609.41	42.364
609.75	43.590
610.08	42.986
610.41	43.127
610.74	42.641
611.07	43.565
611.41	43.976
611.74	44.264
612.07	43.449
612.40	43.177
612.73	43.585
613.07	43.284
613.40	44.461
613.73	43.734
614.06	42.950
614.39	44.495
614.72	42.391
615.06	42.977
615.39	43.366
615.72	42.643
616.05	43.446
616.38	42.719
616.71	43.190
617.05	43.163
617.38	43.764
617.71	43.982
618.04	44.420
618.37	44.136
618.70	42.956
619.03	44.200
619.36	44.912
619.69	44.525
620.03	46.314
620.36	45.087
620.69	45.913
621.02	45.516
621.35	45.057
621.68	45.575
622.01	45.830
622.34	44.865
622.67	44.171
623.00	43.022
623.33	44.332
623.66	44.444
623.99	45.616
624.32	44.648
624.65	44.832
624.99	45.301
625.32	42.953
625.65	44.207
625.98	44.142
626.31	45.623
626.64	43.888
626.97	44.529
627.30	46.273
627.63	44.819
627.96	46.088
628.29	45.132
628.62	46.022
628.95	47.429
629.28	47.239
629.61	47.364
629.94	45.030
630.26	46.967
630.59	46.277
630.92	45.650
631.25	45.150
631.58	49.662
631.91	46.527
632.24	46.647
632.57	46.464
632.90	47.205
633.23	49.318
633.56	48.156
633.89	48.339
634.22	49.193
634.55	48.710
634.88	47.755
635.20	49.215
635.53	48.780
635.86	50.559
636.19	48.036
636.52	46.595
636.85	47.681
637.18	48.429
637.51	45.587
637.83	46.682
638.16	47.128
638.49	49.222
638.82	50.235
639.15	49.001
639.48	50.000
639.81	47.375
640.13	47.362
640.46	48.167
640.79	51.756
641.12	50.131
641.45	50.065
641.77	50.859
642.10	48.193
642.43	48.791
642.76	48.438
643.09	48.559
643.41	48.247
643.74	49.065
644.07	51.622
644.40	50.740
644.73	49.099
645.05	51.857
645.38	49.923
645.71	51.897
646.04	51.298
646.36	52.739
646.69	50.880
647.02	52.160
647.35	49.291
647.67	51.864
648.00	51.954
648.33	50.677
648.66	50.758
648.98	48.406
649.31	47.099
649.64	49.101
649.96	48.080
650.29	45.571
650.62	49.485
650.94	48.645
651.27	51.356
651.60	49.765
651.92	49.309
652.25	49.764
652.58	48.794
652.90	48.353
653.23	49.778
653.56	49.703
653.88	48.164
654.21	47.361
654.54	46.999
654.86	46.608
655.19	45.910
655.52	39.693
655.84	33.006
656.17	37.851
656.49	54.837
656.82	63.227
657.15	50.259
657.47	37.598
657.80	27.593
658.13	21.503
658.45	29.145
658.78	35.333
659.10	35.650
659.43	36.699
659.75	38.475
660.08	40.476
660.41	43.194
660.73	47.302
661.06	46.847
661.38	48.893
661.71	50.540
662.03	49.240
662.36	48.381
662.68	49.907
663.01	49.009
663.33	46.415
663.66	50.888
663.98	49.802
664.31	51.306
664.63	47.701
664.96	49.906
665.28	49.718
665.61	50.000
665.93	49.623
666.26	50.467
666.58	50.092
666.91	51.158
667.23	48.795
667.56	51.951
667.88	52.075
668.21	48.770
668.53	50.605
668.86	50.701
669.18	50.509
669.50	47.727
669.83	49.692
670.15	50.936
670.48	44.531
670.80	47.610
671.13	47.410
671.45	53.307
671.77	47.681
672.10	49.551
672.42	46.546
672.75	47.152
673.07	45.151
673.39	46.486
673.72	46.713
674.04	46.237
674.37	45.554
674.69	46.840
675.01	47.388
675.34	47.674
675.66	50.391
675.98	48.126
676.31	48.400
676.63	49.304
676.95	49.405
677.28	49.290
677.60	48.893
677.92	47.619
678.25	46.124
678.57	46.555
678.89	47.016
679.22	47.794
679.54	46.797
679.86	46.248
680.18	48.506
680.51	43.615
680.83	45.946
681.15	46.794
681.48	46.528
681.80	44.133
682.12	46.713
682.44	47.928
682.77	46.441
683.09	47.573
683.41	48.776
683.73	46.260
684.06	46.627
684.38	47.481
684.70	44.424
685.02	43.056
685.34	47.359
685.67	45.177
685.99	45.977
686.31	44.992
686.63	44.065
686.96	45.752
687.28	41.946
687.60	43.686
687.92	46.566
688.24	44.655
688.56	46.619
688.89	45.315
689.21	45.279
689.53	47.628
689.85	47.358
690.17	46.990
690.49	48.589
690.82	47.269
691.14	46.667
691.46	46.201
691.78	48.538
692.10	46.183
692.42	44.102
692.74	43.217
693.06	45.930
693.39	44.466
693.71	45.776
694.03	45.168
694.35	46.386
694.67	43.381
694.99	47.672
695.31	48.649
695.63	50.000
695.95	46.380
696.27	48.009
696.59	48.210
696.91	49.114
697.23	50.000
697.56	40.871
697.88	43.912
698.20	43.019
698.52	42.996
698.84	47.228
699.16	47.335
699.48	47.034
699.80	47.930
700.12	50.346
700.44	46.963
700.76	48.449
701.08	47.781
701.40	49.610
701.72	51.604
702.04	51.220
702.36	50.806
702.68	47.606
703.00	45.614
703.32	47.643
703.64	46.348
703.96	47.135
704.28	48.677
704.60	50.986
704.91	48.459
705.23	52.273
705.55	51.335
705.87	50.794
706.19	54.232
706.51	52.038
706.83	51.622
707.15	48.930
707.47	46.731
707.79	48.046
708.11	44.898
708.43	44.719
708.74	44.570
709.06	45.814
709.38	44.417
709.70	45.232
710.02	49.728
710.34	49.448
710.66	47.222
710.98	48.634
711.29	47.075
711.61	51.532
711.93	47.416
712.25	51.205
712.57	46.624
712.89	46.970
713.20	51.438
713.52	48.287
713.84	50.755
714.16	45.507
714.48	42.363
714.80	46.070
715.11	45.213
715.43	45.251
715.75	47.606
716.07	47.399
716.39	47.429
716.70	46.729
717.02	50.168
717.34	53.597
717.66	54.861
717.97	54.924
718.29	53.521
718.61	46.284
718.93	49.827
719.24	52.685
719.56	47.586
719.88	47.134
720.20	48.065
720.51	48.366
720.83	49.164
721.15	45.238
721.46	47.945
721.78	47.038
722.10	51.042
722.42	50.502
722.73	48.736
723.05	49.123
723.37	51.237
723.68	48.828
724.00	52.652
724.32	55.133
724.63	49.615
724.95	55.294
725.27	47.955
725.58	48.529
725.90	49.648
726.22	51.370
726.53	48.829
726.85	49.837
727.16	49.664
727.48	48.837
727.80	48.201
728.11	48.571
728.43	47.464
728.74	48.601
729.06	43.011
729.38	52.632
729.69	53.333
730.01	50.987
730.32	50.671
730.64	47.508
730.96	48.048
731.27	40.979
731.59	46.264
731.90	45.125
732.22	44.857
732.53	39.316
732.85	47.368
733.16	47.590
733.48	45.141
733.80	48.696
734.11	50.613
734.43	38.889
734.74	42.359
735.06	46.561
735.37	40.464
735.69	43.478
736.00	45.260
736.32	43.030
736.63	42.587
736.95	45.652
737.26	45.732
737.58	44.785
737.89	45.482
738.21	46.689
738.52	46.823
738.83	48.352
739.15	46.341
739.46	47.586
739.78	45.918
740.09	45.481
740.41	47.853
740.72	48.889
741.04	50.000
741.35	47.656
741.66	49.802
741.98	55.794
742.29	56.019
742.61	50.885
742.92	47.458
743.23	48.000
743.55	47.547
743.86	51.765
744.18	53.390
744.49	47.934
744.80	50.230
745.12	50.446
745.43	54.206
745.74	52.444
746.06	50.439
746.37	54.884
746.68	53.540
747.00	55.605
747.31	51.681
747.62	49.180
747.94	51.073
748.25	46.304
748.56	50.000
748.88	53.571
749.19	58.605
749.50	55.708
749.82	52.263
750.13	47.826
750.44	47.333
750.75	46.980
751.07	46.053
751.38	47.195
751.69	48.148
752.01	47.203
752.32	46.844
752.63	44.631
752.94	47.552
753.26	46.875
753.57	49.805
753.88	44.944
754.19	48.375
754.51	46.844
754.82	41.946
755.13	46.284
755.44	44.815
755.75	51.203
756.07	46.918
756.38	43.137
756.69	44.375
757.00	44.510
757.31	43.662
757.63	43.802
757.94	38.830
758.25	40.338
758.56	40.961
758.87	42.105
759.18	45.930
759.50	44.377
759.81	45.401
760.12	42.978
760.43	44.258
760.74	41.772
761.05	41.645
761.36	38.281
761.67	41.779
761.99	43.380
762.30	42.444
762.61	41.319
762.92	46.970
763.23	47.170
763.54	46.923
763.85	44.747
764.16	44.097
764.47	44.595
764.78	41.694
765.10	40.244
765.41	40.625
765.72	39.227
766.03	42.598
766.34	44.599
766.65	49.430
766.96	44.534
767.27	52.804
767.58	52.970
767.89	54.144
768.20	63.415
768.51	46.939
768.82	54.386
769.13	48.627
769.44	46.617
769.75	43.820
770.06	50.420
770.37	48.246
770.68	45.333
770.99	50.424
771.30	46.862
771.61	44.615
771.92	47.328
772.23	47.177
772.54	50.222
772.85	55.446
773.16	53.804
773.47	51.111
773.78	50.000
774.09	57.386
774.39	50.303
774.70	56.471
775.01	55.263
775.32	54.658
775.63	61.644
775.94	61.728
776.25	58.621
776.56	60.305
776.87	64.122
777.18	58.333
777.48	74.803
777.79	58.462
778.10	59.091
778.41	65.672
778.72	58.647
779.03	55.769
779.34	54.054
779.65	59.627
779.95	57.143
780.26	54.762
780.57	65.986
780.88	53.191
781.19	65.833
781.50	53.846
781.80	50.820
782.11	47.090
782.42	43.678
782.73	50.282
783.04	51.613
783.34	58.915
783.65	57.143
783.96	56.129
784.27	50.993
784.57	55.263
784.88	63.043
785.19	62.500
785.50	66.379
785.81	70.543
786.11	58.519
786.42	55.118
786.73	55.856
787.04	61.321
787.34	59.350
787.65	58.333
787.96	60.606
788.26	64.567
788.57	69.343
788.88	57.746
789.19	58.015
789.49	62.162
789.80	56.250
790.11	61.983
790.41	69.444
790.72	61.111
791.03	65.385
791.33	69.697
791.64	77.895
791.95	72.632
792.25	53.125
792.56	64.000
792.87	63.415
793.17	75.000
793.48	82.353
793.79	66.667
794.09	59.091
794.40	79.310
794.70	59.524
795.01	58.462
795.32	62.595
795.62	52.991
795.93	70.588
796.23	59.350
796.54	75.510
796.85	78.409
797.15	85.714
797.46	81.707
797.76	71.250
798.07	98.667
798.37	86.250
798.68	75.000
798.99	84.146
799.29	64.000
799.60	72.093
799.90	90.789
800.21	81.818
800.51	76.056
800.82	87.931
801.12	98.462
801.43	86.667
801.73	82.759
802.04	68.831
802.34	87.671
802.65	92.157
802.95	104.348
803.26	101.613
803.56	88.333
803.87	91.045
804.17	85.714
804.48	100.000
804.78	77.778
805.09	101.515
805.39	88.889
805.70	91.228
806.00	78.571
806.30	87.500
806.61	77.647
806.91	72.222
807.22	64.130
807.52	78.947
807.83	81.579
808.13	79.710
808.43	103.226
808.74	97.260
809.04	71.429
809.35	88.235
809.65	92.424
809.95	88.235
810.26	120.370
810.56	95.312
810.86	95.918
811.17	108.772
811.47	93.478
811.77	86.207
812.08	87.931
812.38	102.381
812.69	116.667
812.99	102.222
813.29	120.000
813.59	135.484
813.90	79.310
814.20	80.328
814.50	104.000
814.81	98.246
815.11	98.148
815.41	100.000
815.72	112.500
816.02	108.000
816.32	119.512
816.62	96.552
816.93	136.364
817.23	109.756
817.53	100.000
817.84	97.778
818.14	102.381
818.44	120.833
818.74	103.774
819.04	100.000
819.35	148.485
819.65	119.231
819.95	114.815
820.25	119.149
820.56	140.541
820.86	144.737
821.16	78.723
821.46	118.421
821.76	96.364
822.07	114.286
822.37	136.842
822.67	120.930
822.97	94.737
823.27	119.565
823.57	143.750
823.88	123.077
824.18	112.121
824.48	143.478
824.78	130.556
825.08	173.913
825.38	193.103
825.69	147.059
825.99	106.383
826.29	111.111
826.59	157.143
826.89	166.667
827.19	100.000
827.49	154.839
827.79	188.462
828.09	95.238
828.39	108.333
828.70	89.189
829.00	171.429
829.30	218.750
829.60	127.778
829.90	190.323
830.20	118.182
830.50	135.135
830.80	200.000
831.10	176.923
831.40	138.095
831.70	237.500
832.00	136.667
832.30	169.565
832.60	195.833
832.90	166.667
833.20	200.000
833.50	118.421
833.80	147.059
834.10	147.368
834.40	147.368
834.70	106.667
835.00	172.000
835.30	94.595
835.60	184.375
835.90	129.730
836.20	169.231
836.50	200.000
836.80	112.195
837.10	173.913
837.40	346.154
837.70	173.684
838.00	166.667
838.30	216.667
838.60	136.000
838.90	380.000
839.19	181.250
839.49	166.667
839.79	117.241
840.09	192.308
840.39	206.667
840.69	210.526
840.99	161.905
841.29	191.304
841.59	210.000
841.88	164.000
842.18	377.778
842.48	157.143
842.78	148.148
843.08	269.231
843.38	186.364
843.68	271.429
843.97	385.714
844.27	182.609
844.57	1700.000
844.87	314.286
845.17	233.333
845.47	190.476
845.76	195.833
846.06	571.429
846.36	235.294
846.66	292.308
846.96	262.500
847.25	292.308
847.55	200.000
847.85	233.333
848.15	600.000
848.44	345.455
848.74	180.952
849.04	162.500
849.34	235.294
849.63	250.000
849.93	281.250
850.23	1100.000
850.53	487.500
850.82	290.909
851.12	200.000
851.42	229.167
851.71	193.750
852.01	0.000
852.31	247.059
852.61	400.000
852.90	200.000
853.20	400.000
853.50	-2600.000
853.79	152.000
854.09	165.625
854.39	179.310
854.68	175.862
854.98	219.048
855.28	138.710
855.57	285.714
855.87	200.000
856.17	133.333
856.46	231.579
856.76	135.484
857.05	252.941
857.35	345.455
857.65	353.846
857.94	195.000
858.24	488.889
858.53	364.286
858.83	585.714
859.13	213.043
859.42	322.222
859.72	237.500
860.01	266.667
860.31	900.000
860.60	460.000
860.90	475.000
861.20	307.692
861.49	400.000
861.79	-3000.000
862.08	528.571
862.38	477.778
862.67	221.429
862.97	470.000
863.26	163.333
863.56	1025.000
863.85	307.692
864.15	282.353
864.44	305.556
864.74	316.667
865.03	354.545
865.33	512.500
865.62	173.333
865.92	766.667
866.21	1050.000
866.51	500.000
866.80	233.333
867.10	766.667
867.39	3000.000
867.69	680.000
867.98	850.000
868.27	185.714
868.57	300.000
868.86	1075.000
869.16	209.524
869.45	3000.000
869.75	-583.333
870.04	900.000
870.33	780.000
870.63	375.000
870.92	229.412
871.22	950.000
871.51	600.000
871.80	416.667
872.10	323.077
>>>>>End Processed Spectral Data<<<<<
