SpectraSuite Data File
++++++++++++++++++++++++++++++++++++
Date: Tue May 12 16:31:44 PDT 2015
User: schluterlab
Dark Spectrum Present: Yes
Reference Spectrum Present: Yes
Number of Sampled Component Spectra: 1
Spectrometers: USB2E3373
Integration Time (usec): 3000 (USB2E3373)
Spectra Averaged: 3 (USB2E3373)
Boxcar Smoothing: 0 (USB2E3373)
Correct for Electrical Dark: No (USB2E3373)
Strobe/Lamp Enabled: No (USB2E3373)
Correct for Detector Non-linearity: No (USB2E3373)
Correct for Stray Light: No (USB2E3373)
Number of Pixels in Processed Spectrum: 2048
>>>>>Begin Processed Spectral Data<<<<<
178.53	0.000
178.91	-216.667
179.29	-350.000
179.67	-3100.000
180.04	-133.333
180.42	700.000
180.80	1150.000
181.18	0.000
181.56	-350.000
181.94	0.000
182.31	933.333
182.69	-4200.000
183.07	614.286
183.45	-4500.000
183.83	-1850.000
184.20	430.000
184.58	514.286
184.96	-223.077
185.34	-275.000
185.72	1800.000
186.09	-825.000
186.47	-2500.000
186.85	866.667
187.23	720.000
187.61	1250.000
187.98	425.000
188.36	271.429
188.74	300.000
189.12	291.667
189.49	825.000
189.87	0.000
190.25	387.500
190.63	1900.000
191.00	-216.667
191.38	-3500.000
191.76	-675.000
192.14	487.500
192.51	-3100.000
192.89	1650.000
193.27	1066.667
193.65	-1200.000
194.02	-540.000
194.40	542.857
194.78	-264.286
195.15	233.333
195.53	-4000.000
195.91	-760.000
196.29	4400.000
196.66	250.000
197.04	750.000
197.42	-1050.000
197.79	575.000
198.17	308.333
198.55	0.000
198.92	471.429
199.30	1166.667
199.68	1600.000
200.05	650.000
200.43	-566.667
200.81	238.889
201.18	3500.000
201.56	283.333
201.94	-825.000
202.31	-312.500
202.69	-560.000
203.07	2500.000
203.44	-483.333
203.82	275.000
204.19	800.000
204.57	-1350.000
204.95	-950.000
205.32	-540.000
205.70	683.333
206.08	825.000
206.45	-800.000
206.83	400.000
207.20	231.579
207.58	200.000
207.96	840.000
208.33	0.000
208.71	528.571
209.08	600.000
209.46	-3100.000
209.84	-800.000
210.21	820.000
210.59	-540.000
210.96	333.333
211.34	-675.000
211.71	418.182
212.09	900.000
212.46	2000.000
212.84	-333.333
213.22	377.778
213.59	-2200.000
213.97	340.000
214.34	1050.000
214.72	1200.000
215.09	1166.667
215.47	-2200.000
215.84	-270.000
216.22	-412.500
216.59	0.000
216.97	0.000
217.34	900.000
217.72	-1700.000
218.09	1333.333
218.47	412.500
218.84	950.000
219.22	1033.333
219.59	1400.000
219.97	414.286
220.34	344.444
220.72	2050.000
221.09	3800.000
221.47	275.000
221.84	900.000
222.22	210.000
222.59	227.778
222.97	142.857
223.34	193.750
223.72	-1550.000
224.09	1100.000
224.46	284.615
224.84	-650.000
225.21	400.000
225.59	300.000
225.96	1366.667
226.34	-520.000
226.71	-750.000
227.08	-640.000
227.46	0.000
227.83	-500.000
228.21	-1550.000
228.58	375.000
228.95	675.000
229.33	400.000
229.70	950.000
230.08	361.538
230.45	3800.000
230.82	-975.000
231.20	-766.667
231.57	-966.667
231.95	660.000
232.32	266.667
232.69	566.667
233.07	333.333
233.44	-1550.000
233.81	233.333
234.19	144.444
234.56	243.750
234.93	217.647
235.31	220.000
235.68	268.750
236.05	139.286
236.43	159.259
236.80	221.429
237.17	144.828
237.55	143.750
237.92	112.500
238.29	136.364
238.67	137.500
239.04	100.000
239.41	79.167
239.79	110.000
240.16	104.167
240.53	67.213
240.91	73.913
241.28	108.475
241.65	78.788
242.02	90.141
242.40	74.286
242.77	67.033
243.14	50.633
243.51	68.687
243.89	58.879
244.26	56.075
244.63	63.366
245.00	60.550
245.38	40.678
245.75	48.485
246.12	54.815
246.49	52.482
246.87	45.902
247.24	54.000
247.61	53.125
247.98	51.020
248.36	46.061
248.73	46.429
249.10	43.452
249.47	41.500
249.84	47.264
250.22	43.784
250.59	40.000
250.96	37.975
251.33	41.860
251.70	43.304
252.08	39.076
252.45	40.239
252.82	38.403
253.19	41.107
253.56	40.769
253.94	38.768
254.31	42.248
254.68	41.463
255.05	37.586
255.42	39.051
255.79	40.065
256.16	35.254
256.54	36.688
256.91	39.869
257.28	37.458
257.65	37.931
258.02	36.578
258.39	36.390
258.76	36.812
259.14	36.857
259.51	36.443
259.88	39.210
260.25	34.066
260.62	37.808
260.99	32.507
261.36	37.604
261.73	35.372
262.10	36.126
262.47	33.750
262.85	40.000
263.22	34.190
263.59	33.504
263.96	35.840
264.33	35.309
264.70	37.101
265.07	37.073
265.44	37.385
265.81	34.198
266.18	34.783
266.55	35.461
266.92	34.676
267.29	34.868
267.66	33.184
268.03	33.184
268.40	32.770
268.77	35.022
269.14	32.538
269.51	33.185
269.88	34.286
270.25	32.829
270.62	33.691
270.99	30.020
271.36	32.520
271.73	32.704
272.10	30.303
272.47	33.135
272.84	31.936
273.21	32.438
273.58	31.984
273.95	32.033
274.32	34.241
274.69	33.071
275.06	33.515
275.43	33.333
275.80	30.943
276.17	31.434
276.54	34.579
276.91	33.209
277.28	31.569
277.65	33.210
278.02	31.618
278.39	31.835
278.76	30.862
279.13	31.317
279.50	32.727
279.87	29.423
280.23	29.834
280.60	32.482
280.97	30.690
281.34	30.363
281.71	30.783
282.08	32.137
282.45	30.068
282.82	32.274
283.19	31.161
283.56	30.248
283.92	31.759
284.29	30.283
284.66	30.252
285.03	32.172
285.40	28.099
285.77	29.012
286.14	31.269
286.51	28.067
286.87	29.905
287.24	27.628
287.61	27.964
287.98	28.209
288.35	27.704
288.72	29.590
289.08	27.477
289.45	28.354
289.82	28.125
290.19	26.940
290.56	29.258
290.93	28.633
291.29	26.934
291.66	27.401
292.03	27.069
292.40	26.423
292.77	24.791
293.13	25.250
293.50	25.776
293.87	25.339
294.24	26.294
294.60	25.437
294.97	25.455
295.34	25.232
295.71	26.150
296.08	23.600
296.44	25.794
296.81	23.325
297.18	24.588
297.55	24.507
297.91	21.675
298.28	25.242
298.65	24.417
299.02	23.522
299.38	23.141
299.75	21.585
300.12	24.541
300.48	23.536
300.85	24.791
301.22	21.744
301.59	22.052
301.95	22.054
302.32	22.352
302.69	23.190
303.05	23.906
303.42	21.861
303.79	22.644
304.15	22.332
304.52	21.882
304.89	21.109
305.25	22.358
305.62	22.068
305.99	21.196
306.35	21.158
306.72	21.540
307.09	21.843
307.45	22.175
307.82	20.473
308.19	21.237
308.55	21.900
308.92	21.001
309.29	22.781
309.65	21.606
310.02	21.501
310.38	21.137
310.75	20.058
311.12	20.881
311.48	21.718
311.85	21.851
312.22	21.299
312.58	19.728
312.95	21.553
313.31	21.723
313.68	20.919
314.05	21.612
314.41	20.764
314.78	21.402
315.14	21.801
315.51	22.327
315.87	22.354
316.24	21.382
316.61	20.859
316.97	20.550
317.34	22.282
317.70	22.125
318.07	23.132
318.43	23.814
318.80	23.380
319.16	22.815
319.53	23.009
319.89	23.566
320.26	25.791
320.62	24.451
320.99	23.356
321.35	24.675
321.72	25.996
322.08	24.654
322.45	25.250
322.81	25.435
323.18	26.909
323.54	29.530
323.91	28.830
324.27	28.912
324.64	30.190
325.00	29.310
325.37	31.535
325.73	31.535
326.10	33.554
326.46	32.453
326.83	32.160
327.19	33.655
327.56	34.505
327.92	35.738
328.29	35.843
328.65	36.815
329.01	36.612
329.38	37.817
329.74	37.062
330.11	38.315
330.47	37.937
330.84	37.532
331.20	38.325
331.56	41.105
331.93	40.633
332.29	39.031
332.66	41.922
333.02	40.120
333.38	40.750
333.75	42.535
334.11	41.359
334.48	41.795
334.84	41.216
335.20	42.429
335.57	41.478
335.93	42.893
336.29	42.123
336.66	43.911
337.02	42.429
337.38	42.992
337.75	45.017
338.11	43.460
338.47	43.692
338.84	43.268
339.20	42.684
339.56	44.239
339.93	43.729
340.29	42.857
340.65	44.091
341.02	44.409
341.38	44.745
341.74	44.850
342.11	43.573
342.47	43.724
342.83	46.103
343.20	44.786
343.56	42.573
343.92	43.931
344.28	45.375
344.65	45.151
345.01	44.127
345.37	44.551
345.73	43.175
346.10	45.100
346.46	45.774
346.82	44.213
347.19	45.440
347.55	44.184
347.91	44.109
348.27	46.708
348.63	45.491
349.00	46.078
349.36	45.370
349.72	45.642
350.08	45.807
350.45	46.230
350.81	45.489
351.17	45.994
351.53	46.112
351.89	45.455
352.26	45.956
352.62	45.701
352.98	45.245
353.34	47.304
353.70	44.266
354.07	47.077
354.43	46.006
354.79	44.343
355.15	46.478
355.51	46.677
355.87	46.009
356.24	46.035
356.60	45.510
356.96	46.247
357.32	46.194
357.68	46.256
358.04	47.416
358.40	47.376
358.77	47.258
359.13	47.147
359.49	47.146
359.85	47.431
360.21	46.731
360.57	47.080
360.93	46.609
361.29	46.970
361.66	46.756
362.02	46.733
362.38	47.908
362.74	47.205
363.10	48.597
363.46	46.823
363.82	47.055
364.18	48.649
364.54	48.856
364.90	47.189
365.26	48.716
365.62	48.135
365.98	49.071
366.35	47.931
366.71	48.022
367.07	48.055
367.43	48.623
367.79	47.939
368.15	48.643
368.51	49.207
368.87	48.641
369.23	48.302
369.59	48.887
369.95	49.301
370.31	48.049
370.67	49.757
371.03	48.389
371.39	49.238
371.75	49.128
372.11	48.606
372.47	49.589
372.83	48.810
373.19	48.595
373.55	49.622
373.91	47.928
374.27	49.405
374.63	48.339
374.99	49.259
375.35	50.336
375.71	49.802
376.07	49.337
376.42	49.616
376.78	49.390
377.14	49.607
377.50	49.501
377.86	49.904
378.22	49.482
378.58	51.211
378.94	50.211
379.30	50.273
379.66	49.910
380.02	50.557
380.38	49.473
380.74	50.577
381.09	50.643
381.45	49.422
381.81	49.941
382.17	50.672
382.53	49.970
382.89	50.917
383.25	50.503
383.61	50.375
383.97	50.030
384.32	51.236
384.68	51.277
385.04	50.000
385.40	50.119
385.76	50.205
386.12	50.711
386.48	50.638
386.83	51.100
387.19	50.589
387.55	50.883
387.91	50.404
388.27	51.517
388.62	50.235
388.98	50.845
389.34	50.089
389.70	50.825
390.06	51.585
390.42	51.882
390.77	50.430
391.13	49.909
391.49	51.059
391.85	51.200
392.20	50.000
392.56	50.657
392.92	50.477
393.28	49.103
393.64	49.427
393.99	50.563
394.35	48.911
394.71	49.156
395.07	49.818
395.42	49.649
395.78	51.696
396.14	51.145
396.50	49.880
396.85	49.878
397.21	50.120
397.57	50.030
397.92	49.162
398.28	50.524
398.64	50.611
399.00	49.385
399.35	49.812
399.71	49.779
400.07	48.801
400.42	50.209
400.78	50.850
401.14	49.794
401.49	49.194
401.85	49.826
402.21	49.912
402.57	50.090
402.92	50.182
403.28	49.284
403.63	49.264
403.99	49.638
404.35	49.941
404.70	50.207
405.06	48.905
405.42	49.910
405.77	50.165
406.13	48.373
406.49	48.550
406.84	48.223
407.20	49.315
407.55	48.985
407.91	49.521
408.27	48.999
408.62	49.616
408.98	49.024
409.34	48.627
409.69	48.600
410.05	48.002
410.40	48.822
410.76	47.224
411.11	48.460
411.47	48.704
411.83	48.682
412.18	48.853
412.54	47.988
412.89	47.906
413.25	49.202
413.60	48.715
413.96	49.072
414.31	49.115
414.67	50.528
415.03	48.978
415.38	50.726
415.74	49.589
416.09	49.032
416.45	49.709
416.80	49.070
417.16	49.268
417.51	49.108
417.87	48.999
418.22	48.724
418.58	51.019
418.93	48.899
419.29	48.860
419.64	49.303
420.00	50.597
420.35	49.535
420.71	49.767
421.06	49.735
421.42	49.683
421.77	49.195
422.12	50.110
422.48	49.461
422.83	50.056
423.19	49.244
423.54	50.357
423.90	50.566
424.25	51.238
424.61	49.739
424.96	52.513
425.31	50.794
425.67	50.505
426.02	50.869
426.38	50.583
426.73	50.954
427.09	51.364
427.44	51.548
427.79	52.030
428.15	51.856
428.50	53.086
428.85	51.499
429.21	51.648
429.56	52.542
429.92	52.909
430.27	52.008
430.62	52.129
430.98	51.497
431.33	52.218
431.68	52.346
432.04	52.095
432.39	53.513
432.74	54.918
433.10	53.654
433.45	53.935
433.80	53.999
434.16	52.916
434.51	54.180
434.86	54.709
435.22	54.241
435.57	53.942
435.92	55.492
436.28	55.127
436.63	54.673
436.98	55.180
437.34	54.680
437.69	54.087
438.04	55.000
438.39	55.575
438.75	54.900
439.10	55.801
439.45	55.399
439.81	56.796
440.16	55.256
440.51	55.180
440.86	56.866
441.22	54.654
441.57	55.066
441.92	55.676
442.27	56.031
442.63	56.352
442.98	55.388
443.33	56.294
443.68	55.885
444.03	55.749
444.39	56.497
444.74	56.781
445.09	57.662
445.44	56.695
445.79	56.725
446.15	57.421
446.50	56.857
446.85	57.022
447.20	57.214
447.55	57.694
447.91	57.592
448.26	57.242
448.61	59.204
448.96	58.170
449.31	58.636
449.66	58.859
450.02	58.185
450.37	57.746
450.72	58.788
451.07	58.522
451.42	59.099
451.77	59.450
452.12	59.217
452.47	59.478
452.83	59.718
453.18	58.679
453.53	59.207
453.88	59.714
454.23	59.907
454.58	59.324
454.93	58.982
455.28	60.404
455.63	59.929
455.98	58.827
456.34	61.216
456.69	60.488
457.04	59.726
457.39	58.971
457.74	59.291
458.09	58.787
458.44	59.255
458.79	59.788
459.14	59.574
459.49	59.570
459.84	60.380
460.19	59.040
460.54	60.513
460.89	60.394
461.24	58.992
461.59	59.297
461.94	59.574
462.29	60.240
462.64	60.490
462.99	59.949
463.34	60.207
463.69	61.343
464.04	61.716
464.39	59.760
464.74	59.848
465.09	58.851
465.44	60.065
465.79	60.207
466.14	58.347
466.49	59.251
466.84	58.807
467.19	59.110
467.54	59.159
467.89	61.444
468.24	61.031
468.59	59.702
468.94	62.077
469.29	60.599
469.64	60.322
469.99	60.411
470.34	60.911
470.68	61.379
471.03	61.708
471.38	61.126
471.73	61.463
472.08	63.666
472.43	63.315
472.78	61.268
473.13	59.449
473.48	61.614
473.83	61.955
474.17	61.581
474.52	61.019
474.87	59.864
475.22	61.279
475.57	60.493
475.92	59.785
476.27	60.337
476.61	61.019
476.96	60.658
477.31	61.954
477.66	61.836
478.01	61.062
478.36	61.586
478.70	60.149
479.05	61.297
479.40	60.813
479.75	62.363
480.10	60.891
480.45	60.691
480.79	59.631
481.14	60.675
481.49	59.973
481.84	60.202
482.19	61.747
482.53	60.079
482.88	60.125
483.23	61.074
483.58	62.029
483.92	61.654
484.27	59.589
484.62	60.993
484.97	59.291
485.31	59.121
485.66	57.802
486.01	56.752
486.36	56.020
486.70	56.140
487.05	56.914
487.40	57.170
487.75	58.351
488.09	58.892
488.44	59.369
488.79	59.597
489.13	61.329
489.48	60.767
489.83	60.175
490.17	59.620
490.52	61.068
490.87	61.509
491.22	62.278
491.56	61.880
491.91	61.111
492.26	61.425
492.60	62.597
492.95	62.664
493.30	62.602
493.64	61.141
493.99	61.136
494.34	61.990
494.68	61.310
495.03	62.865
495.37	61.729
495.72	62.564
496.07	62.084
496.41	61.859
496.76	62.094
497.11	60.754
497.45	61.640
497.80	62.558
498.14	62.228
498.49	62.396
498.84	63.271
499.18	61.197
499.53	62.058
499.87	61.411
500.22	62.322
500.56	63.045
500.91	62.338
501.26	62.379
501.60	62.386
501.95	61.962
502.29	61.733
502.64	60.873
502.98	61.183
503.33	62.094
503.67	61.678
504.02	62.024
504.36	62.534
504.71	62.157
505.06	63.022
505.40	62.003
505.75	62.675
506.09	61.923
506.44	62.923
506.78	62.665
507.13	63.112
507.47	63.367
507.82	63.212
508.16	63.302
508.51	63.478
508.85	62.108
509.19	63.779
509.54	63.330
509.88	63.650
510.23	63.480
510.57	62.500
510.92	64.086
511.26	64.257
511.61	62.137
511.95	64.012
512.30	63.500
512.64	65.109
512.98	64.839
513.33	63.678
513.67	64.319
514.02	63.481
514.36	64.226
514.70	64.107
515.05	64.624
515.39	64.200
515.74	66.047
516.08	66.231
516.42	66.995
516.77	65.227
517.11	64.107
517.46	66.218
517.80	65.374
518.14	67.099
518.49	64.553
518.83	64.286
519.17	65.946
519.52	65.210
519.86	65.014
520.20	65.808
520.55	66.478
520.89	67.126
521.23	67.056
521.58	66.036
521.92	65.306
522.26	65.344
522.61	67.380
522.95	68.048
523.29	67.368
523.64	67.572
523.98	67.723
524.32	66.436
524.66	66.609
525.01	67.456
525.35	66.765
525.69	66.707
526.04	66.211
526.38	65.215
526.72	66.945
527.06	65.937
527.41	69.468
527.75	67.316
528.09	66.165
528.43	66.931
528.78	66.547
529.12	68.995
529.46	65.926
529.80	65.888
530.15	66.706
530.49	67.148
530.83	66.849
531.17	67.651
531.51	67.811
531.86	65.036
532.20	65.884
532.54	66.290
532.88	67.645
533.22	66.789
533.57	67.297
533.91	66.434
534.25	64.801
534.59	66.667
534.93	64.278
535.27	64.826
535.62	64.411
535.96	65.721
536.30	67.520
536.64	66.211
536.98	65.639
537.32	67.938
537.66	65.689
538.01	66.563
538.35	66.999
538.69	65.231
539.03	64.739
539.37	66.141
539.71	67.531
540.05	66.400
540.39	67.862
540.73	68.101
541.07	65.809
541.42	66.418
541.76	66.400
542.10	65.105
542.44	66.895
542.78	65.387
543.12	66.442
543.46	66.541
543.80	68.170
544.14	66.935
544.48	66.849
544.82	65.321
545.16	66.302
545.50	66.503
545.84	66.793
546.18	68.205
546.52	67.672
546.86	68.150
547.20	66.344
547.54	66.054
547.88	65.572
548.22	67.517
548.56	65.704
548.90	65.421
549.24	66.835
549.58	67.204
549.92	67.060
550.26	69.439
550.60	67.532
550.94	70.014
551.28	69.172
551.62	68.483
551.96	68.108
552.30	67.172
552.64	68.091
552.98	67.977
553.32	67.478
553.66	67.036
554.00	67.375
554.34	68.775
554.68	68.145
555.02	69.450
555.36	68.152
555.69	68.194
556.03	67.707
556.37	68.579
556.71	68.905
557.05	67.759
557.39	69.133
557.73	68.868
558.07	69.349
558.41	69.363
558.75	68.947
559.08	70.479
559.42	70.437
559.76	71.418
560.10	69.580
560.44	69.144
560.78	69.629
561.12	68.531
561.45	69.587
561.79	67.978
562.13	68.667
562.47	68.657
562.81	69.941
563.15	69.425
563.48	66.398
563.82	68.871
564.16	69.030
564.50	65.642
564.84	68.267
565.17	66.191
565.51	69.581
565.85	69.648
566.19	68.274
566.52	67.930
566.86	68.243
567.20	66.910
567.54	66.430
567.88	67.606
568.21	65.502
568.55	66.440
568.89	65.693
569.23	64.582
569.56	63.618
569.90	61.732
570.24	62.112
570.57	61.713
570.91	60.624
571.25	60.795
571.59	59.955
571.92	59.688
572.26	59.461
572.60	60.011
572.93	59.804
573.27	60.597
573.61	59.610
573.95	59.811
574.28	59.937
574.62	58.803
574.96	59.132
575.29	58.297
575.63	58.445
575.97	58.593
576.30	58.162
576.64	58.575
576.98	58.765
577.31	59.843
577.65	58.538
577.98	58.187
578.32	57.913
578.66	58.398
578.99	58.611
579.33	59.247
579.67	59.197
580.00	58.886
580.34	59.075
580.67	58.770
581.01	59.666
581.35	58.835
581.68	58.011
582.02	58.469
582.35	58.775
582.69	58.645
583.02	59.191
583.36	60.030
583.70	60.180
584.03	61.496
584.37	60.904
584.70	60.861
585.04	60.314
585.37	59.739
585.71	60.787
586.04	60.140
586.38	60.402
586.72	60.798
587.05	61.245
587.39	61.365
587.72	60.990
588.06	60.963
588.39	61.233
588.73	62.136
589.06	61.949
589.40	64.069
589.73	62.504
590.07	64.859
590.40	64.146
590.73	65.589
591.07	64.820
591.40	64.391
591.74	65.300
592.07	64.559
592.41	64.309
592.74	64.042
593.08	62.533
593.41	62.478
593.75	61.786
594.08	62.950
594.41	63.962
594.75	63.870
595.08	64.883
595.42	63.792
595.75	64.001
596.09	64.755
596.42	64.530
596.75	66.787
597.09	65.869
597.42	64.204
597.75	64.787
598.09	65.285
598.42	64.912
598.76	63.493
599.09	64.987
599.42	63.045
599.76	63.467
600.09	63.288
600.42	64.606
600.76	63.698
601.09	63.756
601.42	64.238
601.76	64.304
602.09	65.011
602.42	63.364
602.76	65.313
603.09	65.460
603.42	65.431
603.76	65.257
604.09	64.821
604.42	65.160
604.76	65.982
605.09	65.755
605.42	65.827
605.75	65.259
606.09	65.417
606.42	65.502
606.75	65.216
607.09	64.943
607.42	65.609
607.75	65.008
608.08	66.044
608.42	66.653
608.75	67.095
609.08	66.652
609.41	68.682
609.75	68.590
610.08	67.761
610.41	66.886
610.74	66.364
611.07	67.258
611.41	68.953
611.74	67.591
612.07	68.208
612.40	68.713
612.73	69.995
613.07	68.728
613.40	69.023
613.73	68.098
614.06	67.700
614.39	69.545
614.72	67.906
615.06	67.804
615.39	66.931
615.72	67.328
616.05	68.709
616.38	68.037
616.71	68.475
617.05	70.291
617.38	70.899
617.71	70.360
618.04	70.836
618.37	69.483
618.70	70.266
619.03	71.490
619.36	71.859
619.69	72.296
620.03	74.168
620.36	73.475
620.69	72.031
621.02	73.098
621.35	72.779
621.68	73.820
622.01	75.277
622.34	72.979
622.67	73.736
623.00	72.430
623.33	74.494
623.66	73.187
623.99	74.863
624.32	73.984
624.65	72.811
624.99	74.104
625.32	73.547
625.65	73.172
625.98	73.919
626.31	75.964
626.64	73.956
626.97	74.828
627.30	73.991
627.63	76.688
627.96	75.117
628.29	78.713
628.62	76.476
628.95	78.989
629.28	80.105
629.61	77.592
629.94	79.775
630.26	78.510
630.59	80.053
630.92	79.821
631.25	78.876
631.58	82.835
631.91	80.304
632.24	78.231
632.57	80.747
632.90	83.023
633.23	84.995
633.56	81.981
633.89	82.851
634.22	84.607
634.55	83.441
634.88	81.928
635.20	86.211
635.53	86.063
635.86	84.340
636.19	83.726
636.52	79.676
636.85	84.142
637.18	82.882
637.51	82.682
637.83	81.007
638.16	85.111
638.49	84.671
638.82	85.915
639.15	83.079
639.48	86.256
639.81	86.081
640.13	83.804
640.46	85.335
640.79	86.996
641.12	85.696
641.45	87.840
641.77	86.922
642.10	86.613
642.43	89.616
642.76	85.653
643.09	89.049
643.41	88.640
643.74	90.360
644.07	89.086
644.40	88.314
644.73	90.240
645.05	90.193
645.38	89.127
645.71	89.074
646.04	90.687
646.36	93.740
646.69	94.240
647.02	91.200
647.35	90.236
647.67	89.141
648.00	92.671
648.33	88.271
648.66	89.848
648.98	87.391
649.31	84.076
649.64	84.647
649.96	86.629
650.29	85.571
650.62	85.567
650.94	88.705
651.27	90.271
651.60	88.889
651.92	87.404
652.25	88.661
652.58	85.248
652.90	87.874
653.23	87.297
653.56	86.647
653.88	83.407
654.21	86.510
654.54	85.944
654.86	83.186
655.19	83.377
655.52	72.317
655.84	57.677
656.17	65.866
656.49	92.464
656.82	100.000
657.15	88.776
657.47	64.905
657.80	48.362
658.13	38.892
658.45	52.488
658.78	63.025
659.10	64.620
659.43	65.762
659.75	68.186
660.08	72.306
660.41	77.042
660.73	83.814
661.06	86.937
661.38	90.119
661.71	89.568
662.03	92.586
662.36	93.143
662.68	92.551
663.01	89.550
663.33	91.887
663.66	92.110
663.98	92.063
664.31	92.351
664.63	93.295
664.96	93.996
665.28	91.714
665.61	91.321
665.93	92.830
666.26	93.271
666.58	91.376
666.91	91.313
667.23	94.980
667.56	94.045
667.88	98.340
668.21	91.598
668.53	90.927
668.86	96.393
669.18	93.890
669.50	92.975
669.83	91.786
670.15	96.674
670.48	88.477
670.80	94.223
671.13	92.430
671.45	92.786
671.77	92.764
672.10	88.869
672.42	85.526
672.75	84.810
673.07	85.374
673.39	84.665
673.72	88.408
674.04	89.068
674.37	88.566
674.69	89.963
675.01	89.925
675.34	89.341
675.66	90.430
675.98	90.533
676.31	91.200
676.63	88.270
676.95	92.063
677.28	90.264
677.60	90.744
677.92	90.079
678.25	90.698
678.57	89.944
678.89	88.246
679.22	88.787
679.54	87.544
679.86	88.482
680.18	87.522
680.51	85.738
680.83	82.264
681.15	87.002
681.48	89.410
681.80	85.814
682.12	85.121
682.44	86.667
682.77	85.765
683.09	88.932
683.41	93.469
683.73	90.748
684.06	88.690
684.38	89.729
684.70	85.971
685.02	81.944
685.34	88.028
685.67	81.994
685.99	86.371
686.31	82.435
686.63	81.301
686.96	83.660
687.28	82.718
687.60	81.399
687.92	83.082
688.24	84.138
688.56	83.986
688.89	84.512
689.21	84.393
689.53	88.735
689.85	87.805
690.17	87.573
690.49	88.306
690.82	90.966
691.14	89.091
691.46	92.197
691.78	87.135
692.10	85.878
692.42	80.218
692.74	90.116
693.06	83.527
693.39	84.783
693.71	83.890
694.03	87.771
694.35	86.948
694.67	84.114
694.99	89.135
695.31	93.468
695.63	93.439
695.95	89.819
696.27	90.487
696.59	93.079
696.91	90.380
697.23	91.403
697.56	82.158
697.88	84.232
698.20	83.019
698.52	79.961
698.84	86.653
699.16	85.501
699.48	89.831
699.80	89.542
700.12	92.379
700.44	87.383
700.76	86.874
701.08	94.517
701.40	90.909
701.72	94.652
702.04	92.683
702.36	92.742
702.68	95.213
703.00	87.970
703.32	90.323
703.64	89.673
703.96	90.885
704.28	88.360
704.60	92.676
704.91	91.317
705.23	92.330
705.55	95.846
705.87	99.048
706.19	101.567
706.51	96.238
706.83	93.805
707.15	93.850
707.47	86.441
707.79	85.517
708.11	85.488
708.43	80.449
708.74	83.484
709.06	83.721
709.38	90.074
709.70	92.098
710.02	87.772
710.34	88.398
710.66	91.111
710.98	88.251
711.29	89.972
711.61	92.201
711.93	92.705
712.25	91.566
712.57	95.177
712.89	90.000
713.20	93.610
713.52	91.589
713.84	92.447
714.16	86.667
714.48	83.573
714.80	85.908
715.11	83.245
715.43	87.151
715.75	89.859
716.07	86.416
716.39	88.286
716.70	92.835
717.02	98.653
717.34	101.079
717.66	94.792
717.97	99.621
718.29	96.127
718.61	85.811
718.93	95.502
719.24	92.617
719.56	89.655
719.88	86.306
720.20	86.774
720.51	91.830
720.83	88.629
721.15	89.796
721.46	93.493
721.78	94.425
722.10	89.236
722.42	90.970
722.73	89.531
723.05	91.579
723.37	91.519
723.68	92.969
724.00	90.530
724.32	95.437
724.63	92.308
724.95	96.863
725.27	92.937
725.58	91.544
725.90	85.211
726.22	84.247
726.53	88.629
726.85	90.879
727.16	92.617
727.48	92.691
727.80	93.165
728.11	90.714
728.43	90.217
728.74	87.413
729.06	90.323
729.38	89.474
729.69	90.000
730.01	92.763
730.32	83.221
730.64	90.033
730.96	79.880
731.27	78.899
731.59	79.023
731.90	78.273
732.22	84.571
732.53	80.057
732.85	81.287
733.16	83.434
733.48	89.969
733.80	82.609
734.11	85.276
734.43	80.409
734.74	81.233
735.06	78.571
735.37	77.320
735.69	81.739
736.00	83.792
736.32	77.576
736.63	82.019
736.95	82.609
737.26	87.195
737.58	82.209
737.89	79.518
738.21	85.762
738.52	81.605
738.83	91.575
739.15	89.199
739.46	85.517
739.78	85.374
740.09	79.009
740.41	81.902
740.72	85.397
741.04	86.713
741.35	85.938
741.66	87.352
741.98	91.845
742.29	99.074
742.61	91.593
742.92	88.559
743.23	83.600
743.55	81.509
743.86	83.922
744.18	94.492
744.49	89.256
744.80	100.461
745.12	91.964
745.43	93.925
745.74	98.667
746.06	89.912
746.37	99.070
746.68	92.920
747.00	95.067
747.31	91.597
747.62	86.066
747.94	91.845
748.25	85.603
748.56	89.831
748.88	90.625
749.19	89.767
749.50	92.694
749.82	93.827
750.13	90.909
750.44	81.667
750.75	82.550
751.07	80.592
751.38	84.818
751.69	83.165
752.01	85.664
752.32	81.395
752.63	84.228
752.94	84.615
753.26	87.891
753.57	87.160
753.88	86.517
754.19	85.921
754.51	84.385
754.82	80.537
755.13	77.027
755.44	83.704
755.75	85.911
756.07	83.562
756.38	80.392
756.69	74.063
757.00	79.228
757.31	73.803
757.63	70.523
757.94	79.787
758.25	73.913
758.56	70.023
758.87	72.932
759.18	80.814
759.50	76.596
759.81	75.371
760.12	72.753
760.43	81.513
760.74	73.418
761.05	75.066
761.36	73.438
761.67	73.585
761.99	74.930
762.30	81.350
762.61	78.472
762.92	81.061
763.23	85.660
763.54	80.769
763.85	80.545
764.16	78.819
764.47	76.014
764.78	69.707
765.10	76.524
765.41	72.443
765.72	68.508
766.03	71.903
766.34	80.139
766.65	80.228
766.96	82.996
767.27	89.252
767.58	85.644
767.89	90.055
768.20	102.439
768.51	92.857
768.82	82.018
769.13	78.824
769.44	79.323
769.75	71.536
770.06	81.513
770.37	77.193
770.68	82.667
770.99	81.780
771.30	77.406
771.61	79.231
771.92	74.046
772.23	75.806
772.54	82.222
772.85	87.624
773.16	89.674
773.47	91.111
773.78	83.168
774.09	86.364
774.39	93.333
774.70	89.412
775.01	91.447
775.32	91.925
775.63	102.055
775.94	96.914
776.25	97.241
776.56	100.763
776.87	93.893
777.18	107.576
777.48	109.449
777.79	100.769
778.10	96.212
778.41	92.537
778.72	88.722
779.03	88.462
779.34	94.595
779.65	95.031
779.95	86.335
780.26	87.500
780.57	100.000
780.88	86.525
781.19	104.167
781.50	86.391
781.80	81.421
782.11	85.714
782.42	78.736
782.73	80.791
783.04	90.968
783.34	95.349
783.65	90.476
783.96	88.387
784.27	90.728
784.57	81.579
784.88	89.130
785.19	95.833
785.50	98.276
785.81	104.651
786.11	93.333
786.42	98.425
786.73	101.802
787.04	106.604
787.34	86.179
787.65	85.606
787.96	98.485
788.26	88.976
788.57	98.540
788.88	87.324
789.19	83.969
789.49	87.838
789.80	92.969
790.11	88.430
790.41	100.000
790.72	93.519
791.03	104.808
791.33	119.192
791.64	110.526
791.95	105.263
792.25	104.167
792.56	100.000
792.87	103.659
793.17	100.000
793.48	112.941
793.79	110.345
794.09	110.227
794.40	100.862
794.70	85.714
795.01	85.385
795.32	85.496
795.62	87.179
795.93	101.681
796.23	88.618
796.54	100.000
796.85	109.091
797.15	115.584
797.46	109.756
797.76	92.500
798.07	122.667
798.37	112.500
798.68	123.750
798.99	120.732
799.29	118.667
799.60	86.047
799.90	103.947
800.21	122.727
800.51	109.859
800.82	134.483
801.12	136.923
801.43	128.000
801.73	127.586
802.04	102.597
802.34	116.438
802.65	123.529
802.95	150.000
803.26	119.355
803.56	118.333
803.87	117.910
804.17	119.048
804.48	141.509
804.78	119.444
805.09	116.667
805.39	133.333
805.70	138.596
806.00	114.286
806.30	125.000
806.61	89.412
806.91	92.222
807.22	92.391
807.52	114.474
807.83	123.684
808.13	115.942
808.43	124.194
808.74	90.411
809.04	126.786
809.35	120.588
809.65	118.182
809.95	154.902
810.26	138.889
810.56	126.563
810.86	134.694
811.17	142.105
811.47	134.783
811.77	120.690
812.08	108.621
812.38	152.381
812.69	176.190
812.99	131.111
813.29	131.429
813.59	196.774
813.90	120.690
814.20	129.508
814.50	104.000
814.81	128.070
815.11	144.444
815.41	112.500
815.72	130.357
816.02	152.000
816.32	151.220
816.62	131.034
816.93	169.697
817.23	156.098
817.53	110.714
817.84	111.111
818.14	123.810
818.44	122.917
818.74	124.528
819.04	161.538
819.35	175.758
819.65	138.462
819.95	142.593
820.25	127.660
820.56	172.973
820.86	163.158
821.16	123.404
821.46	163.158
821.76	116.364
822.07	109.524
822.37	147.368
822.67	139.535
822.97	147.368
823.27	147.826
823.57	181.250
823.88	133.333
824.18	157.576
824.48	221.739
824.78	141.667
825.08	239.130
825.38	165.517
825.69	167.647
825.99	110.638
826.29	136.111
826.59	160.000
826.89	190.000
827.19	134.286
827.49	206.452
827.79	196.154
828.09	133.333
828.39	161.111
828.70	127.027
829.00	203.571
829.30	300.000
829.60	152.778
829.90	170.968
830.20	166.667
830.50	167.568
830.80	241.667
831.10	184.615
831.40	219.048
831.70	237.500
832.00	156.667
832.30	195.652
832.60	195.833
832.90	181.818
833.20	195.000
833.50	142.105
833.80	150.000
834.10	144.737
834.40	173.684
834.70	140.000
835.00	208.000
835.30	113.514
835.60	175.000
835.90	145.946
836.20	173.077
836.50	145.455
836.80	139.024
837.10	169.565
837.40	338.462
837.70	178.947
838.00	200.000
838.30	208.333
838.60	184.000
838.90	340.000
839.19	237.500
839.49	160.000
839.79	148.276
840.09	161.538
840.39	260.000
840.69	231.579
840.99	185.714
841.29	213.043
841.59	235.000
841.88	224.000
842.18	488.889
842.48	207.143
842.78	174.074
843.08	346.154
843.38	254.545
843.68	285.714
843.97	557.143
844.27	178.261
844.57	1550.000
844.87	321.429
845.17	255.556
845.47	133.333
845.76	216.667
846.06	528.571
846.36	200.000
846.66	392.308
846.96	325.000
847.25	284.615
847.55	194.737
847.85	211.111
848.15	740.000
848.44	390.909
848.74	233.333
849.04	204.167
849.34	247.059
849.63	225.000
849.93	325.000
850.23	1166.667
850.53	400.000
850.82	381.818
851.12	235.294
851.42	220.833
851.71	275.000
852.01	0.000
852.31	252.941
852.61	450.000
852.90	195.833
853.20	388.889
853.50	-1800.000
853.79	168.000
854.09	150.000
854.39	131.034
854.68	189.655
854.98	261.905
855.28	129.032
855.57	314.286
855.87	244.444
856.17	144.444
856.46	210.526
856.76	151.613
857.05	264.706
857.35	281.818
857.65	261.538
857.94	145.000
858.24	388.889
858.53	350.000
858.83	542.857
859.13	226.087
859.42	433.333
859.72	350.000
860.01	300.000
860.31	1150.000
860.60	430.000
860.90	537.500
861.20	361.538
861.49	500.000
861.79	-3300.000
862.08	614.286
862.38	511.111
862.67	264.286
862.97	400.000
863.26	156.667
863.56	950.000
863.85	300.000
864.15	288.235
864.44	183.333
864.74	391.667
865.03	427.273
865.33	475.000
865.62	173.333
865.92	683.333
866.21	975.000
866.51	680.000
866.80	266.667
867.10	1300.000
867.39	3200.000
867.69	740.000
867.98	925.000
868.27	195.238
868.57	300.000
868.86	1000.000
869.16	185.714
869.45	3800.000
869.75	-433.333
870.04	750.000
870.33	620.000
870.63	487.500
870.92	182.353
871.22	850.000
871.51	514.286
871.80	400.000
872.10	330.769
>>>>>End Processed Spectral Data<<<<<
