SpectraSuite Data File
++++++++++++++++++++++++++++++++++++
Date: Tue May 12 17:20:43 PDT 2015
User: schluterlab
Dark Spectrum Present: Yes
Reference Spectrum Present: Yes
Number of Sampled Component Spectra: 1
Spectrometers: USB2E3373
Integration Time (usec): 3000 (USB2E3373)
Spectra Averaged: 3 (USB2E3373)
Boxcar Smoothing: 0 (USB2E3373)
Correct for Electrical Dark: No (USB2E3373)
Strobe/Lamp Enabled: No (USB2E3373)
Correct for Detector Non-linearity: No (USB2E3373)
Correct for Stray Light: No (USB2E3373)
Number of Pixels in Processed Spectrum: 2048
>>>>>Begin Processed Spectral Data<<<<<
178.53	0.000
178.91	-225.000
179.29	-800.000
179.67	-3800.000
180.04	-120.000
180.42	700.000
180.80	1450.000
181.18	0.000
181.56	-300.000
181.94	0.000
182.31	1233.333
182.69	-3400.000
183.07	585.714
183.45	-3600.000
183.83	-1650.000
184.20	390.000
184.58	457.143
184.96	-223.077
185.34	-241.667
185.72	1950.000
186.09	-825.000
186.47	-2800.000
186.85	833.333
187.23	560.000
187.61	1850.000
187.98	537.500
188.36	257.143
188.74	341.667
189.12	275.000
189.49	1050.000
189.87	0.000
190.25	412.500
190.63	3400.000
191.00	-316.667
191.38	-3800.000
191.76	-750.000
192.14	550.000
192.51	-2200.000
192.89	1750.000
193.27	1266.667
193.65	-1100.000
194.02	-660.000
194.40	557.143
194.78	-235.714
195.15	266.667
195.53	-2800.000
195.91	-740.000
196.29	3700.000
196.66	250.000
197.04	725.000
197.42	-1750.000
197.79	800.000
198.17	316.667
198.55	0.000
198.92	514.286
199.30	1266.667
199.68	2000.000
200.05	666.667
200.43	-533.333
200.81	222.222
201.18	3600.000
201.56	300.000
201.94	-700.000
202.31	-287.500
202.69	-600.000
203.07	3800.000
203.44	-366.667
203.82	358.333
204.19	600.000
204.57	-1100.000
204.95	-950.000
205.32	-700.000
205.70	650.000
206.08	800.000
206.45	-866.667
206.83	433.333
207.20	163.158
207.58	341.667
207.96	780.000
208.33	0.000
208.71	600.000
209.08	840.000
209.46	-3000.000
209.84	-725.000
210.21	880.000
210.59	-660.000
210.96	283.333
211.34	-875.000
211.71	463.636
212.09	650.000
212.46	2050.000
212.84	-583.333
213.22	433.333
213.59	-4200.000
213.97	370.000
214.34	775.000
214.72	1033.333
215.09	700.000
215.47	-2200.000
215.84	-340.000
216.22	-375.000
216.59	0.000
216.97	0.000
217.34	1200.000
217.72	-1700.000
218.09	1133.333
218.47	387.500
218.84	1050.000
219.22	1266.667
219.59	1000.000
219.97	657.143
220.34	355.556
220.72	1950.000
221.09	3100.000
221.47	241.667
221.84	1033.333
222.22	360.000
222.59	205.556
222.97	228.571
223.34	293.750
223.72	-2100.000
224.09	1233.333
224.46	276.923
224.84	-875.000
225.21	388.889
225.59	293.333
225.96	1633.333
226.34	-700.000
226.71	-750.000
227.08	-500.000
227.46	0.000
227.83	-633.333
228.21	-1800.000
228.58	450.000
228.95	900.000
229.33	422.222
229.70	925.000
230.08	315.385
230.45	4000.000
230.82	-1000.000
231.20	-866.667
231.57	-800.000
231.95	480.000
232.32	308.333
232.69	550.000
233.07	300.000
233.44	-1800.000
233.81	320.000
234.19	144.444
234.56	225.000
234.93	217.647
235.31	285.000
235.68	262.500
236.05	203.571
236.43	170.370
236.80	292.857
237.17	172.414
237.55	143.750
237.92	140.000
238.29	169.697
238.67	137.500
239.04	136.585
239.41	97.917
239.79	127.500
240.16	125.000
240.53	100.000
240.91	94.203
241.28	111.864
241.65	101.515
242.02	122.535
242.40	110.000
242.77	96.703
243.14	111.392
243.51	98.990
243.89	87.850
244.26	81.308
244.63	82.178
245.00	87.156
245.38	75.424
245.75	88.636
246.12	90.370
246.49	72.340
246.87	77.869
247.24	73.333
247.61	76.250
247.98	82.313
248.36	76.970
248.73	69.388
249.10	77.976
249.47	74.500
249.84	76.119
250.22	76.757
250.59	71.000
250.96	73.418
251.33	80.000
251.70	68.750
252.08	73.950
252.45	64.940
252.82	70.722
253.19	69.960
253.56	68.077
253.94	63.768
254.31	73.256
254.68	68.990
255.05	71.379
255.42	70.073
255.79	66.450
256.16	70.847
256.54	68.182
256.91	66.340
257.28	69.231
257.65	64.263
258.02	66.962
258.39	65.043
258.76	64.928
259.14	63.429
259.51	67.638
259.88	67.477
260.25	62.912
260.62	64.932
260.99	61.983
261.36	66.017
261.73	64.096
262.10	66.492
262.47	64.000
262.85	60.800
263.22	62.982
263.59	64.962
263.96	60.902
264.33	60.000
264.70	65.848
265.07	66.585
265.44	61.239
265.81	65.094
266.18	62.929
266.55	65.957
266.92	62.864
267.29	64.035
267.66	63.229
268.03	62.556
268.40	62.156
268.77	61.013
269.14	61.388
269.51	61.024
269.88	62.653
270.25	59.179
270.62	63.305
270.99	62.069
271.36	59.553
271.73	60.168
272.10	60.000
272.47	59.524
272.84	57.086
273.21	56.612
273.58	60.324
273.95	58.111
274.32	59.339
274.69	61.024
275.06	58.288
275.43	57.088
275.80	58.302
276.17	58.824
276.54	59.439
276.91	59.515
277.28	58.029
277.65	57.749
278.02	57.904
278.39	56.655
278.76	57.586
279.13	57.829
279.50	54.364
279.87	55.121
280.23	56.722
280.60	56.387
280.97	59.828
281.34	57.921
281.71	55.478
282.08	55.556
282.45	55.068
282.82	58.027
283.19	54.531
283.56	55.537
283.92	58.958
284.29	55.907
284.66	55.126
285.03	55.390
285.40	55.868
285.77	53.704
286.14	54.334
286.51	54.755
286.87	51.266
287.24	51.952
287.61	53.343
287.98	54.328
288.35	51.259
288.72	52.959
289.08	52.853
289.45	50.457
289.82	53.125
290.19	51.977
290.56	51.820
290.93	50.791
291.29	49.862
291.66	51.554
292.03	50.912
292.40	49.593
292.77	48.050
293.13	49.501
293.50	47.233
293.87	47.154
294.24	49.371
294.60	48.856
294.97	48.671
295.34	47.676
295.71	47.963
296.08	48.000
296.44	46.887
296.81	46.898
297.18	45.501
297.55	47.783
297.91	45.936
298.28	46.256
298.65	46.503
299.02	43.908
299.38	47.722
299.75	45.854
300.12	46.674
300.48	47.541
300.85	46.603
301.22	43.953
301.59	45.283
301.95	44.691
302.32	45.169
302.69	45.814
303.05	45.118
303.42	45.404
303.79	44.637
304.15	44.334
304.52	43.763
304.89	44.350
305.25	45.829
305.62	44.136
305.99	44.891
306.35	44.421
306.72	45.369
307.09	44.513
307.45	45.195
307.82	44.959
308.19	45.155
308.55	43.800
308.92	44.946
309.29	46.548
309.65	45.689
310.02	44.320
310.38	45.264
310.75	44.166
311.12	43.870
311.48	45.849
311.85	46.088
312.22	47.278
312.58	44.801
312.95	46.408
313.31	46.067
313.68	44.747
314.05	46.886
314.41	45.903
314.78	48.011
315.14	47.488
315.51	46.925
315.87	47.901
316.24	46.779
316.61	46.374
316.97	47.982
317.34	49.775
317.70	47.322
318.07	50.267
318.43	49.385
318.80	47.898
319.16	48.951
319.53	49.027
319.89	49.821
320.26	51.117
320.62	50.183
320.99	52.050
321.35	50.557
321.72	50.854
322.08	51.247
322.45	51.317
322.81	51.418
323.18	50.266
323.54	52.178
323.91	52.765
324.27	53.316
324.64	52.768
325.00	53.793
325.37	54.722
325.73	52.951
326.10	54.184
326.46	54.666
326.83	53.760
327.19	55.422
327.56	53.754
327.92	54.508
328.29	55.155
328.65	55.908
329.01	55.004
329.38	55.245
329.74	54.398
330.11	55.778
330.47	55.328
330.84	54.012
331.20	55.245
331.56	55.699
331.93	56.886
332.29	55.697
332.66	55.442
333.02	54.381
333.38	55.846
333.75	55.713
334.11	55.369
334.48	56.923
334.84	55.997
335.20	55.346
335.57	55.751
335.93	55.004
336.29	54.561
336.66	56.604
337.02	53.550
337.38	56.148
337.75	55.743
338.11	55.696
338.47	55.377
338.84	54.276
339.20	54.719
339.56	55.509
339.93	56.355
340.29	55.042
340.65	55.909
341.02	55.994
341.38	53.859
341.74	54.651
342.11	55.426
342.47	54.717
342.83	55.209
343.20	54.487
343.56	53.137
343.92	56.152
344.28	56.380
344.65	56.642
345.01	55.159
345.37	55.128
345.73	54.365
346.10	54.821
346.46	56.300
346.82	54.398
347.19	55.873
347.55	55.425
347.91	55.060
348.27	54.996
348.63	54.351
349.00	54.455
349.36	55.564
349.72	55.199
350.08	56.910
350.45	57.045
350.81	56.346
351.17	53.621
351.53	55.735
351.89	54.779
352.26	54.497
352.62	54.977
352.98	56.058
353.34	56.394
353.70	55.046
354.07	56.846
354.43	55.914
354.79	54.442
355.15	56.355
355.51	56.193
355.87	55.798
356.24	57.044
356.60	56.240
356.96	55.269
357.32	56.518
357.68	53.744
358.04	55.167
358.40	55.997
358.77	56.123
359.13	56.156
359.49	55.152
359.85	57.036
360.21	56.092
360.57	56.131
360.93	55.916
361.29	56.061
361.66	56.674
362.02	54.403
362.38	56.782
362.74	56.829
363.10	56.452
363.46	55.801
363.82	56.241
364.18	56.615
364.54	57.010
364.90	55.823
365.26	57.252
365.62	54.834
365.98	55.196
366.35	55.586
366.71	57.876
367.07	56.177
367.43	56.817
367.79	57.048
368.15	54.749
368.51	57.064
368.87	55.842
369.23	56.687
369.59	55.428
369.95	57.483
370.31	55.921
370.67	56.489
371.03	57.143
371.39	56.510
371.75	57.013
372.11	56.764
372.47	56.644
372.83	57.444
373.19	57.574
373.55	56.289
373.91	56.837
374.27	56.614
374.63	56.407
374.99	58.288
375.35	57.997
375.71	56.860
376.07	57.891
376.42	57.289
376.78	58.510
377.14	57.798
377.50	57.553
377.86	57.079
378.22	57.465
378.58	57.324
378.94	58.540
379.30	57.611
379.66	57.014
380.02	58.592
380.38	58.314
380.74	58.708
381.09	59.346
381.45	58.035
381.81	57.861
382.17	58.608
382.53	58.008
382.89	58.486
383.25	58.082
383.61	56.830
383.97	58.788
384.32	58.951
384.68	59.180
385.04	59.203
385.40	58.363
385.76	57.987
386.12	58.380
386.48	58.541
386.83	58.863
387.19	59.246
387.55	58.363
387.91	58.661
388.27	59.429
388.62	58.333
388.98	58.717
389.34	57.287
389.70	57.252
390.06	58.720
390.42	57.372
390.77	59.152
391.13	58.902
391.49	56.806
391.85	58.585
392.20	57.807
392.56	56.989
392.92	58.001
393.28	57.960
393.64	56.766
393.99	57.143
394.35	57.387
394.71	56.333
395.07	58.090
395.42	57.728
395.78	58.976
396.14	58.735
396.50	57.942
396.85	57.500
397.21	57.822
397.57	57.262
397.92	55.921
398.28	57.033
398.64	57.243
399.00	55.799
399.35	56.683
399.71	56.236
400.07	56.050
400.42	57.015
400.78	57.126
401.14	56.606
401.49	55.127
401.85	55.214
402.21	56.063
402.57	55.655
402.92	56.061
403.28	55.012
403.63	55.444
403.99	54.101
404.35	56.272
404.70	56.940
405.06	53.958
405.42	54.279
405.77	54.465
406.13	54.230
406.49	55.088
406.84	53.525
407.20	54.452
407.55	54.092
407.91	54.882
408.27	54.942
408.62	53.519
408.98	54.406
409.34	53.477
409.69	54.263
410.05	53.787
410.40	52.886
410.76	53.635
411.11	53.258
411.47	52.901
411.83	51.904
412.18	52.234
412.54	54.354
412.89	52.389
413.25	52.794
413.60	53.096
413.96	53.142
414.31	52.656
414.67	52.762
415.03	51.149
415.38	53.375
415.74	52.495
416.09	52.967
416.45	52.877
416.80	53.432
417.16	51.750
417.51	53.185
417.87	52.941
418.22	51.762
418.58	52.803
418.93	52.350
419.29	51.756
419.64	52.635
420.00	53.401
420.35	51.742
420.71	51.925
421.06	52.148
421.42	51.583
421.77	52.971
422.12	53.252
422.48	52.183
422.83	53.125
423.19	51.404
423.54	52.002
423.90	53.624
424.25	52.394
424.61	53.337
424.96	52.117
425.31	52.983
425.67	53.872
426.02	52.832
426.38	53.034
426.73	53.441
427.09	53.084
427.44	53.180
427.79	53.859
428.15	53.801
428.50	53.543
428.85	53.086
429.21	52.674
429.56	52.443
429.92	53.605
430.27	53.991
430.62	52.325
430.98	52.495
431.33	52.268
431.68	51.259
432.04	51.992
432.39	53.897
432.74	52.342
433.10	53.101
433.45	53.705
433.80	54.220
434.16	53.705
434.51	54.180
434.86	53.729
435.22	53.809
435.57	53.053
435.92	54.240
436.28	54.032
436.63	53.593
436.98	54.448
437.34	53.938
437.69	52.688
438.04	52.527
438.39	53.240
438.75	53.563
439.10	52.941
439.45	52.572
439.81	53.557
440.16	52.889
440.51	53.547
440.86	55.442
441.22	53.842
441.57	53.596
441.92	53.504
442.27	52.732
442.63	53.404
442.98	53.394
443.33	53.348
443.68	53.622
444.03	52.733
444.39	53.060
444.74	53.571
445.09	53.923
445.44	53.082
445.79	53.314
446.15	53.211
446.50	54.272
446.85	52.241
447.20	52.886
447.55	54.486
447.91	53.649
448.26	52.875
448.61	54.561
448.96	54.194
449.31	53.190
449.66	54.319
450.02	52.566
450.37	53.637
450.72	54.766
451.07	53.519
451.42	52.579
451.77	53.723
452.12	53.942
452.47	52.734
452.83	53.465
453.18	53.093
453.53	53.760
453.88	53.200
454.23	53.574
454.58	52.564
454.93	54.200
455.28	53.121
455.63	53.132
455.98	52.284
456.34	53.131
456.69	54.512
457.04	53.162
457.39	52.171
457.74	52.646
458.09	51.993
458.44	52.191
458.79	52.997
459.14	51.718
459.49	52.208
459.84	52.717
460.19	52.542
460.54	51.852
460.89	52.292
461.24	52.062
461.59	52.438
461.94	52.246
462.29	52.288
462.64	52.575
462.99	51.823
463.34	51.653
463.69	53.660
464.04	52.447
464.39	51.918
464.74	50.586
465.09	51.712
465.44	50.435
465.79	50.626
466.14	49.868
466.49	51.112
466.84	50.613
467.19	50.791
467.54	51.471
467.89	50.528
468.24	50.434
468.59	50.893
468.94	50.725
469.29	51.008
469.64	50.547
469.99	52.121
470.34	51.233
470.68	49.793
471.03	50.901
471.38	49.868
471.73	50.686
472.08	51.598
472.43	50.403
472.78	50.576
473.13	49.124
473.48	50.122
473.83	49.706
474.17	49.119
474.52	49.408
474.87	49.687
475.22	48.487
475.57	48.793
475.92	48.748
476.27	47.824
476.61	48.472
476.96	48.694
477.31	49.974
477.66	49.812
478.01	48.582
478.36	49.279
478.70	48.834
479.05	49.634
479.40	48.710
479.75	49.255
480.10	48.645
480.45	48.413
480.79	48.618
481.14	48.502
481.49	47.987
481.84	47.625
482.19	47.948
482.53	46.992
482.88	47.805
483.23	47.361
483.58	48.025
483.92	48.172
484.27	46.533
484.62	48.345
484.97	45.812
485.31	46.669
485.66	46.152
486.01	47.266
486.36	46.668
486.70	46.277
487.05	46.822
487.40	47.246
487.75	46.706
488.09	46.278
488.44	46.845
488.79	46.998
489.13	46.734
489.48	47.303
489.83	46.914
490.17	45.211
490.52	46.253
490.87	45.345
491.22	47.252
491.56	45.718
491.91	45.789
492.26	45.390
492.60	46.424
492.95	45.854
493.30	44.768
493.64	45.867
493.99	46.109
494.34	44.957
494.68	45.950
495.03	46.385
495.37	45.610
495.72	45.408
496.07	45.373
496.41	45.178
496.76	45.420
497.11	45.030
497.45	44.805
497.80	44.717
498.14	44.891
498.49	44.893
498.84	45.935
499.18	44.287
499.53	45.016
499.87	45.553
500.22	45.693
500.56	44.336
500.91	45.686
501.26	45.384
501.60	45.173
501.95	43.190
502.29	44.133
502.64	43.273
502.98	43.708
503.33	44.722
503.67	43.797
504.02	44.469
504.36	44.072
504.71	44.844
505.06	43.829
505.40	43.847
505.75	44.621
506.09	44.937
506.44	44.408
506.78	44.660
507.13	43.771
507.47	44.347
507.82	44.818
508.16	44.390
508.51	44.493
508.85	43.590
509.19	44.249
509.54	43.115
509.88	44.903
510.23	42.696
510.57	43.147
510.92	43.506
511.26	43.976
511.61	43.033
511.95	43.554
512.30	42.450
512.64	43.094
512.98	42.952
513.33	43.596
513.67	42.724
514.02	43.584
514.36	42.627
514.70	43.893
515.05	42.568
515.39	43.750
515.74	45.271
516.08	43.410
516.42	44.645
516.77	42.720
517.11	42.507
517.46	43.427
517.80	41.999
518.14	43.099
518.49	42.668
518.83	41.868
519.17	42.707
519.52	43.692
519.86	41.962
520.20	42.082
520.55	41.945
520.89	42.816
521.23	42.290
521.58	42.169
521.92	42.507
522.26	41.351
522.61	43.078
522.95	42.523
523.29	41.988
523.64	41.214
523.98	43.310
524.32	42.099
524.66	41.971
525.01	41.598
525.35	41.780
525.69	42.444
526.04	42.296
526.38	41.966
526.72	40.990
527.06	40.745
527.41	42.261
527.75	42.301
528.09	40.157
528.43	40.879
528.78	41.205
529.12	41.902
529.46	40.503
529.80	40.888
530.15	40.601
530.49	40.794
530.83	40.463
531.17	40.775
531.51	41.692
531.86	39.915
532.20	39.617
532.54	40.364
532.88	41.162
533.22	42.169
533.57	41.489
533.91	40.793
534.25	39.931
534.59	41.696
534.93	40.216
535.27	39.385
535.62	40.023
535.96	40.426
536.30	40.341
536.64	40.248
536.98	39.270
537.32	40.562
537.66	39.796
538.01	39.628
538.35	41.360
538.69	39.563
539.03	39.055
539.37	39.502
539.71	39.506
540.05	39.446
540.39	40.881
540.73	39.430
541.07	39.210
541.42	39.490
541.76	40.444
542.10	39.581
542.44	39.152
542.78	39.711
543.12	38.466
543.46	40.038
543.80	39.286
544.14	39.319
544.48	38.686
544.82	38.593
545.16	38.919
545.50	39.889
545.84	39.205
546.18	40.832
546.52	39.541
546.86	39.136
547.20	38.437
547.54	38.949
547.88	39.234
548.22	39.284
548.56	39.010
548.90	38.197
549.24	39.735
549.58	38.595
549.92	38.507
550.26	39.283
550.60	37.392
550.94	38.738
551.28	39.103
551.62	38.966
551.96	38.784
552.30	37.245
552.64	39.029
552.98	37.629
553.32	37.132
553.66	36.612
554.00	37.902
554.34	39.947
554.68	38.844
555.02	38.221
555.36	37.101
555.69	37.435
556.03	37.006
556.37	38.560
556.71	38.201
557.05	37.353
557.39	36.600
557.73	38.208
558.07	37.290
558.41	38.177
558.75	37.620
559.08	37.813
559.42	39.298
559.76	38.988
560.10	36.958
560.44	36.828
560.78	37.916
561.12	38.589
561.45	37.484
561.79	37.640
562.13	36.576
562.47	36.924
562.81	37.931
563.15	37.039
563.48	36.025
563.82	38.054
564.16	37.624
564.50	36.287
564.84	37.994
565.17	37.136
565.51	37.685
565.85	38.371
566.19	36.310
566.52	38.026
566.86	37.945
567.20	37.640
567.54	36.900
567.88	37.976
568.21	36.745
568.55	37.208
568.89	37.089
569.23	37.403
569.56	37.260
569.90	36.579
570.24	36.865
570.57	37.476
570.91	36.661
571.25	37.367
571.59	36.661
571.92	36.921
572.26	36.442
572.60	36.295
572.93	37.292
573.27	37.076
573.61	36.546
573.95	36.778
574.28	36.961
574.62	35.980
574.96	35.986
575.29	36.337
575.63	35.689
575.97	36.052
576.30	35.712
576.64	36.852
576.98	36.754
577.31	36.887
577.65	36.297
577.98	36.194
578.32	36.775
578.66	36.509
578.99	36.858
579.33	36.536
579.67	36.072
580.00	36.597
580.34	36.321
580.67	36.286
581.01	36.120
581.35	36.335
581.68	35.696
582.02	36.062
582.35	36.072
582.69	36.584
583.02	36.381
583.36	36.912
583.70	36.961
584.03	37.360
584.37	37.254
584.70	36.079
585.04	35.784
585.37	36.204
585.71	36.157
586.04	35.790
586.38	36.294
586.72	36.242
587.05	36.747
587.39	36.182
587.72	36.863
588.06	36.106
588.39	36.131
588.73	35.494
589.06	36.475
589.40	36.338
589.73	35.890
590.07	36.857
590.40	37.143
590.73	37.202
591.07	36.698
591.40	35.888
591.74	36.485
592.07	35.774
592.41	35.971
592.74	36.177
593.08	35.612
593.41	35.817
593.75	35.783
594.08	35.910
594.41	36.103
594.75	35.548
595.08	36.214
595.42	36.076
595.75	36.229
596.09	35.975
596.42	36.125
596.75	36.458
597.09	36.360
597.42	35.224
597.75	36.389
598.09	35.125
598.42	34.761
598.76	34.965
599.09	35.822
599.42	35.398
599.76	34.939
600.09	35.593
600.42	36.084
600.76	36.132
601.09	35.692
601.42	35.656
601.76	35.840
602.09	35.578
602.42	35.749
602.76	36.281
603.09	35.897
603.42	35.596
603.76	35.539
604.09	34.709
604.42	35.330
604.76	35.836
605.09	34.939
605.42	35.717
605.75	35.492
606.09	35.501
606.42	35.287
606.75	35.678
607.09	34.583
607.42	35.396
607.75	35.390
608.08	35.662
608.42	35.612
608.75	35.558
609.08	36.032
609.41	35.545
609.75	35.668
610.08	35.522
610.41	35.090
610.74	34.978
611.07	35.289
611.41	35.357
611.74	34.895
612.07	35.597
612.40	34.405
612.73	35.946
613.07	35.682
613.40	35.338
613.73	35.347
614.06	34.550
614.39	35.859
614.72	34.857
615.06	34.224
615.39	35.198
615.72	34.463
616.05	35.610
616.38	34.703
616.71	34.563
617.05	33.882
617.38	34.326
617.71	34.702
618.04	34.436
618.37	34.019
618.70	34.815
619.03	33.944
619.36	34.296
619.69	34.235
620.03	35.616
620.36	34.939
620.69	36.143
621.02	34.647
621.35	34.241
621.68	35.324
622.01	35.720
622.34	33.795
622.67	34.691
623.00	34.173
623.33	35.088
623.66	33.666
623.99	33.973
624.32	34.621
624.65	33.048
624.99	34.145
625.32	34.135
625.65	33.724
625.98	33.682
626.31	35.237
626.64	34.776
626.97	34.200
627.30	34.084
627.63	35.086
627.96	33.099
628.29	35.066
628.62	33.276
628.95	34.309
629.28	35.145
629.61	34.446
629.94	34.140
630.26	34.229
630.59	34.663
630.92	34.978
631.25	34.542
631.58	34.137
631.91	33.873
632.24	34.014
632.57	32.809
632.90	35.300
633.23	34.313
633.56	33.298
633.89	34.405
634.22	33.584
634.55	34.301
634.88	33.954
635.20	34.417
635.53	34.611
635.86	34.228
636.19	34.343
636.52	33.297
636.85	32.794
637.18	34.236
637.51	32.514
637.83	32.609
638.16	35.873
638.49	34.251
638.82	34.390
639.15	31.962
639.48	34.005
639.81	34.432
640.13	32.393
640.46	32.617
640.79	33.290
641.12	31.890
641.45	34.541
641.77	33.157
642.10	34.404
642.43	34.566
642.76	34.943
643.09	33.573
643.41	32.539
643.74	34.245
644.07	35.103
644.40	32.988
644.73	35.586
645.05	34.175
645.38	34.609
645.71	35.053
646.04	36.336
646.36	34.429
646.69	33.280
647.02	34.400
647.35	29.764
647.67	34.198
648.00	33.062
648.33	33.684
648.66	34.697
648.98	32.899
649.31	31.849
649.64	31.535
649.96	33.855
650.29	32.429
650.62	32.842
650.94	35.994
651.27	35.566
651.60	33.020
651.92	35.023
652.25	34.173
652.58	34.468
652.90	33.533
653.23	33.973
653.56	33.828
653.88	33.480
654.21	34.457
654.54	33.236
654.86	33.776
655.19	34.960
655.52	32.624
655.84	31.742
656.17	38.301
656.49	54.150
656.82	60.596
657.15	46.704
657.47	35.502
657.80	26.787
658.13	21.605
658.45	29.424
658.78	35.234
659.10	35.234
659.43	34.837
659.75	34.400
660.08	34.023
660.41	33.666
660.73	33.877
661.06	33.634
661.38	35.945
661.71	31.115
662.03	33.270
662.36	33.333
662.68	33.520
663.01	32.432
663.33	32.642
663.66	35.306
663.98	32.540
664.31	33.955
664.63	33.142
664.96	36.961
665.28	34.275
665.61	31.698
665.93	33.019
666.26	34.206
666.58	36.514
666.91	33.591
667.23	35.542
667.56	33.881
667.88	34.647
668.21	34.426
668.53	33.266
668.86	35.070
669.18	33.809
669.50	33.884
669.83	36.961
670.15	35.135
670.48	31.445
670.80	34.263
671.13	32.869
671.45	34.469
671.77	34.137
672.10	37.702
672.42	31.743
672.75	35.601
673.07	34.658
673.39	32.268
673.72	34.948
674.04	33.871
674.37	33.757
674.69	32.528
675.01	33.582
675.34	32.171
675.66	34.180
675.98	33.531
676.31	32.400
676.63	33.201
676.95	35.317
677.28	31.846
677.60	35.412
677.92	30.952
678.25	33.721
678.57	35.754
678.89	34.720
679.22	33.272
679.54	34.520
679.86	33.857
680.18	35.325
680.51	31.841
680.83	31.757
681.15	34.489
681.48	34.201
681.80	31.524
682.12	34.256
682.44	33.694
682.77	35.053
683.09	34.563
683.41	34.286
683.73	35.433
684.06	32.937
684.38	35.465
684.70	34.353
685.02	32.639
685.34	35.915
685.67	33.762
685.99	34.975
686.31	32.357
686.63	31.382
686.96	33.170
687.28	31.376
687.60	32.082
687.92	33.836
688.24	35.690
688.56	32.740
688.89	32.122
689.21	31.214
689.53	36.957
689.85	34.756
690.17	35.728
690.49	37.097
690.82	35.504
691.14	35.960
691.46	36.961
691.78	32.749
692.10	33.397
692.42	33.031
692.74	36.047
693.06	36.434
693.39	33.004
693.71	32.220
694.03	34.517
694.35	34.337
694.67	30.957
694.99	35.477
695.31	33.784
695.63	35.294
695.95	33.258
696.27	36.062
696.59	36.993
696.91	31.646
697.23	34.615
697.56	33.402
697.88	31.337
698.20	34.717
698.52	32.490
698.84	34.292
699.16	34.115
699.48	34.534
699.80	36.383
700.12	32.794
700.44	37.617
700.76	35.322
701.08	36.292
701.40	30.909
701.72	37.701
702.04	37.940
702.36	34.140
702.68	36.436
703.00	33.584
703.32	35.484
703.64	33.249
703.96	33.854
704.28	34.656
704.60	34.930
704.91	36.975
705.23	37.500
705.55	34.421
705.87	35.556
706.19	40.439
706.51	38.558
706.83	38.643
707.15	35.027
707.47	35.835
707.79	36.552
708.11	36.054
708.43	36.854
708.74	34.842
709.06	33.953
709.38	33.499
709.70	33.787
710.02	37.228
710.34	36.464
710.66	34.722
710.98	36.885
711.29	36.490
711.61	35.097
711.93	39.818
712.25	34.639
712.57	36.013
712.89	37.576
713.20	39.936
713.52	31.776
713.84	40.483
714.16	32.754
714.48	32.565
714.80	36.314
715.11	36.968
715.43	35.475
715.75	34.366
716.07	34.971
716.39	36.571
716.70	36.449
717.02	36.027
717.34	41.727
717.66	39.583
717.97	39.394
718.29	36.620
718.61	35.473
718.93	36.332
719.24	36.577
719.56	36.897
719.88	31.210
720.20	39.032
720.51	36.928
720.83	35.786
721.15	35.714
721.46	41.781
721.78	37.979
722.10	34.722
722.42	40.803
722.73	34.657
723.05	36.842
723.37	38.869
723.68	40.234
724.00	37.500
724.32	37.262
724.63	36.923
724.95	43.137
725.27	42.379
725.58	36.397
725.90	38.380
726.22	36.644
726.53	37.793
726.85	40.065
727.16	39.262
727.48	35.548
727.80	36.691
728.11	38.571
728.43	35.870
728.74	35.315
729.06	36.918
729.38	38.596
729.69	41.333
730.01	39.803
730.32	37.919
730.64	37.542
730.96	37.237
731.27	32.722
731.59	35.057
731.90	35.097
732.22	35.143
732.53	35.613
732.85	39.766
733.16	38.855
733.48	39.812
733.80	36.812
734.11	38.344
734.43	34.795
734.74	39.678
735.06	40.212
735.37	35.567
735.69	37.101
736.00	35.474
736.32	36.364
736.63	36.278
736.95	36.957
737.26	41.463
737.58	39.264
737.89	38.554
738.21	37.086
738.52	35.117
738.83	44.322
739.15	35.192
739.46	36.897
739.78	37.755
740.09	35.569
740.41	38.650
740.72	38.730
741.04	39.161
741.35	39.844
741.66	40.711
741.98	36.910
742.29	42.130
742.61	43.363
742.92	38.559
743.23	40.000
743.55	39.623
743.86	40.392
744.18	37.288
744.49	31.405
744.80	41.475
745.12	42.411
745.43	43.925
745.74	43.111
746.06	39.474
746.37	45.116
746.68	41.150
747.00	41.704
747.31	36.134
747.62	34.426
747.94	39.485
748.25	39.300
748.56	41.525
748.88	38.393
749.19	42.326
749.50	38.813
749.82	37.860
750.13	40.316
750.44	34.667
750.75	42.617
751.07	40.789
751.38	36.964
751.69	39.057
752.01	34.965
752.32	40.199
752.63	43.624
752.94	40.909
753.26	43.359
753.57	38.132
753.88	36.704
754.19	40.072
754.51	44.186
754.82	36.242
755.13	36.149
755.44	39.630
755.75	42.955
756.07	41.096
756.38	36.928
756.69	35.625
757.00	38.576
757.31	36.901
757.63	39.118
757.94	36.436
758.25	37.681
758.56	34.096
758.87	37.343
759.18	38.663
759.50	34.954
759.81	35.905
760.12	39.888
760.43	37.535
760.74	36.709
761.05	36.605
761.36	35.937
761.67	35.310
761.99	38.592
762.30	36.013
762.61	37.153
762.92	41.667
763.23	37.736
763.54	42.692
763.85	36.576
764.16	39.931
764.47	41.554
764.78	37.459
765.10	37.500
765.41	36.932
765.72	36.188
766.03	35.045
766.34	35.540
766.65	40.684
766.96	43.320
767.27	46.262
767.58	44.554
767.89	48.066
768.20	49.390
768.51	38.776
768.82	46.930
769.13	37.647
769.44	42.105
769.75	39.326
770.06	41.597
770.37	40.351
770.68	39.556
770.99	41.949
771.30	45.188
771.61	45.000
771.92	37.786
772.23	36.290
772.54	41.778
772.85	50.990
773.16	48.370
773.47	47.778
773.78	40.594
774.09	48.864
774.39	49.697
774.70	37.647
775.01	41.447
775.32	50.311
775.63	50.685
775.94	47.531
776.25	50.345
776.56	45.802
776.87	46.565
777.18	52.273
777.48	57.480
777.79	48.462
778.10	56.818
778.41	65.672
778.72	49.624
779.03	44.872
779.34	47.973
779.65	44.099
779.95	47.826
780.26	46.429
780.57	55.782
780.88	44.681
781.19	50.833
781.50	51.479
781.80	49.727
782.11	42.328
782.42	41.379
782.73	45.198
783.04	45.806
783.34	46.512
783.65	43.537
783.96	45.806
784.27	43.709
784.57	41.447
784.88	47.101
785.19	52.500
785.50	55.172
785.81	65.116
786.11	48.148
786.42	55.118
786.73	53.153
787.04	61.321
787.34	45.528
787.65	56.818
787.96	59.848
788.26	62.205
788.57	57.664
788.88	50.704
789.19	54.198
789.49	51.351
789.80	56.250
790.11	52.893
790.41	61.111
790.72	55.556
791.03	63.462
791.33	58.586
791.64	53.684
791.95	64.211
792.25	59.375
792.56	50.000
792.87	56.098
793.17	72.727
793.48	68.235
793.79	63.218
794.09	60.227
794.40	63.793
794.70	53.175
795.01	49.231
795.32	54.198
795.62	47.863
795.93	54.622
796.23	60.163
796.54	60.204
796.85	59.091
797.15	77.922
797.46	69.512
797.76	62.500
798.07	80.000
798.37	61.250
798.68	76.250
798.99	54.878
799.29	70.667
799.60	56.977
799.90	67.105
800.21	72.727
800.51	61.972
800.82	82.759
801.12	75.385
801.43	80.000
801.73	94.828
802.04	66.234
802.34	68.493
802.65	96.078
802.95	65.217
803.26	79.032
803.56	100.000
803.87	71.642
804.17	82.540
804.48	94.340
804.78	69.444
805.09	74.242
805.39	84.127
805.70	85.965
806.00	61.429
806.30	59.375
806.61	64.706
806.91	68.889
807.22	64.130
807.52	67.105
807.83	85.526
808.13	89.855
808.43	91.935
808.74	72.603
809.04	85.714
809.35	77.941
809.65	80.303
809.95	107.843
810.26	111.111
810.56	81.250
810.86	106.122
811.17	82.456
811.47	106.522
811.77	75.862
812.08	81.034
812.38	92.857
812.69	107.143
812.99	84.444
813.29	102.857
813.59	93.548
813.90	77.586
814.20	93.443
814.50	74.000
814.81	43.860
815.11	105.556
815.41	91.071
815.72	96.429
816.02	102.000
816.32	104.878
816.62	100.000
816.93	139.394
817.23	117.073
817.53	92.857
817.84	91.111
818.14	92.857
818.44	120.833
818.74	86.792
819.04	87.179
819.35	136.364
819.65	119.231
819.95	114.815
820.25	125.532
820.56	129.730
820.86	105.263
821.16	85.106
821.46	97.368
821.76	85.455
822.07	88.095
822.37	144.737
822.67	113.953
822.97	89.474
823.27	97.826
823.57	137.500
823.88	100.000
824.18	109.091
824.48	130.435
824.78	111.111
825.08	173.913
825.38	124.138
825.69	111.765
825.99	85.106
826.29	100.000
826.59	131.429
826.89	160.000
827.19	120.000
827.49	119.355
827.79	115.385
828.09	76.190
828.39	122.222
828.70	91.892
829.00	142.857
829.30	200.000
829.60	113.889
829.90	138.710
830.20	103.030
830.50	105.405
830.80	158.333
831.10	169.231
831.40	166.667
831.70	200.000
832.00	146.667
832.30	156.522
832.60	158.333
832.90	133.333
833.20	170.000
833.50	128.947
833.80	100.000
834.10	89.474
834.40	163.158
834.70	146.667
835.00	200.000
835.30	102.703
835.60	153.125
835.90	124.324
836.20	157.692
836.50	150.000
836.80	95.122
837.10	139.130
837.40	261.538
837.70	136.842
838.00	136.667
838.30	195.833
838.60	132.000
838.90	320.000
839.19	162.500
839.49	140.000
839.79	120.690
840.09	130.769
840.39	220.000
840.69	173.684
840.99	138.095
841.29	200.000
841.59	200.000
841.88	144.000
842.18	244.444
842.48	182.143
842.78	133.333
843.08	238.462
843.38	145.455
843.68	207.143
843.97	500.000
844.27	130.435
844.57	1600.000
844.87	285.714
845.17	188.889
845.47	171.429
845.76	183.333
846.06	371.429
846.36	194.118
846.66	253.846
846.96	268.750
847.25	192.308
847.55	194.737
847.85	166.667
848.15	560.000
848.44	263.636
848.74	166.667
849.04	195.833
849.34	176.471
849.63	206.250
849.93	293.750
850.23	533.333
850.53	375.000
850.82	300.000
851.12	223.529
851.42	141.667
851.71	218.750
852.01	0.000
852.31	235.294
852.61	400.000
852.90	170.833
853.20	355.556
853.50	-2200.000
853.79	164.000
854.09	150.000
854.39	172.414
854.68	193.103
854.98	200.000
855.28	135.484
855.57	321.429
855.87	211.111
856.17	166.667
856.46	231.579
856.76	122.581
857.05	223.529
857.35	245.455
857.65	192.308
857.94	155.000
858.24	300.000
858.53	264.286
858.83	485.714
859.13	156.522
859.42	344.444
859.72	400.000
860.01	241.667
860.31	1125.000
860.60	340.000
860.90	437.500
861.20	292.308
861.49	285.714
861.79	-4000.000
862.08	442.857
862.38	488.889
862.67	200.000
862.97	450.000
863.26	123.333
863.56	900.000
863.85	292.308
864.15	235.294
864.44	183.333
864.74	191.667
865.03	300.000
865.33	400.000
865.62	233.333
865.92	450.000
866.21	750.000
866.51	560.000
866.80	233.333
867.10	1000.000
867.39	4300.000
867.69	820.000
867.98	1075.000
868.27	200.000
868.57	273.333
868.86	975.000
869.16	157.143
869.45	3600.000
869.75	-433.333
870.04	550.000
870.33	740.000
870.63	375.000
870.92	235.294
871.22	1000.000
871.51	442.857
871.80	350.000
872.10	276.923
>>>>>End Processed Spectral Data<<<<<
