SpectraSuite Data File
++++++++++++++++++++++++++++++++++++
Date: Tue May 12 15:35:05 PDT 2015
User: schluterlab
Dark Spectrum Present: Yes
Reference Spectrum Present: Yes
Number of Sampled Component Spectra: 1
Spectrometers: USB2E3373
Integration Time (usec): 3000 (USB2E3373)
Spectra Averaged: 3 (USB2E3373)
Boxcar Smoothing: 0 (USB2E3373)
Correct for Electrical Dark: No (USB2E3373)
Strobe/Lamp Enabled: No (USB2E3373)
Correct for Detector Non-linearity: No (USB2E3373)
Correct for Stray Light: No (USB2E3373)
Number of Pixels in Processed Spectrum: 2048
>>>>>Begin Processed Spectral Data<<<<<
178.53	0.000
178.91	-266.667
179.29	-750.000
179.67	-2900.000
180.04	-126.667
180.42	775.000
180.80	1600.000
181.18	0.000
181.56	-300.000
181.94	0.000
182.31	1166.667
182.69	-2100.000
183.07	514.286
183.45	-4300.000
183.83	-1650.000
184.20	340.000
184.58	442.857
184.96	-253.846
185.34	-250.000
185.72	2400.000
186.09	-850.000
186.47	-3700.000
186.85	1400.000
187.23	620.000
187.61	1950.000
187.98	300.000
188.36	292.857
188.74	358.333
189.12	400.000
189.49	750.000
189.87	0.000
190.25	637.500
190.63	2800.000
191.00	-191.667
191.38	-3800.000
191.76	-950.000
192.14	437.500
192.51	-2900.000
192.89	1800.000
193.27	1066.667
193.65	-1033.333
194.02	-660.000
194.40	428.571
194.78	-235.714
195.15	226.667
195.53	-3000.000
195.91	-640.000
196.29	5100.000
196.66	281.250
197.04	750.000
197.42	-1550.000
197.79	600.000
198.17	350.000
198.55	0.000
198.92	414.286
199.30	933.333
199.68	2400.000
200.05	733.333
200.43	-333.333
200.81	216.667
201.18	3300.000
201.56	341.667
201.94	-975.000
202.31	-325.000
202.69	-440.000
203.07	3200.000
203.44	-416.667
203.82	341.667
204.19	620.000
204.57	-1600.000
204.95	-725.000
205.32	-620.000
205.70	700.000
206.08	750.000
206.45	-833.333
206.83	400.000
207.20	194.737
207.58	291.667
207.96	760.000
208.33	0.000
208.71	457.143
209.08	840.000
209.46	-4200.000
209.84	-650.000
210.21	780.000
210.59	-720.000
210.96	333.333
211.34	-1000.000
211.71	354.545
212.09	850.000
212.46	1950.000
212.84	-533.333
213.22	388.889
213.59	-2800.000
213.97	360.000
214.34	1000.000
214.72	1366.667
215.09	1033.333
215.47	-3600.000
215.84	-400.000
216.22	-375.000
216.59	0.000
216.97	0.000
217.34	1550.000
217.72	-1650.000
218.09	1300.000
218.47	562.500
218.84	875.000
219.22	1166.667
219.59	1000.000
219.97	485.714
220.34	377.778
220.72	1700.000
221.09	2500.000
221.47	266.667
221.84	1233.333
222.22	470.000
222.59	227.778
222.97	242.857
223.34	200.000
223.72	-2000.000
224.09	1400.000
224.46	323.077
224.84	-725.000
225.21	377.778
225.59	326.667
225.96	1166.667
226.34	-600.000
226.71	-575.000
227.08	-640.000
227.46	0.000
227.83	-566.667
228.21	-1750.000
228.58	316.667
228.95	900.000
229.33	433.333
229.70	1225.000
230.08	323.077
230.45	3500.000
230.82	-1150.000
231.20	-700.000
231.57	-1000.000
231.95	680.000
232.32	266.667
232.69	650.000
233.07	233.333
233.44	-1300.000
233.81	200.000
234.19	140.741
234.56	250.000
234.93	188.235
235.31	205.000
235.68	231.250
236.05	153.571
236.43	137.037
236.80	135.714
237.17	158.621
237.55	112.500
237.92	135.000
238.29	136.364
238.67	131.250
239.04	100.000
239.41	54.167
239.79	70.000
240.16	68.750
240.53	57.377
240.91	73.913
241.28	55.932
241.65	50.000
242.02	69.014
242.40	57.143
242.77	45.055
243.14	39.241
243.51	46.465
243.89	51.402
244.26	42.056
244.63	49.505
245.00	34.862
245.38	33.898
245.75	37.121
246.12	40.741
246.49	34.752
246.87	34.426
247.24	38.000
247.61	40.625
247.98	25.170
248.36	26.667
248.73	35.204
249.10	30.952
249.47	27.500
249.84	27.363
250.22	25.946
250.59	26.500
250.96	26.582
251.33	25.581
251.70	27.232
252.08	24.370
252.45	22.709
252.82	21.293
253.19	19.763
253.56	20.000
253.94	22.826
254.31	23.643
254.68	22.300
255.05	25.172
255.42	21.898
255.79	21.824
256.16	22.034
256.54	20.130
256.91	18.627
257.28	21.070
257.65	19.122
258.02	18.584
258.39	20.630
258.76	21.449
259.14	14.571
259.51	19.534
259.88	20.061
260.25	17.582
260.62	20.822
260.99	14.601
261.36	21.170
261.73	18.351
262.10	16.230
262.47	15.250
262.85	16.533
263.22	17.995
263.59	17.647
263.96	20.301
264.33	18.272
264.70	19.410
265.07	17.561
265.44	19.954
265.81	16.745
266.18	16.476
266.55	19.622
266.92	16.331
267.29	16.886
267.66	18.386
268.03	14.574
268.40	15.856
268.77	18.722
269.14	16.920
269.51	15.367
269.88	16.327
270.25	15.551
270.62	16.953
270.99	18.053
271.36	16.463
271.73	15.514
272.10	15.758
272.47	15.079
272.84	14.770
273.21	16.116
273.58	16.802
273.95	14.784
274.32	16.926
274.69	15.354
275.06	17.304
275.43	16.092
275.80	16.038
276.17	15.441
276.54	17.009
276.91	16.231
277.28	17.336
277.65	16.790
278.02	15.993
278.39	14.568
278.76	17.069
279.13	16.370
279.50	14.000
279.87	13.408
280.23	15.838
280.60	16.606
280.97	17.586
281.34	16.502
281.71	13.391
282.08	15.043
282.45	13.851
282.82	14.883
283.19	15.262
283.56	16.033
283.92	14.821
284.29	15.141
284.66	13.950
285.03	15.257
285.40	14.876
285.77	13.580
286.14	15.325
286.51	16.564
286.87	14.873
287.24	13.363
287.61	14.438
287.98	14.179
288.35	13.630
288.72	12.898
289.08	13.213
289.45	14.634
289.82	14.219
290.19	13.616
290.56	15.138
290.93	15.827
291.29	12.845
291.66	11.582
292.03	12.202
292.40	14.228
292.77	12.953
293.13	13.980
293.50	14.980
293.87	13.144
294.24	14.406
294.60	15.074
294.97	14.126
295.34	13.413
295.71	14.717
296.08	13.467
296.44	13.342
296.81	14.144
297.18	13.942
297.55	13.177
297.91	11.453
298.28	11.715
298.65	13.006
299.02	12.304
299.38	13.070
299.75	13.171
300.12	13.532
300.48	15.691
300.85	14.660
301.22	13.023
301.59	12.618
301.95	13.186
302.32	15.017
302.69	13.914
303.05	15.152
303.42	12.668
303.79	14.193
304.15	13.311
304.52	14.799
304.89	14.819
305.25	13.459
305.62	14.179
305.99	13.478
306.35	13.158
306.72	14.672
307.09	13.872
307.45	13.939
307.82	13.477
308.19	14.433
308.55	14.600
308.92	14.622
309.29	15.483
309.65	15.560
310.02	15.010
310.38	14.955
310.75	13.693
311.12	14.751
311.48	15.637
311.85	16.031
312.22	16.523
312.58	14.577
312.95	16.311
313.31	16.386
313.68	14.634
314.05	17.125
314.41	16.108
314.78	16.572
315.14	16.682
315.51	17.029
315.87	16.697
316.24	17.647
316.61	15.756
316.97	16.789
317.34	17.700
317.70	17.296
318.07	18.060
318.43	18.805
318.80	16.988
319.16	18.007
319.53	17.522
319.89	17.832
320.26	20.205
320.62	19.414
320.99	18.970
321.35	18.646
321.72	20.209
322.08	19.391
322.45	18.983
322.81	19.488
323.18	22.114
323.54	21.777
323.91	21.940
324.27	21.839
324.64	21.453
325.00	20.776
325.37	22.091
325.73	22.007
326.10	23.281
326.46	24.360
326.83	22.880
327.19	24.900
327.56	24.840
327.92	25.902
328.29	26.514
328.65	27.140
329.01	25.834
329.38	25.973
329.74	27.327
330.11	27.628
330.47	27.366
330.84	26.143
331.20	26.227
331.56	27.979
331.93	28.828
332.29	26.276
332.66	27.976
333.02	27.577
333.38	28.010
333.75	28.607
334.11	27.349
334.48	29.402
334.84	27.872
335.20	28.315
335.57	26.952
335.93	29.100
336.29	28.690
336.66	30.103
337.02	27.545
337.38	29.321
337.75	29.561
338.11	29.451
338.47	27.519
338.84	27.942
339.20	27.359
339.56	29.016
339.93	28.094
340.29	26.639
340.65	29.170
341.02	28.560
341.38	28.818
341.74	29.153
342.11	28.381
342.47	27.400
342.83	29.286
343.20	28.456
343.56	26.450
343.92	28.902
344.28	28.230
344.65	28.688
345.01	27.619
345.37	27.965
345.73	28.651
346.10	28.127
346.46	28.070
346.82	27.546
347.19	27.821
347.55	27.713
347.91	27.568
348.27	26.878
348.63	27.611
349.00	27.266
349.36	28.405
349.72	28.593
350.08	27.950
350.45	28.180
350.81	27.752
351.17	27.273
351.53	27.791
351.89	27.972
352.26	27.891
352.62	27.753
352.98	28.144
353.34	28.351
353.70	27.370
354.07	29.615
354.43	28.264
354.79	27.866
355.15	28.101
355.51	28.550
355.87	27.937
356.24	28.253
356.60	27.549
356.96	27.445
357.32	28.711
357.68	27.239
358.04	28.191
358.40	27.961
358.77	27.949
359.13	28.529
359.49	28.540
359.85	28.965
360.21	28.752
360.57	27.080
360.93	29.004
361.29	27.850
361.66	28.859
362.02	27.202
362.38	27.922
362.74	28.096
363.10	28.541
363.46	27.072
363.82	28.471
364.18	29.232
364.54	28.040
364.90	28.581
365.26	28.036
365.62	27.279
365.98	27.047
366.35	27.862
366.71	28.175
367.07	27.031
367.43	28.005
367.79	27.992
368.15	27.951
368.51	28.256
368.87	28.057
369.23	28.274
369.59	27.916
369.95	28.531
370.31	27.789
370.67	28.244
371.03	28.011
371.39	28.324
371.75	28.542
372.11	29.096
372.47	28.630
372.83	27.872
373.19	28.239
373.55	28.454
373.91	28.591
374.27	27.778
374.63	28.610
374.99	28.706
375.35	29.435
375.71	28.430
376.07	28.979
376.42	27.174
376.78	28.067
377.14	28.702
377.50	28.152
377.86	28.828
378.22	28.275
378.58	29.479
378.94	28.485
379.30	28.320
379.66	28.838
380.02	28.915
380.38	27.869
380.74	28.374
381.09	28.505
381.45	28.439
381.81	29.314
382.17	28.999
382.53	28.974
382.89	29.154
383.25	28.656
383.61	28.300
383.97	28.134
384.32	29.054
384.68	29.352
385.04	29.132
385.40	28.588
385.76	28.262
386.12	28.324
386.48	29.240
386.83	28.912
387.19	28.857
387.55	28.622
387.91	29.388
388.27	29.090
388.62	29.225
388.98	28.688
389.34	28.376
389.70	28.656
390.06	29.085
390.42	29.611
390.77	29.300
391.13	29.632
391.49	28.433
391.85	28.923
392.20	29.678
392.56	29.630
392.92	29.029
393.28	28.195
393.64	28.383
393.99	28.868
394.35	28.605
394.71	28.287
395.07	28.467
395.42	27.986
395.78	28.933
396.14	29.337
396.50	29.242
396.85	29.207
397.21	28.400
397.57	28.930
397.92	28.712
398.28	29.123
398.64	29.319
399.00	28.167
399.35	28.288
399.71	28.587
400.07	28.368
400.42	29.552
400.78	28.622
401.14	29.712
401.49	28.111
401.85	28.737
402.21	28.940
402.57	28.486
402.92	29.939
403.28	28.461
403.63	29.017
403.99	28.589
404.35	29.660
404.70	29.002
405.06	27.681
405.42	29.084
405.77	27.839
406.13	28.688
406.49	28.198
406.84	27.524
407.20	29.680
407.55	28.554
407.91	28.973
408.27	28.684
408.62	28.859
408.98	28.622
409.34	28.112
409.69	28.002
410.05	28.742
410.40	27.915
410.76	27.991
411.11	28.555
411.47	28.889
411.83	27.651
412.18	29.106
412.54	28.589
412.89	28.850
413.25	29.704
413.60	28.329
413.96	29.025
414.31	28.040
414.67	29.919
415.03	29.630
415.38	29.401
415.74	29.185
416.09	28.982
416.45	29.476
416.80	29.314
417.16	28.199
417.51	28.981
417.87	28.786
418.22	29.222
418.58	29.427
418.93	28.852
419.29	28.897
419.64	29.558
420.00	30.549
420.35	29.268
420.71	29.580
421.06	29.429
421.42	29.303
421.77	29.817
422.12	29.493
422.48	29.789
422.83	30.413
423.19	29.104
423.54	29.841
423.90	30.068
424.25	30.270
424.61	29.658
424.96	29.475
425.31	29.776
425.67	30.303
426.02	30.062
426.38	30.222
426.73	30.422
427.09	30.842
427.44	30.276
427.79	30.589
428.15	30.760
428.50	30.571
428.85	31.099
429.21	31.821
429.56	31.107
429.92	31.129
430.27	29.802
430.62	30.005
430.98	30.589
431.33	30.746
431.68	30.123
432.04	30.729
432.39	30.955
432.74	32.026
433.10	31.894
433.45	31.763
433.80	31.881
434.16	30.741
434.51	30.753
434.86	31.737
435.22	30.524
435.57	31.595
435.92	32.726
436.28	32.373
436.63	31.442
436.98	32.376
437.34	32.363
437.69	31.299
438.04	32.151
438.39	32.866
438.75	32.962
439.10	31.139
439.45	31.656
439.81	31.926
440.16	32.691
440.51	32.545
440.86	33.675
441.22	32.251
441.57	32.966
441.92	32.034
442.27	31.856
442.63	31.758
442.98	32.381
443.33	32.994
443.68	32.646
444.03	31.810
444.39	33.239
444.74	33.230
445.09	32.596
445.44	32.944
445.79	32.943
446.15	33.421
446.50	33.386
446.85	32.869
447.20	33.234
447.55	33.605
447.91	33.777
448.26	32.907
448.61	33.389
448.96	33.769
449.31	33.828
449.66	34.441
450.02	33.712
450.37	33.315
450.72	34.435
451.07	33.799
451.42	34.795
451.77	34.593
452.12	34.090
452.47	34.994
452.83	34.254
453.18	35.435
453.53	34.813
453.88	34.514
454.23	34.166
454.58	34.033
454.93	34.212
455.28	34.823
455.63	35.520
455.98	35.025
456.34	35.623
456.69	35.427
457.04	34.606
457.39	35.371
457.74	34.628
458.09	34.194
458.44	34.775
458.79	34.748
459.14	33.988
459.49	34.428
459.84	35.761
460.19	33.898
460.54	34.017
460.89	34.168
461.24	34.708
461.59	35.374
461.94	34.279
462.29	35.641
462.64	35.678
462.99	33.973
463.34	35.450
463.69	35.088
464.04	35.406
464.39	34.516
464.74	34.056
465.09	34.997
465.44	35.419
465.79	34.295
466.14	34.499
466.49	34.889
466.84	34.727
467.19	35.149
467.54	34.595
467.89	35.622
468.24	35.437
468.59	33.929
468.94	35.447
469.29	35.064
469.64	35.884
469.99	35.604
470.34	34.725
470.68	36.690
471.03	35.557
471.38	36.159
471.73	34.944
472.08	36.204
472.43	35.940
472.78	35.019
473.13	35.106
473.48	36.125
473.83	34.982
474.17	34.894
474.52	35.427
474.87	34.622
475.22	35.922
475.57	34.575
475.92	34.900
476.27	34.222
476.61	34.906
476.96	34.587
477.31	35.424
477.66	36.125
478.01	35.585
478.36	35.067
478.70	34.293
479.05	34.937
479.40	35.069
479.75	35.353
480.10	34.414
480.45	34.594
480.79	34.332
481.14	34.712
481.49	35.316
481.84	34.345
482.19	34.891
482.53	34.563
482.88	34.767
483.23	34.100
483.58	35.952
483.92	35.101
484.27	34.546
484.62	34.932
484.97	34.125
485.31	33.066
485.66	33.342
486.01	31.975
486.36	31.723
486.70	31.202
487.05	31.350
487.40	31.766
487.75	32.184
488.09	32.472
488.44	33.047
488.79	34.120
489.13	34.192
489.48	34.758
489.83	34.404
490.17	33.567
490.52	34.410
490.87	34.483
491.22	34.885
491.56	34.827
491.91	34.453
492.26	33.898
492.60	35.490
492.95	33.892
493.30	34.531
493.64	34.412
493.99	33.855
494.34	34.200
494.68	34.440
495.03	34.531
495.37	35.434
495.72	35.012
496.07	34.996
496.41	34.622
496.76	34.360
497.11	33.805
497.45	34.415
497.80	34.662
498.14	33.749
498.49	35.051
498.84	36.121
499.18	33.547
499.53	34.681
499.87	34.412
500.22	34.638
500.56	35.283
500.91	34.972
501.26	34.864
501.60	34.381
501.95	33.916
502.29	34.178
502.64	33.524
502.98	33.926
503.33	33.408
503.67	33.996
504.02	33.542
504.36	34.253
504.71	33.491
505.06	34.022
505.40	34.628
505.75	34.004
506.09	34.718
506.44	34.258
506.78	35.019
507.13	34.513
507.47	33.527
507.82	34.842
508.16	34.934
508.51	35.072
508.85	34.188
509.19	35.047
509.54	34.814
509.88	34.709
510.23	34.510
510.57	34.073
510.92	33.716
511.26	35.542
511.61	34.072
511.95	33.798
512.30	34.450
512.64	34.216
512.98	35.008
513.33	33.504
513.67	34.593
514.02	34.390
514.36	34.164
514.70	34.987
515.05	34.257
515.39	35.362
515.74	34.554
516.08	35.784
516.42	36.066
516.77	34.667
517.11	35.627
517.46	35.183
517.80	34.571
518.14	35.099
518.49	35.281
518.83	34.286
519.17	35.441
519.52	35.172
519.86	35.586
520.20	35.068
520.55	35.105
520.89	34.253
521.23	35.572
521.58	34.997
521.92	35.569
522.26	33.768
522.61	35.413
522.95	35.796
523.29	34.854
523.64	35.029
523.98	35.211
524.32	34.948
524.66	35.478
525.01	34.083
525.35	34.001
525.69	34.618
526.04	34.682
526.38	35.668
526.72	34.666
527.06	34.713
527.41	35.187
527.75	34.997
528.09	33.955
528.43	35.082
528.78	35.599
529.12	35.280
529.46	34.366
529.80	33.820
530.15	34.473
530.49	33.755
530.83	34.674
531.17	35.055
531.51	34.580
531.86	34.058
532.20	33.004
532.54	35.028
532.88	34.229
533.22	34.308
533.57	33.923
533.91	33.741
534.25	32.776
534.59	33.684
534.93	33.845
535.27	32.612
535.62	33.489
535.96	33.865
536.30	34.247
536.64	32.795
536.98	33.480
537.32	34.062
537.66	33.673
538.01	33.375
538.35	33.749
538.69	31.978
539.03	33.271
539.37	32.767
539.71	34.506
540.05	33.108
540.39	33.459
540.73	33.101
541.07	32.371
541.42	33.271
541.76	34.032
542.10	33.539
542.44	33.915
542.78	32.599
543.12	32.270
543.46	32.143
543.80	32.581
544.14	33.560
544.48	32.056
544.82	31.988
545.16	31.755
545.50	31.899
545.84	33.775
546.18	34.590
546.52	33.180
546.86	33.785
547.20	32.558
547.54	32.742
547.88	31.934
548.22	31.876
548.56	32.823
548.90	32.562
549.24	32.407
549.58	32.796
549.92	32.155
550.26	33.333
550.60	32.601
550.94	33.243
551.28	33.724
551.62	33.931
551.96	32.095
552.30	30.916
552.64	33.010
552.98	31.765
553.32	32.330
553.66	31.987
554.00	32.239
554.34	33.023
554.68	32.863
555.02	32.587
555.36	32.447
555.69	31.872
556.03	32.611
556.37	32.314
556.71	32.920
557.05	31.324
557.39	32.733
557.73	31.739
558.07	33.266
558.41	32.419
558.75	32.627
559.08	33.595
559.42	33.429
559.76	33.286
560.10	32.278
560.44	30.922
560.78	32.289
561.12	32.231
561.45	30.601
561.79	31.835
562.13	31.712
562.47	31.798
562.81	32.726
563.15	31.351
563.48	30.994
563.82	32.314
564.16	31.405
564.50	31.706
564.84	32.097
565.17	31.491
565.51	31.527
565.85	31.832
566.19	30.774
566.52	30.626
566.86	31.524
567.20	31.292
567.54	29.749
567.88	31.560
568.21	30.005
568.55	30.253
568.89	29.881
569.23	29.379
569.56	28.634
569.90	27.991
570.24	28.654
570.57	28.034
570.91	27.738
571.25	27.461
571.59	26.678
571.92	26.561
572.26	26.658
572.60	26.520
572.93	27.315
573.27	26.996
573.61	26.773
573.95	26.594
574.28	26.345
574.62	26.362
574.96	26.288
575.29	25.696
575.63	26.125
575.97	25.463
576.30	25.411
576.64	26.295
576.98	25.865
577.31	26.316
577.65	25.948
577.98	25.072
578.32	25.005
578.66	25.408
578.99	25.635
579.33	26.004
579.67	25.525
580.00	25.384
580.34	25.816
580.67	25.257
581.01	26.487
581.35	26.158
581.68	25.262
582.02	25.342
582.35	24.661
582.69	25.405
583.02	25.138
583.36	25.079
583.70	25.455
584.03	26.597
584.37	26.022
584.70	26.126
585.04	25.839
585.37	25.090
585.71	25.798
586.04	25.390
586.38	25.545
586.72	25.714
587.05	25.090
587.39	26.321
587.72	25.616
588.06	25.776
588.39	25.793
588.73	25.824
589.06	26.350
589.40	27.418
589.73	27.008
590.07	27.591
590.40	27.247
590.73	27.470
591.07	27.704
591.40	27.106
591.74	27.557
592.07	27.288
592.41	28.018
592.74	27.023
593.08	26.172
593.41	26.092
593.75	25.857
594.08	26.609
594.41	25.839
594.75	26.473
595.08	26.337
595.42	27.024
595.75	25.732
596.09	26.555
596.42	26.329
596.75	26.923
597.09	26.909
597.42	26.980
597.75	26.450
598.09	26.713
598.42	26.642
598.76	26.484
599.09	26.407
599.42	26.228
599.76	26.323
600.09	25.220
600.42	25.725
600.76	25.731
601.09	26.372
601.42	25.906
601.76	26.280
602.09	26.674
602.42	25.656
602.76	26.452
603.09	26.772
603.42	26.826
603.76	26.211
604.09	25.805
604.42	26.026
604.76	27.222
605.09	26.245
605.42	26.209
605.75	25.898
606.09	26.855
606.42	26.118
606.75	26.312
607.09	25.780
607.42	26.195
607.75	25.876
608.08	26.158
608.42	26.720
608.75	25.888
609.08	26.485
609.41	27.273
609.75	27.289
610.08	26.574
610.41	26.219
610.74	25.974
611.07	27.331
611.41	26.645
611.74	26.673
612.07	27.360
612.40	26.998
612.73	27.059
613.07	27.015
613.40	26.967
613.73	27.858
614.06	26.900
614.39	27.677
614.72	27.022
615.06	26.113
615.39	26.634
615.72	25.266
616.05	27.323
616.38	26.230
616.71	26.641
617.05	27.183
617.38	26.910
617.71	27.503
618.04	28.491
618.37	26.904
618.70	27.136
619.03	27.534
619.36	28.957
619.69	28.166
620.03	29.419
620.36	29.287
620.69	28.863
621.02	28.940
621.35	28.367
621.68	29.720
622.01	29.151
622.34	28.915
622.67	29.916
623.00	28.863
623.33	29.892
623.66	27.478
623.99	28.973
624.32	29.336
624.65	26.991
624.99	28.330
625.32	29.192
625.65	27.586
625.98	27.476
626.31	28.858
626.64	28.322
626.97	29.074
627.30	28.571
627.63	30.377
627.96	28.638
628.29	29.373
628.62	30.453
628.95	29.965
629.28	30.762
629.61	30.580
629.94	31.029
630.26	30.849
630.59	31.649
630.92	31.659
631.25	31.369
631.58	32.015
631.91	29.781
632.24	30.807
632.57	31.336
632.90	32.091
633.23	33.054
633.56	32.350
633.89	31.726
634.22	31.970
634.55	30.860
634.88	31.654
635.20	32.399
635.53	34.495
635.86	33.445
636.19	32.884
636.52	29.838
636.85	30.421
637.18	32.069
637.51	31.285
637.83	31.236
638.16	31.067
638.49	30.180
638.82	32.277
639.15	31.962
639.48	32.109
639.81	32.234
640.13	32.638
640.46	32.870
640.79	32.120
641.12	32.677
641.45	33.506
641.77	33.421
642.10	33.467
642.43	34.139
642.76	34.233
643.09	33.285
643.41	31.837
643.74	35.252
644.07	34.661
644.40	32.396
644.73	34.234
645.05	34.621
645.38	35.069
645.71	33.080
646.04	34.198
646.36	34.272
646.69	36.160
647.02	35.360
647.35	34.331
647.67	33.549
648.00	35.831
648.33	34.135
648.66	35.455
648.98	32.464
649.31	32.389
649.64	32.780
649.96	33.428
650.29	34.000
650.62	33.137
650.94	35.392
651.27	35.726
651.60	33.490
651.92	34.255
652.25	34.646
652.58	32.057
652.90	34.431
653.23	32.349
653.56	33.234
653.88	31.424
654.21	33.284
654.54	31.625
654.86	34.808
655.19	31.794
655.52	27.257
655.84	20.618
656.17	23.110
656.49	32.985
656.82	37.995
657.15	30.177
657.47	22.777
657.80	16.890
658.13	13.216
658.45	17.976
658.78	22.387
659.10	22.682
659.43	24.109
659.75	24.365
660.08	27.193
660.41	28.675
660.73	32.371
661.06	32.733
661.38	34.923
661.71	34.712
662.03	35.741
662.36	35.238
662.68	35.196
663.01	35.676
663.33	36.981
663.66	37.673
663.98	34.524
664.31	36.194
664.63	35.057
664.96	37.523
665.28	34.840
665.61	34.151
665.93	34.906
666.26	34.206
666.58	35.596
666.91	34.556
667.23	35.542
667.56	35.934
667.88	37.552
668.21	34.426
668.53	37.702
668.86	37.876
669.18	34.420
669.50	34.917
669.83	35.113
670.15	38.669
670.48	34.570
670.80	35.060
671.13	36.653
671.45	34.669
671.77	37.291
672.10	35.548
672.42	31.250
672.75	32.437
673.07	34.340
673.39	32.428
673.72	34.429
674.04	34.588
674.37	33.212
674.69	35.130
675.01	34.515
675.34	31.783
675.66	34.766
675.98	34.320
676.31	36.000
676.63	32.207
676.95	33.532
677.28	33.671
677.60	33.803
677.92	33.135
678.25	33.721
678.57	34.264
678.89	33.092
679.22	34.191
679.54	32.384
679.86	33.159
680.18	31.986
680.51	29.685
680.83	31.757
681.15	33.622
681.48	34.375
681.80	30.998
682.12	33.737
682.44	32.252
682.77	33.096
683.09	31.845
683.41	36.531
683.73	33.268
684.06	33.730
684.38	32.946
684.70	33.453
685.02	33.160
685.34	33.979
685.67	31.029
685.99	31.199
686.31	30.508
686.63	31.870
686.96	31.373
687.28	31.040
687.60	32.082
687.92	32.831
688.24	34.483
688.56	31.317
688.89	33.270
689.21	33.911
689.53	34.387
689.85	33.943
690.17	31.650
690.49	34.274
690.82	34.454
691.14	33.131
691.46	35.113
691.78	33.918
692.10	29.771
692.42	31.216
692.74	34.302
693.06	34.690
693.39	31.818
693.71	33.202
694.03	36.292
694.35	34.538
694.67	34.420
694.99	34.812
695.31	37.387
695.63	33.258
695.95	35.973
696.27	34.513
696.59	34.845
696.91	33.924
697.23	34.615
697.56	30.705
697.88	32.934
698.20	33.019
698.52	28.988
698.84	33.060
699.16	32.623
699.48	34.958
699.80	35.294
700.12	36.028
700.44	33.178
700.76	35.322
701.08	36.292
701.40	39.481
701.72	39.840
702.04	39.295
702.36	37.366
702.68	35.638
703.00	35.088
703.32	35.980
703.64	35.013
703.96	35.937
704.28	38.624
704.60	38.028
704.91	35.854
705.23	35.511
705.55	37.982
705.87	39.365
706.19	41.379
706.51	41.066
706.83	39.528
707.15	37.701
707.47	33.656
707.79	34.943
708.11	31.519
708.43	32.584
708.74	33.937
709.06	33.023
709.38	35.980
709.70	34.060
710.02	34.511
710.34	33.425
710.66	37.222
710.98	37.978
711.29	36.212
711.61	39.276
711.93	37.082
712.25	36.747
712.57	40.514
712.89	37.879
713.20	38.339
713.52	37.072
713.84	37.160
714.16	34.203
714.48	32.277
714.80	32.520
715.11	33.511
715.43	34.078
715.75	35.493
716.07	37.861
716.39	38.000
716.70	34.579
717.02	40.067
717.34	41.007
717.66	42.014
717.97	45.076
718.29	38.380
718.61	32.770
718.93	38.408
719.24	40.604
719.56	38.966
719.88	38.854
720.20	36.774
720.51	37.908
720.83	39.465
721.15	39.116
721.46	40.753
721.78	37.282
722.10	42.014
722.42	37.458
722.73	37.906
723.05	39.649
723.37	39.223
723.68	39.063
724.00	40.909
724.32	38.023
724.63	40.769
724.95	37.647
725.27	39.405
725.58	40.074
725.90	35.563
726.22	37.329
726.53	38.796
726.85	36.482
727.16	38.926
727.48	35.880
727.80	42.446
728.11	37.143
728.43	36.957
728.74	38.462
729.06	38.351
729.38	36.491
729.69	36.667
730.01	38.158
730.32	37.919
730.64	34.551
730.96	37.237
731.27	30.887
731.59	31.609
731.90	34.540
732.22	34.571
732.53	33.048
732.85	36.257
733.16	30.120
733.48	37.931
733.80	36.812
734.11	35.276
734.43	31.871
734.74	31.903
735.06	33.862
735.37	32.990
735.69	32.464
736.00	36.391
736.32	30.909
736.63	33.754
736.95	31.056
737.26	36.890
737.58	35.890
737.89	33.434
738.21	34.768
738.52	35.452
738.83	37.729
739.15	40.767
739.46	38.276
739.78	36.054
740.09	34.694
740.41	37.730
740.72	35.238
741.04	37.063
741.35	43.750
741.66	34.387
741.98	41.202
742.29	38.426
742.61	38.938
742.92	41.949
743.23	41.600
743.55	34.717
743.86	36.078
744.18	41.102
744.49	40.496
744.80	46.083
745.12	37.946
745.43	41.589
745.74	38.222
746.06	39.035
746.37	46.047
746.68	43.363
747.00	38.117
747.31	44.538
747.62	36.885
747.94	37.768
748.25	40.856
748.56	37.288
748.88	37.946
749.19	37.209
749.50	35.616
749.82	41.975
750.13	38.340
750.44	33.333
750.75	34.899
751.07	32.566
751.38	35.644
751.69	37.037
752.01	32.168
752.32	34.551
752.63	36.242
752.94	38.112
753.26	39.453
753.57	40.078
753.88	33.708
754.19	35.740
754.51	35.548
754.82	31.879
755.13	37.162
755.44	37.778
755.75	41.581
756.07	37.329
756.38	32.680
756.69	31.563
757.00	34.125
757.31	35.775
757.63	28.099
757.94	32.181
758.25	29.952
758.56	29.291
758.87	31.830
759.18	32.849
759.50	32.219
759.81	33.828
760.12	33.989
760.43	31.092
760.74	32.405
761.05	31.300
761.36	32.031
761.67	33.693
761.99	35.493
762.30	33.119
762.61	32.639
762.92	34.470
763.23	38.491
763.54	35.385
763.85	35.798
764.16	38.542
764.47	35.811
764.78	33.876
765.10	31.098
765.41	29.830
765.72	31.492
766.03	28.701
766.34	34.495
766.65	39.924
766.96	38.057
767.27	40.187
767.58	47.030
767.89	47.514
768.20	47.561
768.51	42.347
768.82	36.842
769.13	34.902
769.44	37.218
769.75	34.831
770.06	37.815
770.37	34.649
770.68	38.222
770.99	38.983
771.30	36.402
771.61	36.923
771.92	33.206
772.23	38.306
772.54	40.444
772.85	47.030
773.16	39.674
773.47	43.889
773.78	42.079
774.09	43.750
774.39	52.727
774.70	44.118
775.01	40.789
775.32	35.404
775.63	53.425
775.94	48.148
776.25	48.966
776.56	48.855
776.87	52.672
777.18	54.545
777.48	55.118
777.79	45.385
778.10	50.000
778.41	52.239
778.72	46.617
779.03	37.821
779.34	47.973
779.65	49.689
779.95	44.720
780.26	45.238
780.57	53.061
780.88	41.844
781.19	62.500
781.50	49.704
781.80	45.902
782.11	42.857
782.42	35.632
782.73	45.198
783.04	48.387
783.34	47.287
783.65	41.497
783.96	54.194
784.27	45.695
784.57	42.763
784.88	45.652
785.19	50.000
785.50	60.345
785.81	58.140
786.11	46.667
786.42	46.457
786.73	68.468
787.04	51.887
787.34	39.837
787.65	48.485
787.96	49.242
788.26	51.181
788.57	51.825
788.88	44.366
789.19	45.038
789.49	44.595
789.80	53.125
790.11	40.496
790.41	60.185
790.72	53.704
791.03	56.731
791.33	62.626
791.64	61.053
791.95	62.105
792.25	60.417
792.56	57.000
792.87	78.049
793.17	61.364
793.48	74.118
793.79	54.023
794.09	57.955
794.40	52.586
794.70	48.413
795.01	42.308
795.32	43.511
795.62	38.462
795.93	56.303
796.23	55.285
796.54	56.122
796.85	61.364
797.15	68.831
797.46	76.829
797.76	63.750
798.07	72.000
798.37	71.250
798.68	80.000
798.99	59.756
799.29	68.000
799.60	46.512
799.90	61.842
800.21	80.303
800.51	84.507
800.82	79.310
801.12	73.846
801.43	70.667
801.73	79.310
802.04	72.727
802.34	80.822
802.65	82.353
802.95	117.391
803.26	88.710
803.56	103.333
803.87	80.597
804.17	74.603
804.48	81.132
804.78	76.389
805.09	81.818
805.39	80.952
805.70	84.211
806.00	71.429
806.30	75.000
806.61	72.941
806.91	66.667
807.22	55.435
807.52	64.474
807.83	81.579
808.13	71.014
808.43	75.806
808.74	78.082
809.04	73.214
809.35	88.235
809.65	84.848
809.95	84.314
810.26	87.037
810.56	87.500
810.86	95.918
811.17	85.965
811.47	106.522
811.77	87.931
812.08	62.069
812.38	92.857
812.69	128.571
812.99	100.000
813.29	105.714
813.59	141.935
813.90	82.759
814.20	85.246
814.50	78.000
814.81	82.456
815.11	105.556
815.41	69.643
815.72	87.500
816.02	104.000
816.32	80.488
816.62	89.655
816.93	139.394
817.23	112.195
817.53	75.000
817.84	84.444
818.14	85.714
818.44	95.833
818.74	84.906
819.04	92.308
819.35	121.212
819.65	98.077
819.95	116.667
820.25	102.128
820.56	118.919
820.86	102.632
821.16	91.489
821.46	115.789
821.76	92.727
822.07	83.333
822.37	107.895
822.67	109.302
822.97	121.053
823.27	97.826
823.57	153.125
823.88	135.897
824.18	87.879
824.48	156.522
824.78	113.889
825.08	160.870
825.38	131.034
825.69	100.000
825.99	95.745
826.29	102.778
826.59	100.000
826.89	130.000
827.19	108.571
827.49	141.935
827.79	161.538
828.09	116.667
828.39	111.111
828.70	81.081
829.00	189.286
829.30	231.250
829.60	108.333
829.90	125.806
830.20	118.182
830.50	124.324
830.80	191.667
831.10	188.462
831.40	176.190
831.70	179.167
832.00	126.667
832.30	165.217
832.60	116.667
832.90	166.667
833.20	200.000
833.50	155.263
833.80	111.765
834.10	139.474
834.40	189.474
834.70	113.333
835.00	192.000
835.30	67.568
835.60	140.625
835.90	137.838
836.20	142.308
836.50	159.091
836.80	92.683
837.10	160.870
837.40	276.923
837.70	131.579
838.00	166.667
838.30	170.833
838.60	160.000
838.90	360.000
839.19	243.750
839.49	150.000
839.79	117.241
840.09	150.000
840.39	160.000
840.69	205.263
840.99	147.619
841.29	126.087
841.59	255.000
841.88	180.000
842.18	300.000
842.48	153.571
842.78	155.556
843.08	246.154
843.38	204.545
843.68	250.000
843.97	500.000
844.27	182.609
844.57	1750.000
844.87	250.000
845.17	188.889
845.47	161.905
845.76	141.667
846.06	485.714
846.36	229.412
846.66	246.154
846.96	268.750
847.25	276.923
847.55	142.105
847.85	211.111
848.15	700.000
848.44	336.364
848.74	228.571
849.04	225.000
849.34	194.118
849.63	268.750
849.93	218.750
850.23	1000.000
850.53	400.000
850.82	309.091
851.12	217.647
851.42	208.333
851.71	262.500
852.01	0.000
852.31	200.000
852.61	490.000
852.90	179.167
853.20	444.444
853.50	-2400.000
853.79	164.000
854.09	150.000
854.39	144.828
854.68	155.172
854.98	185.714
855.28	119.355
855.57	214.286
855.87	161.111
856.17	148.148
856.46	189.474
856.76	138.710
857.05	282.353
857.35	263.636
857.65	215.385
857.94	150.000
858.24	400.000
858.53	292.857
858.83	485.714
859.13	195.652
859.42	311.111
859.72	400.000
860.01	258.333
860.31	975.000
860.60	320.000
860.90	387.500
861.20	284.615
861.49	500.000
861.79	-1700.000
862.08	500.000
862.38	466.667
862.67	192.857
862.97	380.000
863.26	143.333
863.56	725.000
863.85	330.769
864.15	252.941
864.44	222.222
864.74	466.667
865.03	300.000
865.33	375.000
865.62	246.667
865.92	533.333
866.21	900.000
866.51	880.000
866.80	272.222
867.10	1133.333
867.39	3600.000
867.69	580.000
867.98	775.000
868.27	176.190
868.57	306.667
868.86	950.000
869.16	133.333
869.45	3400.000
869.75	-416.667
870.04	725.000
870.33	640.000
870.63	337.500
870.92	211.765
871.22	800.000
871.51	400.000
871.80	358.333
872.10	338.462
>>>>>End Processed Spectral Data<<<<<
