SpectraSuite Data File
++++++++++++++++++++++++++++++++++++
Date: Wed May 13 21:52:29 PDT 2015
User: schluterlab
Dark Spectrum Present: Yes
Reference Spectrum Present: Yes
Number of Sampled Component Spectra: 1
Spectrometers: USB2E3373
Integration Time (usec): 3000 (USB2E3373)
Spectra Averaged: 3 (USB2E3373)
Boxcar Smoothing: 0 (USB2E3373)
Correct for Electrical Dark: No (USB2E3373)
Strobe/Lamp Enabled: No (USB2E3373)
Correct for Detector Non-linearity: No (USB2E3373)
Correct for Stray Light: No (USB2E3373)
Number of Pixels in Processed Spectrum: 2048
>>>>>Begin Processed Spectral Data<<<<<
178.53	0.000
178.91	200.000
179.29	216.667
179.67	-1250.000
180.04	-633.333
180.42	260.000
180.80	2000.000
181.18	200.000
181.56	-250.000
181.94	-300.000
182.31	-72.727
182.69	100.000
183.07	-380.000
183.45	316.667
183.83	155.556
184.20	157.143
184.58	-233.333
184.96	400.000
185.34	342.857
185.72	0.000
186.09	100.000
186.47	-420.000
186.85	100.000
187.23	-300.000
187.61	450.000
187.98	1600.000
188.36	-125.000
188.74	0.000
189.12	-136.364
189.49	0.000
189.87	116.667
190.25	340.000
190.63	2100.000
191.00	0.000
191.38	440.000
191.76	550.000
192.14	141.667
192.51	-47.368
192.89	533.333
193.27	225.000
193.65	-480.000
194.02	245.455
194.40	180.000
194.78	-500.000
195.15	200.000
195.53	-40.000
195.91	-87.500
196.29	-533.333
196.66	0.000
197.04	200.000
197.42	-140.000
197.79	0.000
198.17	-175.000
198.55	-33.333
198.92	350.000
199.30	-633.333
199.68	-50.000
200.05	900.000
200.43	150.000
200.81	-1200.000
201.18	-160.000
201.56	-166.667
201.94	675.000
202.31	-8.696
202.69	-157.143
203.07	-733.333
203.44	-320.000
203.82	-466.667
204.19	-80.000
204.57	0.000
204.95	-133.333
205.32	0.000
205.70	-250.000
206.08	-375.000
206.45	-266.667
206.83	525.000
207.20	-400.000
207.58	-150.000
207.96	-1200.000
208.33	-214.286
208.71	-2000.000
209.08	162.500
209.46	500.000
209.84	0.000
210.21	180.000
210.59	1800.000
210.96	340.000
211.34	1200.000
211.71	-800.000
212.09	-250.000
212.46	-110.000
212.84	-400.000
213.22	0.000
213.59	-1200.000
213.97	-750.000
214.34	-1200.000
214.72	-46.154
215.09	262.500
215.47	155.556
215.84	650.000
216.22	-25.000
216.59	-200.000
216.97	833.333
217.34	166.667
217.72	0.000
218.09	500.000
218.47	-1200.000
218.84	-71.429
219.22	-87.500
219.59	-233.333
219.97	-250.000
220.34	-87.500
220.72	-240.000
221.09	0.000
221.47	-83.333
221.84	-600.000
222.22	0.000
222.59	1100.000
222.97	-433.333
223.34	-100.000
223.72	-700.000
224.09	-500.000
224.46	-36.364
224.84	-75.000
225.21	-300.000
225.59	-350.000
225.96	-250.000
226.34	-50.000
226.71	-300.000
227.08	750.000
227.46	-200.000
227.83	0.000
228.21	-37.500
228.58	-400.000
228.95	-29.412
229.33	12.500
229.70	-175.000
230.08	-38.462
230.45	-87.500
230.82	-150.000
231.20	314.286
231.57	-150.000
231.95	1000.000
232.32	-8.333
232.69	-94.118
233.07	-1600.000
233.44	-56.522
233.81	-850.000
234.19	-25.000
234.56	-106.667
234.93	-46.667
235.31	-26.316
235.68	-84.615
236.05	-53.846
236.43	-27.778
236.80	12.121
237.17	-53.333
237.55	-35.294
237.92	-34.483
238.29	-37.037
238.67	-8.333
239.04	0.000
239.41	-6.383
239.79	17.021
240.16	2.326
240.53	30.357
240.91	14.286
241.28	5.357
241.65	14.516
242.02	18.421
242.40	4.348
242.77	4.348
243.14	26.923
243.51	23.404
243.89	20.192
244.26	20.755
244.63	20.192
245.00	32.292
245.38	9.244
245.75	13.115
246.12	12.030
246.49	8.943
246.87	10.924
247.24	25.676
247.61	21.192
247.98	22.436
248.36	21.302
248.73	22.472
249.10	19.192
249.47	22.581
249.84	20.526
250.22	20.398
250.59	28.037
250.96	22.727
251.33	14.833
251.70	23.013
252.08	22.594
252.45	25.926
252.82	22.433
253.19	21.012
253.56	24.101
253.94	27.402
254.31	19.366
254.68	26.510
255.05	25.743
255.42	19.580
255.79	25.153
256.16	26.498
256.54	25.079
256.91	21.519
257.28	22.327
257.65	17.834
258.02	24.047
258.39	28.655
258.76	21.512
259.14	22.727
259.51	22.472
259.88	23.306
260.25	21.667
260.62	26.124
260.99	25.464
261.36	26.684
261.73	24.444
262.10	24.173
262.47	24.198
262.85	21.891
263.22	25.641
263.59	25.195
263.96	26.764
264.33	24.519
264.70	27.442
265.07	24.074
265.44	26.897
265.81	23.799
266.18	24.146
266.55	23.362
266.92	25.212
267.29	23.868
267.66	25.902
268.03	25.514
268.40	24.364
268.77	24.380
269.14	26.327
269.51	27.515
269.88	24.236
270.25	23.941
270.62	25.000
270.99	25.984
271.36	23.611
271.73	25.100
272.10	23.429
272.47	25.720
272.84	26.969
273.21	22.701
273.58	22.541
273.95	25.094
274.32	23.881
274.69	25.137
275.06	25.088
275.43	26.365
275.80	23.936
276.17	23.941
276.54	23.801
276.91	23.868
277.28	23.105
277.65	25.000
278.02	24.821
278.39	26.110
278.76	24.247
279.13	21.784
279.50	25.690
279.87	24.819
280.23	23.604
280.60	23.183
280.97	23.701
281.34	24.763
281.71	22.439
282.08	24.274
282.45	23.607
282.82	25.080
283.19	22.561
283.56	24.375
283.92	24.924
284.29	23.089
284.66	23.558
285.03	22.476
285.40	23.716
285.77	20.871
286.14	22.340
286.51	25.637
286.87	23.538
287.24	23.009
287.61	22.892
287.98	21.765
288.35	22.802
288.72	23.242
289.08	24.929
289.45	22.320
289.82	22.390
290.19	21.178
290.56	20.881
290.93	20.994
291.29	21.751
291.66	21.858
292.03	23.433
292.40	21.803
292.77	22.356
293.13	23.013
293.50	20.261
293.87	23.467
294.24	22.487
294.60	22.497
294.97	21.958
295.34	20.976
295.71	21.551
296.08	20.419
296.44	21.556
296.81	19.732
297.18	21.125
297.55	20.755
297.91	21.615
298.28	21.065
298.65	20.197
299.02	21.368
299.38	21.227
299.75	19.952
300.12	19.651
300.48	20.702
300.85	19.400
301.22	19.977
301.59	18.779
301.95	19.861
302.32	18.553
302.69	19.774
303.05	19.823
303.42	20.000
303.79	20.505
304.15	21.030
304.52	20.860
304.89	20.598
305.25	19.539
305.62	19.414
305.99	20.783
306.35	22.780
306.72	20.346
307.09	20.021
307.45	20.128
307.82	21.158
308.19	19.854
308.55	21.085
308.92	23.772
309.29	20.521
309.65	22.278
310.02	21.968
310.38	21.341
310.75	21.893
311.12	22.157
311.48	22.750
311.85	22.638
312.22	23.791
312.58	22.512
312.95	24.478
313.31	23.508
313.68	23.664
314.05	25.614
314.41	25.168
314.78	26.281
315.14	25.185
315.51	27.402
315.87	26.228
316.24	27.365
316.61	27.215
316.97	27.130
317.34	27.273
317.70	28.100
318.07	27.684
318.43	29.359
318.80	28.098
319.16	28.824
319.53	29.480
319.89	30.443
320.26	31.054
320.62	30.491
320.99	31.395
321.35	31.151
321.72	31.761
322.08	32.472
322.45	33.210
322.81	34.196
323.18	33.184
323.54	34.116
323.91	34.417
324.27	35.104
324.64	36.324
325.00	37.008
325.37	37.201
325.73	37.205
326.10	38.436
326.46	40.803
326.83	38.511
327.19	40.081
327.56	40.532
327.92	40.306
328.29	40.401
328.65	42.507
329.01	41.337
329.38	42.696
329.74	41.888
330.11	42.290
330.47	42.708
330.84	42.690
331.20	43.382
331.56	43.659
331.93	42.894
332.29	44.657
332.66	42.712
333.02	43.875
333.38	43.509
333.75	42.662
334.11	44.358
334.48	43.766
334.84	42.933
335.20	43.654
335.57	43.342
335.93	43.643
336.29	43.345
336.66	43.846
337.02	44.087
337.38	43.429
337.75	43.842
338.11	43.296
338.47	43.322
338.84	42.955
339.20	42.857
339.56	45.222
339.93	44.252
340.29	44.833
340.65	44.568
341.02	45.175
341.38	45.017
341.74	43.109
342.11	44.178
342.47	43.766
342.83	43.873
343.20	44.332
343.56	43.908
343.92	43.461
344.28	44.075
344.65	44.735
345.01	43.503
345.37	45.477
345.73	45.997
346.10	43.740
346.46	45.691
346.82	44.543
347.19	44.620
347.55	46.204
347.91	44.973
348.27	45.820
348.63	44.311
349.00	45.283
349.36	46.232
349.72	46.017
350.08	45.554
350.45	45.732
350.81	45.540
351.17	46.420
351.53	45.954
351.89	45.036
352.26	45.714
352.62	46.977
352.98	45.607
353.34	47.182
353.70	45.327
354.07	45.647
354.43	46.501
354.79	47.997
355.15	46.739
355.51	46.393
355.87	46.990
356.24	46.709
356.60	45.582
356.96	46.508
357.32	48.065
357.68	46.982
358.04	46.703
358.40	47.752
358.77	48.624
359.13	49.027
359.49	47.161
359.85	48.143
360.21	48.034
360.57	49.354
360.93	49.697
361.29	49.593
361.66	49.506
362.02	48.629
362.38	48.966
362.74	48.876
363.10	48.590
363.46	48.127
363.82	50.554
364.18	49.311
364.54	50.036
364.90	49.338
365.26	49.186
365.62	50.071
365.98	50.036
366.35	49.433
366.71	50.999
367.07	51.028
367.43	49.338
367.79	51.286
368.15	52.039
368.51	49.437
368.87	50.872
369.23	50.249
369.59	49.965
369.95	52.250
370.31	51.185
370.67	50.398
371.03	52.264
371.39	49.894
371.75	51.857
372.11	51.425
372.47	52.343
372.83	51.595
373.19	52.086
373.55	51.951
373.91	50.707
374.27	52.628
374.63	52.703
374.99	52.716
375.35	52.123
375.71	52.717
376.07	51.679
376.42	52.807
376.78	53.170
377.14	54.102
377.50	53.911
377.86	52.789
378.22	53.477
378.58	53.783
378.94	54.125
379.30	54.653
379.66	54.131
380.02	53.922
380.38	54.458
380.74	54.931
381.09	53.800
381.45	54.655
381.81	55.391
382.17	54.001
382.53	53.415
382.89	54.101
383.25	55.000
383.61	55.024
383.97	54.937
384.32	54.757
384.68	55.706
385.04	54.429
385.40	55.666
385.76	54.927
386.12	55.068
386.48	54.420
386.83	55.069
387.19	55.706
387.55	55.303
387.91	56.950
388.27	56.042
388.62	56.180
388.98	56.133
389.34	55.827
389.70	55.495
390.06	55.875
390.42	55.928
390.77	55.926
391.13	56.629
391.49	54.269
391.85	54.824
392.20	55.576
392.56	55.175
392.92	55.003
393.28	54.271
393.64	56.453
393.99	53.978
394.35	55.494
394.71	55.385
395.07	55.220
395.42	56.734
395.78	54.891
396.14	56.056
396.50	54.914
396.85	56.724
397.21	55.680
397.57	53.975
397.92	54.970
398.28	54.428
398.64	55.434
399.00	54.799
399.35	55.392
399.71	54.747
400.07	56.506
400.42	54.357
400.78	53.716
401.14	54.936
401.49	54.703
401.85	55.467
402.21	55.728
402.57	55.242
402.92	55.006
403.28	54.847
403.63	54.495
403.99	55.598
404.35	54.426
404.70	54.018
405.06	54.786
405.42	54.083
405.77	54.435
406.13	55.029
406.49	53.805
406.84	54.945
407.20	53.760
407.55	54.870
407.91	53.739
408.27	54.273
408.62	55.924
408.98	54.254
409.34	53.837
409.69	54.191
410.05	54.975
410.40	53.439
410.76	53.069
411.11	54.291
411.47	54.479
411.83	54.086
412.18	53.023
412.54	53.571
412.89	53.480
413.25	52.153
413.60	54.169
413.96	52.996
414.31	52.713
414.67	54.032
415.03	54.060
415.38	52.510
415.74	52.047
416.09	53.206
416.45	53.657
416.80	53.154
417.16	52.159
417.51	53.182
417.87	53.042
418.22	53.588
418.58	52.957
418.93	52.793
419.29	54.191
419.64	52.735
420.00	52.317
420.35	52.779
420.71	53.077
421.06	53.075
421.42	53.406
421.77	54.104
422.12	53.410
422.48	53.490
422.83	52.688
423.19	53.191
423.54	53.121
423.90	53.385
424.25	53.553
424.61	52.680
424.96	53.105
425.31	51.094
425.67	53.322
426.02	52.709
426.38	52.985
426.73	53.024
427.09	52.783
427.44	52.437
427.79	54.038
428.15	52.661
428.50	53.172
428.85	53.198
429.21	52.054
429.56	53.135
429.92	52.577
430.27	53.425
430.62	52.781
430.98	52.512
431.33	52.660
431.68	53.674
432.04	53.070
432.39	52.425
432.74	52.238
433.10	52.992
433.45	52.899
433.80	52.701
434.16	52.267
434.51	52.337
434.86	52.356
435.22	52.349
435.57	51.720
435.92	52.171
436.28	52.192
436.63	52.309
436.98	52.761
437.34	52.503
437.69	51.535
438.04	52.066
438.39	53.674
438.75	52.265
439.10	51.764
439.45	51.392
439.81	52.709
440.16	52.058
440.51	51.784
440.86	52.045
441.22	52.496
441.57	52.223
441.92	52.100
442.27	51.732
442.63	52.476
442.98	52.836
443.33	51.862
443.68	51.713
444.03	52.062
444.39	52.008
444.74	52.071
445.09	51.872
445.44	52.225
445.79	51.833
446.15	52.413
446.50	51.597
446.85	52.592
447.20	52.378
447.55	52.266
447.91	52.640
448.26	51.744
448.61	51.496
448.96	51.481
449.31	51.913
449.66	51.070
450.02	52.700
450.37	50.411
450.72	51.378
451.07	50.658
451.42	49.844
451.77	51.065
452.12	50.089
452.47	51.194
452.83	50.708
453.18	51.241
453.53	52.018
453.88	50.542
454.23	51.236
454.58	50.429
454.93	50.032
455.28	51.188
455.63	49.906
455.98	50.943
456.34	50.604
456.69	49.776
457.04	50.588
457.39	49.790
457.74	50.449
458.09	50.533
458.44	51.351
458.79	50.577
459.14	49.270
459.49	51.280
459.84	49.775
460.19	49.640
460.54	50.365
460.89	49.831
461.24	49.877
461.59	50.785
461.94	50.379
462.29	49.694
462.64	50.330
462.99	48.357
463.34	50.069
463.69	50.000
464.04	49.280
464.39	50.519
464.74	48.894
465.09	50.217
465.44	49.832
465.79	49.569
466.14	50.114
466.49	50.850
466.84	48.775
467.19	49.490
467.54	48.023
467.89	49.089
468.24	49.109
468.59	48.375
468.94	50.000
469.29	49.636
469.64	48.187
469.99	48.000
470.34	49.090
470.68	48.848
471.03	47.955
471.38	47.079
471.73	46.776
472.08	47.766
472.43	47.625
472.78	46.924
473.13	47.296
473.48	47.423
473.83	48.274
474.17	46.745
474.52	47.443
474.87	46.441
475.22	47.826
475.57	46.514
475.92	48.037
476.27	47.086
476.61	46.999
476.96	46.945
477.31	47.249
477.66	46.667
478.01	46.429
478.36	46.594
478.70	46.939
479.05	47.447
479.40	46.490
479.75	46.387
480.10	46.660
480.45	45.463
480.79	45.794
481.14	46.049
481.49	46.473
481.84	45.759
482.19	45.623
482.53	45.429
482.88	46.021
483.23	44.851
483.58	45.558
483.92	44.650
484.27	46.295
484.62	44.474
484.97	45.583
485.31	45.808
485.66	45.589
486.01	47.143
486.36	47.187
486.70	47.740
487.05	47.221
487.40	46.033
487.75	45.679
488.09	44.448
488.44	44.129
488.79	44.550
489.13	43.340
489.48	43.950
489.83	43.948
490.17	44.122
490.52	44.367
490.87	43.069
491.22	44.277
491.56	44.034
491.91	44.215
492.26	44.197
492.60	43.386
492.95	44.412
493.30	43.702
493.64	42.638
493.99	43.865
494.34	43.593
494.68	42.578
495.03	42.935
495.37	43.455
495.72	43.358
496.07	43.643
496.41	42.349
496.76	43.419
497.11	43.052
497.45	42.461
497.80	42.453
498.14	42.620
498.49	41.856
498.84	42.864
499.18	41.961
499.53	42.245
499.87	41.727
500.22	41.911
500.56	42.076
500.91	41.247
501.26	42.315
501.60	41.225
501.95	41.112
502.29	41.942
502.64	41.707
502.98	41.667
503.33	42.092
503.67	41.383
504.02	40.392
504.36	41.209
504.71	40.041
505.06	41.314
505.40	41.753
505.75	41.353
506.09	41.288
506.44	40.575
506.78	40.579
507.13	40.177
507.47	40.509
507.82	39.613
508.16	40.739
508.51	40.496
508.85	39.969
509.19	39.630
509.54	40.804
509.88	39.731
510.23	40.474
510.57	39.301
510.92	39.116
511.26	41.309
511.61	38.913
511.95	39.250
512.30	39.423
512.64	39.501
512.98	38.670
513.33	38.986
513.67	38.898
514.02	38.597
514.36	38.539
514.70	39.203
515.05	38.444
515.39	38.502
515.74	38.780
516.08	38.112
516.42	38.767
516.77	37.786
517.11	38.448
517.46	38.776
517.80	39.770
518.14	38.089
518.49	38.156
518.83	37.888
519.17	38.193
519.52	38.118
519.86	38.798
520.20	36.143
520.55	36.692
520.89	36.749
521.23	38.397
521.58	38.116
521.92	36.769
522.26	37.215
522.61	36.458
522.95	37.047
523.29	36.127
523.64	37.254
523.98	37.421
524.32	36.736
524.66	36.494
525.01	36.435
525.35	36.274
525.69	36.779
526.04	35.831
526.38	36.138
526.72	36.555
527.06	35.654
527.41	36.003
527.75	36.582
528.09	37.509
528.43	36.499
528.78	36.628
529.12	36.223
529.46	35.956
529.80	36.181
530.15	34.813
530.49	36.523
530.83	35.951
531.17	35.548
531.51	35.738
531.86	35.230
532.20	34.666
532.54	35.172
532.88	36.147
533.22	35.690
533.57	35.364
533.91	36.129
534.25	35.026
534.59	35.199
534.93	35.332
535.27	35.350
535.62	35.461
535.96	35.329
536.30	35.638
536.64	33.698
536.98	34.057
537.32	34.093
537.66	34.274
538.01	34.258
538.35	34.738
538.69	34.247
539.03	33.960
539.37	34.876
539.71	33.970
540.05	33.671
540.39	33.586
540.73	33.380
541.07	33.810
541.42	33.401
541.76	33.153
542.10	32.227
542.44	33.957
542.78	33.171
543.12	32.951
543.46	33.379
543.80	33.741
544.14	34.480
544.48	32.979
544.82	33.759
545.16	32.928
545.50	33.423
545.84	33.380
546.18	32.959
546.52	32.957
546.86	32.509
547.20	32.094
547.54	33.667
547.88	33.536
548.22	31.987
548.56	31.888
548.90	33.085
549.24	33.750
549.58	32.313
549.92	33.456
550.26	32.989
550.60	31.832
550.94	31.493
551.28	30.886
551.62	32.030
551.96	31.259
552.30	31.077
552.64	31.921
552.98	32.670
553.32	31.795
553.66	32.208
554.00	32.901
554.34	31.575
554.68	31.022
555.02	30.314
555.36	31.392
555.69	30.808
556.03	31.951
556.37	30.014
556.71	30.834
557.05	31.070
557.39	30.746
557.73	30.711
558.07	30.595
558.41	30.204
558.75	30.639
559.08	29.832
559.42	31.235
559.76	30.505
560.10	31.284
560.44	30.803
560.78	31.583
561.12	31.044
561.45	31.361
561.79	30.124
562.13	31.575
562.47	30.786
562.81	30.159
563.15	30.737
563.48	30.902
563.82	30.096
564.16	30.332
564.50	30.258
564.84	29.595
565.17	30.861
565.51	30.682
565.85	29.447
566.19	30.596
566.52	31.258
566.86	29.140
567.20	30.788
567.54	29.937
567.88	30.403
568.21	30.310
568.55	31.038
568.89	30.758
569.23	31.531
569.56	31.414
569.90	31.327
570.24	30.866
570.57	31.764
570.91	31.891
571.25	31.624
571.59	31.660
571.92	31.446
572.26	31.304
572.60	31.999
572.93	30.959
573.27	31.127
573.61	31.587
573.95	31.571
574.28	32.173
574.62	30.560
574.96	31.004
575.29	31.269
575.63	30.822
575.97	30.978
576.30	31.278
576.64	30.679
576.98	30.802
577.31	31.045
577.65	31.389
577.98	31.430
578.32	31.181
578.66	31.300
578.99	30.775
579.33	30.685
579.67	31.085
580.00	30.460
580.34	30.150
580.67	30.892
581.01	30.550
581.35	31.079
581.68	30.702
582.02	31.099
582.35	31.073
582.69	31.053
583.02	30.036
583.36	30.082
583.70	29.664
584.03	30.386
584.37	29.754
584.70	29.827
585.04	30.023
585.37	30.182
585.71	30.270
586.04	30.201
586.38	30.124
586.72	29.952
587.05	30.034
587.39	29.677
587.72	29.069
588.06	30.233
588.39	29.723
588.73	29.483
589.06	29.260
589.40	28.689
589.73	28.243
590.07	28.691
590.40	29.269
590.73	29.092
591.07	29.210
591.40	28.304
591.74	28.768
592.07	28.982
592.41	28.700
592.74	28.627
593.08	28.410
593.41	29.030
593.75	29.264
594.08	28.843
594.41	29.068
594.75	28.861
595.08	28.940
595.42	28.633
595.75	28.742
596.09	27.906
596.42	28.472
596.75	27.688
597.09	28.116
597.42	28.578
597.75	27.867
598.09	27.914
598.42	28.322
598.76	27.918
599.09	29.092
599.42	28.172
599.76	28.502
600.09	28.351
600.42	28.098
600.76	27.568
601.09	28.249
601.42	27.754
601.76	27.529
602.09	28.375
602.42	28.147
602.76	28.272
603.09	28.214
603.42	27.709
603.76	28.020
604.09	28.103
604.42	27.375
604.76	27.324
605.09	26.869
605.42	28.160
605.75	26.552
606.09	26.904
606.42	27.889
606.75	26.753
607.09	27.394
607.42	26.883
607.75	25.864
608.08	27.367
608.42	26.664
608.75	26.995
609.08	27.144
609.41	26.329
609.75	27.080
610.08	27.515
610.41	26.725
610.74	26.756
611.07	27.004
611.41	26.970
611.74	26.708
612.07	26.159
612.40	26.108
612.73	25.467
613.07	25.942
613.40	26.211
613.73	26.111
614.06	26.313
614.39	25.570
614.72	26.763
615.06	26.444
615.39	26.049
615.72	25.054
616.05	25.169
616.38	25.143
616.71	24.355
617.05	25.246
617.38	24.892
617.71	23.958
618.04	25.350
618.37	25.615
618.70	25.679
619.03	24.811
619.36	24.769
619.69	24.415
620.03	23.746
620.36	25.191
620.69	24.411
621.02	24.538
621.35	23.876
621.68	23.064
622.01	23.786
622.34	23.156
622.67	24.041
623.00	24.468
623.33	24.981
623.66	24.089
623.99	24.381
624.32	24.211
624.65	24.852
624.99	24.835
625.32	24.720
625.65	24.186
625.98	23.539
626.31	24.735
626.64	22.872
626.97	23.702
627.30	23.524
627.63	22.664
627.96	21.818
628.29	23.163
628.62	23.308
628.95	22.144
629.28	22.463
629.61	22.679
629.94	22.050
630.26	24.236
630.59	23.177
630.92	22.892
631.25	21.627
631.58	22.163
631.91	21.739
632.24	21.186
632.57	21.111
632.90	22.287
633.23	20.264
633.56	21.343
633.89	21.053
634.22	23.439
634.55	21.924
634.88	21.691
635.20	22.750
635.53	21.189
635.86	19.872
636.19	22.829
636.52	20.976
636.85	21.592
637.18	20.097
637.51	20.849
637.83	21.802
638.16	20.800
638.49	19.226
638.82	20.915
639.15	22.473
639.48	21.390
639.81	21.944
640.13	21.831
640.46	22.034
640.79	20.288
641.12	18.935
641.45	19.505
641.77	20.029
642.10	20.877
642.43	19.340
642.76	17.035
643.09	17.732
643.41	18.660
643.74	21.325
644.07	18.285
644.40	19.237
644.73	19.492
645.05	16.579
645.38	18.106
645.71	19.218
646.04	18.350
646.36	17.708
646.69	18.531
647.02	21.311
647.35	18.282
647.67	17.006
648.00	19.203
648.33	19.831
648.66	18.865
648.98	19.099
649.31	18.712
649.64	19.092
649.96	21.959
650.29	19.608
650.62	20.428
650.94	20.172
651.27	17.668
651.60	22.203
651.92	19.534
652.25	20.268
652.58	18.977
652.90	18.855
653.23	16.469
653.56	19.339
653.88	16.894
654.21	17.577
654.54	18.272
654.86	19.187
655.19	19.888
655.52	25.210
655.84	26.843
656.17	31.857
656.49	41.726
656.82	40.289
657.15	29.715
657.47	21.666
657.80	15.694
658.13	16.366
658.45	23.785
658.78	23.134
659.10	22.490
659.43	21.919
659.75	21.076
660.08	20.552
660.41	18.458
660.73	19.008
661.06	17.347
661.38	16.279
661.71	15.984
662.03	18.816
662.36	17.478
662.68	19.140
663.01	17.373
663.33	17.927
663.66	14.412
663.98	18.202
664.31	16.484
664.63	15.766
664.96	16.849
665.28	19.313
665.61	15.983
665.93	18.415
666.26	20.253
666.58	15.418
666.91	17.265
667.23	14.977
667.56	18.621
667.88	14.486
668.21	16.071
668.53	14.943
668.86	18.945
669.18	17.021
669.50	18.664
669.83	15.513
670.15	16.667
670.48	17.241
670.80	21.882
671.13	17.620
671.45	18.265
671.77	16.164
672.10	17.349
672.42	16.794
672.75	17.321
673.07	18.000
673.39	18.657
673.72	19.162
674.04	18.648
674.37	15.447
674.69	15.226
675.01	16.239
675.34	15.974
675.66	17.429
675.98	18.142
676.31	16.968
676.63	19.274
676.95	14.824
677.28	16.972
677.60	17.157
677.92	17.738
678.25	19.089
678.57	19.959
678.89	16.631
679.22	17.391
679.54	18.776
679.86	16.797
680.18	18.654
680.51	16.731
680.83	12.476
681.15	18.664
681.48	15.230
681.80	14.724
682.12	17.500
682.44	15.493
682.77	13.895
683.09	14.955
683.41	14.884
683.73	16.295
684.06	15.044
684.38	17.094
684.70	15.479
685.02	16.116
685.34	19.569
685.67	18.949
685.99	19.929
686.31	18.621
686.63	19.485
686.96	16.698
687.28	16.567
687.60	17.202
687.92	18.288
688.24	16.800
688.56	17.763
688.89	16.927
689.21	16.592
689.53	14.189
689.85	17.079
690.17	18.022
690.49	18.116
690.82	15.990
691.14	15.459
691.46	17.633
691.78	17.363
692.10	17.834
692.42	13.626
692.74	17.174
693.06	15.056
693.39	15.691
693.71	16.000
694.03	19.318
694.35	18.694
694.67	16.000
694.99	14.691
695.31	12.661
695.63	19.024
695.95	16.031
696.27	10.685
696.59	12.366
696.91	11.173
697.23	17.513
697.56	17.746
697.88	19.335
698.20	17.279
698.52	15.654
698.84	15.311
699.16	17.730
699.48	16.790
699.80	17.313
700.12	16.086
700.44	13.521
700.76	13.202
701.08	16.918
701.40	15.868
701.72	12.000
702.04	12.893
702.36	14.939
702.68	10.976
703.00	15.789
703.32	15.599
703.64	16.265
703.96	15.249
704.28	17.470
704.60	12.805
704.91	13.166
705.23	16.456
705.55	12.414
705.87	14.085
706.19	8.791
706.51	11.268
706.83	12.420
707.15	14.939
707.47	19.559
707.79	16.751
708.11	15.167
708.43	16.497
708.74	14.096
709.06	15.508
709.38	15.274
709.70	12.312
710.02	16.822
710.34	10.333
710.66	12.704
710.98	13.622
711.29	16.234
711.61	14.194
711.93	12.903
712.25	12.238
712.57	10.175
712.89	9.524
713.20	15.248
713.52	11.679
713.84	14.839
714.16	15.210
714.48	13.608
714.80	13.099
715.11	21.512
715.43	16.770
715.75	19.876
716.07	17.169
716.39	15.488
716.70	16.187
717.02	9.412
717.34	14.773
717.66	11.638
717.97	5.952
718.29	12.992
718.61	5.150
718.93	13.953
719.24	15.498
719.56	11.610
719.88	12.687
720.20	13.043
720.51	14.453
720.83	15.564
721.15	7.724
721.46	10.305
721.78	13.944
722.10	12.351
722.42	14.516
722.73	16.602
723.05	16.735
723.37	13.025
723.68	14.400
724.00	7.660
724.32	10.879
724.63	13.580
724.95	11.111
725.27	17.300
725.58	18.930
725.90	11.297
726.22	14.493
726.53	12.549
726.85	16.788
727.16	11.852
727.48	15.709
727.80	16.406
728.11	13.934
728.43	12.500
728.74	13.889
729.06	10.800
729.38	16.206
729.69	12.811
730.01	13.383
730.32	15.129
730.64	8.333
730.96	16.084
731.27	13.378
731.59	16.825
731.90	12.298
732.22	13.462
732.53	14.527
732.85	12.081
733.16	17.162
733.48	14.189
733.80	10.473
734.11	13.851
734.43	13.313
734.74	15.616
735.06	15.562
735.37	15.502
735.69	13.269
736.00	16.172
736.32	14.184
736.63	17.931
736.95	17.123
737.26	13.103
737.58	13.889
737.89	15.120
738.21	9.964
738.52	13.688
738.83	12.653
739.15	13.502
739.46	12.840
739.78	11.972
740.09	15.068
740.41	12.500
740.72	8.511
741.04	11.600
741.35	11.842
741.66	9.333
741.98	11.538
742.29	14.356
742.61	11.220
742.92	17.105
743.23	5.660
743.55	9.009
743.86	8.520
744.18	12.745
744.49	10.660
744.80	10.714
745.12	13.551
745.43	15.166
745.74	15.766
746.06	12.617
746.37	11.009
746.68	9.135
747.00	14.354
747.31	11.058
747.62	15.596
747.94	17.467
748.25	13.761
748.56	16.444
748.88	9.859
749.19	17.619
749.50	11.650
749.82	12.676
750.13	7.500
750.44	14.231
750.75	12.177
751.07	16.370
751.38	15.603
751.69	14.672
752.01	13.672
752.32	12.308
752.63	13.806
752.94	14.800
753.26	9.623
753.57	8.750
753.88	15.789
754.19	10.359
754.51	9.023
754.82	12.454
755.13	7.391
755.44	15.447
755.75	10.400
756.07	7.380
756.38	13.309
756.69	11.945
757.00	15.576
757.31	12.945
757.63	10.802
757.94	19.209
758.25	14.550
758.56	14.130
758.87	17.262
759.18	16.719
759.50	15.825
759.81	17.057
760.12	15.692
760.43	12.798
760.74	12.712
761.05	16.298
761.36	12.034
761.67	16.012
761.99	12.715
762.30	12.409
762.61	10.700
762.92	19.658
763.23	13.115
763.54	16.883
763.85	13.878
764.16	12.602
764.47	14.000
764.78	12.143
765.10	12.787
765.41	15.502
765.72	13.975
766.03	12.871
766.34	13.462
766.65	9.623
766.96	8.451
767.27	14.356
767.58	1.124
767.89	8.642
768.20	7.182
768.51	18.090
768.82	16.346
769.13	19.469
769.44	20.084
769.75	11.111
770.06	16.143
770.37	9.804
770.68	12.621
770.99	11.165
771.30	14.706
771.61	13.061
771.92	16.183
772.23	16.667
772.54	7.182
772.85	10.465
773.16	14.286
773.47	4.142
773.78	10.345
774.09	8.125
774.39	6.832
774.70	12.245
775.01	2.759
775.32	15.000
775.63	6.767
775.94	9.774
776.25	-1.600
776.56	19.835
776.87	12.698
777.18	2.703
777.48	13.514
777.79	11.024
778.10	0.917
778.41	-2.632
778.72	2.521
779.03	3.521
779.34	7.432
779.65	0.000
779.95	6.623
780.26	12.230
780.57	8.633
780.88	6.338
781.19	2.521
781.50	8.725
781.80	8.772
782.11	4.070
782.42	13.208
782.73	11.765
783.04	4.828
783.34	5.344
783.65	8.054
783.96	17.692
784.27	17.143
784.57	7.092
784.88	-3.846
785.19	15.455
785.50	11.818
785.81	-0.952
786.11	12.605
786.42	15.929
786.73	5.660
787.04	-4.587
787.34	-1.980
787.65	10.833
787.96	3.306
788.26	15.942
788.57	7.937
788.88	6.504
789.19	3.200
789.49	5.344
789.80	17.424
790.11	-2.830
790.41	17.822
790.72	6.383
791.03	8.696
791.33	-2.353
791.64	2.469
791.95	-3.261
792.25	6.818
792.56	-2.564
792.87	-7.692
793.17	-5.128
793.48	11.905
793.79	1.250
794.09	16.346
794.40	10.417
794.70	4.505
795.01	7.813
795.32	10.435
795.62	-4.348
795.93	1.887
796.23	13.131
796.54	-1.220
796.85	7.143
797.15	-12.121
797.46	-2.899
797.76	-9.211
798.07	2.273
798.37	-10.976
798.68	-24.194
798.99	-18.919
799.29	3.614
799.60	6.410
799.90	6.154
800.21	13.636
800.51	-16.000
800.82	-4.000
801.12	-14.583
801.43	-23.333
801.73	-5.405
802.04	7.143
802.34	-13.115
802.65	8.955
802.95	9.091
803.26	1.724
803.56	20.000
803.87	13.208
804.17	-4.839
804.48	5.882
804.78	-46.341
805.09	1.449
805.39	-5.882
805.70	-17.021
806.00	-10.526
806.30	15.385
806.61	3.947
806.91	-6.757
807.22	2.632
807.52	21.591
807.83	-15.254
808.13	-24.242
808.43	-25.000
808.74	-12.069
809.04	-4.762
809.35	-18.367
809.65	-10.000
809.95	-24.490
810.26	1.408
810.56	-12.500
810.86	-16.327
811.17	-3.846
811.47	-19.149
811.77	-18.750
812.08	-18.868
812.38	-59.375
812.69	-12.727
812.99	-14.634
813.29	-29.730
813.59	-27.027
813.90	-3.636
814.20	-9.091
814.50	1.667
814.81	-14.545
815.11	7.018
815.41	9.302
815.72	-20.000
816.02	-17.143
816.32	-13.514
816.62	-8.333
816.93	-6.667
817.23	-20.000
817.53	-19.444
817.84	-18.919
818.14	-29.268
818.44	-18.000
818.74	8.163
819.04	-4.878
819.35	-41.667
819.65	-9.091
819.95	-66.667
820.25	-30.303
820.56	-33.333
820.86	-41.667
821.16	-27.273
821.46	-23.913
821.76	-20.690
822.07	-6.522
822.37	-15.152
822.67	9.756
822.97	18.919
823.27	-42.857
823.57	0.000
823.88	-38.235
824.18	-27.778
824.48	-5.714
824.78	-47.619
825.08	-32.143
825.38	-11.111
825.69	-9.677
825.99	2.439
826.29	-11.111
826.59	-15.625
826.89	-19.355
827.19	-60.870
827.49	-41.667
827.79	-52.174
828.09	-38.710
828.39	-10.417
828.70	-43.750
829.00	-41.379
829.30	-2.703
829.60	-104.167
829.90	-51.852
830.20	-59.375
830.50	9.091
830.80	-123.529
831.10	-68.182
831.40	-47.059
831.70	-50.000
832.00	-21.212
832.30	-5.882
832.60	0.000
832.90	1900.000
833.20	-21.429
833.50	-105.000
833.80	-10.526
834.10	-83.333
834.40	-36.364
834.70	-100.000
835.00	-160.000
835.30	-83.333
835.60	-80.952
835.90	-33.333
836.20	-44.000
836.50	-33.333
836.80	-84.211
837.10	-10.811
837.40	-13.333
837.70	-60.870
838.00	8.333
838.30	-78.947
838.60	-280.000
838.90	-240.000
839.19	-100.000
839.49	-100.000
839.79	-36.842
840.09	-250.000
840.39	-130.000
840.69	-50.000
840.99	0.000
841.29	-33.333
841.59	-123.077
841.88	-46.667
842.18	-57.143
842.48	-10.000
842.78	-300.000
843.08	-135.714
843.38	-12.500
843.68	-68.750
843.97	-50.000
844.27	-222.222
844.57	-200.000
844.87	-40.000
845.17	-22.727
845.47	966.667
845.76	-80.000
846.06	-191.667
846.36	-1350.000
846.66	-84.211
846.96	-86.364
847.25	-55.556
847.55	-111.111
847.85	-52.381
848.15	-92.308
848.44	-366.667
848.74	-125.000
849.04	-84.615
849.34	-625.000
849.63	-163.636
849.93	-171.429
850.23	-25.000
850.53	-150.000
850.82	-61.111
851.12	-33.333
851.42	-82.353
851.71	-112.500
852.01	-23.529
852.31	-100.000
852.61	1050.000
852.90	-47.059
853.20	-100.000
853.50	-18.750
853.79	-171.429
854.09	-325.000
854.39	-45.000
854.68	-20.000
854.98	-47.619
855.28	-32.000
855.57	0.000
855.87	-29.167
856.17	-40.000
856.46	0.000
856.76	-45.000
857.05	-12.000
857.35	-75.000
857.65	-58.824
857.94	-100.000
858.24	-191.667
858.53	0.000
858.83	-136.364
859.13	20.000
859.42	-57.143
859.72	-125.000
860.01	-33.333
860.31	-250.000
860.60	-25.000
860.90	-400.000
861.20	-283.333
861.49	-66.667
861.79	-118.750
862.08	600.000
862.38	-141.667
862.67	500.000
862.97	325.000
863.26	-145.455
863.56	-154.545
863.85	42.105
864.15	-70.588
864.44	-360.000
864.74	-160.000
865.03	-255.556
865.33	7.143
865.62	135.714
865.92	-47.368
866.21	-88.889
866.51	-63.636
866.80	-66.667
867.10	-237.500
867.39	-25.000
867.69	-86.667
867.98	-140.000
868.27	-58.824
868.57	0.000
868.86	800.000
869.16	-275.000
869.45	-242.857
869.75	450.000
870.04	-110.000
870.33	-1500.000
870.63	-42.105
870.92	-83.333
871.22	-1600.000
871.51	-200.000
871.80	-144.444
872.10	-300.000
>>>>>End Processed Spectral Data<<<<<
