SpectraSuite Data File
++++++++++++++++++++++++++++++++++++
Date: Tue May 12 16:50:31 PDT 2015
User: schluterlab
Dark Spectrum Present: Yes
Reference Spectrum Present: Yes
Number of Sampled Component Spectra: 1
Spectrometers: USB2E3373
Integration Time (usec): 3000 (USB2E3373)
Spectra Averaged: 3 (USB2E3373)
Boxcar Smoothing: 0 (USB2E3373)
Correct for Electrical Dark: No (USB2E3373)
Strobe/Lamp Enabled: No (USB2E3373)
Correct for Detector Non-linearity: No (USB2E3373)
Correct for Stray Light: No (USB2E3373)
Number of Pixels in Processed Spectrum: 2048
>>>>>Begin Processed Spectral Data<<<<<
178.53	0.000
178.91	-241.667
179.29	-625.000
179.67	-3300.000
180.04	-140.000
180.42	950.000
180.80	1800.000
181.18	0.000
181.56	-412.500
181.94	0.000
182.31	1266.667
182.69	-2800.000
183.07	457.143
183.45	-4800.000
183.83	-1850.000
184.20	330.000
184.58	542.857
184.96	-238.462
185.34	-216.667
185.72	2100.000
186.09	-775.000
186.47	-2400.000
186.85	1066.667
187.23	520.000
187.61	1950.000
187.98	450.000
188.36	285.714
188.74	308.333
189.12	408.333
189.49	1125.000
189.87	0.000
190.25	550.000
190.63	2300.000
191.00	-200.000
191.38	-2900.000
191.76	-975.000
192.14	625.000
192.51	-3300.000
192.89	2300.000
193.27	1166.667
193.65	-1066.667
194.02	-620.000
194.40	571.429
194.78	-228.571
195.15	306.667
195.53	-4700.000
195.91	-480.000
196.29	3700.000
196.66	293.750
197.04	800.000
197.42	-1600.000
197.79	850.000
198.17	283.333
198.55	0.000
198.92	600.000
199.30	1133.333
199.68	1500.000
200.05	716.667
200.43	-500.000
200.81	233.333
201.18	4200.000
201.56	291.667
201.94	-875.000
202.31	-387.500
202.69	-520.000
203.07	3000.000
203.44	-450.000
203.82	283.333
204.19	640.000
204.57	-1350.000
204.95	-950.000
205.32	-620.000
205.70	583.333
206.08	700.000
206.45	-933.333
206.83	222.222
207.20	252.632
207.58	358.333
207.96	760.000
208.33	0.000
208.71	600.000
209.08	760.000
209.46	-3300.000
209.84	-975.000
210.21	1020.000
210.59	-600.000
210.96	308.333
211.34	-900.000
211.71	481.818
212.09	975.000
212.46	1600.000
212.84	-516.667
213.22	533.333
213.59	-3700.000
213.97	350.000
214.34	900.000
214.72	1000.000
215.09	1266.667
215.47	-2700.000
215.84	-300.000
216.22	-550.000
216.59	0.000
216.97	0.000
217.34	1650.000
217.72	-1400.000
218.09	1200.000
218.47	500.000
218.84	1225.000
219.22	1366.667
219.59	733.333
219.97	600.000
220.34	422.222
220.72	1900.000
221.09	3600.000
221.47	233.333
221.84	1166.667
222.22	390.000
222.59	250.000
222.97	242.857
223.34	243.750
223.72	-1550.000
224.09	1400.000
224.46	269.231
224.84	-1075.000
225.21	400.000
225.59	260.000
225.96	1433.333
226.34	-640.000
226.71	-625.000
227.08	-600.000
227.46	0.000
227.83	-550.000
228.21	-2100.000
228.58	383.333
228.95	1025.000
229.33	466.667
229.70	1000.000
230.08	353.846
230.45	3400.000
230.82	-900.000
231.20	-1200.000
231.57	-1066.667
231.95	640.000
232.32	366.667
232.69	783.333
233.07	258.333
233.44	-1650.000
233.81	260.000
234.19	185.185
234.56	237.500
234.93	270.588
235.31	210.000
235.68	337.500
236.05	192.857
236.43	129.630
236.80	278.571
237.17	193.103
237.55	137.500
237.92	150.000
238.29	142.424
238.67	118.750
239.04	143.902
239.41	114.583
239.79	137.500
240.16	110.417
240.53	88.525
240.91	102.899
241.28	91.525
241.65	98.485
242.02	98.592
242.40	102.857
242.77	80.220
243.14	79.747
243.51	86.869
243.89	78.505
244.26	72.897
244.63	82.178
245.00	83.486
245.38	79.661
245.75	68.182
246.12	81.481
246.49	70.213
246.87	65.574
247.24	73.333
247.61	71.875
247.98	74.150
248.36	68.485
248.73	65.306
249.10	65.476
249.47	60.500
249.84	64.179
250.22	65.946
250.59	62.500
250.96	59.916
251.33	64.651
251.70	66.071
252.08	57.143
252.45	52.590
252.82	55.894
253.19	55.731
253.56	61.923
253.94	55.797
254.31	62.791
254.68	57.840
255.05	58.276
255.42	57.664
255.79	57.980
256.16	57.627
256.54	59.416
256.91	56.209
257.28	54.515
257.65	53.605
258.02	57.522
258.39	51.576
258.76	56.522
259.14	53.429
259.51	55.394
259.88	56.535
260.25	52.198
260.62	52.329
260.99	51.240
261.36	54.039
261.73	51.862
262.10	56.283
262.47	52.500
262.85	54.933
263.22	54.756
263.59	50.639
263.96	49.373
264.33	50.864
264.70	53.808
265.07	52.683
265.44	52.064
265.81	54.245
266.18	53.089
266.55	49.645
266.92	50.783
267.29	51.974
267.66	51.794
268.03	50.224
268.40	50.529
268.77	53.524
269.14	49.241
269.51	52.561
269.88	51.429
270.25	47.300
270.62	54.506
270.99	51.927
271.36	48.984
271.73	49.266
272.10	49.899
272.47	48.611
272.84	48.104
273.21	46.901
273.58	51.619
273.95	49.897
274.32	52.724
274.69	53.937
275.06	52.277
275.43	49.425
275.80	47.170
276.17	47.794
276.54	50.280
276.91	49.254
277.28	47.810
277.65	47.048
278.02	50.551
278.39	48.561
278.76	48.966
279.13	47.509
279.50	48.909
279.87	47.858
280.23	47.514
280.60	52.007
280.97	50.517
281.34	49.340
281.71	46.087
282.08	47.692
282.45	48.480
282.82	48.495
283.19	46.105
283.56	47.769
283.92	48.534
284.29	47.754
284.66	45.210
285.03	49.585
285.40	46.612
285.77	43.827
286.14	47.833
286.51	45.859
286.87	44.146
287.24	44.745
287.61	44.529
287.98	45.672
288.35	44.741
288.72	44.765
289.08	44.444
289.45	43.445
289.82	46.406
290.19	44.949
290.56	44.978
290.93	42.014
291.29	43.094
291.66	43.362
292.03	44.180
292.40	41.734
292.77	42.061
293.13	43.224
293.50	43.860
293.87	40.786
294.24	43.776
294.60	42.665
294.97	42.517
295.34	42.629
295.71	43.233
296.08	41.867
296.44	42.567
296.81	42.184
297.18	41.952
297.55	43.596
297.91	39.655
298.28	42.150
298.65	41.963
299.02	41.737
299.38	43.046
299.75	42.439
300.12	40.940
300.48	42.740
300.85	43.862
301.22	42.093
301.59	41.981
301.95	42.474
302.32	44.354
302.69	42.760
303.05	44.893
303.42	40.583
303.79	43.120
304.15	43.124
304.52	42.283
304.89	45.522
305.25	43.826
305.62	43.497
305.99	44.022
306.35	44.421
306.72	45.057
307.09	45.859
307.45	44.562
307.82	44.239
308.19	46.082
308.55	45.700
308.92	45.829
309.29	45.858
309.65	45.887
310.02	46.450
310.38	44.865
310.75	47.252
311.12	44.540
311.48	47.587
311.85	47.042
312.22	47.469
312.58	45.481
312.95	48.252
313.31	47.940
313.68	47.936
314.05	48.443
314.41	48.324
314.78	48.769
315.14	50.237
315.51	50.331
315.87	48.814
316.24	50.140
316.61	48.344
316.97	50.275
317.34	51.662
317.70	51.273
318.07	52.758
318.43	51.494
318.80	52.364
319.16	54.808
319.53	51.947
319.89	52.688
320.26	53.911
320.62	53.571
320.99	55.100
321.35	55.009
321.72	56.641
322.08	56.510
322.45	56.676
322.81	58.097
323.18	57.904
323.54	58.101
323.91	60.018
324.27	60.035
324.64	58.045
325.00	60.517
325.37	61.130
325.73	59.275
326.10	61.723
326.46	62.263
326.83	61.840
327.19	62.490
327.56	62.141
327.92	65.410
328.29	63.502
328.65	65.068
329.01	64.585
329.38	65.651
329.74	64.475
330.11	66.551
330.47	66.581
330.84	63.762
331.20	65.736
331.56	65.889
331.93	66.382
332.29	64.626
332.66	67.857
333.02	65.378
333.38	67.539
333.75	65.972
334.11	65.604
334.48	66.068
334.84	65.878
335.20	66.382
335.57	66.919
335.93	66.611
336.29	64.511
336.66	68.439
337.02	64.927
337.38	64.918
337.75	66.807
338.11	66.076
338.47	66.130
338.84	65.538
339.20	65.887
339.56	65.938
339.93	66.890
340.29	64.874
340.65	65.968
341.02	66.291
341.38	65.681
341.74	66.113
342.11	66.194
342.47	66.448
342.83	67.760
343.20	66.532
343.56	65.131
343.92	67.465
344.28	66.826
344.65	66.993
345.01	65.159
345.37	66.346
345.73	65.952
346.10	65.578
346.46	66.986
346.82	64.815
347.19	67.311
347.55	65.730
347.91	64.199
348.27	64.833
348.63	66.060
349.00	65.880
349.36	67.393
349.72	66.972
350.08	67.314
350.45	66.413
350.81	65.979
351.17	65.177
351.53	66.513
351.89	66.589
352.26	66.213
352.62	65.535
352.98	65.337
353.34	67.720
353.70	64.526
354.07	65.692
354.43	66.283
354.79	65.072
355.15	66.922
355.51	65.785
355.87	66.717
356.24	67.283
356.60	66.286
356.96	66.111
357.32	67.295
357.68	66.446
358.04	67.021
358.40	66.342
358.77	67.468
359.13	65.991
359.49	65.678
359.85	67.610
360.21	66.122
360.57	67.664
360.93	66.811
361.29	68.038
361.66	67.487
362.02	66.832
362.38	67.244
362.74	67.870
363.10	67.602
363.46	66.298
363.82	67.111
364.18	69.772
364.54	68.741
364.90	66.667
365.26	69.743
365.62	67.127
365.98	66.621
366.35	67.379
366.71	68.286
367.07	67.440
367.43	66.823
367.79	67.088
368.15	66.486
368.51	67.815
368.87	68.682
369.23	68.607
369.59	66.622
369.95	68.252
370.31	65.845
370.67	67.800
371.03	67.017
371.39	69.737
371.75	68.248
372.11	68.321
372.47	68.151
372.83	68.865
373.19	68.677
373.55	68.797
373.91	68.163
374.27	67.262
374.63	68.407
374.99	68.868
375.35	69.556
375.71	68.206
376.07	68.369
376.42	66.880
376.78	69.878
377.14	69.659
377.50	68.727
377.86	68.866
378.22	68.129
378.58	68.826
378.94	69.342
379.30	69.375
379.66	68.754
380.02	68.856
380.38	68.911
380.74	69.031
381.09	68.049
381.45	68.844
381.81	68.794
382.17	68.926
382.53	68.446
382.89	69.249
383.25	69.153
383.61	67.723
383.97	67.247
384.32	68.957
384.68	69.994
385.04	68.288
385.40	68.505
385.76	67.349
386.12	68.646
386.48	69.848
386.83	69.254
387.19	68.492
387.55	68.433
387.91	68.822
388.27	69.244
388.62	67.547
388.98	67.755
389.34	66.984
389.70	67.925
390.06	68.720
390.42	66.564
390.77	68.796
391.13	69.040
391.49	67.151
391.85	67.877
392.20	67.819
392.56	67.324
392.92	67.322
393.28	67.657
393.64	67.317
393.99	66.509
394.35	66.451
394.71	65.621
395.07	68.005
395.42	67.740
395.78	69.648
396.14	66.747
396.50	67.690
396.85	68.171
397.21	67.088
397.57	67.424
397.92	66.724
398.28	68.064
398.64	66.899
399.00	65.366
399.35	67.901
399.71	66.667
400.07	66.667
400.42	66.388
400.78	65.982
401.14	66.765
401.49	65.035
401.85	65.353
402.21	64.616
402.57	67.923
402.92	67.333
403.28	65.692
403.63	64.097
403.99	65.742
404.35	65.592
404.70	67.454
405.06	65.300
405.42	65.051
405.77	64.057
406.13	63.720
406.49	64.923
406.84	64.805
407.20	65.753
407.55	65.846
407.91	65.858
408.27	65.130
408.62	65.523
408.98	64.459
409.34	64.933
409.69	64.966
410.05	64.222
410.40	64.134
410.76	64.339
411.11	63.922
411.47	63.827
411.83	63.152
412.18	63.829
412.54	64.505
412.89	62.950
413.25	64.481
413.60	63.376
413.96	64.871
414.31	63.695
414.67	65.177
415.03	64.432
415.38	64.353
415.74	64.119
416.09	64.710
416.45	63.866
416.80	66.325
417.16	63.463
417.51	62.930
417.87	63.955
418.22	63.305
418.58	64.331
418.93	63.712
419.29	64.695
419.64	63.416
420.00	64.081
420.35	63.473
420.71	64.177
421.06	64.744
421.42	63.961
421.77	63.354
422.12	65.160
422.48	63.431
422.83	65.123
423.19	64.363
423.54	64.070
423.90	64.949
424.25	64.722
424.61	65.467
424.96	64.257
425.31	64.806
425.67	66.162
426.02	65.115
426.38	64.119
426.73	65.298
427.09	65.480
427.44	65.898
427.79	65.981
428.15	68.120
428.50	66.857
428.85	65.315
429.21	64.614
429.56	65.952
429.92	66.335
430.27	66.231
430.62	64.219
430.98	65.768
431.33	65.575
431.68	65.432
432.04	66.011
432.39	65.532
432.74	66.569
433.10	66.168
433.45	67.030
433.80	67.678
434.16	66.264
434.51	65.789
434.86	67.447
435.22	66.559
435.57	67.338
435.92	66.989
436.28	67.915
436.63	67.261
436.98	67.962
437.34	68.265
437.69	67.021
438.04	68.333
438.39	67.484
438.75	67.817
439.10	68.538
439.45	66.591
439.81	67.843
440.16	68.299
440.51	68.018
440.86	68.319
441.22	68.074
441.57	68.241
441.92	67.670
442.27	68.814
442.63	69.411
442.98	66.110
443.33	68.720
443.68	68.008
444.03	67.295
444.39	68.550
444.74	68.375
445.09	69.300
445.44	68.863
445.79	69.055
446.15	68.000
446.50	68.724
446.85	69.223
447.20	68.905
447.55	69.984
447.91	70.538
448.26	70.075
448.61	71.144
448.96	70.752
449.31	69.637
449.66	70.875
450.02	68.720
450.37	71.849
450.72	71.129
451.07	69.634
451.42	69.472
451.77	70.561
452.12	70.788
452.47	70.778
452.83	71.042
453.18	70.871
453.53	71.699
453.88	71.371
454.23	70.192
454.58	69.988
454.93	69.467
455.28	71.236
455.63	70.863
455.98	70.276
456.34	71.733
456.69	71.585
457.04	71.062
457.39	70.743
457.74	70.383
458.09	70.578
458.44	70.646
458.79	70.822
459.14	72.013
459.49	70.838
459.84	71.522
460.19	70.508
460.54	71.567
460.89	71.642
461.24	68.786
461.59	71.145
461.94	70.686
462.29	70.995
462.64	71.043
462.99	72.233
463.34	71.679
463.69	71.567
464.04	71.503
464.39	70.464
464.74	69.461
465.09	71.619
465.44	71.055
465.79	71.094
466.14	69.422
466.49	70.863
466.84	70.346
467.19	70.240
467.54	70.390
467.89	70.246
468.24	71.048
468.59	70.952
468.94	69.263
469.29	70.006
469.64	70.161
469.99	72.558
470.34	71.284
470.68	72.276
471.03	71.514
471.38	70.397
471.73	70.738
472.08	73.320
472.43	71.819
472.78	71.831
473.13	69.274
473.48	69.682
473.83	71.437
474.17	70.456
474.52	71.209
474.87	69.756
475.22	71.388
475.57	69.570
475.92	70.465
476.27	69.478
476.61	69.705
476.96	70.272
477.31	71.671
477.66	72.142
478.01	69.469
478.36	70.237
478.70	68.983
479.05	70.554
479.40	69.742
479.75	70.506
480.10	71.104
480.45	70.682
480.79	70.138
481.14	70.994
481.49	68.115
481.84	69.481
482.19	71.048
482.53	69.873
482.88	69.086
483.23	69.102
483.58	69.838
483.92	71.344
484.27	69.007
484.62	69.992
484.97	69.303
485.31	69.027
485.66	69.267
486.01	68.415
486.36	67.547
486.70	66.924
487.05	67.127
487.40	67.877
487.75	67.687
488.09	67.841
488.44	67.814
488.79	67.893
489.13	69.317
489.48	69.277
489.83	68.724
490.17	66.598
490.52	69.552
490.87	68.060
491.22	69.991
491.56	69.170
491.91	68.414
492.26	68.686
492.60	70.114
492.95	69.280
493.30	68.289
493.64	69.721
493.99	68.426
494.34	68.086
494.68	68.570
495.03	68.702
495.37	69.878
495.72	69.138
496.07	68.913
496.41	68.853
496.76	68.510
497.11	67.995
497.45	68.172
497.80	68.906
498.14	69.117
498.49	68.477
498.84	68.505
499.18	67.962
499.53	68.764
499.87	68.598
500.22	69.415
500.56	68.292
500.91	69.666
501.26	68.902
501.60	68.625
501.95	67.832
502.29	67.556
502.64	67.887
502.98	67.986
503.33	68.641
503.67	67.550
504.02	67.577
504.36	67.557
504.71	68.921
505.06	68.325
505.40	67.665
505.75	67.587
506.09	68.502
506.44	68.139
506.78	69.045
507.13	68.589
507.47	67.686
507.82	68.662
508.16	69.378
508.51	68.744
508.85	68.139
509.19	69.163
509.54	68.164
509.88	69.120
510.23	68.578
510.57	67.230
510.92	68.082
511.26	68.725
511.61	66.716
511.95	67.098
512.30	66.700
512.64	69.107
512.98	66.632
513.33	66.957
513.67	68.928
514.02	68.519
514.36	67.705
514.70	67.360
515.05	67.874
515.39	69.298
515.74	69.601
516.08	68.246
516.42	70.328
516.77	66.773
517.11	67.787
517.46	67.619
517.80	67.504
518.14	67.718
518.49	66.814
518.83	67.088
519.17	68.386
519.52	68.706
519.86	67.302
520.20	67.233
520.55	66.930
520.89	68.391
521.23	70.327
521.58	66.954
521.92	67.755
522.26	66.765
522.61	69.756
522.95	68.889
523.29	67.076
523.64	66.936
523.98	66.843
524.32	68.281
524.66	68.348
525.01	68.047
525.35	67.354
525.69	68.212
526.04	66.449
526.38	68.393
526.72	67.184
527.06	66.410
527.41	68.440
527.75	67.012
528.09	66.285
528.43	67.114
528.78	67.084
529.12	69.356
529.46	66.628
529.80	64.836
530.15	67.001
530.49	65.343
530.83	67.032
531.17	67.712
531.51	66.953
531.86	65.700
532.20	66.007
532.54	66.353
532.88	66.583
533.22	65.692
533.57	68.456
533.91	65.967
534.25	64.282
534.59	66.608
534.93	65.245
535.27	65.054
535.62	65.636
535.96	65.366
536.30	66.849
536.64	65.155
536.98	65.324
537.32	66.000
537.66	65.242
538.01	65.263
538.35	65.315
538.69	64.320
539.03	64.366
539.37	64.867
539.71	66.358
540.05	63.938
540.39	65.849
540.73	65.443
541.07	65.621
541.42	65.299
541.76	65.906
542.10	64.427
542.44	65.274
542.78	65.513
543.12	64.417
543.46	64.474
543.80	65.163
544.14	64.087
544.48	64.964
544.82	64.526
545.16	63.570
545.50	64.413
545.84	65.215
546.18	65.280
546.52	66.164
546.86	65.828
547.20	64.664
547.54	64.598
547.88	64.294
548.22	64.967
548.56	63.524
548.90	62.100
549.24	65.888
549.58	63.982
549.92	63.720
550.26	65.044
550.60	64.870
550.94	65.604
551.28	65.241
551.62	64.966
551.96	64.527
552.30	64.140
552.64	64.595
552.98	64.626
553.32	63.828
553.66	64.235
554.00	63.192
554.34	65.579
554.68	64.315
555.02	64.902
555.36	63.697
555.69	63.940
556.03	63.503
556.37	63.990
556.71	65.450
557.05	62.844
557.39	63.800
557.73	63.544
558.07	64.453
558.41	64.633
558.75	64.295
559.08	65.332
559.42	63.422
559.76	64.932
560.10	64.831
560.44	62.376
560.78	63.939
561.12	63.255
561.45	62.891
561.79	64.482
562.13	62.666
562.47	63.725
562.81	63.240
563.15	61.603
563.48	61.988
563.82	64.067
564.16	64.055
564.50	61.965
564.84	62.796
565.17	61.081
565.51	63.732
565.85	64.528
566.19	63.631
566.52	62.756
566.86	62.814
567.20	62.584
567.54	62.773
567.88	64.580
568.21	61.608
568.55	61.819
568.89	59.945
569.23	60.828
569.56	62.620
569.90	60.295
570.24	61.635
570.57	60.967
570.91	60.374
571.25	60.617
571.59	60.745
571.92	58.638
572.26	58.976
572.60	59.206
572.93	60.926
573.27	59.908
573.61	59.394
573.95	59.512
574.28	60.034
574.62	59.711
574.96	58.590
575.29	58.456
575.63	58.115
575.97	58.715
576.30	58.517
576.64	59.864
576.98	58.765
577.31	59.619
577.65	59.350
577.98	58.976
578.32	58.119
578.66	58.476
578.99	58.506
579.33	58.908
579.67	58.597
580.00	58.519
580.34	59.142
580.67	57.338
581.01	59.601
581.35	58.776
581.68	58.083
582.02	58.419
582.35	58.558
582.69	59.063
583.02	59.324
583.36	59.080
583.70	59.119
584.03	59.781
584.37	59.692
584.70	58.398
585.04	58.863
585.37	58.115
585.71	60.045
586.04	59.191
586.38	59.062
586.72	58.842
587.05	59.110
587.39	59.646
587.72	59.356
588.06	59.126
588.39	60.031
588.73	58.785
589.06	60.082
589.40	58.998
589.73	58.899
590.07	60.776
590.40	60.070
590.73	60.705
591.07	59.886
591.40	59.920
591.74	59.456
592.07	59.443
592.41	59.512
592.74	59.246
593.08	58.268
593.41	58.618
593.75	58.214
594.08	59.008
594.41	58.879
594.75	58.699
595.08	59.294
595.42	58.822
595.75	58.407
596.09	59.715
596.42	59.614
596.75	60.417
597.09	58.935
597.42	58.612
597.75	58.418
598.09	58.761
598.42	59.160
598.76	57.826
599.09	58.588
599.42	58.339
599.76	58.650
600.09	57.559
600.42	58.391
600.76	58.260
601.09	58.612
601.42	57.867
601.76	58.181
602.09	58.168
602.42	58.152
602.76	57.647
603.09	58.937
603.42	59.083
603.76	58.749
604.09	58.885
604.42	58.343
604.76	58.159
605.09	58.531
605.42	57.863
605.75	58.310
606.09	58.378
606.42	57.046
606.75	59.269
607.09	58.705
607.42	59.020
607.75	58.002
608.08	58.327
608.42	58.473
608.75	58.365
609.08	58.425
609.41	59.000
609.75	60.073
610.08	59.173
610.41	58.366
610.74	57.706
611.07	58.845
611.41	58.758
611.74	58.413
612.07	57.996
612.40	58.821
612.73	59.960
613.07	59.453
613.40	59.799
613.73	58.462
614.06	56.500
614.39	58.990
614.72	57.258
615.06	57.962
615.39	56.931
615.72	56.776
616.05	58.162
616.38	56.520
616.71	57.352
617.05	57.716
617.38	57.135
617.71	59.336
618.04	57.992
618.37	56.921
618.70	58.661
619.03	58.242
619.36	59.799
619.69	57.982
620.03	60.535
620.36	59.088
620.69	60.409
621.02	59.307
621.35	56.948
621.68	58.186
622.01	59.705
622.34	59.650
622.67	60.674
623.00	57.250
623.33	58.907
623.66	59.015
623.99	60.000
624.32	58.740
624.65	57.933
624.99	59.364
625.32	59.519
625.65	57.862
625.98	56.416
626.31	58.902
626.64	57.403
626.97	57.536
627.30	58.696
627.63	57.457
627.96	59.468
628.29	58.828
628.62	58.169
628.95	59.220
629.28	59.772
629.61	59.666
629.94	60.242
630.26	58.319
630.59	59.752
630.92	58.296
631.25	59.474
631.58	61.138
631.91	59.372
632.24	57.920
632.57	58.251
632.90	60.559
633.23	62.434
633.56	59.536
633.89	58.521
634.22	58.881
634.55	59.032
634.88	60.022
635.20	59.641
635.53	61.324
635.86	58.949
636.19	58.810
636.52	58.054
636.85	58.684
637.18	60.022
637.51	58.771
637.83	57.780
638.16	60.375
638.49	59.042
638.82	57.864
639.15	58.637
639.48	59.834
639.81	59.829
640.13	58.405
640.46	57.649
640.79	59.428
641.12	58.924
641.45	59.508
641.77	60.238
642.10	59.973
642.43	62.589
642.76	60.937
643.09	59.366
643.41	58.065
643.74	60.863
644.07	62.242
644.40	60.503
644.73	61.712
645.05	59.287
645.38	60.796
645.71	61.457
646.04	62.901
646.36	61.659
646.69	61.120
647.02	61.760
647.35	60.000
647.67	61.588
648.00	60.586
648.33	60.150
648.66	59.242
648.98	59.130
649.31	57.220
649.64	56.570
649.96	60.882
650.29	58.571
650.62	58.027
650.94	58.886
651.27	63.158
651.60	58.842
651.92	58.218
652.25	62.835
652.58	58.723
652.90	59.431
653.23	61.891
653.56	59.050
653.88	56.388
654.21	58.798
654.54	57.394
654.86	57.965
655.19	56.860
655.52	51.959
655.84	48.535
656.17	56.980
656.49	81.704
656.82	92.302
657.15	74.124
657.47	55.573
657.80	41.275
658.13	32.496
658.45	43.738
658.78	52.514
659.10	53.193
659.43	53.455
659.75	55.127
660.08	55.576
660.41	55.989
660.73	58.720
661.06	60.060
661.38	61.329
661.71	57.374
662.03	59.886
662.36	59.048
662.68	56.052
663.01	59.459
663.33	55.660
663.66	58.974
663.98	59.921
664.31	58.955
664.63	58.812
664.96	60.225
665.28	55.179
665.61	59.434
665.93	60.000
666.26	58.505
666.58	57.064
666.91	60.618
667.23	60.241
667.56	60.575
667.88	63.071
668.21	59.221
668.53	59.476
668.86	59.118
669.18	59.674
669.50	56.818
669.83	57.700
670.15	63.202
670.48	55.664
670.80	59.163
671.13	59.562
671.45	58.918
671.77	55.844
672.10	57.630
672.42	55.428
672.75	58.703
673.07	57.870
673.39	54.473
673.72	57.958
674.04	54.839
674.37	56.261
674.69	57.063
675.01	57.463
675.34	57.752
675.66	58.008
675.98	56.607
676.31	58.800
676.63	56.262
676.95	59.524
677.28	55.781
677.60	57.344
677.92	54.762
678.25	59.884
678.57	54.935
678.89	57.143
679.22	58.824
679.54	56.050
679.86	55.672
680.18	57.293
680.51	54.892
680.83	53.885
681.15	55.633
681.48	57.118
681.80	53.765
682.12	55.363
682.44	53.514
682.77	54.982
683.09	55.340
683.41	58.163
683.73	55.709
684.06	58.333
684.38	58.333
684.70	56.475
685.02	53.472
685.34	57.042
685.67	55.949
685.99	55.993
686.31	54.854
686.63	53.496
686.96	55.065
687.28	51.342
687.60	54.437
687.92	53.266
688.24	56.897
688.56	54.270
688.89	56.979
689.21	52.601
689.53	53.360
689.85	55.894
690.17	56.311
690.49	55.847
690.82	53.992
691.14	57.778
691.46	57.495
691.78	55.361
692.10	56.679
692.42	55.717
692.74	55.233
693.06	55.620
693.39	53.557
693.71	53.635
694.03	55.227
694.35	54.618
694.67	54.379
694.99	54.324
695.31	56.757
695.63	57.014
695.95	55.430
696.27	57.301
696.59	57.757
696.91	55.949
697.23	53.846
697.56	54.772
697.88	52.096
698.20	54.151
698.52	50.778
698.84	53.388
699.16	55.864
699.48	55.720
699.80	56.645
700.12	53.580
700.44	57.009
700.76	55.131
701.08	57.441
701.40	55.065
701.72	59.893
702.04	59.621
702.36	61.022
702.68	59.840
703.00	55.890
703.32	57.320
703.64	57.179
703.96	54.167
704.28	56.614
704.60	58.028
704.91	58.543
705.23	56.818
705.55	61.424
705.87	60.635
706.19	60.815
706.51	60.188
706.83	55.457
707.15	55.882
707.47	58.354
707.79	53.793
708.11	52.381
708.43	52.809
708.74	52.036
709.06	54.186
709.38	56.576
709.70	54.223
710.02	57.337
710.34	51.934
710.66	57.778
710.98	57.650
711.29	52.646
711.61	56.267
711.93	58.663
712.25	56.627
712.57	56.913
712.89	56.364
713.20	56.230
713.52	56.698
713.84	57.402
714.16	51.884
714.48	53.890
714.80	54.201
715.11	53.457
715.43	52.514
715.75	58.310
716.07	55.491
716.39	53.714
716.70	57.944
717.02	59.933
717.34	61.871
717.66	60.069
717.97	67.424
718.29	58.451
718.61	52.703
718.93	58.131
719.24	58.725
719.56	53.448
719.88	55.414
720.20	56.129
720.51	55.229
720.83	57.191
721.15	54.762
721.46	58.219
721.78	58.537
722.10	63.194
722.42	60.201
722.73	57.040
723.05	58.947
723.37	63.604
723.68	58.594
724.00	56.818
724.32	60.076
724.63	59.231
724.95	56.471
725.27	59.480
725.58	54.412
725.90	51.056
726.22	55.137
726.53	58.528
726.85	58.958
727.16	59.060
727.48	55.482
727.80	59.353
728.11	60.357
728.43	57.971
728.74	55.944
729.06	55.914
729.38	55.439
729.69	59.000
730.01	58.553
730.32	55.705
730.64	60.133
730.96	51.652
731.27	49.847
731.59	50.862
731.90	50.418
732.22	52.286
732.53	52.991
732.85	56.725
733.16	50.904
733.48	55.486
733.80	52.754
734.11	60.429
734.43	54.971
734.74	51.475
735.06	54.233
735.37	51.289
735.69	56.812
736.00	55.046
736.32	53.636
736.63	51.104
736.95	54.658
737.26	53.963
737.58	53.681
737.89	56.024
738.21	55.629
738.52	55.184
738.83	58.974
739.15	54.704
739.46	53.448
739.78	55.442
740.09	53.644
740.41	51.227
740.72	57.460
741.04	59.091
741.35	58.203
741.66	56.917
741.98	55.365
742.29	59.722
742.61	57.965
742.92	59.322
743.23	56.800
743.55	52.453
743.86	53.725
744.18	59.746
744.49	54.132
744.80	60.829
745.12	58.482
745.43	61.682
745.74	57.333
746.06	54.825
746.37	66.977
746.68	65.929
747.00	61.435
747.31	58.403
747.62	52.459
747.94	60.086
748.25	59.533
748.56	62.288
748.88	57.143
749.19	55.814
749.50	58.904
749.82	57.202
750.13	55.731
750.44	52.333
750.75	57.047
751.07	57.895
751.38	57.426
751.69	50.505
752.01	55.944
752.32	54.153
752.63	55.705
752.94	54.545
753.26	59.766
753.57	55.253
753.88	54.682
754.19	56.318
754.51	54.485
754.82	50.671
755.13	49.324
755.44	58.889
755.75	52.577
756.07	57.192
756.38	52.288
756.69	50.000
757.00	52.226
757.31	49.859
757.63	48.485
757.94	49.734
758.25	51.208
758.56	47.826
758.87	51.880
759.18	52.326
759.50	52.280
759.81	51.335
760.12	51.966
760.43	55.182
760.74	51.392
761.05	51.989
761.36	50.260
761.67	53.100
761.99	53.521
762.30	51.447
762.61	50.347
762.92	54.167
763.23	54.340
763.54	55.385
763.85	55.642
764.16	51.736
764.47	50.338
764.78	52.117
765.10	48.476
765.41	50.852
765.72	49.448
766.03	51.360
766.34	57.143
766.65	55.513
766.96	57.490
767.27	59.813
767.58	59.406
767.89	61.878
768.20	65.854
768.51	53.061
768.82	55.263
769.13	48.627
769.44	54.887
769.75	52.809
770.06	59.244
770.37	53.509
770.68	53.333
770.99	52.119
771.30	53.556
771.61	59.231
771.92	50.382
772.23	51.613
772.54	57.778
772.85	59.406
773.16	64.674
773.47	56.667
773.78	56.931
774.09	61.364
774.39	61.818
774.70	57.647
775.01	63.816
775.32	61.491
775.63	67.123
775.94	72.840
776.25	72.414
776.56	65.649
776.87	70.229
777.18	67.424
777.48	67.717
777.79	67.692
778.10	59.848
778.41	62.687
778.72	66.917
779.03	53.205
779.34	61.486
779.65	65.217
779.95	61.491
780.26	60.714
780.57	67.347
780.88	60.993
781.19	72.500
781.50	61.538
781.80	56.831
782.11	60.847
782.42	61.494
782.73	61.017
783.04	71.613
783.34	58.915
783.65	60.544
783.96	60.645
784.27	63.576
784.57	57.237
784.88	59.420
785.19	65.000
785.50	74.138
785.81	66.667
786.11	57.037
786.42	66.142
786.73	68.468
787.04	69.811
787.34	60.163
787.65	69.697
787.96	65.152
788.26	64.567
788.57	70.803
788.88	64.789
789.19	65.649
789.49	64.189
789.80	64.844
790.11	59.504
790.41	74.074
790.72	72.222
791.03	75.962
791.33	71.717
791.64	84.211
791.95	62.105
792.25	81.250
792.56	74.000
792.87	89.024
793.17	73.864
793.48	74.118
793.79	88.506
794.09	72.727
794.40	72.414
794.70	65.873
795.01	62.308
795.32	67.176
795.62	62.393
795.93	69.748
796.23	73.171
796.54	78.571
796.85	76.136
797.15	93.506
797.46	81.707
797.76	73.750
798.07	90.667
798.37	83.750
798.68	82.500
798.99	76.829
799.29	80.000
799.60	66.279
799.90	86.842
800.21	84.848
800.51	84.507
800.82	112.069
801.12	107.692
801.43	96.000
801.73	113.793
802.04	77.922
802.34	87.671
802.65	121.569
802.95	113.043
803.26	117.742
803.56	108.333
803.87	80.597
804.17	101.587
804.48	109.434
804.78	81.944
805.09	109.091
805.39	90.476
805.70	101.754
806.00	90.000
806.30	100.000
806.61	68.235
806.91	84.444
807.22	73.913
807.52	90.789
807.83	93.421
808.13	89.855
808.43	103.226
808.74	100.000
809.04	96.429
809.35	94.118
809.65	90.909
809.95	107.843
810.26	124.074
810.56	92.188
810.86	102.041
811.17	110.526
811.47	106.522
811.77	100.000
812.08	98.276
812.38	111.905
812.69	111.905
812.99	106.667
813.29	128.571
813.59	164.516
813.90	77.586
814.20	98.361
814.50	102.000
814.81	96.491
815.11	109.259
815.41	83.929
815.72	114.286
816.02	108.000
816.32	146.341
816.62	113.793
816.93	148.485
817.23	112.195
817.53	105.357
817.84	106.667
818.14	88.095
818.44	127.083
818.74	92.453
819.04	128.205
819.35	136.364
819.65	123.077
819.95	120.370
820.25	123.404
820.56	164.865
820.86	107.895
821.16	108.511
821.46	134.211
821.76	114.545
822.07	102.381
822.37	134.211
822.67	151.163
822.97	102.632
823.27	117.391
823.57	131.250
823.88	151.282
824.18	118.182
824.48	178.261
824.78	138.889
825.08	173.913
825.38	158.621
825.69	117.647
825.99	140.426
826.29	116.667
826.59	137.143
826.89	163.333
827.19	108.571
827.49	164.516
827.79	200.000
828.09	83.333
828.39	119.444
828.70	86.486
829.00	210.714
829.30	231.250
829.60	138.889
829.90	164.516
830.20	115.152
830.50	132.432
830.80	175.000
831.10	211.538
831.40	180.952
831.70	225.000
832.00	143.333
832.30	204.348
832.60	170.833
832.90	157.576
833.20	275.000
833.50	144.737
833.80	111.765
834.10	115.789
834.40	200.000
834.70	126.667
835.00	168.000
835.30	108.108
835.60	196.875
835.90	143.243
836.20	203.846
836.50	204.545
836.80	102.439
837.10	191.304
837.40	330.769
837.70	200.000
838.00	123.333
838.30	162.500
838.60	168.000
838.90	390.000
839.19	193.750
839.49	143.333
839.79	144.828
840.09	157.692
840.39	253.333
840.69	284.211
840.99	152.381
841.29	191.304
841.59	205.000
841.88	192.000
842.18	400.000
842.48	160.714
842.78	159.259
843.08	269.231
843.38	177.273
843.68	200.000
843.97	414.286
844.27	130.435
844.57	2050.000
844.87	292.857
845.17	288.889
845.47	152.381
845.76	187.500
846.06	542.857
846.36	229.412
846.66	292.308
846.96	300.000
847.25	238.462
847.55	200.000
847.85	200.000
848.15	600.000
848.44	354.545
848.74	200.000
849.04	212.500
849.34	188.235
849.63	243.750
849.93	168.750
850.23	1033.333
850.53	512.500
850.82	354.545
851.12	241.176
851.42	187.500
851.71	231.250
852.01	0.000
852.31	194.118
852.61	520.000
852.90	125.000
853.20	377.778
853.50	-2900.000
853.79	140.000
854.09	159.375
854.39	141.379
854.68	182.759
854.98	209.524
855.28	161.290
855.57	285.714
855.87	244.444
856.17	151.852
856.46	210.526
856.76	129.032
857.05	282.353
857.35	354.545
857.65	284.615
857.94	215.000
858.24	444.444
858.53	342.857
858.83	585.714
859.13	213.043
859.42	366.667
859.72	462.500
860.01	291.667
860.31	950.000
860.60	450.000
860.90	400.000
861.20	284.615
861.49	414.286
861.79	-3400.000
862.08	585.714
862.38	455.556
862.67	200.000
862.97	340.000
863.26	170.000
863.56	1375.000
863.85	338.462
864.15	282.353
864.44	261.111
864.74	408.333
865.03	345.455
865.33	400.000
865.62	240.000
865.92	716.667
866.21	800.000
866.51	760.000
866.80	222.222
867.10	1000.000
867.39	4100.000
867.69	740.000
867.98	950.000
868.27	185.714
868.57	286.667
868.86	1000.000
869.16	171.429
869.45	2900.000
869.75	-500.000
870.04	925.000
870.33	740.000
870.63	450.000
870.92	170.588
871.22	900.000
871.51	628.571
871.80	358.333
872.10	353.846
>>>>>End Processed Spectral Data<<<<<
