SpectraSuite Data File
++++++++++++++++++++++++++++++++++++
Date: Tue May 12 16:11:38 PDT 2015
User: schluterlab
Dark Spectrum Present: Yes
Reference Spectrum Present: Yes
Number of Sampled Component Spectra: 1
Spectrometers: USB2E3373
Integration Time (usec): 3000 (USB2E3373)
Spectra Averaged: 3 (USB2E3373)
Boxcar Smoothing: 0 (USB2E3373)
Correct for Electrical Dark: No (USB2E3373)
Strobe/Lamp Enabled: No (USB2E3373)
Correct for Detector Non-linearity: No (USB2E3373)
Correct for Stray Light: No (USB2E3373)
Number of Pixels in Processed Spectrum: 2048
>>>>>Begin Processed Spectral Data<<<<<
178.53	0.000
178.91	-158.333
179.29	-975.000
179.67	-4200.000
180.04	-146.667
180.42	925.000
180.80	2050.000
181.18	0.000
181.56	-387.500
181.94	0.000
182.31	1566.667
182.69	-3800.000
183.07	671.429
183.45	-3500.000
183.83	-1850.000
184.20	470.000
184.58	542.857
184.96	-284.615
185.34	-283.333
185.72	2450.000
186.09	-875.000
186.47	-3700.000
186.85	1100.000
187.23	680.000
187.61	1900.000
187.98	525.000
188.36	250.000
188.74	325.000
189.12	408.333
189.49	1075.000
189.87	0.000
190.25	550.000
190.63	2800.000
191.00	-250.000
191.38	-4500.000
191.76	-825.000
192.14	637.500
192.51	-4000.000
192.89	2100.000
193.27	900.000
193.65	-1166.667
194.02	-700.000
194.40	642.857
194.78	-242.857
195.15	320.000
195.53	-2500.000
195.91	-740.000
196.29	4700.000
196.66	300.000
197.04	1100.000
197.42	-1800.000
197.79	725.000
198.17	366.667
198.55	0.000
198.92	585.714
199.30	933.333
199.68	1800.000
200.05	650.000
200.43	-566.667
200.81	266.667
201.18	3600.000
201.56	366.667
201.94	-975.000
202.31	-325.000
202.69	-720.000
203.07	3800.000
203.44	-400.000
203.82	391.667
204.19	740.000
204.57	-1650.000
204.95	-875.000
205.32	-720.000
205.70	716.667
206.08	925.000
206.45	-833.333
206.83	477.778
207.20	221.053
207.58	366.667
207.96	760.000
208.33	0.000
208.71	642.857
209.08	760.000
209.46	-3200.000
209.84	-750.000
210.21	920.000
210.59	-420.000
210.96	416.667
211.34	-825.000
211.71	363.636
212.09	1000.000
212.46	2050.000
212.84	-416.667
213.22	511.111
213.59	-3100.000
213.97	450.000
214.34	1000.000
214.72	1566.667
215.09	900.000
215.47	-4300.000
215.84	-440.000
216.22	-337.500
216.59	0.000
216.97	0.000
217.34	1850.000
217.72	-1650.000
218.09	1100.000
218.47	512.500
218.84	950.000
219.22	1400.000
219.59	900.000
219.97	557.143
220.34	455.556
220.72	1800.000
221.09	3500.000
221.47	266.667
221.84	1466.667
222.22	320.000
222.59	255.556
222.97	228.571
223.34	262.500
223.72	-1450.000
224.09	1166.667
224.46	269.231
224.84	-750.000
225.21	400.000
225.59	280.000
225.96	1466.667
226.34	-820.000
226.71	-675.000
227.08	-740.000
227.46	0.000
227.83	-716.667
228.21	-1750.000
228.58	375.000
228.95	1175.000
229.33	433.333
229.70	1100.000
230.08	384.615
230.45	3300.000
230.82	-1050.000
231.20	-800.000
231.57	-933.333
231.95	940.000
232.32	408.333
232.69	550.000
233.07	341.667
233.44	-1750.000
233.81	326.667
234.19	174.074
234.56	250.000
234.93	200.000
235.31	270.000
235.68	368.750
236.05	167.857
236.43	148.148
236.80	200.000
237.17	148.276
237.55	143.750
237.92	142.500
238.29	133.333
238.67	159.375
239.04	131.707
239.41	91.667
239.79	100.000
240.16	72.917
240.53	75.410
240.91	73.913
241.28	83.051
241.65	81.818
242.02	100.000
242.40	75.714
242.77	67.033
243.14	56.962
243.51	67.677
243.89	50.467
244.26	47.664
244.63	57.426
245.00	49.541
245.38	44.068
245.75	57.576
246.12	55.556
246.49	43.972
246.87	53.279
247.24	56.667
247.61	50.000
247.98	53.061
248.36	44.848
248.73	50.000
249.10	44.048
249.47	40.500
249.84	42.786
250.22	44.865
250.59	37.000
250.96	40.928
251.33	41.860
251.70	39.732
252.08	37.395
252.45	38.247
252.82	37.643
253.19	38.340
253.56	38.462
253.94	35.870
254.31	37.984
254.68	36.934
255.05	41.034
255.42	36.861
255.79	35.831
256.16	35.932
256.54	40.584
256.91	37.255
257.28	33.779
257.65	32.915
258.02	35.398
258.39	35.244
258.76	33.333
259.14	35.429
259.51	38.776
259.88	36.170
260.25	32.143
260.62	34.247
260.99	34.160
261.36	35.655
261.73	35.106
262.10	34.031
262.47	34.000
262.85	33.067
263.22	33.933
263.59	32.992
263.96	35.589
264.33	32.840
264.70	35.627
265.07	34.634
265.44	34.633
265.81	30.189
266.18	34.325
266.55	31.442
266.92	32.438
267.29	32.456
267.66	32.511
268.03	31.839
268.40	32.135
268.77	34.141
269.14	30.803
269.51	31.403
269.88	33.469
270.25	31.533
270.62	33.906
270.99	34.077
271.36	32.317
271.73	31.027
272.10	32.121
272.47	29.960
272.84	31.936
273.21	31.198
273.58	34.211
273.95	30.801
274.32	32.490
274.69	32.283
275.06	32.787
275.43	32.759
275.80	31.698
276.17	30.331
276.54	33.084
276.91	33.209
277.28	30.292
277.65	32.288
278.02	30.699
278.39	31.475
278.76	31.724
279.13	29.181
279.50	30.909
279.87	28.678
280.23	31.860
280.60	30.657
280.97	30.690
281.34	31.023
281.71	31.130
282.08	30.598
282.45	29.561
282.82	31.438
283.19	29.889
283.56	30.744
283.92	30.945
284.29	27.787
284.66	29.412
285.03	30.348
285.40	29.917
285.77	27.623
286.14	28.328
286.51	31.135
286.87	28.323
287.24	25.526
287.61	27.508
287.98	30.149
288.35	29.926
288.72	27.769
289.08	28.228
289.45	28.506
289.82	31.406
290.19	27.672
290.56	28.384
290.93	28.201
291.29	28.867
291.66	27.542
292.03	26.508
292.40	26.694
292.77	25.766
293.13	27.247
293.50	25.236
293.87	25.610
294.24	27.972
294.60	25.572
294.97	28.392
295.34	26.428
295.71	26.413
296.08	25.867
296.44	27.192
296.81	24.938
297.18	25.982
297.55	26.847
297.91	24.015
298.28	25.483
298.65	25.644
299.02	25.814
299.38	26.259
299.75	24.512
300.12	25.229
300.48	26.347
300.85	26.222
301.22	26.279
301.59	25.825
301.95	26.138
302.32	27.474
302.69	27.602
303.05	25.814
303.42	25.785
303.79	26.869
304.15	26.183
304.52	26.216
304.89	25.800
305.25	28.699
305.62	27.186
305.99	25.435
306.35	26.211
306.72	26.847
307.09	27.950
307.45	26.610
307.82	26.543
308.19	25.567
308.55	27.200
308.92	27.674
309.29	29.191
309.65	28.048
310.02	27.789
310.38	27.218
310.75	27.097
311.12	27.682
311.48	29.440
311.85	27.576
312.22	30.277
312.58	29.252
312.95	28.932
313.31	29.494
313.68	29.174
314.05	31.136
314.41	28.492
314.78	29.545
315.14	31.185
315.51	32.167
315.87	30.018
316.24	29.972
316.61	31.065
316.97	30.734
317.34	32.435
317.70	31.607
318.07	32.740
318.43	32.162
318.80	31.961
319.16	33.916
319.53	33.186
319.89	32.348
320.26	35.289
320.62	33.791
320.99	34.032
321.35	35.065
321.72	35.579
322.08	33.887
322.45	35.332
322.81	35.224
323.18	36.412
323.54	37.108
323.91	37.715
324.27	36.074
324.64	36.851
325.00	36.207
325.37	35.919
325.73	35.245
326.10	37.200
326.46	37.655
326.83	36.160
327.19	37.992
327.56	37.620
327.92	38.934
328.29	38.134
328.65	38.955
329.01	39.435
329.38	39.509
329.74	38.429
330.11	38.923
330.47	38.960
330.84	37.705
331.20	37.733
331.56	39.292
331.93	39.521
332.29	37.500
332.66	37.925
333.02	37.113
333.38	38.394
333.75	38.198
334.11	39.010
334.48	39.060
334.84	37.416
335.20	37.725
335.57	36.776
335.93	37.595
336.29	38.723
336.66	38.336
337.02	37.382
337.38	38.263
337.75	37.838
338.11	36.709
338.47	37.934
338.84	37.257
339.20	37.229
339.56	37.342
339.93	38.043
340.29	37.143
340.65	36.966
341.02	37.892
341.38	37.192
341.74	39.037
342.11	37.479
342.47	37.736
342.83	37.818
343.20	37.753
343.56	35.425
343.92	38.150
344.28	37.081
344.65	37.571
345.01	37.222
345.37	37.340
345.73	37.619
346.10	37.131
346.46	36.364
346.82	36.883
347.19	37.249
347.55	36.534
347.91	36.934
348.27	36.251
348.63	37.896
349.00	37.167
349.36	36.887
349.72	37.538
350.08	37.966
350.45	37.852
350.81	37.462
351.17	36.133
351.53	36.336
351.89	36.441
352.26	37.037
352.62	37.104
352.98	37.577
353.34	38.444
353.70	36.468
354.07	36.692
354.43	37.327
354.79	37.130
355.15	38.361
355.51	36.782
355.87	36.898
356.24	38.260
356.60	35.540
356.96	36.240
357.32	37.076
357.68	37.959
358.04	37.994
358.40	36.732
358.77	38.017
359.13	37.838
359.49	37.139
359.85	36.709
360.21	36.256
360.57	37.153
360.93	36.436
361.29	37.662
361.66	37.658
362.02	36.364
362.38	37.807
362.74	37.580
363.10	38.079
363.46	36.050
363.82	36.816
364.18	38.193
364.54	36.767
364.90	37.550
365.26	37.543
365.62	37.638
365.98	36.407
366.35	37.724
366.71	37.335
367.07	37.816
367.43	37.676
367.79	36.170
368.15	36.296
368.51	38.181
368.87	37.636
369.23	37.769
369.59	36.480
369.95	37.413
370.31	36.961
370.67	37.058
371.03	38.445
371.39	37.812
371.75	37.474
372.11	38.001
372.47	37.123
372.83	38.069
373.19	38.382
373.55	38.351
373.91	37.224
374.27	37.302
374.63	37.763
374.99	38.949
375.35	38.306
375.71	38.654
376.07	38.594
376.42	36.701
376.78	39.114
377.14	37.090
377.50	38.951
377.86	37.668
378.22	38.147
378.58	38.136
378.94	37.960
379.30	38.144
379.66	37.628
380.02	38.416
380.38	38.173
380.74	39.043
381.09	38.201
381.45	37.861
381.81	38.534
382.17	38.095
382.53	37.672
382.89	39.267
383.25	38.425
383.61	37.522
383.97	37.972
384.32	38.939
384.68	39.037
385.04	39.332
385.40	39.146
385.76	37.741
386.12	39.703
386.48	39.939
386.83	39.425
387.19	40.165
387.55	38.516
387.91	39.145
388.27	39.084
388.62	37.969
388.98	38.542
389.34	37.597
389.70	38.443
390.06	39.756
390.42	38.927
390.77	38.329
391.13	38.805
391.49	39.383
391.85	40.062
392.20	39.273
392.56	38.829
392.92	37.732
393.28	38.733
393.64	38.131
393.99	38.945
394.35	38.081
394.71	37.636
395.07	38.990
395.42	39.286
395.78	40.037
396.14	40.000
396.50	38.568
396.85	38.354
397.21	38.989
397.57	38.374
397.92	38.186
398.28	38.279
398.64	39.209
399.00	37.680
399.35	37.896
399.71	38.411
400.07	39.212
400.42	38.627
400.78	38.358
401.14	38.755
401.49	38.998
401.85	38.644
402.21	37.493
402.57	38.420
402.92	38.909
403.28	38.544
403.63	38.258
403.99	38.118
404.35	39.039
404.70	38.689
405.06	37.788
405.42	38.300
405.77	38.534
406.13	37.744
406.49	37.692
406.84	37.451
407.20	38.128
407.55	39.262
407.91	38.928
408.27	39.297
408.62	38.084
408.98	38.498
409.34	36.996
409.69	38.146
410.05	38.044
410.40	37.102
410.76	37.550
411.11	37.382
411.47	36.358
411.83	37.141
412.18	38.466
412.54	37.898
412.89	36.814
413.25	37.058
413.60	37.558
413.96	38.659
414.31	38.312
414.67	38.299
415.03	37.739
415.38	38.486
415.74	38.345
416.09	38.663
416.45	39.431
416.80	38.614
417.16	37.874
417.51	38.025
417.87	37.860
418.22	38.153
418.58	39.427
418.93	38.132
419.29	36.229
419.64	37.008
420.00	39.439
420.35	38.269
420.71	38.915
421.06	37.964
421.42	37.766
421.77	38.812
422.12	39.085
422.48	38.007
422.83	37.835
423.19	38.391
423.54	38.508
423.90	38.222
424.25	38.745
424.61	38.828
424.96	38.566
425.31	38.150
425.67	39.394
426.02	38.979
426.38	38.740
426.73	39.503
427.09	39.502
427.44	39.055
427.79	39.680
428.15	40.012
428.50	39.771
428.85	39.212
429.21	38.952
429.56	39.232
429.92	39.582
430.27	39.623
430.62	38.913
430.98	38.772
431.33	37.802
431.68	38.914
432.04	39.628
432.39	38.694
432.74	40.105
433.10	39.646
433.45	40.092
433.80	40.375
434.16	39.937
434.51	40.093
434.86	39.630
435.22	40.032
435.57	40.190
435.92	42.231
436.28	40.668
436.63	41.221
436.98	40.766
437.34	41.610
437.69	40.258
438.04	40.914
438.39	39.813
438.75	40.535
439.10	40.907
439.45	40.362
439.81	40.659
440.16	41.112
440.51	40.146
440.86	41.823
441.22	40.097
441.57	42.047
441.92	40.918
442.27	40.361
442.63	40.955
442.98	40.948
443.33	41.028
443.68	41.751
444.03	41.093
444.39	41.431
444.74	41.408
445.09	42.075
445.44	41.445
445.79	41.472
446.15	41.000
446.50	42.089
446.85	41.235
447.20	41.343
447.55	41.871
447.91	41.822
448.26	41.693
448.61	41.902
448.96	42.102
449.31	42.354
449.66	43.189
450.02	41.923
450.37	42.699
450.72	42.369
451.07	42.292
451.42	42.916
451.77	42.784
452.12	43.052
452.47	43.378
452.83	42.930
453.18	42.643
453.53	42.747
453.88	42.514
454.23	42.882
454.58	43.298
454.93	41.570
455.28	42.901
455.63	43.085
455.98	42.470
456.34	44.620
456.69	43.293
457.04	42.184
457.39	41.657
457.74	43.581
458.09	42.167
458.44	41.621
458.79	42.122
459.14	42.062
459.49	42.809
459.84	43.315
460.19	43.220
460.54	43.248
460.89	42.431
461.24	42.383
461.59	42.914
461.94	41.667
462.29	41.762
462.64	42.776
462.99	43.378
463.34	43.163
463.69	42.952
464.04	43.754
464.39	42.530
464.74	41.911
465.09	43.819
465.44	42.873
465.79	42.243
466.14	41.706
466.49	42.594
466.84	42.586
467.19	43.527
467.54	42.763
467.89	42.254
468.24	43.023
468.59	43.155
468.94	44.565
469.29	43.677
469.64	44.116
469.99	43.380
470.34	43.643
470.68	43.931
471.03	43.629
471.38	43.311
471.73	44.089
472.08	44.684
472.43	43.886
472.78	43.918
473.13	42.053
473.48	43.704
473.83	41.991
474.17	43.708
474.52	42.476
474.87	42.865
475.22	42.890
475.57	42.235
475.92	42.105
476.27	41.730
476.61	42.091
476.96	42.059
477.31	43.188
477.66	43.908
478.01	42.445
478.36	42.585
478.70	42.432
479.05	42.887
479.40	41.567
479.75	43.247
480.10	42.546
480.45	42.484
480.79	42.581
481.14	41.322
481.49	41.857
481.84	41.381
482.19	42.489
482.53	41.502
482.88	42.070
483.23	41.362
483.58	41.966
483.92	42.413
484.27	41.182
484.62	42.105
484.97	41.800
485.31	41.263
485.66	40.432
486.01	39.825
486.36	39.661
486.70	38.550
487.05	38.680
487.40	38.984
487.75	39.186
488.09	40.000
488.44	39.898
488.79	40.541
489.13	40.799
489.48	41.830
489.83	41.118
490.17	40.421
490.52	41.817
490.87	40.690
491.22	42.199
491.56	42.776
491.91	41.084
492.26	40.757
492.60	41.595
492.95	41.051
493.30	41.356
493.64	42.588
493.99	41.011
494.34	40.654
494.68	41.301
495.03	41.221
495.37	41.198
495.72	41.399
496.07	41.375
496.41	40.443
496.76	41.072
497.11	42.502
497.45	41.736
497.80	42.493
498.14	41.470
498.49	40.994
498.84	42.570
499.18	40.951
499.53	41.295
499.87	40.970
500.22	42.008
500.56	40.901
500.91	42.532
501.26	41.479
501.60	39.709
501.95	40.771
502.29	41.467
502.64	40.626
502.98	39.973
503.33	41.381
503.67	40.662
504.02	40.439
504.36	40.769
504.71	41.722
505.06	40.450
505.40	41.273
505.75	41.300
506.09	41.577
506.44	41.353
506.78	41.446
507.13	41.638
507.47	40.757
507.82	41.995
508.16	42.675
508.51	41.208
508.85	40.361
509.19	41.703
509.54	41.309
509.88	40.825
510.23	40.441
510.57	40.444
510.92	40.859
511.26	41.667
511.61	41.014
511.95	40.368
512.30	40.900
512.64	40.862
512.98	41.978
513.33	40.471
513.67	40.549
514.02	41.247
514.36	41.589
514.70	41.600
515.05	40.330
515.39	42.215
515.74	40.951
516.08	41.068
516.42	42.295
516.77	42.347
517.11	41.013
517.46	41.218
517.80	41.070
518.14	41.296
518.49	40.463
518.83	40.440
519.17	40.544
519.52	41.344
519.86	40.654
520.20	41.315
520.55	40.588
520.89	41.149
521.23	42.465
521.58	40.849
521.92	41.341
522.26	41.291
522.61	41.949
522.95	41.562
523.29	42.164
523.64	40.867
523.98	41.197
524.32	39.908
524.66	40.116
525.01	40.888
525.35	41.131
525.69	41.662
526.04	40.988
526.38	40.789
526.72	41.826
527.06	40.627
527.41	41.415
527.75	41.753
528.09	39.856
528.43	41.672
528.78	41.682
529.12	41.662
529.46	40.444
529.80	39.895
530.15	39.835
530.49	40.433
530.83	40.402
531.17	40.590
531.51	40.221
531.86	40.278
532.20	39.617
532.54	40.113
532.88	40.974
533.22	39.915
533.57	40.513
533.91	39.860
534.25	39.296
534.59	40.058
534.93	38.567
535.27	37.678
535.62	39.382
535.96	39.539
536.30	40.280
536.64	38.385
536.98	39.899
537.32	40.188
537.66	39.796
538.01	39.628
538.35	39.988
538.69	38.471
539.03	38.060
539.37	37.803
539.71	39.877
540.05	39.385
540.39	39.686
540.73	38.608
541.07	38.519
541.42	38.433
541.76	38.286
542.10	39.026
542.44	38.716
542.78	38.829
543.12	36.994
543.46	37.281
543.80	39.035
544.14	38.390
544.48	38.139
544.82	37.920
545.16	37.037
545.50	38.353
545.84	39.205
546.18	39.142
546.52	38.426
546.86	38.814
547.20	38.114
547.54	38.315
547.88	38.017
548.22	37.523
548.56	37.655
548.90	36.655
549.24	37.903
549.58	37.178
549.92	37.656
550.26	39.486
550.60	38.723
550.94	37.788
551.28	39.103
551.62	40.276
551.96	37.838
552.30	37.838
552.64	37.735
552.98	36.727
553.32	37.580
553.66	37.915
554.00	35.521
554.34	38.549
554.68	37.634
555.02	37.678
555.36	36.835
555.69	37.369
556.03	36.815
556.37	36.902
556.71	38.462
557.05	36.239
557.39	36.800
557.73	37.736
558.07	36.687
558.41	38.177
558.75	38.167
559.08	39.028
559.42	37.795
559.76	37.990
560.10	37.990
560.44	36.762
560.78	37.596
561.12	37.254
561.45	36.671
561.79	37.141
562.13	36.071
562.47	36.405
562.81	37.476
563.15	35.617
563.48	35.590
563.82	36.931
564.16	36.505
564.50	35.744
564.84	34.954
565.17	35.235
565.51	37.315
565.85	35.904
566.19	35.357
566.52	36.221
566.86	36.427
567.20	35.506
567.54	34.225
567.88	35.263
568.21	34.348
568.55	34.095
568.89	33.805
569.23	33.779
569.56	34.265
569.90	33.238
570.24	32.436
570.57	32.122
570.91	32.168
571.25	31.346
571.59	31.500
571.92	30.920
572.26	30.889
572.60	30.797
572.93	31.944
573.27	31.763
573.61	31.077
573.95	31.125
574.28	30.926
574.62	30.438
574.96	30.154
575.29	30.337
575.63	30.554
575.97	30.015
576.30	30.018
576.64	30.163
576.98	30.114
577.31	30.728
577.65	30.300
577.98	29.979
578.32	29.472
578.66	29.666
578.99	29.956
579.33	29.477
579.67	29.402
580.00	29.672
580.34	29.303
580.67	29.776
581.01	29.756
581.35	29.835
581.68	29.096
582.02	29.443
582.35	29.078
582.69	29.427
583.02	29.490
583.36	29.509
583.70	29.813
584.03	30.400
584.37	29.859
584.70	29.435
585.04	29.408
585.37	29.103
585.71	29.753
586.04	29.482
586.38	29.495
586.72	29.215
587.05	29.722
587.39	29.709
587.72	29.519
588.06	29.128
588.39	29.606
588.73	29.828
589.06	30.347
589.40	30.235
589.73	30.121
590.07	30.542
590.40	31.045
590.73	31.840
591.07	31.044
591.40	30.778
591.74	31.088
592.07	30.491
592.41	30.815
592.74	30.245
593.08	29.167
593.41	29.743
593.75	29.312
594.08	30.120
594.41	28.902
594.75	29.760
595.08	30.007
595.42	30.283
595.75	30.076
596.09	29.684
596.42	28.878
596.75	30.889
597.09	31.036
597.42	30.245
597.75	30.264
598.09	29.462
598.42	29.376
598.76	29.954
599.09	30.048
599.42	29.135
599.76	29.953
600.09	29.017
600.42	29.006
600.76	28.790
601.09	28.788
601.42	29.497
601.76	29.753
602.09	29.838
602.42	28.170
602.76	29.602
603.09	29.902
603.42	30.092
603.76	29.573
604.09	29.750
604.42	29.454
604.76	29.593
605.09	29.837
605.42	29.703
605.75	28.859
606.09	29.725
606.42	29.012
606.75	28.605
607.09	29.056
607.42	28.526
607.75	29.021
608.08	29.123
608.42	29.572
608.75	28.798
609.08	29.740
609.41	28.909
609.75	30.632
610.08	29.901
610.41	29.161
610.74	29.307
611.07	30.014
611.41	29.425
611.74	30.019
612.07	29.721
612.40	29.873
612.73	31.053
613.07	29.498
613.40	30.326
613.73	29.855
614.06	29.800
614.39	30.909
614.72	28.880
615.06	28.684
615.39	29.406
615.72	29.235
616.05	30.035
616.38	29.224
616.71	28.812
617.05	29.654
617.38	29.101
617.71	30.484
618.04	28.996
618.37	29.628
618.70	28.984
619.03	29.304
619.36	31.281
619.69	30.541
620.03	30.398
620.36	31.150
620.69	30.587
621.02	30.910
621.35	30.802
621.68	31.932
622.01	31.956
622.34	31.391
622.67	31.180
623.00	30.633
623.33	30.634
623.66	30.739
623.99	31.096
624.32	30.827
624.65	29.625
624.99	30.629
625.32	30.795
625.65	29.586
625.98	29.289
626.31	31.825
626.64	30.448
626.97	30.834
627.30	31.910
627.63	31.083
627.96	30.360
628.29	31.766
628.62	30.624
628.95	32.358
629.28	33.479
629.61	31.283
629.94	32.411
630.26	31.889
630.59	32.801
630.92	32.287
631.25	32.638
631.58	34.330
631.91	32.636
632.24	32.167
632.57	31.532
632.90	33.540
633.23	33.893
633.56	32.982
633.89	33.655
634.22	33.692
634.55	33.548
634.88	34.611
635.20	33.969
635.53	33.566
635.86	32.550
636.19	32.884
636.52	31.027
636.85	32.147
637.18	33.369
637.51	33.408
637.83	32.037
638.16	32.825
638.49	33.533
638.82	34.272
639.15	33.608
639.48	34.360
639.81	33.089
640.13	34.233
640.46	34.893
640.79	34.330
641.12	32.940
641.45	34.799
641.77	33.950
642.10	34.806
642.43	34.282
642.76	34.943
643.09	35.303
643.41	34.923
643.74	33.813
644.07	34.956
644.40	32.988
644.73	36.637
645.05	36.107
645.38	37.825
645.71	36.419
646.04	36.031
646.36	35.681
646.69	36.320
647.02	36.800
647.35	33.858
647.67	34.846
648.00	36.319
648.33	36.090
648.66	35.152
648.98	34.203
649.31	32.254
649.64	32.365
649.96	32.575
650.29	32.714
650.62	35.493
650.94	33.584
651.27	36.204
651.60	36.307
651.92	33.333
652.25	35.118
652.58	32.624
652.90	33.533
653.23	31.167
653.56	33.828
653.88	33.333
654.21	34.018
654.54	32.943
654.86	33.038
655.19	32.982
655.52	28.705
655.84	21.337
656.17	24.272
656.49	34.776
656.82	40.855
657.15	33.350
657.47	24.813
657.80	18.061
658.13	14.055
658.45	19.290
658.78	23.219
659.10	23.905
659.43	24.424
659.75	25.942
660.08	27.945
660.41	30.399
660.73	33.501
661.06	34.835
661.38	35.094
661.71	33.273
662.03	33.840
662.36	36.000
662.68	36.313
663.01	34.054
663.33	33.962
663.66	36.095
663.98	36.508
664.31	35.075
664.63	36.398
664.96	34.334
665.28	32.768
665.61	36.604
665.93	33.396
666.26	35.888
666.58	34.312
666.91	37.838
667.23	35.542
667.56	36.961
667.88	35.685
668.21	37.705
668.53	36.492
668.86	36.473
669.18	36.864
669.50	36.364
669.83	37.988
670.15	34.511
670.48	34.766
670.80	36.653
671.13	38.645
671.45	35.671
671.77	36.735
672.10	34.470
672.42	31.250
672.75	32.753
673.07	32.273
673.39	30.351
673.72	32.007
674.04	35.484
674.37	33.031
674.69	34.572
675.01	35.634
675.34	31.589
675.66	32.812
675.98	33.728
676.31	35.400
676.63	35.189
676.95	34.127
677.28	36.714
677.60	36.620
677.92	33.730
678.25	36.047
678.57	36.313
678.89	34.177
679.22	32.721
679.54	33.630
679.86	33.333
680.18	32.337
680.51	29.187
680.83	28.885
681.15	32.582
681.48	32.118
681.80	33.800
682.12	32.699
682.44	31.892
682.77	33.096
683.09	34.951
683.41	35.306
683.73	34.055
684.06	32.937
684.38	36.434
684.70	32.734
685.02	30.035
685.34	33.979
685.67	33.119
685.99	32.184
686.31	29.738
686.63	32.033
686.96	31.699
687.28	29.866
687.60	30.887
687.92	31.826
688.24	31.897
688.56	31.673
688.89	30.784
689.21	34.104
689.53	33.399
689.85	33.333
690.17	32.816
690.49	35.484
690.82	34.244
691.14	31.919
691.46	33.470
691.78	35.088
692.10	31.298
692.42	33.575
692.74	33.527
693.06	32.171
693.39	32.806
693.71	32.417
694.03	34.122
694.35	36.747
694.67	31.161
694.99	35.255
695.31	35.811
695.63	33.710
695.95	33.484
696.27	36.504
696.59	35.561
696.91	35.190
697.23	35.068
697.56	31.743
697.88	29.741
698.20	31.509
698.52	32.879
698.84	31.417
699.16	34.542
699.48	34.534
699.80	34.205
700.12	38.106
700.44	33.411
700.76	36.516
701.08	36.815
701.40	34.545
701.72	37.968
702.04	34.959
702.36	37.366
702.68	36.436
703.00	31.579
703.32	33.499
703.64	35.264
703.96	32.812
704.28	37.037
704.60	35.211
704.91	35.574
705.23	36.932
705.55	36.202
705.87	34.921
706.19	40.125
706.51	38.558
706.83	39.233
707.15	36.898
707.47	32.446
707.79	31.034
708.11	33.560
708.43	33.034
708.74	32.353
709.06	32.093
709.38	34.243
709.70	29.973
710.02	33.967
710.34	34.530
710.66	38.611
710.98	36.885
711.29	35.655
711.61	37.326
711.93	36.170
712.25	34.337
712.57	37.942
712.89	35.758
713.20	40.575
713.52	35.202
713.84	35.952
714.16	32.464
714.48	33.141
714.80	34.146
715.11	34.309
715.43	32.402
715.75	34.366
716.07	35.838
716.39	37.429
716.70	36.760
717.02	40.404
717.34	38.129
717.66	38.889
717.97	44.318
718.29	39.437
718.61	37.838
718.93	37.716
719.24	41.611
719.56	36.552
719.88	33.121
720.20	34.839
720.51	34.641
720.83	35.117
721.15	37.075
721.46	35.959
721.78	38.328
722.10	39.583
722.42	38.127
722.73	35.740
723.05	37.544
723.37	40.636
723.68	39.844
724.00	40.152
724.32	38.403
724.63	34.231
724.95	43.529
725.27	38.290
725.58	37.868
725.90	33.803
726.22	34.589
726.53	32.776
726.85	37.785
727.16	35.570
727.48	35.880
727.80	41.007
728.11	40.357
728.43	34.058
728.74	40.909
729.06	33.692
729.38	39.649
729.69	37.000
730.01	38.158
730.32	36.913
730.64	38.206
730.96	31.832
731.27	32.722
731.59	31.322
731.90	33.148
732.22	31.714
732.53	29.060
732.85	35.673
733.16	35.542
733.48	36.677
733.80	34.493
734.11	35.583
734.43	35.673
734.74	32.708
735.06	33.862
735.37	33.247
735.69	31.014
736.00	34.862
736.32	30.000
736.63	33.438
736.95	32.609
737.26	35.061
737.58	34.969
737.89	33.133
738.21	37.417
738.52	35.452
738.83	38.828
739.15	38.328
739.46	35.862
739.78	39.116
740.09	32.945
740.41	36.810
740.72	38.413
741.04	40.210
741.35	39.453
741.66	38.735
741.98	45.494
742.29	43.519
742.61	34.513
742.92	36.441
743.23	40.800
743.55	34.717
743.86	37.255
744.18	37.712
744.49	38.017
744.80	40.553
745.12	37.946
745.43	41.121
745.74	36.444
746.06	35.965
746.37	40.930
746.68	41.150
747.00	38.117
747.31	37.395
747.62	38.525
747.94	36.910
748.25	32.685
748.56	43.644
748.88	40.625
749.19	39.070
749.50	38.813
749.82	37.449
750.13	39.526
750.44	31.667
750.75	34.899
751.07	35.526
751.38	31.683
751.69	33.670
752.01	33.566
752.32	34.551
752.63	36.913
752.94	37.063
753.26	41.406
753.57	41.245
753.88	34.082
754.19	35.018
754.51	36.545
754.82	34.564
755.13	37.162
755.44	37.407
755.75	37.113
756.07	33.219
756.38	31.373
756.69	32.813
757.00	35.312
757.31	31.549
757.63	32.507
757.94	30.319
758.25	28.261
758.56	28.604
758.87	32.832
759.18	33.430
759.50	33.739
759.81	32.047
760.12	30.899
760.43	29.132
760.74	30.633
761.05	29.443
761.36	29.167
761.67	28.032
761.99	30.986
762.30	33.762
762.61	34.722
762.92	34.091
763.23	32.075
763.54	35.000
763.85	34.630
764.16	36.806
764.47	34.797
764.78	34.853
765.10	30.793
765.41	31.534
765.72	31.492
766.03	30.211
766.34	37.631
766.65	34.601
766.96	38.866
767.27	40.187
767.58	45.050
767.89	42.541
768.20	44.512
768.51	37.755
768.82	35.526
769.13	38.431
769.44	33.083
769.75	32.959
770.06	40.336
770.37	35.088
770.68	38.222
770.99	34.746
771.30	39.749
771.61	36.538
771.92	30.916
772.23	34.274
772.54	41.333
772.85	44.554
773.16	44.022
773.47	41.111
773.78	37.624
774.09	50.000
774.39	42.424
774.70	43.529
775.01	42.763
775.32	48.447
775.63	52.055
775.94	50.617
776.25	53.793
776.56	42.748
776.87	54.198
777.18	51.515
777.48	53.543
777.79	52.308
778.10	50.000
778.41	54.478
778.72	48.872
779.03	40.385
779.34	44.595
779.65	47.826
779.95	47.205
780.26	42.857
780.57	59.184
780.88	51.064
781.19	55.833
781.50	44.970
781.80	42.623
782.11	46.561
782.42	40.805
782.73	44.633
783.04	47.097
783.34	41.860
783.65	42.177
783.96	43.871
784.27	48.344
784.57	44.737
784.88	47.826
785.19	51.667
785.50	55.172
785.81	56.589
786.11	54.074
786.42	47.244
786.73	51.351
787.04	55.660
787.34	47.967
787.65	53.030
787.96	47.727
788.26	47.244
788.57	54.745
788.88	50.704
789.19	38.168
789.49	53.378
789.80	46.094
790.11	50.413
790.41	58.333
790.72	50.926
791.03	66.346
791.33	62.626
791.64	65.263
791.95	61.053
792.25	60.417
792.56	63.000
792.87	69.512
793.17	54.545
793.48	71.765
793.79	55.172
794.09	63.636
794.40	58.621
794.70	46.825
795.01	48.462
795.32	45.802
795.62	51.282
795.93	47.059
796.23	46.341
796.54	68.367
796.85	59.091
797.15	84.416
797.46	76.829
797.76	61.250
798.07	60.000
798.37	60.000
798.68	88.750
798.99	80.488
799.29	72.000
799.60	55.814
799.90	68.421
800.21	68.182
800.51	80.282
800.82	87.931
801.12	75.385
801.43	74.667
801.73	84.483
802.04	81.818
802.34	61.644
802.65	111.765
802.95	91.304
803.26	95.161
803.56	93.333
803.87	70.149
804.17	82.540
804.48	96.226
804.78	70.833
805.09	81.818
805.39	84.127
805.70	91.228
806.00	80.000
806.30	81.250
806.61	64.706
806.91	62.222
807.22	60.870
807.52	68.421
807.83	84.211
808.13	81.159
808.43	79.032
808.74	75.342
809.04	100.000
809.35	79.412
809.65	75.758
809.95	113.725
810.26	105.556
810.56	82.813
810.86	81.633
811.17	87.719
811.47	93.478
811.77	91.379
812.08	81.034
812.38	109.524
812.69	121.429
812.99	102.222
813.29	97.143
813.59	122.581
813.90	79.310
814.20	95.082
814.50	84.000
814.81	75.439
815.11	101.852
815.41	96.429
815.72	83.929
816.02	116.000
816.32	109.756
816.62	93.103
816.93	130.303
817.23	117.073
817.53	114.286
817.84	88.889
818.14	97.619
818.44	106.250
818.74	101.887
819.04	100.000
819.35	136.364
819.65	103.846
819.95	103.704
820.25	102.128
820.56	121.622
820.86	105.263
821.16	72.340
821.46	115.789
821.76	96.364
822.07	83.333
822.37	100.000
822.67	120.930
822.97	118.421
823.27	106.522
823.57	134.375
823.88	128.205
824.18	136.364
824.48	156.522
824.78	125.000
825.08	208.696
825.38	131.034
825.69	144.118
825.99	95.745
826.29	97.222
826.59	108.571
826.89	116.667
827.19	105.714
827.49	145.161
827.79	153.846
828.09	102.381
828.39	105.556
828.70	108.108
829.00	171.429
829.30	187.500
829.60	97.222
829.90	161.290
830.20	103.030
830.50	121.622
830.80	166.667
831.10	207.692
831.40	185.714
831.70	175.000
832.00	153.333
832.30	165.217
832.60	191.667
832.90	157.576
833.20	180.000
833.50	131.579
833.80	123.529
834.10	121.053
834.40	210.526
834.70	100.000
835.00	196.000
835.30	124.324
835.60	134.375
835.90	151.351
836.20	146.154
836.50	172.727
836.80	117.073
837.10	147.826
837.40	315.385
837.70	100.000
838.00	160.000
838.30	208.333
838.60	184.000
838.90	330.000
839.19	275.000
839.49	160.000
839.79	131.034
840.09	192.308
840.39	273.333
840.69	163.158
840.99	171.429
841.29	200.000
841.59	230.000
841.88	152.000
842.18	377.778
842.48	142.857
842.78	155.556
843.08	276.923
843.38	204.545
843.68	307.143
843.97	500.000
844.27	160.870
844.57	2100.000
844.87	328.571
845.17	200.000
845.47	138.095
845.76	187.500
846.06	471.429
846.36	152.941
846.66	253.846
846.96	243.750
847.25	238.462
847.55	168.421
847.85	238.889
848.15	760.000
848.44	227.273
848.74	157.143
849.04	141.667
849.34	200.000
849.63	256.250
849.93	206.250
850.23	800.000
850.53	537.500
850.82	336.364
851.12	241.176
851.42	183.333
851.71	300.000
852.01	0.000
852.31	194.118
852.61	490.000
852.90	141.667
853.20	377.778
853.50	-2500.000
853.79	144.000
854.09	168.750
854.39	137.931
854.68	162.069
854.98	209.524
855.28	112.903
855.57	357.143
855.87	222.222
856.17	129.630
856.46	231.579
856.76	158.065
857.05	229.412
857.35	281.818
857.65	300.000
857.94	210.000
858.24	433.333
858.53	278.571
858.83	557.143
859.13	173.913
859.42	277.778
859.72	350.000
860.01	275.000
860.31	700.000
860.60	400.000
860.90	375.000
861.20	176.923
861.49	428.571
861.79	-3700.000
862.08	528.571
862.38	344.444
862.67	221.429
862.97	390.000
863.26	153.333
863.56	1100.000
863.85	300.000
864.15	294.118
864.44	227.778
864.74	391.667
865.03	381.818
865.33	375.000
865.62	246.667
865.92	533.333
866.21	975.000
866.51	840.000
866.80	233.333
867.10	966.667
867.39	3600.000
867.69	560.000
867.98	900.000
868.27	195.238
868.57	266.667
868.86	1025.000
869.16	185.714
869.45	3500.000
869.75	-483.333
870.04	925.000
870.33	720.000
870.63	450.000
870.92	200.000
871.22	900.000
871.51	442.857
871.80	316.667
872.10	338.462
>>>>>End Processed Spectral Data<<<<<
