SpectraSuite Data File
++++++++++++++++++++++++++++++++++++
Date: Wed May 13 21:46:50 PDT 2015
User: schluterlab
Dark Spectrum Present: Yes
Reference Spectrum Present: Yes
Number of Sampled Component Spectra: 1
Spectrometers: USB2E3373
Integration Time (usec): 3000 (USB2E3373)
Spectra Averaged: 3 (USB2E3373)
Boxcar Smoothing: 0 (USB2E3373)
Correct for Electrical Dark: No (USB2E3373)
Strobe/Lamp Enabled: No (USB2E3373)
Correct for Detector Non-linearity: No (USB2E3373)
Correct for Stray Light: No (USB2E3373)
Number of Pixels in Processed Spectrum: 2048
>>>>>Begin Processed Spectral Data<<<<<
178.53	0.000
178.91	400.000
179.29	116.667
179.67	-450.000
180.04	-733.333
180.42	300.000
180.80	800.000
181.18	250.000
181.56	-200.000
181.94	-100.000
182.31	-45.455
182.69	107.692
183.07	-80.000
183.45	200.000
183.83	111.111
184.20	42.857
184.58	-400.000
184.96	300.000
185.34	200.000
185.72	0.000
186.09	-1000.000
186.47	20.000
186.85	380.000
187.23	-450.000
187.61	450.000
187.98	1500.000
188.36	-50.000
188.74	0.000
189.12	-9.091
189.49	20.000
189.87	116.667
190.25	200.000
190.63	1100.000
191.00	-140.000
191.38	380.000
191.76	375.000
192.14	116.667
192.51	-42.105
192.89	233.333
193.27	200.000
193.65	-120.000
194.02	181.818
194.40	160.000
194.78	-1800.000
195.15	200.000
195.53	-260.000
195.91	-62.500
196.29	-166.667
196.66	0.000
197.04	50.000
197.42	40.000
197.79	-50.000
198.17	-62.500
198.55	166.667
198.92	175.000
199.30	-100.000
199.68	-70.000
200.05	500.000
200.43	150.000
200.81	-2200.000
201.18	-200.000
201.56	-150.000
201.94	450.000
202.31	30.435
202.69	-114.286
203.07	-400.000
203.44	-260.000
203.82	-366.667
204.19	-80.000
204.57	0.000
204.95	16.667
205.32	0.000
205.70	50.000
206.08	-100.000
206.45	-150.000
206.83	300.000
207.20	-333.333
207.58	-60.000
207.96	-1000.000
208.33	-200.000
208.71	-2700.000
209.08	237.500
209.46	400.000
209.84	0.000
210.21	210.000
210.59	2400.000
210.96	200.000
211.34	700.000
211.71	-850.000
212.09	-216.667
212.46	-230.000
212.84	-100.000
213.22	150.000
213.59	-700.000
213.97	-800.000
214.34	-550.000
214.72	-53.846
215.09	187.500
215.47	88.889
215.84	900.000
216.22	-37.500
216.59	50.000
216.97	233.333
217.34	44.444
217.72	0.000
218.09	33.333
218.47	500.000
218.84	-114.286
219.22	-187.500
219.59	-300.000
219.97	0.000
220.34	-50.000
220.72	-240.000
221.09	0.000
221.47	-300.000
221.84	-200.000
222.22	0.000
222.59	1300.000
222.97	-266.667
223.34	-25.000
223.72	-100.000
224.09	-600.000
224.46	-90.909
224.84	-62.500
225.21	-114.286
225.59	-300.000
225.96	-100.000
226.34	-80.000
226.71	-28.571
227.08	750.000
227.46	-25.000
227.83	-1300.000
228.21	-37.500
228.58	-325.000
228.95	-58.824
229.33	-37.500
229.70	-150.000
230.08	-15.385
230.45	-100.000
230.82	-75.000
231.20	228.571
231.57	-375.000
231.95	500.000
232.32	-8.333
232.69	-5.882
233.07	-1100.000
233.44	-4.348
233.81	-1000.000
234.19	-33.333
234.56	-40.000
234.93	26.667
235.31	-15.789
235.68	-76.923
236.05	15.385
236.43	-22.222
236.80	-9.091
237.17	80.000
237.55	-29.412
237.92	-10.345
238.29	-59.259
238.67	-25.000
239.04	-3.226
239.41	-8.511
239.79	27.660
240.16	16.279
240.53	21.429
240.91	10.714
241.28	-5.357
241.65	22.581
242.02	13.158
242.40	14.493
242.77	1.449
243.14	14.103
243.51	27.660
243.89	21.154
244.26	26.415
244.63	15.385
245.00	25.000
245.38	22.689
245.75	22.131
246.12	22.556
246.49	10.569
246.87	14.286
247.24	26.351
247.61	23.841
247.98	17.949
248.36	16.568
248.73	12.921
249.10	23.737
249.47	22.043
249.84	22.105
250.22	19.900
250.59	19.626
250.96	25.000
251.33	18.660
251.70	27.615
252.08	23.013
252.45	25.926
252.82	24.715
253.19	26.070
253.56	25.899
253.94	24.911
254.31	21.479
254.68	28.523
255.05	25.743
255.42	26.923
255.79	25.153
256.16	25.868
256.54	22.222
256.91	21.835
257.28	27.673
257.65	23.248
258.02	22.287
258.39	23.392
258.76	23.256
259.14	22.443
259.51	24.438
259.88	21.951
260.25	23.056
260.62	21.629
260.99	25.995
261.36	25.389
261.73	22.469
262.10	24.173
262.47	23.210
262.85	23.134
263.22	26.154
263.59	25.455
263.96	22.384
264.33	25.240
264.70	24.419
265.07	22.917
265.44	25.057
265.81	22.197
266.18	24.601
266.55	22.052
266.92	22.881
267.29	23.868
267.66	25.690
268.03	25.720
268.40	21.822
268.77	24.587
269.14	22.041
269.51	25.257
269.88	23.829
270.25	26.059
270.62	23.156
270.99	23.622
271.36	24.603
271.73	23.695
272.10	24.762
272.47	23.608
272.84	23.425
273.21	25.049
273.58	24.795
273.95	23.774
274.32	26.119
274.69	23.862
275.06	27.562
275.43	24.859
275.80	24.113
276.17	25.414
276.54	21.492
276.91	23.868
277.28	22.563
277.65	22.028
278.02	25.714
278.39	21.314
278.76	23.746
279.13	24.014
279.50	24.655
279.87	23.188
280.23	24.505
280.60	21.453
280.97	22.403
281.34	25.237
281.71	24.228
282.08	24.615
282.45	22.951
282.82	23.802
283.19	24.848
283.56	22.969
283.92	24.006
284.29	23.869
284.66	25.041
285.03	24.430
285.40	23.112
285.77	23.123
286.14	21.581
286.51	24.138
286.87	22.769
287.24	22.861
287.61	24.096
287.98	21.324
288.35	22.951
288.72	22.525
289.08	23.362
289.45	22.614
289.82	22.995
290.19	21.599
290.56	21.307
290.93	22.928
291.29	20.383
291.66	21.311
292.03	21.117
292.40	21.400
292.77	21.553
293.13	20.921
293.50	20.915
293.87	21.600
294.24	21.693
294.60	21.326
294.97	22.884
295.34	19.789
295.71	19.448
296.08	18.586
296.44	18.240
296.81	19.610
297.18	20.000
297.55	21.108
297.91	20.248
298.28	21.308
298.65	20.074
299.02	22.100
299.38	19.877
299.75	19.351
300.12	17.209
300.48	19.532
300.85	19.861
301.22	18.467
301.59	20.188
301.95	17.654
302.32	19.603
302.69	16.836
303.05	18.272
303.42	19.432
303.79	19.243
304.15	17.634
304.52	19.570
304.89	18.826
305.25	16.905
305.62	19.197
305.99	18.934
306.35	19.645
306.72	18.922
307.09	18.770
307.45	17.891
307.82	18.632
308.19	17.032
308.55	17.912
308.92	19.352
309.29	18.118
309.65	17.782
310.02	17.893
310.38	18.496
310.75	19.034
311.12	17.784
311.48	19.090
311.85	18.799
312.22	19.342
312.58	17.778
312.95	18.806
313.31	18.182
313.68	18.416
314.05	17.958
314.41	18.540
314.78	19.545
315.14	18.148
315.51	19.125
315.87	18.072
316.24	18.365
316.61	17.808
316.97	18.426
317.34	17.825
317.70	19.804
318.07	18.900
318.43	19.241
318.80	17.627
319.16	18.214
319.53	18.190
319.89	18.248
320.26	19.593
320.62	18.165
320.99	18.411
321.35	18.335
321.72	18.287
322.08	17.804
322.45	19.056
322.81	19.131
323.18	17.800
323.54	19.314
323.91	19.061
324.27	18.722
324.64	18.902
325.00	18.985
325.37	18.686
325.73	18.182
326.10	18.503
326.46	18.980
326.83	19.094
327.19	19.431
327.56	20.226
327.92	18.262
328.29	18.614
328.65	19.106
329.01	18.470
329.38	20.348
329.74	19.313
330.11	18.756
330.47	18.229
330.84	19.314
331.20	19.727
331.56	19.022
331.93	18.691
332.29	19.548
332.66	17.966
333.02	19.201
333.38	19.561
333.75	18.345
334.11	19.010
334.48	19.529
334.84	18.640
335.20	19.297
335.57	19.060
335.93	17.010
336.29	18.126
336.66	17.009
337.02	18.783
337.38	19.756
337.75	19.121
338.11	17.677
338.47	16.096
338.84	18.127
339.20	18.695
339.56	17.918
339.93	17.459
340.29	17.933
340.65	17.194
341.02	17.471
341.38	18.074
341.74	17.563
342.11	17.506
342.47	16.653
342.83	17.484
343.20	17.936
343.56	18.316
343.92	17.384
344.28	17.614
344.65	18.286
345.01	17.353
345.37	18.503
345.73	18.056
346.10	17.576
346.46	17.724
346.82	17.496
347.19	16.930
347.55	18.901
347.91	16.680
348.27	17.035
348.63	16.667
349.00	17.846
349.36	17.818
349.72	17.943
350.08	16.771
350.45	16.288
350.81	17.997
351.17	18.322
351.53	17.203
351.89	16.839
352.26	15.830
352.62	16.589
352.98	16.534
353.34	17.713
353.70	17.368
354.07	17.176
354.43	16.719
354.79	16.907
355.15	16.925
355.51	17.844
355.87	17.123
356.24	16.212
356.60	17.045
356.96	16.961
357.32	18.421
357.68	17.647
358.04	16.835
358.40	17.984
358.77	17.661
359.13	17.121
359.49	17.714
359.85	16.983
360.21	17.039
360.57	16.806
360.93	16.464
361.29	17.098
361.66	17.388
362.02	17.272
362.38	16.544
362.74	15.954
363.10	16.414
363.46	16.354
363.82	17.591
364.18	16.244
364.54	17.287
364.90	15.889
365.26	16.773
365.62	17.401
365.98	16.797
366.35	17.163
366.71	17.332
367.07	16.938
367.43	16.794
367.79	17.721
368.15	17.229
368.51	16.245
368.87	17.446
369.23	15.872
369.59	15.433
369.95	16.401
370.31	17.434
370.67	16.655
371.03	17.075
371.39	17.601
371.75	16.214
372.11	16.453
372.47	17.015
372.83	16.782
373.19	15.899
373.55	16.908
373.91	16.761
374.27	16.183
374.63	16.999
374.99	16.504
375.35	16.507
375.71	15.761
376.07	16.861
376.42	17.246
376.78	17.371
377.14	16.814
377.50	16.688
377.86	17.331
378.22	17.004
378.58	16.835
378.94	16.938
379.30	16.740
379.66	16.646
380.02	16.912
380.38	16.205
380.74	17.394
381.09	17.069
381.45	16.385
381.81	17.622
382.17	16.257
382.53	16.800
382.89	18.034
383.25	16.111
383.61	17.252
383.97	17.188
384.32	16.824
384.68	16.533
385.04	16.066
385.40	17.497
385.76	16.788
386.12	17.172
386.48	16.865
386.83	16.583
387.19	16.286
387.55	17.719
387.91	17.097
388.27	16.831
388.62	17.416
388.98	17.021
389.34	17.168
389.70	16.361
390.06	16.438
390.42	17.848
390.77	17.104
391.13	16.540
391.49	16.572
391.85	16.294
392.20	16.103
392.56	16.635
392.92	16.618
393.28	17.432
393.64	16.086
393.99	16.340
394.35	17.099
394.71	16.218
395.07	16.981
395.42	17.185
395.78	16.088
396.14	17.565
396.50	16.677
396.85	17.463
397.21	16.667
397.57	16.584
397.92	16.766
398.28	17.766
398.64	17.061
399.00	16.853
399.35	17.140
399.71	17.472
400.07	16.687
400.42	16.364
400.78	16.495
401.14	16.616
401.49	16.537
401.85	16.708
402.21	16.904
402.57	17.413
402.92	17.584
403.28	16.573
403.63	17.173
403.99	16.315
404.35	16.895
404.70	16.918
405.06	17.557
405.42	16.143
405.77	16.647
406.13	16.343
406.49	16.836
406.84	16.606
407.20	16.104
407.55	16.558
407.91	16.082
408.27	15.970
408.62	16.390
408.98	15.475
409.34	16.770
409.69	17.739
410.05	16.480
410.40	16.494
410.76	16.546
411.11	17.537
411.47	17.386
411.83	16.594
412.18	16.877
412.54	16.667
412.89	15.987
413.25	15.634
413.60	16.740
413.96	16.167
414.31	16.893
414.67	17.206
415.03	16.306
415.38	16.248
415.74	16.309
416.09	16.523
416.45	16.405
416.80	16.242
417.16	17.409
417.51	16.142
417.87	16.865
418.22	15.837
418.58	17.083
418.93	16.761
419.29	16.238
419.64	16.031
420.00	16.762
420.35	16.975
420.71	16.880
421.06	16.236
421.42	15.450
421.77	16.012
422.12	16.046
422.48	16.031
422.83	16.834
423.19	15.756
423.54	16.726
423.90	16.865
424.25	17.215
424.61	16.697
424.96	16.440
425.31	15.648
425.67	17.049
426.02	17.138
426.38	17.226
426.73	16.005
427.09	16.260
427.44	16.618
427.79	16.093
428.15	16.147
428.50	16.435
428.85	16.851
429.21	16.207
429.56	17.216
429.92	17.439
430.27	17.382
430.62	16.159
430.98	16.764
431.33	16.120
431.68	16.880
432.04	17.183
432.39	16.686
432.74	16.493
433.10	17.432
433.45	16.509
433.80	17.644
434.16	17.204
434.51	17.826
434.86	17.197
435.22	16.525
435.57	17.322
435.92	17.250
436.28	16.456
436.63	16.801
436.98	16.627
437.34	17.766
437.69	18.123
438.04	15.846
438.39	16.750
438.75	16.448
439.10	17.120
439.45	17.797
439.81	17.549
440.16	17.971
440.51	16.825
440.86	17.072
441.22	17.728
441.57	17.516
441.92	17.004
442.27	16.883
442.63	16.308
442.98	16.493
443.33	17.664
443.68	17.343
444.03	17.089
444.39	17.452
444.74	16.565
445.09	17.015
445.44	18.310
445.79	17.088
446.15	17.748
446.50	17.401
446.85	17.584
447.20	17.407
447.55	18.075
447.91	17.191
448.26	17.667
448.61	17.606
448.96	17.654
449.31	16.790
449.66	17.698
450.02	17.965
450.37	17.039
450.72	17.279
451.07	16.991
451.42	16.407
451.77	17.407
452.12	17.469
452.47	18.141
452.83	17.335
453.18	18.205
453.53	17.528
453.88	17.651
454.23	17.985
454.58	18.505
454.93	18.089
455.28	17.726
455.63	17.467
455.98	17.712
456.34	17.800
456.69	18.594
457.04	18.204
457.39	18.100
457.74	17.774
458.09	18.720
458.44	17.391
458.79	17.353
459.14	17.247
459.49	18.110
459.84	16.911
460.19	17.647
460.54	17.518
460.89	17.793
461.24	17.818
461.59	17.874
461.94	18.647
462.29	17.463
462.64	17.810
462.99	17.237
463.34	18.508
463.69	18.557
464.04	17.587
464.39	16.962
464.74	18.059
465.09	17.359
465.44	18.799
465.79	18.689
466.14	18.073
466.49	17.185
466.84	18.530
467.19	17.707
467.54	17.758
467.89	18.039
468.24	18.500
468.59	17.017
468.94	17.369
469.29	17.845
469.64	17.573
469.99	18.276
470.34	17.869
470.68	16.952
471.03	18.759
471.38	18.846
471.73	18.587
472.08	18.557
472.43	18.865
472.78	17.782
473.13	17.942
473.48	18.200
473.83	18.581
474.17	17.643
474.52	18.382
474.87	17.551
475.22	17.512
475.57	17.122
475.92	19.302
476.27	18.298
476.61	18.347
476.96	18.389
477.31	18.015
477.66	19.096
478.01	18.187
478.36	18.256
478.70	18.206
479.05	18.646
479.40	19.241
479.75	18.119
480.10	18.256
480.45	18.097
480.79	18.218
481.14	18.896
481.49	18.796
481.84	17.813
482.19	18.110
482.53	18.476
482.88	18.408
483.23	17.902
483.58	18.431
483.92	18.142
484.27	17.749
484.62	17.976
484.97	18.208
485.31	17.660
485.66	18.246
486.01	18.139
486.36	17.884
486.70	17.580
487.05	18.052
487.40	17.735
487.75	17.715
488.09	17.391
488.44	17.631
488.79	18.055
489.13	18.131
489.48	18.427
489.83	17.731
490.17	18.202
490.52	19.495
490.87	17.617
491.22	18.417
491.56	18.687
491.91	18.387
492.26	18.182
492.60	17.220
492.95	18.513
493.30	18.798
493.64	17.506
493.99	18.502
494.34	17.534
494.68	18.425
495.03	18.132
495.37	17.664
495.72	18.596
496.07	18.412
496.41	18.437
496.76	18.373
497.11	18.498
497.45	18.434
497.80	18.627
498.14	18.388
498.49	17.700
498.84	18.674
499.18	18.666
499.53	18.218
499.87	18.583
500.22	19.164
500.56	19.057
500.91	18.763
501.26	18.621
501.60	18.284
501.95	17.920
502.29	19.223
502.64	18.611
502.98	18.353
503.33	19.075
503.67	17.673
504.02	18.725
504.36	17.732
504.71	18.191
505.06	18.951
505.40	18.866
505.75	18.566
506.09	18.600
506.44	18.599
506.78	18.537
507.13	19.439
507.47	18.823
507.82	19.309
508.16	18.734
508.51	17.975
508.85	18.455
509.19	18.413
509.54	19.303
509.88	18.710
510.23	18.632
510.57	19.492
510.92	19.127
511.26	18.757
511.61	19.155
511.95	18.412
512.30	18.268
512.64	19.807
512.98	19.280
513.33	18.817
513.67	18.626
514.02	18.472
514.36	18.876
514.70	18.014
515.05	17.554
515.39	18.691
515.74	18.887
516.08	17.935
516.42	18.836
516.77	18.336
517.11	18.225
517.46	19.688
517.80	19.492
518.14	18.616
518.49	18.746
518.83	18.675
519.17	18.313
519.52	19.300
519.86	18.640
520.20	18.253
520.55	18.719
520.89	19.228
521.23	19.359
521.58	19.659
521.92	18.730
522.26	18.543
522.61	18.940
522.95	18.588
523.29	18.349
523.64	18.754
523.98	18.297
524.32	18.147
524.66	19.286
525.01	19.332
525.35	19.092
525.69	18.290
526.04	18.632
526.38	19.375
526.72	19.132
527.06	18.762
527.41	17.803
527.75	18.892
528.09	18.652
528.43	18.657
528.78	18.863
529.12	19.534
529.46	18.170
529.80	19.029
530.15	18.275
530.49	17.857
530.83	19.025
531.17	19.315
531.51	18.274
531.86	17.615
532.20	18.125
532.54	18.621
532.88	18.380
533.22	18.519
533.57	18.477
533.91	19.871
534.25	20.378
534.59	18.726
534.93	19.069
535.27	18.471
535.62	18.289
535.96	19.128
536.30	18.285
536.64	18.524
536.98	18.080
537.32	17.580
537.66	19.182
538.01	17.753
538.35	17.610
538.69	18.261
539.03	18.456
539.37	18.042
539.71	18.213
540.05	18.421
540.39	17.481
540.73	18.506
541.07	19.524
541.42	17.845
541.76	18.945
542.10	16.452
542.44	18.295
542.78	17.488
543.12	18.396
543.46	18.245
543.80	18.058
544.14	18.307
544.48	18.115
544.82	18.426
545.16	17.647
545.50	19.109
545.84	18.163
546.18	17.672
546.52	18.278
546.86	17.173
547.20	17.870
547.54	17.370
547.88	18.893
548.22	18.241
548.56	17.812
548.90	17.253
549.24	19.236
549.58	18.790
549.92	18.929
550.26	19.557
550.60	17.643
550.94	18.284
551.28	17.638
551.62	19.173
551.96	18.594
552.30	17.394
552.64	18.079
552.98	18.466
553.32	17.664
553.66	17.902
554.00	17.711
554.34	17.875
554.68	17.897
555.02	17.216
555.36	17.700
555.69	17.480
556.03	17.655
556.37	17.283
556.71	18.010
557.05	18.450
557.39	18.538
557.73	18.154
558.07	18.613
558.41	18.622
558.75	18.245
559.08	17.001
559.42	17.939
559.76	17.890
560.10	18.601
560.44	18.128
560.78	16.906
561.12	18.220
561.45	16.939
561.79	17.675
562.13	18.003
562.47	16.714
562.81	18.398
563.15	17.705
563.48	17.963
563.82	17.305
564.16	17.942
564.50	17.843
564.84	17.162
565.17	18.543
565.51	17.647
565.85	17.855
566.19	18.477
566.52	17.628
566.86	17.257
567.20	18.021
567.54	17.904
567.88	17.133
568.21	17.490
568.55	17.997
568.89	17.149
569.23	17.553
569.56	17.146
569.90	17.485
570.24	17.365
570.57	17.503
570.91	17.643
571.25	16.592
571.59	16.957
571.92	16.838
572.26	16.840
572.60	16.970
572.93	16.838
573.27	16.824
573.61	17.247
573.95	16.869
574.28	17.040
574.62	16.490
574.96	16.806
575.29	16.976
575.63	16.596
575.97	17.147
576.30	16.850
576.64	17.108
576.98	16.625
577.31	17.032
577.65	16.678
577.98	16.905
578.32	16.796
578.66	16.620
578.99	16.808
579.33	16.217
579.67	16.446
580.00	16.472
580.34	16.457
580.67	16.854
581.01	16.908
581.35	17.074
581.68	16.884
582.02	16.937
582.35	16.961
582.69	17.024
583.02	16.705
583.36	16.160
583.70	16.474
584.03	16.366
584.37	16.366
584.70	16.778
585.04	16.902
585.37	16.719
585.71	16.811
586.04	16.917
586.38	16.390
586.72	16.634
587.05	17.231
587.39	17.703
587.72	16.596
588.06	16.689
588.39	17.100
588.73	16.727
589.06	16.877
589.40	16.753
589.73	16.421
590.07	16.806
590.40	16.509
590.73	17.180
591.07	17.426
591.40	17.217
591.74	17.786
592.07	17.435
592.41	16.517
592.74	17.554
593.08	17.094
593.41	16.956
593.75	16.247
594.08	16.960
594.41	17.148
594.75	17.204
595.08	17.102
595.42	16.142
595.75	17.679
596.09	17.013
596.42	17.034
596.75	17.376
597.09	17.834
597.42	17.676
597.75	17.200
598.09	17.077
598.42	17.987
598.76	16.709
599.09	17.007
599.42	17.409
599.76	17.048
600.09	17.470
600.42	17.288
600.76	17.147
601.09	17.288
601.42	17.640
601.76	16.525
602.09	17.471
602.42	17.788
602.76	16.737
603.09	17.290
603.42	16.873
603.76	16.563
604.09	17.075
604.42	16.743
604.76	17.634
605.09	17.535
605.42	17.634
605.75	17.388
606.09	16.887
606.42	17.456
606.75	17.359
607.09	16.800
607.42	17.644
607.75	16.543
608.08	17.313
608.42	16.823
608.75	16.961
609.08	16.561
609.41	17.288
609.75	16.641
610.08	17.258
610.41	17.396
610.74	16.169
611.07	17.485
611.41	17.758
611.74	16.874
612.07	17.457
612.40	17.243
612.73	17.508
613.07	16.851
613.40	17.070
613.73	17.822
614.06	17.026
614.39	16.620
614.72	18.268
615.06	17.444
615.39	16.943
615.72	17.063
616.05	16.610
616.38	17.869
616.71	16.737
617.05	17.383
617.38	17.437
617.71	16.789
618.04	17.185
618.37	17.287
618.70	17.400
619.03	16.632
619.36	17.722
619.69	16.959
620.03	17.102
620.36	16.980
620.69	16.417
621.02	16.769
621.35	16.353
621.68	15.974
622.01	17.476
622.34	16.416
622.67	16.210
623.00	18.313
623.33	17.502
623.66	17.249
623.99	17.629
624.32	17.902
624.65	16.320
624.99	17.120
625.32	18.297
625.65	17.209
625.98	17.773
626.31	18.122
626.64	16.165
626.97	17.301
627.30	17.622
627.63	17.128
627.96	16.364
628.29	19.349
628.62	17.988
628.95	17.535
629.28	17.635
629.61	18.947
629.94	16.731
630.26	17.340
630.59	16.384
630.92	17.269
631.25	16.684
631.58	17.452
631.91	16.967
632.24	16.465
632.57	16.333
632.90	17.970
633.23	16.906
633.56	19.784
633.89	17.584
634.22	19.317
634.55	17.540
634.88	17.770
635.20	18.250
635.53	17.183
635.86	18.205
636.19	16.873
636.52	17.195
636.85	14.958
637.18	16.322
637.51	16.729
637.83	18.538
638.16	17.467
638.49	16.422
638.82	17.778
639.15	18.883
639.48	17.914
639.81	17.917
640.13	20.282
640.46	18.927
640.79	18.993
641.12	17.160
641.45	16.594
641.77	16.348
642.10	17.549
642.43	18.082
642.76	17.192
643.09	18.051
643.41	16.268
643.74	18.417
644.07	16.667
644.40	16.915
644.73	16.441
645.05	19.197
645.38	14.618
645.71	18.367
646.04	14.141
646.36	17.188
646.69	18.531
647.02	18.397
647.35	18.647
647.67	16.451
648.00	15.942
648.33	15.763
648.66	17.028
648.98	17.547
649.31	18.252
649.64	16.588
649.96	19.747
650.29	14.379
650.62	14.827
650.94	17.931
651.27	15.724
651.60	16.783
651.92	17.384
652.25	17.253
652.58	17.822
652.90	17.340
653.23	13.922
653.56	14.711
653.88	15.358
654.21	17.065
654.54	16.777
654.86	16.098
655.19	14.286
655.52	18.440
655.84	18.296
656.17	21.955
656.49	28.120
656.82	26.681
657.15	19.141
657.47	13.999
657.80	10.208
658.13	10.566
658.45	15.458
658.78	14.529
659.10	14.464
659.43	14.760
659.75	14.377
660.08	14.828
660.41	14.503
660.73	15.427
661.06	16.667
661.38	15.310
661.71	18.238
662.03	17.336
662.36	17.478
662.68	17.419
663.01	19.915
663.33	13.823
663.66	15.743
663.98	16.629
664.31	19.341
664.63	15.541
664.96	19.256
665.28	18.670
665.61	14.687
665.93	17.987
666.26	18.354
666.58	14.347
666.91	16.592
667.23	17.742
667.56	17.241
667.88	17.056
668.21	15.848
668.53	17.701
668.86	17.506
669.18	15.603
669.50	15.668
669.83	17.184
670.15	15.476
670.48	17.011
670.80	21.225
671.13	14.188
671.45	16.210
671.77	17.457
672.10	16.764
672.42	14.695
672.75	15.357
673.07	15.455
673.39	16.231
673.72	15.569
674.04	17.828
674.37	18.089
674.69	13.786
675.01	16.667
675.34	15.317
675.66	16.993
675.98	17.035
676.31	15.158
676.63	18.141
676.95	14.824
677.28	16.972
677.60	16.422
677.92	19.290
678.25	17.137
678.57	16.090
678.89	16.844
679.22	17.184
679.54	15.918
679.86	16.797
680.18	16.731
680.51	16.538
680.83	12.671
681.15	19.450
681.48	15.431
681.80	15.951
682.12	16.042
682.44	12.475
682.77	12.000
683.09	15.179
683.41	13.953
683.73	12.723
684.06	17.035
684.38	15.385
684.70	16.904
685.02	19.421
685.34	16.634
685.67	17.448
685.99	16.370
686.31	16.034
686.63	16.176
686.96	15.770
687.28	14.571
687.60	17.013
687.92	15.370
688.24	18.200
688.56	15.789
688.89	14.477
689.21	16.592
689.53	15.991
689.85	17.079
690.17	16.264
690.49	17.391
690.82	14.797
691.14	12.077
691.46	17.633
691.78	14.505
692.10	19.108
692.42	14.505
692.74	18.261
693.06	16.180
693.39	18.501
693.71	16.000
694.03	16.136
694.35	16.667
694.67	16.750
694.99	17.010
695.31	16.279
695.63	17.561
695.95	16.285
696.27	14.247
696.59	14.516
696.91	16.480
697.23	14.467
697.56	16.787
697.88	19.751
698.20	17.711
698.52	16.822
698.84	15.789
699.16	19.149
699.48	17.037
699.80	16.279
700.12	18.767
700.44	16.901
700.76	14.888
701.08	16.616
701.40	12.874
701.72	12.615
702.04	10.377
702.36	13.110
702.68	15.549
703.00	15.497
703.32	15.599
703.64	15.060
703.96	15.249
704.28	18.072
704.60	16.768
704.91	15.047
705.23	14.873
705.55	16.552
705.87	15.845
706.19	14.652
706.51	14.085
706.83	12.420
707.15	13.110
707.47	17.906
707.79	18.274
708.11	14.396
708.43	13.198
708.74	15.160
709.06	15.508
709.38	15.850
709.70	14.715
710.02	14.019
710.34	16.000
710.66	15.309
710.98	17.957
711.29	16.234
711.61	11.935
711.93	16.774
712.25	11.538
712.57	8.070
712.89	12.821
713.20	15.248
713.52	16.423
713.84	17.097
714.16	14.563
714.48	12.025
714.80	12.460
715.11	18.314
715.43	13.354
715.75	13.354
716.07	17.169
716.39	15.152
716.70	15.108
717.02	10.196
717.34	14.015
717.66	12.931
717.97	9.524
718.29	15.354
718.61	14.163
718.93	15.116
719.24	15.498
719.56	15.356
719.88	14.552
720.20	13.439
720.51	12.109
720.83	14.008
721.15	9.350
721.46	16.794
721.78	14.343
722.10	13.147
722.42	13.306
722.73	16.216
723.05	18.367
723.37	12.605
723.68	10.800
724.00	11.064
724.32	16.736
724.63	17.284
724.95	17.949
725.27	16.456
725.58	18.519
725.90	13.389
726.22	17.754
726.53	12.549
726.85	11.679
727.16	12.963
727.48	14.559
727.80	14.453
728.11	14.344
728.43	14.453
728.74	13.889
729.06	12.000
729.38	16.996
729.69	19.929
730.01	11.152
730.32	18.081
730.64	15.530
730.96	21.329
731.27	11.037
731.59	13.968
731.90	15.858
732.22	13.141
732.53	15.203
732.85	10.738
733.16	16.172
733.48	15.203
733.80	18.581
734.11	20.608
734.43	16.718
734.74	18.619
735.06	17.003
735.37	13.678
735.69	17.799
736.00	14.191
736.32	14.184
736.63	12.069
736.95	19.521
737.26	16.552
737.58	12.500
737.89	15.464
738.21	15.302
738.52	14.068
738.83	12.653
739.15	18.987
739.46	13.619
739.78	14.437
740.09	14.726
740.41	12.500
740.72	12.057
741.04	9.200
741.35	14.912
741.66	19.111
741.98	19.231
742.29	20.297
742.61	13.659
742.92	15.351
743.23	11.792
743.55	11.261
743.86	12.108
744.18	11.275
744.49	12.690
744.80	9.184
745.12	8.879
745.43	11.374
745.74	11.261
746.06	9.346
746.37	11.009
746.68	13.942
747.00	16.746
747.31	15.385
747.62	13.303
747.94	16.157
748.25	9.633
748.56	19.111
748.88	22.535
749.19	20.476
749.50	9.709
749.82	7.512
750.13	12.917
750.44	10.385
750.75	18.081
751.07	19.573
751.38	15.957
751.69	13.900
752.01	10.156
752.32	15.385
752.63	16.418
752.94	13.600
753.26	14.644
753.57	18.750
753.88	13.765
754.19	13.546
754.51	13.534
754.82	12.454
755.13	13.913
755.44	15.041
755.75	12.000
756.07	15.867
756.38	14.388
756.69	17.747
757.00	14.953
757.31	11.327
757.63	12.037
757.94	14.972
758.25	17.989
758.56	14.946
758.87	14.583
759.18	13.565
759.50	14.815
759.81	18.729
760.12	14.769
760.43	13.393
760.74	14.689
761.05	14.917
761.36	14.613
761.67	17.221
761.99	12.715
762.30	13.504
762.61	16.049
762.92	19.231
763.23	13.934
763.54	14.719
763.85	10.612
764.16	11.382
764.47	12.800
764.78	13.571
765.10	15.082
765.41	11.246
765.72	14.286
766.03	16.832
766.34	15.385
766.65	10.042
766.96	14.554
767.27	17.327
767.58	10.674
767.89	15.432
768.20	16.022
768.51	17.085
768.82	14.904
769.13	15.044
769.44	16.318
769.75	7.692
770.06	13.453
770.37	12.255
770.68	11.165
770.99	13.107
771.30	16.387
771.61	14.286
771.92	17.012
772.23	15.766
772.54	11.050
772.85	15.116
773.16	16.931
773.47	13.018
773.78	19.540
774.09	15.625
774.39	12.422
774.70	8.844
775.01	16.552
775.32	15.000
775.63	10.526
775.94	3.759
776.25	0.800
776.56	11.570
776.87	11.905
777.18	7.207
777.48	6.306
777.79	11.024
778.10	11.009
778.41	1.754
778.72	9.244
779.03	5.634
779.34	18.919
779.65	7.746
779.95	15.894
780.26	10.791
780.57	16.547
780.88	8.451
781.19	7.563
781.50	17.450
781.80	14.035
782.11	7.558
782.42	18.239
782.73	14.379
783.04	13.793
783.34	15.267
783.65	14.765
783.96	6.154
784.27	15.714
784.57	14.184
784.88	-3.846
785.19	20.000
785.50	3.636
785.81	6.667
786.11	10.084
786.42	8.850
786.73	3.774
787.04	1.835
787.34	0.990
787.65	14.167
787.96	9.917
788.26	9.420
788.57	12.698
788.88	6.504
789.19	10.400
789.49	6.870
789.80	13.636
790.11	0.000
790.41	15.842
790.72	14.894
791.03	6.522
791.33	8.235
791.64	13.580
791.95	16.304
792.25	19.318
792.56	15.385
792.87	-7.692
793.17	-7.692
793.48	8.333
793.79	5.000
794.09	18.269
794.40	18.750
794.70	9.910
795.01	11.719
795.32	14.783
795.62	-1.087
795.93	-1.887
796.23	8.081
796.54	-1.220
796.85	2.381
797.15	0.000
797.46	1.449
797.76	13.158
798.07	7.955
798.37	3.659
798.68	-17.742
798.99	0.000
799.29	4.819
799.60	10.256
799.90	1.538
800.21	12.121
800.51	5.333
800.82	8.000
801.12	-6.250
801.43	-8.333
801.73	6.757
802.04	20.000
802.34	-4.918
802.65	14.925
802.95	-10.909
803.26	27.586
803.56	6.154
803.87	15.094
804.17	9.677
804.48	-1.471
804.78	-14.634
805.09	5.797
805.39	-14.706
805.70	-29.787
806.00	-7.018
806.30	11.538
806.61	13.158
806.91	5.405
807.22	5.263
807.52	26.136
807.83	-16.949
808.13	-18.182
808.43	-1.667
808.74	-17.241
809.04	7.937
809.35	-18.367
809.65	-5.000
809.95	-18.367
810.26	16.901
810.56	-10.417
810.86	0.000
811.17	25.000
811.47	4.255
811.77	4.167
812.08	13.208
812.38	-12.500
812.69	-10.909
812.99	-4.878
813.29	-13.514
813.59	-2.703
813.90	-1.818
814.20	7.273
814.50	5.000
814.81	-5.455
815.11	7.018
815.41	13.953
815.72	-15.000
816.02	-5.714
816.32	-18.919
816.62	-4.167
816.93	2.222
817.23	-6.667
817.53	-25.000
817.84	-27.027
818.14	7.317
818.44	10.000
818.74	0.000
819.04	-4.878
819.35	-8.333
819.65	-13.636
819.95	-100.000
820.25	-33.333
820.56	-30.952
820.86	-27.778
821.16	-27.273
821.46	-6.522
821.76	8.621
822.07	10.870
822.37	15.152
822.67	9.756
822.97	-5.405
823.27	-25.714
823.57	-17.241
823.88	-8.824
824.18	0.000
824.48	-20.000
824.78	-57.143
825.08	-28.571
825.38	-77.778
825.69	-9.677
825.99	17.073
826.29	-3.704
826.59	-15.625
826.89	-22.581
827.19	-30.435
827.49	-13.889
827.79	-56.522
828.09	-9.677
828.39	-8.333
828.70	-21.875
829.00	-3.448
829.30	-16.216
829.60	-54.167
829.90	11.111
830.20	-12.500
830.50	-31.818
830.80	-88.235
831.10	-40.909
831.40	-50.000
831.70	-7.692
832.00	9.091
832.30	14.706
832.60	-2.703
832.90	800.000
833.20	-25.000
833.50	-40.000
833.80	13.158
834.10	-45.833
834.40	-63.636
834.70	-113.333
835.00	-30.000
835.30	12.500
835.60	-19.048
835.90	19.048
836.20	-48.000
836.50	-25.000
836.80	-63.158
837.10	-8.108
837.40	40.000
837.70	-30.435
838.00	29.167
838.30	5.263
838.60	-120.000
838.90	-240.000
839.19	-83.333
839.49	-69.231
839.79	-57.895
840.09	-183.333
840.39	-110.000
840.69	-18.182
840.99	-33.333
841.29	-29.167
841.59	-53.846
841.88	-46.667
842.18	14.286
842.48	3.333
842.78	-242.857
843.08	-107.143
843.38	-25.000
843.68	-37.500
843.97	7.143
844.27	-200.000
844.57	-136.364
844.87	-73.333
845.17	9.091
845.47	700.000
845.76	-80.000
846.06	-125.000
846.36	-950.000
846.66	-47.368
846.96	-36.364
847.25	-133.333
847.55	-211.111
847.85	-23.810
848.15	23.077
848.44	-200.000
848.74	-83.333
849.04	-100.000
849.34	-650.000
849.63	-63.636
849.93	-85.714
850.23	-15.000
850.53	-212.500
850.82	-16.667
851.12	-86.667
851.42	-29.412
851.71	87.500
852.01	41.176
852.31	15.385
852.61	600.000
852.90	23.529
853.20	-20.000
853.50	-68.750
853.79	-164.286
854.09	-325.000
854.39	-35.000
854.68	0.000
854.98	-38.095
855.28	4.000
855.57	0.000
855.87	-8.333
856.17	-56.000
856.46	-31.250
856.76	-30.000
857.05	-4.000
857.35	-58.333
857.65	-76.471
857.94	-50.000
858.24	8.333
858.53	5.000
858.83	-127.273
859.13	28.000
859.42	-57.143
859.72	-125.000
860.01	4.167
860.31	-100.000
860.60	-18.750
860.90	-250.000
861.20	-83.333
861.49	106.667
861.79	-43.750
862.08	275.000
862.38	-125.000
862.67	428.571
862.97	100.000
863.26	-54.545
863.56	9.091
863.85	-26.316
864.15	-17.647
864.44	-120.000
864.74	-140.000
865.03	-11.111
865.33	-21.429
865.62	135.714
865.92	-31.579
866.21	-66.667
866.51	-18.182
866.80	22.222
867.10	-100.000
867.39	-37.500
867.69	-53.333
867.98	-100.000
868.27	17.647
868.57	0.000
868.86	850.000
869.16	-175.000
869.45	-200.000
869.75	150.000
870.04	-90.000
870.33	-700.000
870.63	-52.632
870.92	-83.333
871.22	-1400.000
871.51	-257.143
871.80	-122.222
872.10	-100.000
>>>>>End Processed Spectral Data<<<<<
