SpectraSuite Data File
++++++++++++++++++++++++++++++++++++
Date: Tue May 12 15:10:21 PDT 2015
User: schluterlab
Dark Spectrum Present: Yes
Reference Spectrum Present: Yes
Number of Sampled Component Spectra: 1
Spectrometers: USB2E3373
Integration Time (usec): 3000 (USB2E3373)
Spectra Averaged: 3 (USB2E3373)
Boxcar Smoothing: 0 (USB2E3373)
Correct for Electrical Dark: No (USB2E3373)
Strobe/Lamp Enabled: No (USB2E3373)
Correct for Detector Non-linearity: No (USB2E3373)
Correct for Stray Light: No (USB2E3373)
Number of Pixels in Processed Spectrum: 2048
>>>>>Begin Processed Spectral Data<<<<<
178.53	0.000
178.91	-66.667
179.29	-575.000
179.67	-1900.000
180.04	-26.667
180.42	375.000
180.80	950.000
181.18	0.000
181.56	-175.000
181.94	0.000
182.31	366.667
182.69	-2300.000
183.07	514.286
183.45	-2100.000
183.83	-1150.000
184.20	220.000
184.58	257.143
184.96	-130.769
185.34	-100.000
185.72	450.000
186.09	-450.000
186.47	-1700.000
186.85	700.000
187.23	220.000
187.61	1000.000
187.98	250.000
188.36	150.000
188.74	233.333
189.12	233.333
189.49	550.000
189.87	0.000
190.25	325.000
190.63	900.000
191.00	-66.667
191.38	-2300.000
191.76	-400.000
192.14	375.000
192.51	-2100.000
192.89	850.000
193.27	566.667
193.65	-500.000
194.02	-420.000
194.40	185.714
194.78	-128.571
195.15	200.000
195.53	-1900.000
195.91	-280.000
196.29	1900.000
196.66	193.750
197.04	350.000
197.42	-700.000
197.79	475.000
198.17	216.667
198.55	0.000
198.92	257.143
199.30	733.333
199.68	600.000
200.05	466.667
200.43	-233.333
200.81	166.667
201.18	2400.000
201.56	208.333
201.94	-425.000
202.31	-187.500
202.69	-200.000
203.07	800.000
203.44	-150.000
203.82	241.667
204.19	360.000
204.57	-550.000
204.95	-425.000
205.32	-460.000
205.70	333.333
206.08	200.000
206.45	-166.667
206.83	188.889
207.20	126.316
207.58	200.000
207.96	360.000
208.33	0.000
208.71	300.000
209.08	420.000
209.46	-1300.000
209.84	-475.000
210.21	580.000
210.59	-100.000
210.96	158.333
211.34	-525.000
211.71	245.455
212.09	650.000
212.46	1050.000
212.84	-250.000
213.22	233.333
213.59	-1200.000
213.97	210.000
214.34	600.000
214.72	733.333
215.09	400.000
215.47	-1300.000
215.84	-210.000
216.22	-312.500
216.59	0.000
216.97	0.000
217.34	1050.000
217.72	-1000.000
218.09	1066.667
218.47	325.000
218.84	450.000
219.22	666.667
219.59	633.333
219.97	342.857
220.34	200.000
220.72	750.000
221.09	2200.000
221.47	58.333
221.84	500.000
222.22	220.000
222.59	172.222
222.97	114.286
223.34	187.500
223.72	-900.000
224.09	466.667
224.46	146.154
224.84	-200.000
225.21	255.556
225.59	186.667
225.96	866.667
226.34	-460.000
226.71	-475.000
227.08	-400.000
227.46	0.000
227.83	-266.667
228.21	-1200.000
228.58	241.667
228.95	475.000
229.33	222.222
229.70	575.000
230.08	230.769
230.45	2400.000
230.82	-450.000
231.20	-600.000
231.57	-600.000
231.95	280.000
232.32	158.333
232.69	300.000
233.07	208.333
233.44	-850.000
233.81	160.000
234.19	144.444
234.56	181.250
234.93	164.706
235.31	135.000
235.68	225.000
236.05	125.000
236.43	159.259
236.80	214.286
237.17	110.345
237.55	109.375
237.92	97.500
238.29	130.303
238.67	134.375
239.04	100.000
239.41	100.000
239.79	117.500
240.16	104.167
240.53	86.885
240.91	78.261
241.28	106.780
241.65	93.939
242.02	102.817
242.40	98.571
242.77	93.407
243.14	83.544
243.51	92.929
243.89	64.486
244.26	79.439
244.63	85.149
245.00	90.826
245.38	79.661
245.75	71.970
246.12	82.963
246.49	69.504
246.87	73.770
247.24	79.333
247.61	75.625
247.98	85.714
248.36	75.152
248.73	72.959
249.10	74.405
249.47	75.000
249.84	74.129
250.22	79.459
250.59	74.500
250.96	68.776
251.33	74.884
251.70	75.446
252.08	70.588
252.45	70.120
252.82	65.779
253.19	71.146
253.56	69.231
253.94	70.290
254.31	72.481
254.68	70.035
255.05	73.793
255.42	72.993
255.79	67.427
256.16	71.525
256.54	70.130
256.91	69.608
257.28	71.572
257.65	68.339
258.02	70.796
258.39	71.060
258.76	64.638
259.14	66.571
259.51	73.761
259.88	74.772
260.25	67.308
260.62	70.137
260.99	65.289
261.36	73.816
261.73	68.617
262.10	72.775
262.47	66.250
262.85	70.400
263.22	68.895
263.59	68.542
263.96	68.170
264.33	67.654
264.70	66.585
265.07	70.976
265.44	70.413
265.81	69.575
266.18	69.108
266.55	70.922
266.92	71.812
267.29	70.395
267.66	65.247
268.03	67.489
268.40	67.230
268.77	69.824
269.14	66.811
269.51	67.038
269.88	67.959
270.25	65.875
270.62	68.240
270.99	66.937
271.36	66.667
271.73	67.086
272.10	65.051
272.47	64.286
272.84	63.074
273.21	67.562
273.58	67.004
273.95	67.556
274.32	66.148
274.69	67.520
275.06	66.849
275.43	67.816
275.80	67.547
276.17	64.890
276.54	67.103
276.91	66.604
277.28	65.511
277.65	63.100
278.02	64.706
278.39	64.748
278.76	64.310
279.13	63.523
279.50	65.818
279.87	61.825
280.23	62.247
280.60	66.423
280.97	65.000
281.34	62.046
281.71	64.870
282.08	62.222
282.45	61.824
282.82	64.716
283.19	61.367
283.56	64.628
283.92	63.518
284.29	61.564
284.66	61.513
285.03	61.194
285.40	63.636
285.77	59.877
286.14	61.610
286.51	61.043
286.87	58.386
287.24	57.508
287.61	61.246
287.98	60.299
288.35	58.074
288.72	57.967
289.08	57.808
289.45	58.384
289.82	58.281
290.19	55.783
290.56	55.895
290.93	57.698
291.29	55.110
291.66	53.955
292.03	55.961
292.40	53.388
292.77	53.900
293.13	54.066
293.50	52.632
293.87	51.491
294.24	55.524
294.60	53.567
294.97	54.266
295.34	52.058
295.71	51.248
296.08	50.667
296.44	49.809
296.81	49.007
297.18	47.909
297.55	47.414
297.91	48.153
298.28	48.188
298.65	45.399
299.02	46.683
299.38	48.201
299.75	47.683
300.12	45.872
300.48	47.307
300.85	45.173
301.22	47.326
301.59	45.873
301.95	46.674
302.32	47.264
302.69	46.041
303.05	46.801
303.42	45.291
303.79	45.070
304.15	44.774
304.52	45.349
304.89	46.162
305.25	44.383
305.62	45.842
305.99	43.913
306.35	43.368
306.72	43.184
307.09	42.857
307.45	43.083
307.82	42.798
308.19	43.299
308.55	43.600
308.92	43.867
309.29	42.801
309.65	42.616
310.02	42.495
310.38	42.273
310.75	41.080
311.12	42.241
311.48	43.726
311.85	42.176
312.22	42.311
312.58	43.440
312.95	41.456
313.31	43.352
313.68	42.308
314.05	41.117
314.41	40.410
314.78	42.330
315.14	42.654
315.51	42.006
315.87	41.880
316.24	42.484
316.61	40.107
316.97	40.734
317.34	41.779
317.70	41.089
318.07	42.171
318.43	42.531
318.80	42.469
319.16	41.696
319.53	42.035
319.89	40.412
320.26	42.737
320.62	40.842
320.99	41.182
321.35	41.929
321.72	41.651
322.08	42.013
322.45	41.417
322.81	41.629
323.18	41.563
323.54	41.986
323.91	43.246
324.27	40.318
324.64	39.446
325.00	42.931
325.37	40.304
325.73	40.809
326.10	41.259
326.46	40.545
326.83	41.760
327.19	41.687
327.56	40.256
327.92	42.459
328.29	41.735
328.65	42.637
329.01	40.804
329.38	42.724
329.74	39.966
330.11	39.965
330.47	41.432
330.84	39.258
331.20	41.032
331.56	40.587
331.93	41.403
332.29	40.816
332.66	40.731
333.02	40.979
333.38	40.925
333.75	40.450
334.11	40.185
334.48	41.282
334.84	39.949
335.20	41.488
335.57	40.554
335.93	38.436
336.29	38.972
336.66	40.652
337.02	39.521
337.38	39.639
337.75	41.892
338.11	41.097
338.47	39.543
338.84	39.204
339.20	38.528
339.56	38.688
339.93	39.047
340.29	38.487
340.65	40.402
341.02	39.421
341.38	39.491
341.74	40.116
342.11	39.399
342.47	39.705
342.83	41.591
343.20	38.561
343.56	37.490
343.92	41.123
344.28	38.756
344.65	39.853
345.01	39.286
345.37	39.022
345.73	39.683
346.10	38.725
346.46	40.191
346.82	38.966
347.19	39.645
347.55	37.158
347.91	37.387
348.27	36.793
348.63	38.528
349.00	37.395
349.36	38.521
349.72	37.844
350.08	38.975
350.45	38.233
350.81	38.073
351.17	37.442
351.53	36.798
351.89	37.296
352.26	38.473
352.62	37.330
352.98	38.344
353.34	38.983
353.70	38.150
354.07	37.692
354.43	38.556
354.79	35.915
355.15	36.830
355.51	37.689
355.87	38.178
356.24	38.029
356.60	36.225
356.96	36.543
357.32	38.131
357.68	36.711
358.04	38.906
358.40	37.406
358.77	37.115
359.13	37.012
359.49	36.842
359.85	37.826
360.21	35.958
360.57	36.569
360.93	37.590
361.29	36.364
361.66	36.465
362.02	36.506
362.38	37.085
362.74	36.235
363.10	36.746
363.46	35.704
363.82	36.325
364.18	37.838
364.54	35.622
364.90	37.349
365.26	37.752
365.62	37.017
365.98	35.444
366.35	36.414
366.71	37.058
367.07	37.133
367.43	36.266
367.79	36.902
368.15	35.075
368.51	37.216
368.87	36.141
369.23	36.660
369.59	34.727
369.95	36.503
370.31	36.208
370.67	35.531
371.03	35.714
371.39	36.634
371.75	36.846
372.11	36.506
372.47	36.781
372.83	35.894
373.19	37.080
373.55	36.976
373.91	36.395
374.27	35.847
374.63	36.814
374.99	35.782
375.35	35.685
375.71	36.609
376.07	36.207
376.42	35.486
376.78	37.123
377.14	36.501
377.50	34.644
377.86	36.131
378.22	35.771
378.58	36.985
378.94	36.331
379.30	36.446
379.66	36.845
380.02	36.833
380.38	35.363
380.74	36.909
381.09	36.449
381.45	35.260
381.81	35.875
382.17	35.531
382.53	36.053
382.89	36.428
383.25	35.820
383.61	35.965
383.97	35.513
384.32	35.624
384.68	36.661
385.04	35.522
385.40	35.528
385.76	36.630
386.12	36.487
386.48	36.474
386.83	36.430
387.19	36.808
387.55	35.571
387.91	35.277
388.27	36.169
388.62	35.798
388.98	36.210
389.34	34.325
389.70	36.203
390.06	36.220
390.42	35.904
390.77	35.319
391.13	35.244
391.49	35.148
391.85	35.508
392.20	35.399
392.56	36.380
392.92	36.103
393.28	35.090
393.64	34.977
393.99	35.685
394.35	34.844
394.71	35.585
395.07	35.645
395.42	35.656
395.78	36.089
396.14	35.542
396.50	34.777
396.85	35.549
397.21	35.800
397.57	36.043
397.92	34.893
398.28	35.852
398.64	35.195
399.00	34.527
399.35	35.534
399.71	35.486
400.07	34.989
400.42	35.582
400.78	34.194
401.14	35.349
401.49	35.196
401.85	34.936
402.21	34.329
402.57	35.607
402.92	34.364
403.28	34.069
403.63	34.491
403.99	34.741
404.35	34.701
404.70	35.854
405.06	34.307
405.42	34.829
405.77	35.006
406.13	33.785
406.49	33.712
406.84	34.574
407.20	34.760
407.55	33.969
407.91	35.354
408.27	35.597
408.62	35.541
408.98	35.245
409.34	34.833
409.69	34.785
410.05	34.764
410.40	34.629
410.76	34.116
411.11	34.360
411.47	34.259
411.83	33.861
412.18	34.481
412.54	34.895
412.89	33.333
413.25	35.348
413.60	34.346
413.96	34.650
414.31	33.884
414.67	35.506
415.03	34.802
415.38	34.196
415.74	34.807
416.09	35.290
416.45	34.583
416.80	35.471
417.16	34.182
417.51	34.586
417.87	34.481
418.22	33.779
418.58	34.968
418.93	33.968
419.29	33.888
419.64	34.282
420.00	34.726
420.35	33.740
420.71	34.189
421.06	33.549
421.42	34.254
421.77	35.258
422.12	34.785
422.48	33.333
422.83	35.603
423.19	34.125
423.54	34.449
423.90	34.428
424.25	34.507
424.61	34.649
424.96	34.613
425.31	33.771
425.67	34.175
426.02	33.988
426.38	34.714
426.73	33.835
427.09	34.935
427.44	33.427
427.79	34.591
428.15	35.062
428.50	35.200
428.85	33.921
429.21	34.198
429.56	34.796
429.92	34.809
430.27	33.866
430.62	33.578
430.98	34.681
431.33	34.325
431.68	34.123
432.04	34.092
432.39	34.687
432.74	35.012
433.10	33.666
433.45	35.784
433.80	35.632
434.16	33.631
434.51	34.727
434.86	34.132
435.22	33.279
435.57	34.262
435.92	34.491
436.28	34.965
436.63	34.792
436.98	35.529
437.34	34.018
437.69	34.267
438.04	34.194
438.39	34.618
438.75	34.521
439.10	34.485
439.45	34.539
439.81	34.239
440.16	33.407
440.51	33.671
440.86	35.613
441.22	33.983
441.57	35.223
441.92	34.650
442.27	34.124
442.63	34.350
442.98	34.052
443.33	34.333
443.68	34.256
444.03	34.025
444.39	34.934
444.74	34.938
445.09	34.334
445.44	33.953
445.79	34.698
446.15	34.421
446.50	34.441
446.85	33.765
447.20	33.781
447.55	34.693
447.91	35.322
448.26	34.878
448.61	35.213
448.96	34.096
449.31	34.433
449.66	34.441
450.02	33.982
450.37	34.536
450.72	34.270
451.07	34.788
451.42	35.151
451.77	33.963
452.12	33.863
452.47	34.508
452.83	34.197
453.18	35.075
453.53	34.044
453.88	35.086
454.23	34.515
454.58	33.566
454.93	34.151
455.28	35.312
455.63	33.924
455.98	33.333
456.34	35.380
456.69	34.268
457.04	34.427
457.39	34.686
457.74	34.685
458.09	33.464
458.44	34.556
458.79	34.589
459.14	33.552
459.49	35.730
459.84	35.000
460.19	34.407
460.54	34.872
460.89	34.595
461.24	35.281
461.59	34.864
461.94	34.279
462.29	35.412
462.64	35.113
462.99	34.997
463.34	34.673
463.69	34.543
464.04	34.888
464.39	33.658
464.74	33.587
465.09	33.952
465.44	34.657
465.79	34.186
466.14	34.605
466.49	34.129
466.84	33.779
467.19	35.208
467.54	34.414
467.89	34.859
468.24	34.569
468.59	35.119
468.94	35.870
469.29	35.431
469.64	34.019
469.99	34.254
470.34	33.586
470.68	32.759
471.03	34.556
471.38	33.841
471.73	33.181
472.08	34.638
472.43	33.768
472.78	33.931
473.13	32.666
473.48	34.413
473.83	33.981
474.17	34.103
474.52	34.182
474.87	33.599
475.22	33.981
475.57	33.788
475.92	33.827
476.27	33.841
476.61	34.209
476.96	34.326
477.31	34.756
477.66	35.266
478.01	33.522
478.36	33.265
478.70	33.201
479.05	34.310
479.40	34.325
479.75	34.608
480.10	33.785
480.45	33.754
480.79	33.272
481.14	34.142
481.49	32.434
481.84	33.949
482.19	33.406
482.53	33.202
482.88	34.543
483.23	32.657
483.58	33.662
483.92	34.095
484.27	33.433
484.62	34.423
484.97	33.736
485.31	34.426
485.66	34.897
486.01	34.859
486.36	34.224
486.70	33.783
487.05	33.218
487.40	33.405
487.75	34.051
488.09	33.920
488.44	34.003
488.79	33.773
489.13	34.565
489.48	33.720
489.83	32.694
490.17	32.618
490.52	33.807
490.87	33.147
491.22	33.644
491.56	33.465
491.91	32.751
492.26	32.428
492.60	33.941
492.95	34.073
493.30	33.030
493.64	32.659
493.99	33.408
494.34	33.572
494.68	33.068
495.03	33.049
495.37	33.408
495.72	33.287
496.07	33.648
496.41	33.536
496.76	33.938
497.11	33.462
497.45	33.012
497.80	33.828
498.14	33.657
498.49	34.123
498.84	33.832
499.18	33.135
499.53	33.303
499.87	33.378
500.22	32.980
500.56	33.240
500.91	33.859
501.26	33.119
501.60	33.106
501.95	33.692
502.29	33.156
502.64	33.348
502.98	32.548
503.33	33.497
503.67	33.024
504.02	32.736
504.36	32.896
504.71	32.781
505.06	32.895
505.40	34.488
505.75	33.068
506.09	33.551
506.44	32.425
506.78	33.696
507.13	33.592
507.47	32.460
507.82	33.771
508.16	33.954
508.51	33.333
508.85	33.001
509.19	33.578
509.54	32.520
509.88	33.366
510.23	33.529
510.57	32.625
510.92	33.816
511.26	33.333
511.61	32.299
511.95	33.449
512.30	33.300
512.64	32.710
512.98	32.599
513.33	32.582
513.67	34.024
514.02	33.195
514.36	32.399
514.70	32.533
515.05	33.298
515.39	33.279
515.74	32.914
516.08	33.551
516.42	33.880
516.77	33.173
517.11	33.173
517.46	33.351
517.80	32.277
518.14	33.070
518.49	31.588
518.83	32.033
519.17	32.557
519.52	34.681
519.86	32.916
520.20	32.822
520.55	32.335
520.89	32.644
521.23	32.185
521.58	32.415
521.92	32.886
522.26	32.583
522.61	33.333
522.95	32.733
523.29	32.573
523.64	32.717
523.98	32.746
524.32	33.045
524.66	33.333
525.01	31.775
525.35	32.705
525.69	32.872
526.04	32.957
526.38	33.137
526.72	31.265
527.06	32.289
527.41	33.374
527.75	31.649
528.09	32.330
528.43	32.154
528.78	32.379
529.12	32.932
529.46	33.255
529.80	31.893
530.15	32.351
530.49	31.829
530.83	33.699
531.17	32.841
531.51	33.170
531.86	32.065
532.20	31.768
532.54	31.701
532.88	32.480
533.22	31.566
533.57	33.557
533.91	32.110
534.25	30.294
534.59	32.398
534.93	31.513
535.27	31.246
535.62	32.497
535.96	32.801
536.30	33.272
536.64	31.801
536.98	32.662
537.32	32.500
537.66	32.589
538.01	33.313
538.35	32.377
538.69	31.917
539.03	32.463
539.37	30.825
539.71	31.852
540.05	31.754
540.39	31.761
540.73	32.278
541.07	32.685
541.42	31.841
541.76	32.244
542.10	32.059
542.44	33.167
542.78	32.914
543.12	32.025
543.46	31.140
543.80	33.020
544.14	32.074
544.48	31.995
544.82	31.621
545.16	31.815
545.50	32.391
545.84	32.008
546.18	33.355
546.52	32.066
546.86	33.140
547.20	32.364
547.54	32.806
547.88	32.664
548.22	33.940
548.56	32.233
548.90	32.325
549.24	31.712
549.58	31.250
549.92	32.220
550.26	32.319
550.60	31.737
550.94	32.429
551.28	33.034
551.62	32.069
551.96	32.230
552.30	31.707
552.64	32.945
552.98	32.990
553.32	31.562
553.66	31.466
554.00	31.982
554.34	32.490
554.68	32.258
555.02	32.451
555.36	31.981
555.69	32.264
556.03	32.739
556.37	32.441
556.71	32.920
557.05	32.110
557.39	31.200
557.73	32.143
558.07	32.193
558.41	32.145
558.75	32.353
559.08	31.808
559.42	31.353
559.76	32.644
560.10	31.934
560.44	31.719
560.78	32.928
561.12	32.359
561.45	32.290
561.79	32.085
562.13	32.344
562.47	31.343
562.81	30.969
563.15	31.739
563.48	31.056
563.82	32.439
564.16	32.649
564.50	31.465
564.84	31.793
565.17	31.432
565.51	32.266
565.85	32.141
566.19	32.024
566.52	30.866
566.86	31.816
567.20	32.303
567.54	31.386
567.88	31.873
568.21	31.253
568.55	30.982
568.89	30.885
569.23	32.312
569.56	32.508
569.90	31.980
570.24	32.095
570.57	32.252
570.91	32.168
571.25	32.117
571.59	31.669
571.92	31.297
572.26	31.779
572.60	31.880
572.93	32.605
573.27	32.567
573.61	32.620
573.95	32.346
574.28	32.138
574.62	32.138
574.96	31.713
575.29	31.628
575.63	32.485
575.97	32.887
576.30	32.296
576.64	33.398
576.98	32.691
577.31	32.654
577.65	32.445
577.98	32.326
578.32	32.119
578.66	32.484
578.99	32.578
579.33	32.521
579.67	32.056
580.00	32.034
580.34	32.499
580.67	32.260
581.01	32.543
581.35	33.135
581.68	32.550
582.02	32.828
582.35	32.441
582.69	32.039
583.02	31.724
583.36	31.702
583.70	32.027
584.03	32.314
584.37	32.130
584.70	32.272
585.04	32.429
585.37	32.980
585.71	32.966
586.04	32.060
586.38	32.511
586.72	32.149
587.05	32.064
587.39	32.415
587.72	31.764
588.06	32.605
588.39	32.318
588.73	32.226
589.06	31.894
589.40	32.019
589.73	31.400
590.07	32.121
590.40	32.648
590.73	32.942
591.07	32.220
591.40	32.415
591.74	32.508
592.07	31.822
592.41	32.494
592.74	32.406
593.08	32.161
593.41	32.196
593.75	31.889
594.08	32.276
594.41	32.030
594.75	31.747
595.08	32.476
595.42	31.863
595.75	32.577
596.09	32.082
596.42	32.119
596.75	33.173
597.09	32.604
597.42	32.041
597.75	32.089
598.09	32.540
598.42	32.395
598.76	32.421
599.09	33.542
599.42	32.215
599.76	32.734
600.09	31.390
600.42	32.562
600.76	33.141
601.09	32.931
601.42	32.242
601.76	33.047
602.09	32.597
602.42	32.200
602.76	32.638
603.09	31.750
603.42	32.330
603.76	32.357
604.09	32.067
604.42	32.241
604.76	32.201
605.09	32.245
605.42	31.613
605.75	32.610
606.09	32.632
606.42	32.544
606.75	32.530
607.09	31.662
607.42	32.423
607.75	32.604
608.08	32.494
608.42	32.508
608.75	32.007
609.08	32.732
609.41	32.773
609.75	32.601
610.08	32.239
610.41	32.235
610.74	32.035
611.07	31.651
611.41	31.881
611.74	32.218
612.07	32.177
612.40	31.676
612.73	32.102
613.07	31.931
613.40	32.130
613.73	31.952
614.06	30.950
614.39	32.576
614.72	31.793
615.06	31.553
615.39	32.723
615.72	32.333
616.05	32.496
616.38	32.319
616.71	30.928
617.05	32.290
617.38	30.618
617.71	31.890
618.04	30.959
618.37	32.018
618.70	31.236
619.03	31.563
619.36	30.905
619.69	31.662
620.03	32.355
620.36	31.535
620.69	32.503
621.02	31.386
621.35	30.587
621.68	31.121
622.01	32.251
622.34	30.808
622.67	31.250
623.00	31.722
623.33	32.051
623.66	31.537
623.99	31.712
624.32	30.962
624.65	31.336
624.99	32.319
625.32	30.862
625.65	30.621
625.98	31.311
626.31	31.380
626.64	30.828
626.97	31.140
627.30	31.366
627.63	31.319
627.96	30.360
628.29	31.106
628.62	28.743
628.95	30.851
629.28	32.252
629.61	31.986
629.94	31.461
630.26	31.976
630.59	32.801
630.92	30.493
631.25	31.278
631.58	32.690
631.91	31.113
632.24	30.321
632.57	29.666
632.90	31.677
633.23	30.955
633.56	31.401
633.89	30.011
634.22	31.755
634.55	30.215
634.88	30.559
635.20	30.493
635.53	31.243
635.86	31.879
636.19	30.864
636.52	30.162
636.85	29.234
637.18	31.528
637.51	28.603
637.83	30.892
638.16	30.832
638.49	31.497
638.82	32.160
639.15	29.495
639.48	31.043
639.81	31.502
640.13	29.939
640.46	30.088
640.79	30.299
641.12	29.921
641.45	31.048
641.77	30.779
642.10	31.593
642.43	31.152
642.76	29.119
643.09	29.683
643.41	30.575
643.74	30.935
644.07	31.711
644.40	28.994
644.73	29.429
645.05	33.135
645.38	31.240
645.71	31.108
646.04	32.061
646.36	30.360
646.69	29.760
647.02	30.880
647.35	29.764
647.67	30.470
648.00	31.922
648.33	31.729
648.66	30.000
648.98	30.000
649.31	29.825
649.64	30.844
649.96	31.579
650.29	30.857
650.62	31.811
650.94	31.627
651.27	32.057
651.60	30.360
651.92	30.722
652.25	31.969
652.58	31.915
652.90	29.341
653.23	30.871
653.56	31.899
653.88	29.075
654.21	30.792
654.54	29.868
654.86	30.826
655.19	31.266
655.52	30.664
655.84	30.672
656.17	36.909
656.49	51.969
656.82	58.313
657.15	45.414
657.47	33.890
657.80	25.081
658.13	19.908
658.45	27.411
658.78	32.443
659.10	32.567
659.43	33.291
659.75	33.699
660.08	33.709
660.41	31.851
660.73	33.752
661.06	31.982
661.38	32.368
661.71	31.835
662.03	30.989
662.36	30.286
662.68	29.795
663.01	31.712
663.33	31.132
663.66	30.966
663.98	30.952
664.31	31.903
664.63	32.184
664.96	29.644
665.28	30.320
665.61	30.566
665.93	31.887
666.26	31.963
666.58	31.009
666.91	31.660
667.23	27.510
667.56	29.774
667.88	32.365
668.21	30.328
668.53	33.266
668.86	31.263
669.18	29.328
669.50	29.752
669.83	31.828
670.15	29.730
670.48	30.469
670.80	29.482
671.13	32.669
671.45	31.263
671.77	33.766
672.10	33.393
672.42	32.072
672.75	33.386
673.07	33.545
673.39	31.789
673.72	30.796
674.04	31.541
674.37	30.490
674.69	31.227
675.01	31.530
675.34	29.651
675.66	33.008
675.98	29.980
676.31	29.800
676.63	30.417
676.95	32.738
677.28	29.817
677.60	30.986
677.92	28.373
678.25	31.783
678.57	31.657
678.89	30.922
679.22	31.985
679.54	30.961
679.86	30.541
680.18	30.580
680.51	28.358
680.83	30.574
681.15	30.849
681.48	32.639
681.80	32.399
682.12	31.488
682.44	28.288
682.77	29.537
683.09	32.427
683.41	29.184
683.73	30.906
684.06	30.754
684.38	29.651
684.70	29.856
685.02	29.861
685.34	31.866
685.67	31.350
685.99	30.542
686.31	32.820
686.63	30.732
686.96	31.046
687.28	30.537
687.60	29.693
687.92	33.333
688.24	31.897
688.56	32.206
688.89	29.063
689.21	29.672
689.53	32.609
689.85	29.065
690.17	29.709
690.49	32.460
690.82	31.303
691.14	30.505
691.46	34.702
691.78	31.189
692.10	31.870
692.42	29.401
692.74	29.457
693.06	31.977
693.39	31.621
693.71	33.792
694.03	30.375
694.35	34.137
694.67	32.587
694.99	31.042
695.31	32.883
695.63	30.543
695.95	29.186
696.27	31.416
696.59	32.220
696.91	29.873
697.23	31.448
697.56	28.838
697.88	30.539
698.20	33.774
698.52	28.210
698.84	30.185
699.16	32.623
699.48	31.356
699.80	30.719
700.12	34.642
700.44	33.178
700.76	31.026
701.08	28.982
701.40	29.091
701.72	32.620
702.04	32.249
702.36	33.333
702.68	34.574
703.00	31.579
703.32	33.251
703.64	33.753
703.96	32.292
704.28	30.688
704.60	34.366
704.91	31.092
705.23	32.955
705.55	33.234
705.87	33.333
706.19	33.856
706.51	34.796
706.83	32.448
707.15	35.294
707.47	30.266
707.79	32.184
708.11	31.973
708.43	32.584
708.74	32.127
709.06	34.186
709.38	33.499
709.70	32.153
710.02	32.609
710.34	36.464
710.66	31.944
710.98	34.426
711.29	28.691
711.61	33.426
711.93	31.915
712.25	30.723
712.57	32.797
712.89	31.212
713.20	31.949
713.52	32.399
713.84	35.347
714.16	29.275
714.48	30.259
714.80	30.623
715.11	31.383
715.43	30.447
715.75	32.958
716.07	33.237
716.39	34.571
716.70	28.349
717.02	29.966
717.34	35.612
717.66	32.292
717.97	37.500
718.29	36.620
718.61	31.419
718.93	34.256
719.24	36.913
719.56	33.103
719.88	32.484
720.20	32.581
720.51	31.373
720.83	33.110
721.15	30.612
721.46	35.274
721.78	31.707
722.10	35.764
722.42	36.455
722.73	32.491
723.05	36.491
723.37	35.336
723.68	34.375
724.00	34.470
724.32	36.122
724.63	33.077
724.95	32.941
725.27	35.316
725.58	38.603
725.90	32.394
726.22	34.589
726.53	34.114
726.85	34.853
727.16	36.242
727.48	35.548
727.80	37.050
728.11	31.786
728.43	31.884
728.74	36.014
729.06	32.616
729.38	34.035
729.69	36.667
730.01	34.211
730.32	38.926
730.64	35.216
730.96	32.733
731.27	31.193
731.59	33.908
731.90	33.705
732.22	34.571
732.53	35.043
732.85	35.380
733.16	30.723
733.48	34.796
733.80	29.565
734.11	32.209
734.43	30.409
734.74	32.440
735.06	33.598
735.37	36.082
735.69	33.043
736.00	34.862
736.32	32.424
736.63	33.123
736.95	35.093
737.26	37.195
737.58	36.503
737.89	32.530
738.21	33.775
738.52	32.776
738.83	34.066
739.15	33.449
739.46	34.138
739.78	35.714
740.09	34.402
740.41	32.822
740.72	34.286
741.04	38.462
741.35	35.547
741.66	39.921
741.98	34.764
742.29	38.426
742.61	28.761
742.92	36.441
743.23	36.400
743.55	32.830
743.86	30.980
744.18	38.559
744.49	36.777
744.80	35.945
745.12	32.589
745.43	40.187
745.74	35.556
746.06	31.140
746.37	33.953
746.68	38.053
747.00	34.529
747.31	34.454
747.62	30.738
747.94	35.193
748.25	32.296
748.56	37.712
748.88	40.625
749.19	38.605
749.50	29.680
749.82	37.860
750.13	33.992
750.44	35.000
750.75	36.242
751.07	34.211
751.38	32.343
751.69	34.343
752.01	33.566
752.32	33.555
752.63	33.221
752.94	35.664
753.26	35.938
753.57	35.019
753.88	34.457
754.19	34.296
754.51	33.223
754.82	30.872
755.13	33.784
755.44	30.370
755.75	37.801
756.07	33.219
756.38	29.412
756.69	34.375
757.00	36.499
757.31	32.676
757.63	31.405
757.94	37.500
758.25	35.024
758.56	32.494
758.87	33.835
759.18	34.593
759.50	35.258
759.81	33.828
760.12	33.146
760.43	32.493
760.74	37.468
761.05	35.544
761.36	32.031
761.67	34.501
761.99	35.211
762.30	35.048
762.61	30.208
762.92	36.364
763.23	32.830
763.54	35.385
763.85	28.794
764.16	37.500
764.47	33.784
764.78	31.270
765.10	34.756
765.41	34.659
765.72	32.597
766.03	34.139
766.34	40.418
766.65	36.122
766.96	39.271
767.27	38.318
767.58	38.614
767.89	40.331
768.20	41.463
768.51	38.776
768.82	35.526
769.13	34.902
769.44	33.835
769.75	32.959
770.06	38.235
770.37	36.404
770.68	32.444
770.99	37.712
771.30	36.820
771.61	39.615
771.92	35.115
772.23	35.081
772.54	35.556
772.85	42.079
773.16	41.304
773.47	33.333
773.78	43.069
774.09	35.227
774.39	44.242
774.70	32.353
775.01	40.789
775.32	37.888
775.63	39.726
775.94	44.444
776.25	42.069
776.56	44.275
776.87	37.405
777.18	40.152
777.48	44.094
777.79	40.000
778.10	40.909
778.41	42.537
778.72	33.083
779.03	32.692
779.34	33.108
779.65	36.646
779.95	45.342
780.26	37.500
780.57	42.857
780.88	45.390
781.19	55.000
781.50	32.544
781.80	41.530
782.11	40.212
782.42	35.057
782.73	41.243
783.04	34.194
783.34	45.736
783.65	38.776
783.96	40.000
784.27	41.722
784.57	35.526
784.88	43.478
785.19	45.833
785.50	46.552
785.81	46.512
786.11	40.741
786.42	48.031
786.73	49.550
787.04	39.623
787.34	33.333
787.65	44.697
787.96	38.636
788.26	51.181
788.57	51.825
788.88	38.028
789.19	40.458
789.49	43.243
789.80	38.281
790.11	39.669
790.41	37.037
790.72	32.407
791.03	47.115
791.33	44.444
791.64	41.053
791.95	42.105
792.25	34.375
792.56	43.000
792.87	43.902
793.17	53.409
793.48	51.765
793.79	56.322
794.09	47.727
794.40	62.931
794.70	53.968
795.01	47.692
795.32	43.511
795.62	40.171
795.93	38.655
796.23	42.276
796.54	57.143
796.85	51.136
797.15	58.442
797.46	52.439
797.76	46.250
798.07	54.667
798.37	45.000
798.68	57.500
798.99	57.317
799.29	57.333
799.60	34.884
799.90	44.737
800.21	54.545
800.51	35.211
800.82	62.069
801.12	55.385
801.43	62.667
801.73	55.172
802.04	57.143
802.34	58.904
802.65	45.098
802.95	43.478
803.26	46.774
803.56	76.667
803.87	64.179
804.17	61.905
804.48	69.811
804.78	45.833
805.09	57.576
805.39	65.079
805.70	56.140
806.00	54.286
806.30	56.250
806.61	69.412
806.91	65.556
807.22	41.304
807.52	48.684
807.83	63.158
808.13	68.116
808.43	58.065
808.74	56.164
809.04	57.143
809.35	58.824
809.65	54.545
809.95	68.627
810.26	75.926
810.56	57.812
810.86	69.388
811.17	73.684
811.47	73.913
811.77	63.793
812.08	44.828
812.38	73.810
812.69	64.286
812.99	48.889
813.29	97.143
813.59	90.323
813.90	48.276
814.20	63.934
814.50	46.000
814.81	49.123
815.11	66.667
815.41	58.929
815.72	67.857
816.02	80.000
816.32	75.610
816.62	62.069
816.93	81.818
817.23	70.732
817.53	80.357
817.84	55.556
818.14	76.190
818.44	58.333
818.74	67.925
819.04	84.615
819.35	90.909
819.65	67.308
819.95	87.037
820.25	87.234
820.56	81.081
820.86	76.316
821.16	36.170
821.46	92.105
821.76	70.909
822.07	47.619
822.37	84.211
822.67	118.605
822.97	52.632
823.27	63.043
823.57	62.500
823.88	64.103
824.18	84.848
824.48	143.478
824.78	88.889
825.08	86.957
825.38	79.310
825.69	76.471
825.99	48.936
826.29	47.222
826.59	65.714
826.89	103.333
827.19	82.857
827.49	100.000
827.79	65.385
828.09	85.714
828.39	69.444
828.70	72.973
829.00	57.143
829.30	168.750
829.60	94.444
829.90	67.742
830.20	87.879
830.50	86.486
830.80	79.167
831.10	107.692
831.40	90.476
831.70	129.167
832.00	73.333
832.30	121.739
832.60	141.667
832.90	109.091
833.20	130.000
833.50	107.895
833.80	94.118
834.10	63.158
834.40	73.684
834.70	50.000
835.00	104.000
835.30	86.486
835.60	103.125
835.90	94.595
836.20	80.769
836.50	127.273
836.80	70.732
837.10	121.739
837.40	238.462
837.70	68.421
838.00	120.000
838.30	91.667
838.60	128.000
838.90	170.000
839.19	137.500
839.49	113.333
839.79	75.862
840.09	100.000
840.39	80.000
840.69	126.316
840.99	109.524
841.29	117.391
841.59	140.000
841.88	132.000
842.18	200.000
842.48	103.571
842.78	96.296
843.08	169.231
843.38	118.182
843.68	185.714
843.97	200.000
844.27	100.000
844.57	750.000
844.87	185.714
845.17	150.000
845.47	76.190
845.76	137.500
846.06	271.429
846.36	105.882
846.66	230.769
846.96	112.500
847.25	184.615
847.55	142.105
847.85	116.667
848.15	340.000
848.44	100.000
848.74	100.000
849.04	141.667
849.34	141.176
849.63	131.250
849.93	200.000
850.23	333.333
850.53	387.500
850.82	163.636
851.12	117.647
851.42	91.667
851.71	156.250
852.01	0.000
852.31	141.176
852.61	180.000
852.90	125.000
853.20	166.667
853.50	-400.000
853.79	92.000
854.09	115.625
854.39	106.897
854.68	124.138
854.98	157.143
855.28	80.645
855.57	185.714
855.87	166.667
856.17	81.481
856.46	136.842
856.76	90.323
857.05	141.176
857.35	218.182
857.65	146.154
857.94	70.000
858.24	222.222
858.53	150.000
858.83	485.714
859.13	156.522
859.42	211.111
859.72	312.500
860.01	158.333
860.31	525.000
860.60	180.000
860.90	325.000
861.20	223.077
861.49	228.571
861.79	-2200.000
862.08	257.143
862.38	211.111
862.67	135.714
862.97	180.000
863.26	86.667
863.56	425.000
863.85	215.385
864.15	129.412
864.44	144.444
864.74	191.667
865.03	209.091
865.33	225.000
865.62	160.000
865.92	333.333
866.21	575.000
866.51	480.000
866.80	161.111
867.10	233.333
867.39	2100.000
867.69	360.000
867.98	425.000
868.27	66.667
868.57	153.333
868.86	525.000
869.16	61.905
869.45	1700.000
869.75	-233.333
870.04	525.000
870.33	540.000
870.63	237.500
870.92	147.059
871.22	350.000
871.51	314.286
871.80	233.333
872.10	176.923
>>>>>End Processed Spectral Data<<<<<
