SpectraSuite Data File
++++++++++++++++++++++++++++++++++++
Date: Tue May 12 16:59:14 PDT 2015
User: schluterlab
Dark Spectrum Present: Yes
Reference Spectrum Present: Yes
Number of Sampled Component Spectra: 1
Spectrometers: USB2E3373
Integration Time (usec): 3000 (USB2E3373)
Spectra Averaged: 3 (USB2E3373)
Boxcar Smoothing: 0 (USB2E3373)
Correct for Electrical Dark: No (USB2E3373)
Strobe/Lamp Enabled: No (USB2E3373)
Correct for Detector Non-linearity: No (USB2E3373)
Correct for Stray Light: No (USB2E3373)
Number of Pixels in Processed Spectrum: 2048
>>>>>Begin Processed Spectral Data<<<<<
178.53	0.000
178.91	-133.333
179.29	-725.000
179.67	-2800.000
180.04	-153.333
180.42	875.000
180.80	1700.000
181.18	0.000
181.56	-325.000
181.94	0.000
182.31	1200.000
182.69	-3100.000
183.07	500.000
183.45	-3400.000
183.83	-1600.000
184.20	300.000
184.58	542.857
184.96	-253.846
185.34	-200.000
185.72	1400.000
186.09	-925.000
186.47	-3400.000
186.85	1100.000
187.23	540.000
187.61	1800.000
187.98	412.500
188.36	235.714
188.74	383.333
189.12	316.667
189.49	925.000
189.87	0.000
190.25	462.500
190.63	2900.000
191.00	-216.667
191.38	-3200.000
191.76	-575.000
192.14	512.500
192.51	-3900.000
192.89	1850.000
193.27	866.667
193.65	-1066.667
194.02	-660.000
194.40	514.286
194.78	-214.286
195.15	193.333
195.53	-3000.000
195.91	-440.000
196.29	3900.000
196.66	268.750
197.04	1150.000
197.42	-1600.000
197.79	500.000
198.17	258.333
198.55	0.000
198.92	485.714
199.30	1200.000
199.68	1400.000
200.05	800.000
200.43	-533.333
200.81	294.444
201.18	3200.000
201.56	283.333
201.94	-800.000
202.31	-262.500
202.69	-420.000
203.07	3000.000
203.44	-566.667
203.82	291.667
204.19	700.000
204.57	-1150.000
204.95	-825.000
205.32	-740.000
205.70	683.333
206.08	625.000
206.45	-1000.000
206.83	288.889
207.20	136.842
207.58	258.333
207.96	760.000
208.33	0.000
208.71	485.714
209.08	620.000
209.46	-2900.000
209.84	-925.000
210.21	820.000
210.59	-760.000
210.96	316.667
211.34	-925.000
211.71	436.364
212.09	1100.000
212.46	1250.000
212.84	-400.000
213.22	255.556
213.59	-2900.000
213.97	280.000
214.34	1050.000
214.72	1000.000
215.09	1066.667
215.47	-2500.000
215.84	-350.000
216.22	-412.500
216.59	0.000
216.97	0.000
217.34	1250.000
217.72	-1600.000
218.09	1066.667
218.47	375.000
218.84	675.000
219.22	1300.000
219.59	833.333
219.97	528.571
220.34	311.111
220.72	1300.000
221.09	3100.000
221.47	275.000
221.84	966.667
222.22	380.000
222.59	283.333
222.97	207.143
223.34	268.750
223.72	-1500.000
224.09	1233.333
224.46	269.231
224.84	-850.000
225.21	411.111
225.59	273.333
225.96	1100.000
226.34	-700.000
226.71	-525.000
227.08	-600.000
227.46	0.000
227.83	-483.333
228.21	-1650.000
228.58	383.333
228.95	1000.000
229.33	400.000
229.70	1000.000
230.08	384.615
230.45	3200.000
230.82	-1100.000
231.20	-766.667
231.57	-866.667
231.95	460.000
232.32	308.333
232.69	416.667
233.07	250.000
233.44	-1800.000
233.81	266.667
234.19	170.370
234.56	187.500
234.93	247.059
235.31	220.000
235.68	368.750
236.05	153.571
236.43	155.556
236.80	257.143
237.17	182.759
237.55	146.875
237.92	132.500
238.29	163.636
238.67	153.125
239.04	119.512
239.41	93.750
239.79	117.500
240.16	104.167
240.53	86.885
240.91	84.058
241.28	91.525
241.65	86.364
242.02	84.507
242.40	92.857
242.77	71.429
243.14	74.684
243.51	81.818
243.89	66.355
244.26	67.290
244.63	74.257
245.00	68.807
245.38	55.932
245.75	63.636
246.12	68.889
246.49	62.411
246.87	57.377
247.24	60.000
247.61	62.500
247.98	66.667
248.36	58.788
248.73	55.612
249.10	52.381
249.47	57.500
249.84	51.244
250.22	57.838
250.59	51.000
250.96	55.696
251.33	53.023
251.70	48.214
252.08	56.723
252.45	54.980
252.82	49.049
253.19	47.036
253.56	50.385
253.94	53.986
254.31	48.062
254.68	47.038
255.05	51.379
255.42	52.555
255.79	46.580
256.16	54.915
256.54	49.351
256.91	46.405
257.28	49.498
257.65	45.141
258.02	46.018
258.39	48.424
258.76	47.826
259.14	44.286
259.51	51.895
259.88	46.505
260.25	45.055
260.62	42.466
260.99	44.904
261.36	43.175
261.73	45.213
262.10	48.953
262.47	45.750
262.85	43.733
263.22	43.959
263.59	47.315
263.96	45.113
264.33	44.198
264.70	45.700
265.07	43.659
265.44	43.119
265.81	46.698
266.18	42.792
266.55	45.154
266.92	41.834
267.29	43.421
267.66	44.395
268.03	45.740
268.40	44.609
268.77	46.476
269.14	42.516
269.51	42.094
269.88	42.857
270.25	43.629
270.62	44.421
270.99	41.176
271.36	43.089
271.73	41.719
272.10	42.828
272.47	39.286
272.84	41.517
273.21	39.669
273.58	41.093
273.95	37.577
274.32	42.412
274.69	41.142
275.06	44.080
275.43	41.954
275.80	41.321
276.17	40.441
276.54	40.187
276.91	42.537
277.28	40.511
277.65	40.221
278.02	39.890
278.39	40.288
278.76	40.517
279.13	39.858
279.50	39.455
279.87	38.175
280.23	39.595
280.60	39.051
280.97	41.034
281.34	37.789
281.71	41.043
282.08	39.145
282.45	38.176
282.82	36.622
283.19	39.110
283.56	38.017
283.92	38.111
284.29	38.769
284.66	37.143
285.03	38.308
285.40	36.860
285.77	35.340
286.14	37.616
286.51	35.890
286.87	34.494
287.24	34.835
287.61	36.322
287.98	35.075
288.35	35.852
288.72	36.874
289.08	33.183
289.45	35.213
289.82	34.688
290.19	32.943
290.56	34.207
290.93	32.230
291.29	34.807
291.66	31.497
292.03	32.679
292.40	32.249
292.77	33.148
293.13	32.810
293.50	30.229
293.87	31.165
294.24	30.909
294.60	31.090
294.97	31.888
295.34	30.013
295.71	30.486
296.08	29.333
296.44	30.877
296.81	29.156
297.18	28.517
297.55	30.788
297.91	27.340
298.28	29.106
298.65	26.994
299.02	28.347
299.38	28.177
299.75	27.927
300.12	27.064
300.48	27.635
300.85	29.201
301.22	28.372
301.59	25.472
301.95	26.488
302.32	26.659
302.69	26.923
303.05	27.722
303.42	26.233
303.79	26.436
304.15	26.403
304.52	26.004
304.89	27.612
305.25	26.363
305.62	25.693
305.99	26.413
306.35	25.895
306.72	26.015
307.09	25.466
307.45	25.343
307.82	25.823
308.19	25.361
308.55	25.100
308.92	25.417
309.29	25.838
309.65	25.867
310.02	26.166
310.38	23.330
310.75	25.072
311.12	22.797
311.48	24.903
311.85	24.618
312.22	25.883
312.58	24.295
312.95	24.660
313.31	24.625
313.68	25.235
314.05	24.084
314.41	24.953
314.78	23.295
315.14	25.972
315.51	25.544
315.87	23.266
316.24	23.996
316.61	24.440
316.97	23.303
317.34	24.798
317.70	23.529
318.07	25.267
318.43	24.165
318.80	23.643
319.16	24.301
319.53	23.982
319.89	22.760
320.26	25.419
320.62	23.993
320.99	23.642
321.35	23.377
321.72	24.288
322.08	24.284
322.45	25.341
322.81	22.964
323.18	24.512
323.54	24.564
323.91	25.476
324.27	23.254
324.64	23.875
325.00	23.017
325.37	23.862
325.73	25.042
326.10	24.109
326.46	22.874
326.83	23.360
327.19	23.534
327.56	23.802
327.92	23.279
328.29	24.959
328.65	24.144
329.01	23.695
329.38	23.604
329.74	22.716
330.11	24.674
330.47	24.126
330.84	23.469
331.20	23.266
331.56	24.439
331.93	23.695
332.29	23.129
332.66	24.150
333.02	23.454
333.38	23.473
333.75	24.187
334.11	23.322
334.48	23.248
334.84	22.973
335.20	22.926
335.57	22.166
335.93	24.054
336.29	22.637
336.66	24.271
337.02	22.498
337.38	23.560
337.75	22.973
338.11	23.544
338.47	22.693
338.84	22.185
339.20	21.558
339.56	23.129
339.93	22.575
340.29	21.933
340.65	22.464
341.02	24.779
341.38	22.660
341.74	22.841
342.11	21.870
342.47	21.493
342.83	23.052
343.20	23.444
343.56	21.287
343.92	23.452
344.28	22.249
344.65	21.760
345.01	20.952
345.37	21.394
345.73	21.508
346.10	22.311
346.46	22.807
346.82	20.679
347.19	21.638
347.55	21.936
347.91	21.299
348.27	21.456
348.63	21.440
349.00	22.011
349.36	22.412
349.72	21.789
350.08	20.807
350.45	20.487
350.81	21.789
351.17	21.880
351.53	21.786
351.89	21.601
352.26	21.088
352.62	21.116
352.98	21.089
353.34	22.034
353.70	21.483
354.07	21.308
354.43	21.045
354.79	20.577
355.15	20.980
355.51	20.242
355.87	21.913
356.24	20.323
356.60	20.852
356.96	20.773
357.32	21.100
357.68	21.659
358.04	20.593
358.40	21.814
358.77	21.112
359.13	20.345
359.49	20.311
359.85	20.402
360.21	20.357
360.57	21.095
360.93	20.563
361.29	21.284
361.66	21.775
362.02	19.247
362.38	19.986
362.74	20.878
363.10	20.477
363.46	19.475
363.82	20.337
364.18	19.701
364.54	20.243
364.90	20.549
365.26	21.096
365.62	19.959
365.98	19.615
366.35	19.172
366.71	20.194
367.07	20.000
367.43	20.416
367.79	20.213
368.15	19.132
368.51	20.331
368.87	20.109
369.23	19.681
369.59	19.218
369.95	20.490
370.31	19.986
370.67	19.778
371.03	20.028
371.39	20.014
371.75	19.539
372.11	20.530
372.47	19.795
372.83	19.850
373.19	20.014
373.55	19.931
373.91	18.992
374.27	19.775
374.63	20.475
374.99	19.879
375.35	19.825
375.71	20.580
376.07	18.966
376.42	18.223
376.78	19.332
377.14	19.528
377.50	19.101
377.86	18.770
378.22	20.232
378.58	20.036
378.94	19.795
379.30	19.224
379.66	19.506
380.02	19.824
380.38	18.618
380.74	19.839
381.09	20.093
381.45	19.133
381.81	19.031
382.17	19.353
382.53	19.376
382.89	19.870
383.25	18.769
383.61	20.058
383.97	18.656
384.32	19.289
384.68	20.440
385.04	18.875
385.40	19.810
385.76	19.427
386.12	18.986
386.48	18.967
386.83	19.560
387.19	18.433
387.55	18.198
387.91	19.457
388.27	19.393
388.62	19.366
388.98	18.367
389.34	19.334
389.70	18.278
390.06	19.329
390.42	18.692
390.77	19.103
391.13	19.372
391.49	19.722
391.85	19.754
392.20	19.428
392.56	19.295
392.92	19.203
393.28	18.834
393.64	18.693
393.99	18.376
394.35	19.423
394.71	18.577
395.07	19.100
395.42	19.028
395.78	20.296
396.14	19.398
396.50	19.495
396.85	19.329
397.21	18.893
397.57	19.187
397.92	17.851
398.28	19.084
398.64	19.023
399.00	18.760
399.35	18.572
399.71	18.653
400.07	18.607
400.42	18.806
400.78	18.358
401.14	18.908
401.49	18.664
401.85	18.946
402.21	17.985
402.57	18.671
402.92	18.606
403.28	18.198
403.63	18.835
403.99	19.180
404.35	18.406
404.70	18.429
405.06	17.631
405.42	19.031
405.77	19.184
406.13	18.384
406.49	18.420
406.84	18.782
407.20	18.721
407.55	18.462
407.91	19.464
408.27	18.739
408.62	19.752
408.98	18.628
409.34	18.410
409.69	18.793
410.05	18.784
410.40	18.080
410.76	17.573
411.11	18.602
411.47	18.086
411.83	17.809
412.18	17.995
412.54	18.498
412.89	17.699
413.25	18.529
413.60	17.582
413.96	18.193
414.31	19.126
414.67	18.436
415.03	18.838
415.38	18.360
415.74	17.056
416.09	18.176
416.45	19.586
416.80	18.794
417.16	17.505
417.51	18.280
417.87	18.148
418.22	17.618
418.58	17.580
418.93	18.144
419.29	18.484
419.64	18.050
420.00	18.258
420.35	18.583
420.71	17.095
421.06	17.657
421.42	18.135
421.77	18.545
422.12	17.751
422.48	17.411
422.83	19.029
423.19	17.117
423.54	18.157
423.90	17.384
424.25	17.722
424.61	18.108
424.96	17.504
425.31	17.953
425.67	18.519
426.02	17.667
426.38	17.503
426.73	17.235
427.09	18.446
427.44	17.276
427.79	17.553
428.15	18.326
428.50	18.229
428.85	18.048
429.21	17.180
429.56	17.747
429.92	17.802
430.27	17.562
430.62	17.181
430.98	17.764
431.33	17.440
431.68	16.988
432.04	16.813
432.39	18.167
432.74	18.326
433.10	18.051
433.45	18.438
433.80	18.478
434.16	17.656
434.51	17.905
434.86	17.910
435.22	17.288
435.57	17.961
435.92	17.758
436.28	18.030
436.63	17.720
436.98	17.962
437.34	17.409
437.69	16.405
438.04	17.419
438.39	18.739
438.75	17.261
439.10	17.917
439.45	17.807
439.81	18.334
440.16	17.887
440.51	17.624
440.86	17.265
441.22	16.667
441.57	18.583
441.92	17.127
442.27	17.423
442.63	17.785
442.98	16.703
443.33	17.836
443.68	18.260
444.03	16.918
444.39	17.373
444.74	17.961
445.09	17.272
445.44	17.694
445.79	17.398
446.15	17.368
446.50	17.616
446.85	17.082
447.20	16.915
447.55	16.368
447.91	17.848
448.26	17.519
448.61	17.137
448.96	16.939
449.31	17.162
449.66	17.719
450.02	16.748
450.37	17.157
450.72	17.410
451.07	17.743
451.42	17.487
451.77	17.068
452.12	17.697
452.47	17.436
452.83	17.634
453.18	16.877
453.53	17.880
453.88	17.829
454.23	18.013
454.58	17.366
454.93	16.983
455.28	18.237
455.63	17.376
455.98	17.541
456.34	17.690
456.69	17.317
457.04	17.124
457.39	16.800
457.74	17.511
458.09	17.069
458.44	17.689
458.79	17.029
459.14	17.403
459.49	18.120
459.84	17.500
460.19	17.062
460.54	17.322
460.89	17.431
461.24	17.182
461.59	17.460
461.94	16.548
462.29	17.735
462.64	17.714
462.99	16.827
463.34	17.498
463.69	17.665
464.04	16.926
464.39	17.630
464.74	16.354
465.09	17.063
465.44	17.193
465.79	16.821
466.14	16.852
466.49	17.200
466.84	17.168
467.19	17.223
467.54	17.237
467.89	16.667
468.24	16.966
468.59	16.131
468.94	16.667
469.29	16.860
469.64	17.492
469.99	17.416
470.34	16.572
470.68	16.414
471.03	16.411
471.38	16.159
471.73	16.395
472.08	17.286
472.43	17.008
472.78	17.029
473.13	16.395
473.48	16.504
473.83	16.549
474.17	15.866
474.52	16.825
474.87	16.430
475.22	16.105
475.57	16.264
475.92	16.096
476.27	16.104
476.61	15.925
476.96	16.301
477.31	16.298
477.66	16.479
478.01	15.523
478.36	16.272
478.70	16.278
479.05	16.370
479.40	15.972
479.75	16.435
480.10	16.457
480.45	15.873
480.79	16.590
481.14	16.215
481.49	15.919
481.84	15.699
482.19	16.157
482.53	15.679
482.88	16.174
483.23	15.516
483.58	15.799
483.92	16.636
484.27	16.139
484.62	15.535
484.97	16.128
485.31	15.905
485.66	16.342
486.01	17.001
486.36	16.669
486.70	16.143
487.05	16.041
487.40	16.216
487.75	16.286
488.09	15.795
488.44	16.189
488.79	16.210
489.13	15.677
489.48	16.101
489.83	15.513
490.17	15.359
490.52	14.987
490.87	15.086
491.22	15.293
491.56	15.415
491.91	15.278
492.26	15.056
492.60	15.945
492.95	15.677
493.30	15.560
493.64	16.128
493.99	16.234
494.34	15.195
494.68	14.962
495.03	15.941
495.37	16.029
495.72	15.711
496.07	15.274
496.41	15.161
496.76	15.576
497.11	15.510
497.45	15.783
497.80	15.246
498.14	15.442
498.49	15.460
498.84	15.794
499.18	15.128
499.53	15.250
499.87	15.049
500.22	14.878
500.56	15.460
500.91	15.538
501.26	15.618
501.60	15.893
501.95	15.278
502.29	15.600
502.64	15.836
502.98	15.474
503.33	15.278
503.67	16.291
504.02	15.405
504.36	14.932
504.71	15.516
505.06	14.688
505.40	14.787
505.75	15.061
506.09	16.099
506.44	15.414
506.78	15.359
507.13	14.106
507.47	14.702
507.82	15.864
508.16	15.434
508.51	15.362
508.85	15.432
509.19	15.125
509.54	14.990
509.88	15.515
510.23	14.902
510.57	15.010
510.92	14.885
511.26	15.261
511.61	14.870
511.95	14.335
512.30	14.700
512.64	14.486
512.98	15.172
513.33	14.908
513.67	14.138
514.02	14.545
514.36	14.590
514.70	13.600
515.05	14.385
515.39	15.077
515.74	15.254
516.08	14.379
516.42	15.574
516.77	14.880
517.11	14.453
517.46	14.062
517.80	13.872
518.14	15.493
518.49	13.616
518.83	14.670
519.17	14.199
519.52	14.418
519.86	14.441
520.20	15.014
520.55	14.585
520.89	14.483
521.23	14.077
521.58	13.999
521.92	14.577
522.26	14.100
522.61	14.557
522.95	14.715
523.29	14.561
523.64	13.699
523.98	15.317
524.32	14.360
524.66	14.493
525.01	13.432
525.35	14.202
525.69	13.365
526.04	15.943
526.38	14.185
526.72	14.141
527.06	13.601
527.41	14.631
527.75	13.999
528.09	14.269
528.43	14.643
528.78	14.490
529.12	15.051
529.46	12.975
529.80	14.895
530.15	14.791
530.49	14.320
530.83	14.381
531.17	14.268
531.51	14.224
531.86	13.949
532.20	13.906
532.54	13.183
532.88	14.116
533.22	15.296
533.57	15.009
533.91	14.336
534.25	14.253
534.59	14.737
534.93	14.676
535.27	13.717
535.62	14.469
535.96	14.243
536.30	14.808
536.64	13.789
536.98	14.600
537.32	14.750
537.66	13.393
538.01	14.799
538.35	14.847
538.69	13.774
539.03	15.112
539.37	14.138
539.71	14.753
540.05	14.708
540.39	14.403
540.73	14.367
541.07	14.366
541.42	13.993
541.76	14.982
542.10	14.303
542.44	15.025
542.78	14.663
543.12	13.988
543.46	14.662
543.80	14.662
544.14	14.241
544.48	13.990
544.82	14.312
545.16	13.965
545.50	14.751
545.84	15.278
546.18	14.954
546.52	14.361
546.86	14.378
547.20	14.083
547.54	15.009
547.88	14.964
548.22	15.301
548.56	15.439
548.90	14.235
549.24	14.466
549.58	14.046
549.92	14.211
550.26	13.996
550.60	14.571
550.94	13.840
551.28	14.621
551.62	15.310
551.96	14.595
552.30	13.909
552.64	15.534
552.98	14.497
553.32	14.341
553.66	13.746
554.00	14.672
554.34	15.712
554.68	14.718
555.02	14.189
555.36	13.830
555.69	14.725
556.03	14.395
556.37	14.468
556.71	14.863
557.05	13.368
557.39	14.333
557.73	15.162
558.07	14.085
558.41	14.736
558.75	14.843
559.08	14.868
559.42	14.531
559.76	14.540
560.10	14.109
560.44	14.134
560.78	14.770
561.12	14.367
561.45	14.205
561.79	14.607
562.13	14.087
562.47	14.601
562.81	14.314
563.15	14.350
563.48	13.168
563.82	14.598
564.16	14.801
564.50	14.406
564.84	14.772
565.17	14.260
565.51	14.101
565.85	15.608
566.19	14.762
566.52	13.899
566.86	15.703
567.20	15.281
567.54	14.356
567.88	15.232
568.21	14.329
568.55	14.154
568.89	15.648
569.23	14.452
569.56	15.415
569.90	15.523
570.24	16.525
570.57	15.704
570.91	15.289
571.25	15.243
571.59	15.849
571.92	15.447
572.26	14.933
572.60	15.468
572.93	15.497
573.27	16.140
573.61	15.566
573.95	15.712
574.28	15.705
574.62	15.696
574.96	15.710
575.29	15.871
575.63	15.595
575.97	15.555
576.30	15.034
576.64	15.641
576.98	15.974
577.31	16.305
577.65	16.035
577.98	16.202
578.32	15.900
578.66	15.649
578.99	15.733
579.33	16.103
579.67	15.670
580.00	15.639
580.34	15.937
580.67	15.570
581.01	16.173
581.35	16.001
581.68	15.787
582.02	15.989
582.35	15.794
582.69	15.967
583.02	15.652
583.36	15.798
583.70	15.264
584.03	15.958
584.37	16.078
584.70	15.800
585.04	15.655
585.37	15.397
585.71	16.022
586.04	15.374
586.38	15.729
586.72	15.161
587.05	16.006
587.39	15.777
587.72	15.858
588.06	15.967
588.39	15.379
588.73	15.554
589.06	15.495
589.40	15.931
589.73	15.536
590.07	15.717
590.40	15.854
590.73	15.902
591.07	15.901
591.40	15.768
591.74	15.219
592.07	14.809
592.41	15.388
592.74	15.342
593.08	15.299
593.41	15.380
593.75	15.315
594.08	15.614
594.41	15.347
594.75	14.863
595.08	15.501
595.42	15.602
595.75	15.499
596.09	16.267
596.42	15.331
596.75	16.386
597.09	15.931
597.42	15.143
597.75	15.254
598.09	15.429
598.42	15.585
598.76	15.536
599.09	15.631
599.42	15.502
599.76	15.773
600.09	15.153
600.42	15.262
600.76	15.262
601.09	15.361
601.42	15.347
601.76	14.894
602.09	15.600
602.42	15.194
602.76	15.636
603.09	15.309
603.42	15.780
603.76	15.437
604.09	15.092
604.42	14.878
604.76	15.725
605.09	15.429
605.42	15.522
605.75	15.752
606.09	15.455
606.42	15.370
606.75	15.274
607.09	15.041
607.42	14.584
607.75	15.167
608.08	15.150
608.42	14.933
608.75	15.062
609.08	15.310
609.41	14.909
609.75	15.247
610.08	15.603
610.41	15.283
610.74	15.022
611.07	15.507
611.41	15.431
611.74	15.583
612.07	14.788
612.40	14.669
612.73	15.077
613.07	14.698
613.40	15.589
613.73	15.027
614.06	14.850
614.39	15.000
614.72	14.666
615.06	15.430
615.39	14.802
615.72	14.860
616.05	15.620
616.38	14.612
616.71	14.162
617.05	14.717
617.38	14.831
617.71	14.904
618.04	15.199
618.37	14.063
618.70	14.550
619.03	14.713
619.36	14.698
619.69	14.710
620.03	15.525
620.36	14.194
620.69	15.070
621.02	13.995
621.35	14.183
621.68	14.307
622.01	15.129
622.34	14.494
622.67	13.764
623.00	14.636
623.33	14.912
623.66	14.704
623.99	14.658
624.32	14.770
624.65	13.891
624.99	14.740
625.32	14.429
625.65	13.655
625.98	13.529
626.31	14.614
626.64	14.047
626.97	14.384
627.30	13.509
627.63	14.286
627.96	13.224
628.29	14.686
628.62	13.345
628.95	14.096
629.28	15.162
629.61	14.851
629.94	13.656
630.26	14.905
630.59	14.539
630.92	14.260
631.25	14.778
631.58	14.561
631.91	13.130
632.24	13.703
632.57	14.342
632.90	14.286
633.23	14.586
633.56	13.699
633.89	14.255
634.22	13.132
634.55	12.581
634.88	15.334
635.20	13.677
635.53	14.750
635.86	15.101
636.19	13.692
636.52	13.730
636.85	12.837
637.18	13.976
637.51	12.179
637.83	12.815
638.16	14.185
638.49	13.413
638.82	13.498
639.15	13.396
639.48	15.047
639.81	13.309
640.13	11.656
640.46	14.539
640.79	13.524
641.12	12.861
641.45	14.877
641.77	14.795
642.10	14.458
642.43	13.940
642.76	11.364
643.09	12.104
643.41	15.007
643.74	14.676
644.07	15.782
644.40	13.018
644.73	13.964
645.05	15.156
645.38	15.467
645.71	12.140
646.04	13.893
646.36	15.649
646.69	12.800
647.02	14.560
647.35	12.756
647.67	12.642
648.00	12.052
648.33	14.135
648.66	15.000
648.98	13.043
649.31	12.955
649.64	13.278
649.96	13.371
650.29	13.571
650.62	15.169
650.94	16.265
651.27	13.716
651.60	13.302
651.92	15.668
652.25	14.016
652.58	12.908
652.90	14.671
653.23	14.771
653.56	14.095
653.88	13.069
654.21	14.956
654.54	16.105
654.86	14.159
655.19	14.512
655.52	14.566
655.84	14.915
656.17	18.119
656.49	25.942
656.82	28.804
657.15	21.558
657.47	15.931
657.80	12.027
658.13	9.874
658.45	13.377
658.78	16.053
659.10	16.271
659.43	16.945
659.75	16.915
660.08	15.351
660.41	16.152
660.73	16.562
661.06	15.165
661.38	13.799
661.71	16.547
662.03	12.167
662.36	12.381
662.68	13.035
663.01	15.495
663.33	14.717
663.66	15.385
663.98	16.865
664.31	15.858
664.63	15.709
664.96	15.572
665.28	13.559
665.61	14.906
665.93	13.774
666.26	12.710
666.58	17.982
666.91	14.286
667.23	15.863
667.56	15.195
667.88	16.183
668.21	14.549
668.53	14.718
668.86	15.030
669.18	15.886
669.50	15.496
669.83	17.043
670.15	14.137
670.48	12.891
670.80	14.542
671.13	16.335
671.45	15.431
671.77	14.842
672.10	15.260
672.42	16.776
672.75	16.139
673.07	15.580
673.39	14.217
673.72	15.052
674.04	14.695
674.37	13.793
674.69	15.242
675.01	15.112
675.34	13.372
675.66	17.969
675.98	16.371
676.31	16.200
676.63	14.911
676.95	16.468
677.28	16.024
677.60	15.895
677.92	14.484
678.25	14.729
678.57	15.642
678.89	16.817
679.22	15.441
679.54	16.548
679.86	14.311
680.18	13.181
680.51	16.252
680.83	14.189
681.15	15.771
681.48	15.104
681.80	15.236
682.12	14.014
682.44	15.856
682.77	15.836
683.09	14.757
683.41	15.714
683.73	16.535
684.06	14.286
684.38	16.085
684.70	16.187
685.02	13.889
685.34	15.669
685.67	15.916
685.99	15.764
686.31	16.795
686.63	15.610
686.96	15.850
687.28	14.262
687.60	13.140
687.92	16.415
688.24	17.931
688.56	17.794
688.89	15.105
689.21	16.185
689.53	16.798
689.85	13.415
690.17	16.311
690.49	16.331
690.82	15.756
691.14	17.778
691.46	15.400
691.78	15.400
692.10	16.221
692.42	15.426
692.74	14.922
693.06	16.279
693.39	13.241
693.71	15.324
694.03	18.935
694.35	18.675
694.67	15.479
694.99	15.743
695.31	17.117
695.63	16.968
695.95	15.385
696.27	17.035
696.59	16.229
696.91	16.709
697.23	16.290
697.56	13.693
697.88	14.571
698.20	17.547
698.52	13.424
698.84	17.659
699.16	15.991
699.48	15.678
699.80	21.133
700.12	17.783
700.44	17.290
700.76	16.945
701.08	17.232
701.40	15.325
701.72	19.251
702.04	17.073
702.36	22.312
702.68	19.681
703.00	16.541
703.32	18.362
703.64	17.128
703.96	17.448
704.28	17.196
704.60	20.282
704.91	18.207
705.23	16.477
705.55	17.804
705.87	17.143
706.19	18.182
706.51	19.749
706.83	15.929
707.15	20.588
707.47	17.433
707.79	17.241
708.11	19.501
708.43	17.753
708.74	16.063
709.06	17.442
709.38	17.122
709.70	17.711
710.02	17.663
710.34	16.298
710.66	20.833
710.98	18.579
711.29	19.777
711.61	20.613
711.93	17.933
712.25	18.072
712.57	18.650
712.89	20.303
713.20	20.128
713.52	18.692
713.84	14.502
714.16	14.493
714.48	14.121
714.80	17.344
715.11	18.085
715.43	13.966
715.75	18.873
716.07	19.653
716.39	19.143
716.70	16.199
717.02	21.212
717.34	21.942
717.66	22.569
717.97	20.455
718.29	17.606
718.61	17.230
718.93	17.993
719.24	20.470
719.56	17.241
719.88	20.064
720.20	20.645
720.51	18.627
720.83	20.401
721.15	18.707
721.46	15.411
721.78	22.648
722.10	17.361
722.42	19.732
722.73	19.856
723.05	21.754
723.37	23.675
723.68	19.922
724.00	20.833
724.32	22.053
724.63	21.923
724.95	24.314
725.27	18.959
725.58	20.588
725.90	18.662
726.22	19.521
726.53	18.395
726.85	22.801
727.16	18.456
727.48	21.262
727.80	22.662
728.11	23.214
728.43	22.826
728.74	19.930
729.06	20.430
729.38	22.105
729.69	24.000
730.01	22.368
730.32	19.799
730.64	22.259
730.96	19.520
731.27	15.902
731.59	17.816
731.90	19.499
732.22	21.429
732.53	15.385
732.85	23.977
733.16	20.783
733.48	21.630
733.80	21.449
734.11	23.006
734.43	21.345
734.74	17.158
735.06	20.106
735.37	19.330
735.69	21.449
736.00	19.878
736.32	17.576
736.63	17.035
736.95	20.807
737.26	22.561
737.58	19.632
737.89	19.880
738.21	19.868
738.52	23.746
738.83	23.810
739.15	20.557
739.46	19.655
739.78	22.109
740.09	21.283
740.41	19.939
740.72	27.619
741.04	24.126
741.35	25.000
741.66	18.577
741.98	23.176
742.29	22.685
742.61	18.142
742.92	19.915
743.23	22.000
743.55	17.358
743.86	21.176
744.18	20.763
744.49	24.793
744.80	20.276
745.12	22.768
745.43	20.093
745.74	27.556
746.06	21.491
746.37	20.000
746.68	24.336
747.00	22.870
747.31	24.370
747.62	18.443
747.94	21.888
748.25	26.070
748.56	24.153
748.88	22.321
749.19	30.233
749.50	20.548
749.82	22.634
750.13	22.925
750.44	20.667
750.75	24.832
751.07	22.039
751.38	19.142
751.69	19.529
752.01	19.930
752.32	25.249
752.63	22.148
752.94	23.077
753.26	23.437
753.57	21.790
753.88	20.225
754.19	21.661
754.51	21.262
754.82	21.812
755.13	22.635
755.44	22.593
755.75	28.522
756.07	22.945
756.38	20.915
756.69	21.562
757.00	24.036
757.31	24.225
757.63	19.835
757.94	18.085
758.25	20.531
758.56	20.595
758.87	20.301
759.18	21.802
759.50	20.365
759.81	22.849
760.12	21.067
760.43	20.448
760.74	19.241
761.05	23.607
761.36	16.927
761.67	22.102
761.99	20.563
762.30	22.508
762.61	20.139
762.92	21.212
763.23	24.906
763.54	27.692
763.85	17.121
764.16	24.653
764.47	21.284
764.78	22.801
765.10	18.293
765.41	19.034
765.72	19.613
766.03	18.731
766.34	23.693
766.65	23.954
766.96	26.721
767.27	22.897
767.58	23.762
767.89	27.624
768.20	34.756
768.51	29.082
768.82	26.754
769.13	23.922
769.44	22.180
769.75	24.345
770.06	28.151
770.37	21.491
770.68	23.111
770.99	31.356
771.30	26.778
771.61	23.077
771.92	25.954
772.23	22.581
772.54	26.667
772.85	29.703
773.16	25.000
773.47	30.000
773.78	28.713
774.09	28.977
774.39	33.333
774.70	26.471
775.01	26.974
775.32	26.708
775.63	39.041
775.94	36.420
776.25	34.483
776.56	33.588
776.87	37.405
777.18	34.848
777.48	34.646
777.79	33.846
778.10	37.879
778.41	30.597
778.72	30.827
779.03	29.487
779.34	36.486
779.65	30.435
779.95	29.193
780.26	29.167
780.57	39.456
780.88	29.787
781.19	37.500
781.50	38.462
781.80	33.880
782.11	31.746
782.42	29.310
782.73	29.944
783.04	29.032
783.34	33.333
783.65	25.850
783.96	34.194
784.27	31.788
784.57	21.053
784.88	27.536
785.19	33.333
785.50	35.345
785.81	38.760
786.11	33.333
786.42	41.732
786.73	35.135
787.04	40.566
787.34	19.512
787.65	37.879
787.96	34.091
788.26	40.945
788.57	30.657
788.88	28.873
789.19	34.351
789.49	35.135
789.80	34.375
790.11	35.537
790.41	38.889
790.72	31.481
791.03	39.423
791.33	34.343
791.64	42.105
791.95	43.158
792.25	38.542
792.56	51.000
792.87	46.341
793.17	47.727
793.48	48.235
793.79	45.977
794.09	45.455
794.40	43.966
794.70	40.476
795.01	40.000
795.32	28.244
795.62	25.641
795.93	37.815
796.23	38.211
796.54	43.878
796.85	51.136
797.15	48.052
797.46	52.439
797.76	41.250
798.07	64.000
798.37	56.250
798.68	55.000
798.99	60.976
799.29	44.000
799.60	39.535
799.90	55.263
800.21	65.152
800.51	59.155
800.82	63.793
801.12	56.923
801.43	62.667
801.73	51.724
802.04	37.662
802.34	58.904
802.65	84.314
802.95	69.565
803.26	74.194
803.56	75.000
803.87	53.731
804.17	73.016
804.48	62.264
804.78	55.556
805.09	65.152
805.39	50.794
805.70	61.404
806.00	52.857
806.30	42.187
806.61	43.529
806.91	43.333
807.22	38.043
807.52	57.895
807.83	47.368
808.13	57.971
808.43	51.613
808.74	53.425
809.04	66.071
809.35	61.765
809.65	66.667
809.95	62.745
810.26	83.333
810.56	60.938
810.86	73.469
811.17	59.649
811.47	63.043
811.77	55.172
812.08	60.345
812.38	90.476
812.69	57.143
812.99	88.889
813.29	88.571
813.59	112.903
813.90	55.172
814.20	57.377
814.50	68.000
814.81	36.842
815.11	70.370
815.41	80.357
815.72	98.214
816.02	84.000
816.32	97.561
816.62	77.586
816.93	100.000
817.23	112.195
817.53	71.429
817.84	75.556
818.14	97.619
818.44	72.917
818.74	83.019
819.04	79.487
819.35	84.848
819.65	65.385
819.95	98.148
820.25	93.617
820.56	91.892
820.86	100.000
821.16	89.362
821.46	102.632
821.76	60.000
822.07	83.333
822.37	84.211
822.67	111.628
822.97	78.947
823.27	80.435
823.57	93.750
823.88	87.179
824.18	130.303
824.48	130.435
824.78	75.000
825.08	139.130
825.38	117.241
825.69	111.765
825.99	78.723
826.29	55.556
826.59	108.571
826.89	106.667
827.19	68.571
827.49	125.806
827.79	88.462
828.09	59.524
828.39	72.222
828.70	62.162
829.00	125.000
829.30	218.750
829.60	100.000
829.90	112.903
830.20	75.758
830.50	97.297
830.80	154.167
831.10	138.462
831.40	109.524
831.70	175.000
832.00	103.333
832.30	165.217
832.60	108.333
832.90	130.303
833.20	140.000
833.50	102.632
833.80	102.941
834.10	102.632
834.40	205.263
834.70	86.667
835.00	136.000
835.30	94.595
835.60	115.625
835.90	140.541
836.20	169.231
836.50	113.636
836.80	95.122
837.10	117.391
837.40	223.077
837.70	168.421
838.00	123.333
838.30	141.667
838.60	124.000
838.90	360.000
839.19	168.750
839.49	126.667
839.79	131.034
840.09	161.538
840.39	173.333
840.69	152.632
840.99	142.857
841.29	130.435
841.59	180.000
841.88	84.000
842.18	333.333
842.48	125.000
842.78	140.741
843.08	184.615
843.38	154.545
843.68	200.000
843.97	457.143
844.27	113.043
844.57	1300.000
844.87	335.714
845.17	211.111
845.47	171.429
845.76	150.000
846.06	400.000
846.36	135.294
846.66	169.231
846.96	206.250
847.25	169.231
847.55	189.474
847.85	138.889
848.15	520.000
848.44	327.273
848.74	138.095
849.04	187.500
849.34	170.588
849.63	168.750
849.93	287.500
850.23	600.000
850.53	312.500
850.82	245.455
851.12	123.529
851.42	191.667
851.71	243.750
852.01	0.000
852.31	164.706
852.61	480.000
852.90	162.500
853.20	300.000
853.50	-2400.000
853.79	124.000
854.09	153.125
854.39	144.828
854.68	144.828
854.98	171.429
855.28	122.581
855.57	257.143
855.87	183.333
856.17	114.815
856.46	142.105
856.76	116.129
857.05	200.000
857.35	300.000
857.65	192.308
857.94	195.000
858.24	322.222
858.53	271.429
858.83	557.143
859.13	165.217
859.42	244.444
859.72	425.000
860.01	225.000
860.31	825.000
860.60	360.000
860.90	462.500
861.20	230.769
861.49	485.714
861.79	-3700.000
862.08	571.429
862.38	300.000
862.67	250.000
862.97	270.000
863.26	143.333
863.56	875.000
863.85	230.769
864.15	194.118
864.44	188.889
864.74	291.667
865.03	354.545
865.33	412.500
865.62	253.333
865.92	500.000
866.21	900.000
866.51	460.000
866.80	222.222
867.10	700.000
867.39	2500.000
867.69	640.000
867.98	950.000
868.27	166.667
868.57	206.667
868.86	550.000
869.16	157.143
869.45	3700.000
869.75	-366.667
870.04	475.000
870.33	440.000
870.63	300.000
870.92	200.000
871.22	500.000
871.51	400.000
871.80	291.667
872.10	323.077
>>>>>End Processed Spectral Data<<<<<
