SpectraSuite Data File
++++++++++++++++++++++++++++++++++++
Date: Tue May 12 17:18:51 PDT 2015
User: schluterlab
Dark Spectrum Present: Yes
Reference Spectrum Present: Yes
Number of Sampled Component Spectra: 1
Spectrometers: USB2E3373
Integration Time (usec): 3000 (USB2E3373)
Spectra Averaged: 3 (USB2E3373)
Boxcar Smoothing: 0 (USB2E3373)
Correct for Electrical Dark: No (USB2E3373)
Strobe/Lamp Enabled: No (USB2E3373)
Correct for Detector Non-linearity: No (USB2E3373)
Correct for Stray Light: No (USB2E3373)
Number of Pixels in Processed Spectrum: 2048
>>>>>Begin Processed Spectral Data<<<<<
178.53	0.000
178.91	-250.000
179.29	-650.000
179.67	-3600.000
180.04	-86.667
180.42	700.000
180.80	1350.000
181.18	0.000
181.56	-425.000
181.94	0.000
182.31	1100.000
182.69	-3600.000
183.07	628.571
183.45	-4000.000
183.83	-1450.000
184.20	400.000
184.58	528.571
184.96	-292.308
185.34	-208.333
185.72	1800.000
186.09	-750.000
186.47	-3400.000
186.85	1100.000
187.23	580.000
187.61	1750.000
187.98	525.000
188.36	264.286
188.74	333.333
189.12	316.667
189.49	825.000
189.87	0.000
190.25	500.000
190.63	2600.000
191.00	-158.333
191.38	-3600.000
191.76	-750.000
192.14	587.500
192.51	-2600.000
192.89	1900.000
193.27	1400.000
193.65	-800.000
194.02	-760.000
194.40	514.286
194.78	-285.714
195.15	266.667
195.53	-2800.000
195.91	-580.000
196.29	4100.000
196.66	268.750
197.04	925.000
197.42	-1600.000
197.79	550.000
198.17	358.333
198.55	0.000
198.92	414.286
199.30	1100.000
199.68	1900.000
200.05	750.000
200.43	-550.000
200.81	238.889
201.18	3400.000
201.56	216.667
201.94	-950.000
202.31	-275.000
202.69	-540.000
203.07	2900.000
203.44	-566.667
203.82	325.000
204.19	760.000
204.57	-1500.000
204.95	-875.000
205.32	-560.000
205.70	583.333
206.08	1000.000
206.45	-900.000
206.83	366.667
207.20	189.474
207.58	241.667
207.96	560.000
208.33	0.000
208.71	528.571
209.08	580.000
209.46	-4500.000
209.84	-675.000
210.21	920.000
210.59	-540.000
210.96	291.667
211.34	-900.000
211.71	400.000
212.09	875.000
212.46	1600.000
212.84	-450.000
213.22	433.333
213.59	-3200.000
213.97	290.000
214.34	800.000
214.72	1100.000
215.09	1000.000
215.47	-3400.000
215.84	-220.000
216.22	-362.500
216.59	0.000
216.97	0.000
217.34	1600.000
217.72	-1350.000
218.09	1166.667
218.47	462.500
218.84	825.000
219.22	1033.333
219.59	1000.000
219.97	557.143
220.34	266.667
220.72	1750.000
221.09	3900.000
221.47	266.667
221.84	933.333
222.22	260.000
222.59	277.778
222.97	221.429
223.34	287.500
223.72	-1100.000
224.09	1166.667
224.46	300.000
224.84	-800.000
225.21	333.333
225.59	213.333
225.96	1400.000
226.34	-760.000
226.71	-550.000
227.08	-660.000
227.46	0.000
227.83	-550.000
228.21	-1300.000
228.58	341.667
228.95	875.000
229.33	377.778
229.70	1175.000
230.08	346.154
230.45	3700.000
230.82	-875.000
231.20	-700.000
231.57	-1166.667
231.95	420.000
232.32	325.000
232.69	550.000
233.07	275.000
233.44	-1300.000
233.81	226.667
234.19	159.259
234.56	275.000
234.93	200.000
235.31	165.000
235.68	175.000
236.05	142.857
236.43	103.704
236.80	207.143
237.17	158.621
237.55	115.625
237.92	95.000
238.29	112.121
238.67	118.750
239.04	80.488
239.41	70.833
239.79	87.500
240.16	81.250
240.53	50.820
240.91	46.377
241.28	62.712
241.65	63.636
242.02	47.887
242.40	55.714
242.77	39.560
243.14	31.646
243.51	44.444
243.89	40.187
244.26	25.234
244.63	33.663
245.00	22.018
245.38	30.508
245.75	31.061
246.12	33.333
246.49	29.078
246.87	22.131
247.24	23.333
247.61	21.250
247.98	25.170
248.36	16.364
248.73	23.980
249.10	17.262
249.47	19.500
249.84	16.915
250.22	17.297
250.59	15.000
250.96	18.143
251.33	16.279
251.70	20.089
252.08	15.126
252.45	12.749
252.82	16.350
253.19	15.020
253.56	12.308
253.94	14.130
254.31	10.853
254.68	15.331
255.05	15.862
255.42	13.869
255.79	12.052
256.16	11.525
256.54	14.610
256.91	13.399
257.28	9.699
257.65	7.837
258.02	12.684
258.39	14.900
258.76	13.913
259.14	8.571
259.51	16.035
259.88	10.030
260.25	9.890
260.62	12.877
260.99	9.917
261.36	9.471
261.73	11.702
262.10	13.613
262.47	10.500
262.85	10.133
263.22	12.596
263.59	12.020
263.96	11.028
264.33	8.642
264.70	11.548
265.07	10.732
265.44	10.092
265.81	10.377
266.18	10.297
266.55	8.511
266.92	9.843
267.29	10.088
267.66	9.641
268.03	8.969
268.40	10.782
268.77	10.132
269.14	5.640
269.51	10.690
269.88	10.408
270.25	6.911
270.62	5.794
270.99	9.939
271.36	10.569
271.73	9.434
272.10	6.465
272.47	7.937
272.84	5.788
273.21	7.645
273.58	11.134
273.95	7.598
274.32	9.922
274.69	8.858
275.06	9.654
275.43	9.195
275.80	7.170
276.17	8.456
276.54	9.907
276.91	9.888
277.28	8.394
277.65	6.827
278.02	8.824
278.39	8.453
278.76	8.448
279.13	7.651
279.50	9.091
279.87	9.125
280.23	7.366
280.60	6.934
280.97	6.897
281.34	8.746
281.71	6.783
282.08	9.402
282.45	6.419
282.82	9.030
283.19	9.221
283.56	6.777
283.92	8.143
284.29	7.488
284.66	5.378
285.03	7.960
285.40	7.273
285.77	6.481
286.14	8.824
286.51	6.135
286.87	6.171
287.24	6.907
287.61	6.535
287.98	8.209
288.35	5.926
288.72	5.311
289.08	7.057
289.45	8.689
289.82	7.813
290.19	7.906
290.56	9.461
290.93	7.482
291.29	6.768
291.66	7.345
292.03	8.836
292.40	7.588
292.77	7.521
293.13	6.847
293.50	8.772
293.87	8.943
294.24	7.832
294.60	7.537
294.97	8.951
295.34	8.632
295.71	7.884
296.08	8.133
296.44	7.878
296.81	8.685
297.18	6.971
297.55	8.005
297.91	8.744
298.28	8.816
298.65	9.202
299.02	7.117
299.38	9.233
299.75	7.805
300.12	7.798
300.48	8.665
300.85	8.939
301.22	9.302
301.59	8.373
301.95	8.868
302.32	9.430
302.69	9.050
303.05	10.550
303.42	9.081
303.79	9.426
304.15	9.791
304.52	10.465
304.89	9.275
305.25	10.122
305.62	9.382
305.99	9.239
306.35	9.368
306.72	10.302
307.09	11.180
307.45	10.982
307.82	9.979
308.19	11.031
308.55	10.400
308.92	12.365
309.29	11.834
309.65	11.695
310.02	11.359
310.38	11.964
310.75	10.511
311.12	11.686
311.48	13.031
311.85	13.263
312.22	13.467
312.58	11.953
312.95	13.883
313.31	14.419
313.68	13.884
314.05	15.110
314.41	14.060
314.78	14.205
315.14	14.597
315.51	16.272
315.87	14.964
316.24	16.713
316.61	15.936
316.97	15.046
317.34	16.801
317.70	16.769
318.07	16.726
318.43	17.750
318.80	17.601
319.16	17.745
319.53	16.549
319.89	17.563
320.26	18.808
320.62	19.139
320.99	19.447
321.35	19.573
321.72	21.063
322.08	19.483
322.45	21.526
322.81	20.494
323.18	20.782
323.54	22.735
323.91	22.847
324.27	22.458
324.64	20.329
325.00	22.931
325.37	22.766
325.73	22.597
326.10	23.364
326.46	23.204
326.83	23.040
327.19	24.498
327.56	24.521
327.92	24.672
328.29	24.386
328.65	25.342
329.01	23.867
329.38	25.042
329.74	24.424
330.11	24.935
330.47	25.575
330.84	23.900
331.20	24.365
331.56	25.561
331.93	26.604
332.29	24.320
332.66	26.446
333.02	24.914
333.38	25.393
333.75	25.521
334.11	25.755
334.48	25.897
334.84	25.253
335.20	25.834
335.57	25.861
335.93	27.250
336.29	24.295
336.66	26.158
337.02	24.380
337.38	24.592
337.75	24.831
338.11	25.232
338.47	25.064
338.84	25.064
339.20	25.541
339.56	25.315
339.93	25.084
340.29	24.790
340.65	25.147
341.02	25.986
341.38	26.108
341.74	25.166
342.11	23.957
342.47	24.692
342.83	24.774
343.20	26.597
343.56	23.828
343.92	24.360
344.28	24.083
344.65	24.205
345.01	23.968
345.37	23.478
345.73	24.365
346.10	24.542
346.46	25.917
346.82	24.151
347.19	25.193
347.55	22.717
347.91	24.018
348.27	23.393
348.63	23.734
349.00	23.458
349.36	24.202
349.72	25.229
350.08	24.224
350.45	22.848
350.81	24.694
351.17	22.804
351.53	23.711
351.89	24.087
352.26	23.054
352.62	23.982
352.98	24.233
353.34	24.268
353.70	23.165
354.07	23.923
354.43	24.808
354.79	23.918
355.15	23.737
355.51	23.263
355.87	22.967
356.24	24.249
356.60	24.125
356.96	21.986
357.32	23.813
357.68	24.743
358.04	23.784
358.40	23.838
358.77	23.817
359.13	22.748
359.49	22.906
359.85	23.604
360.21	22.511
360.57	23.285
360.93	23.304
361.29	24.315
361.66	23.863
362.02	22.656
362.38	23.088
362.74	23.425
363.10	23.001
363.46	22.997
363.82	24.053
364.18	22.760
364.54	23.605
364.90	23.628
365.26	23.872
365.62	23.550
365.98	22.368
366.35	22.276
366.71	23.595
367.07	22.662
367.43	23.506
367.79	22.473
368.15	22.388
368.51	23.294
368.87	21.739
369.23	22.730
369.59	22.657
369.95	22.168
370.31	20.808
370.67	22.484
371.03	22.619
371.39	23.615
371.75	22.470
372.11	22.230
372.47	22.808
372.83	22.570
373.19	22.755
373.55	22.131
373.91	21.547
374.27	21.495
374.63	22.237
374.99	22.305
375.35	21.438
375.71	21.834
376.07	21.883
376.42	21.355
376.78	21.773
377.14	22.412
377.50	20.849
377.86	22.229
378.22	21.572
378.58	21.005
378.94	21.666
379.30	20.861
379.66	21.132
380.02	21.818
380.38	20.199
380.74	21.569
381.09	20.444
381.45	21.503
381.81	20.626
382.17	21.184
382.53	21.056
382.89	20.757
383.25	21.433
383.61	20.576
383.97	20.156
384.32	20.675
384.68	21.390
385.04	21.219
385.40	20.581
385.76	20.129
386.12	19.666
386.48	21.155
386.83	20.905
387.19	20.259
387.55	20.554
387.91	20.150
388.27	20.286
388.62	20.070
388.98	20.233
389.34	19.453
389.70	19.458
390.06	20.000
390.42	20.049
390.77	20.025
391.13	20.519
391.49	19.722
391.85	20.677
392.20	20.501
392.56	20.131
392.92	19.090
393.28	19.619
393.64	18.521
393.99	19.680
394.35	18.717
394.71	19.119
395.07	19.465
395.42	19.262
395.78	19.679
396.14	19.880
396.50	19.434
396.85	19.024
397.21	19.134
397.57	19.725
397.92	18.949
398.28	18.202
398.64	19.197
399.00	18.279
399.35	17.982
399.71	18.985
400.07	18.493
400.42	17.970
400.78	18.416
401.14	17.616
401.49	17.857
401.85	18.192
402.21	18.278
402.57	18.731
402.92	18.424
403.28	17.542
403.63	18.128
403.99	17.853
404.35	17.937
404.70	18.252
405.06	17.462
405.42	17.475
405.77	17.530
406.13	17.679
406.49	16.828
406.84	17.992
407.20	17.123
407.55	18.092
407.91	17.677
408.27	17.465
408.62	17.741
408.98	17.859
409.34	17.300
409.69	17.175
410.05	17.114
410.40	16.313
410.76	16.371
411.11	17.062
411.47	17.778
411.83	16.637
412.18	16.727
412.54	16.877
412.89	15.929
413.25	17.389
413.60	16.706
413.96	16.697
414.31	16.942
414.67	18.063
415.03	16.667
415.38	16.530
415.74	16.488
416.09	17.239
416.45	17.259
416.80	17.447
417.16	16.614
417.51	16.879
417.87	16.959
418.22	17.132
418.58	16.943
418.93	17.073
419.29	16.020
419.64	16.596
420.00	17.482
420.35	15.796
420.71	16.919
421.06	16.068
421.42	15.659
421.77	16.213
422.12	16.538
422.48	16.076
422.83	16.239
423.19	15.605
423.54	15.634
423.90	16.365
424.25	15.685
424.61	15.786
424.96	15.415
425.31	16.256
425.67	16.554
426.02	15.536
426.38	15.636
426.73	16.021
427.09	16.133
427.44	15.250
427.79	15.209
428.15	16.853
428.50	15.829
428.85	16.343
429.21	15.559
429.56	15.753
429.92	15.962
430.27	15.772
430.62	15.027
430.98	15.918
431.33	15.373
431.68	14.815
432.04	14.951
432.39	16.136
432.74	16.511
433.10	14.950
433.45	15.796
433.80	16.161
434.16	15.187
434.51	15.738
434.86	16.168
435.22	15.343
435.57	15.886
435.92	16.505
436.28	15.668
436.63	16.640
436.98	15.935
437.34	15.411
437.69	15.342
438.04	16.022
438.39	15.879
438.75	16.091
439.10	15.003
439.45	15.376
439.81	16.079
440.16	15.960
440.51	15.597
440.86	16.011
441.22	16.126
441.57	15.906
441.92	15.647
442.27	15.722
442.63	15.346
442.98	15.194
443.33	15.854
443.68	15.443
444.03	15.269
444.39	14.736
444.74	15.787
445.09	15.061
445.44	15.037
445.79	15.058
446.15	15.263
446.50	15.243
446.85	15.139
447.20	14.627
447.55	15.280
447.91	15.876
448.26	15.548
448.61	15.976
448.96	15.904
449.31	15.182
449.66	15.725
450.02	14.479
450.37	15.436
450.72	15.702
451.07	15.416
451.42	15.827
451.77	15.865
452.12	15.995
452.47	15.188
452.83	16.169
453.18	15.495
453.53	16.045
453.88	15.486
454.23	15.747
454.58	15.793
454.93	15.021
455.28	15.361
455.63	15.839
455.98	15.623
456.34	16.049
456.69	15.366
457.04	16.050
457.39	15.143
457.74	16.104
458.09	14.935
458.44	15.389
458.79	15.332
459.14	15.330
459.49	15.742
459.84	15.707
460.19	15.650
460.54	15.499
460.89	15.778
461.24	15.464
461.59	15.986
461.94	15.721
462.29	15.275
462.64	15.704
462.99	15.867
463.34	15.360
463.69	15.487
464.04	15.371
464.39	15.398
464.74	14.830
465.09	14.974
465.44	15.452
465.79	14.752
466.14	14.626
466.49	15.735
466.84	14.716
467.19	15.876
467.54	15.015
467.89	15.023
468.24	15.171
468.59	15.357
468.94	15.036
469.29	16.249
469.64	15.434
469.99	16.067
470.34	14.738
470.68	15.103
471.03	15.877
471.38	15.166
471.73	15.023
472.08	15.395
472.43	16.325
472.78	15.429
473.13	15.582
473.48	15.159
473.83	15.077
474.17	15.015
474.52	14.870
474.87	14.440
475.22	15.591
475.57	14.481
475.92	14.921
476.27	14.363
476.61	14.853
476.96	15.569
477.31	15.476
477.66	15.137
478.01	14.337
478.36	14.521
478.70	14.342
479.05	15.377
479.40	14.980
479.75	14.697
480.10	15.005
480.45	14.379
480.79	14.608
481.14	13.695
481.49	13.358
481.84	13.720
482.19	14.323
482.53	13.614
482.88	14.292
483.23	14.253
483.58	14.004
483.92	14.808
484.27	13.870
484.62	13.964
484.97	13.323
485.31	13.568
485.66	12.836
486.01	12.333
486.36	12.180
486.70	12.001
487.05	12.508
487.40	12.583
487.75	12.967
488.09	12.983
488.44	13.448
488.79	13.120
489.13	13.699
489.48	13.863
489.83	13.720
490.17	13.790
490.52	14.083
490.87	14.569
491.22	13.830
491.56	14.141
491.91	14.023
492.26	14.031
492.60	14.214
492.95	14.273
493.30	14.149
493.64	13.702
493.99	14.311
494.34	13.850
494.68	13.988
495.03	13.875
495.37	13.958
495.72	14.452
496.07	14.420
496.41	14.248
496.76	13.761
497.11	14.953
497.45	14.029
497.80	14.736
498.14	14.147
498.49	14.067
498.84	14.579
499.18	13.483
499.53	13.321
499.87	13.747
500.22	14.049
500.56	13.603
500.91	14.610
501.26	14.469
501.60	14.117
501.95	13.665
502.29	14.667
502.64	14.116
502.98	13.473
503.33	13.764
503.67	13.731
504.02	13.569
504.36	14.299
504.71	14.191
505.06	12.952
505.40	13.804
505.75	13.704
506.09	14.279
506.44	14.427
506.78	14.272
507.13	14.348
507.47	14.071
507.82	14.404
508.16	15.679
508.51	14.589
508.85	14.720
509.19	14.635
509.54	14.502
509.88	14.769
510.23	14.608
510.57	14.093
510.92	14.935
511.26	14.357
511.61	14.722
511.95	14.584
512.30	15.050
512.64	13.707
512.98	15.018
513.33	15.318
513.67	14.086
514.02	15.636
514.36	15.005
514.70	14.453
515.05	14.544
515.39	15.022
515.74	15.418
516.08	15.305
516.42	16.011
516.77	14.827
517.11	15.307
517.46	15.733
517.80	15.019
518.14	16.056
518.49	14.884
518.83	15.220
519.17	15.419
519.52	15.784
519.86	15.913
520.20	15.726
520.55	15.263
520.89	16.207
521.23	16.063
521.58	16.294
521.92	15.802
522.26	16.055
522.61	16.221
522.95	16.096
523.29	15.965
523.64	15.260
523.98	15.728
524.32	15.571
524.66	15.826
525.01	16.154
525.35	16.618
525.69	15.954
526.04	16.895
526.38	16.421
526.72	15.871
527.06	15.553
527.41	17.594
527.75	16.859
528.09	15.713
528.43	17.145
528.78	16.816
529.12	16.556
529.46	16.189
529.80	15.946
530.15	16.676
530.49	15.403
530.83	16.088
531.17	16.728
531.51	16.861
531.86	16.546
532.20	15.760
532.54	16.133
532.88	16.365
533.22	16.575
533.57	16.412
533.91	15.851
534.25	15.868
534.59	15.673
534.93	15.984
535.27	15.993
535.62	15.928
535.96	16.253
536.30	16.088
536.64	16.149
536.98	15.922
537.32	16.125
537.66	16.454
538.01	16.966
538.35	16.157
538.69	16.141
539.03	15.734
539.37	16.141
539.71	15.494
540.05	16.738
540.39	17.044
540.73	16.456
541.07	14.994
541.42	16.231
541.76	16.276
542.10	15.968
542.44	15.898
542.78	16.740
543.12	15.828
543.46	16.980
543.80	16.040
544.14	16.718
544.48	16.302
544.82	16.147
545.16	15.422
545.50	16.595
545.84	16.162
546.18	16.385
546.52	17.246
546.86	16.828
547.20	15.633
547.54	16.276
547.88	16.180
548.22	15.361
548.56	16.441
548.90	16.074
549.24	16.614
549.58	15.528
549.92	16.306
550.26	16.295
550.60	16.434
550.94	17.300
551.28	16.621
551.62	17.103
551.96	16.351
552.30	15.623
552.64	15.987
552.98	15.851
553.32	15.493
553.66	16.221
554.00	16.216
554.34	15.712
554.68	16.129
555.02	15.886
555.36	15.957
555.69	16.034
556.03	15.796
556.37	15.488
556.71	16.493
557.05	14.875
557.39	15.933
557.73	15.768
558.07	16.164
558.41	16.381
558.75	16.895
559.08	16.512
559.42	17.323
559.76	16.108
560.10	15.967
560.44	15.727
560.78	15.345
561.12	16.020
561.45	15.081
561.79	15.231
562.13	15.035
562.47	15.380
562.81	15.485
563.15	15.514
563.48	15.590
563.82	15.346
564.16	16.231
564.50	15.190
564.84	14.954
565.17	15.567
565.51	14.717
565.85	14.929
566.19	14.940
566.52	14.380
566.86	14.828
567.20	14.944
567.54	14.629
567.88	14.502
568.21	13.929
568.55	14.154
568.89	13.276
569.23	12.985
569.56	13.299
569.90	13.151
570.24	12.777
570.57	13.173
570.91	11.919
571.25	11.684
571.59	11.844
571.92	11.733
572.26	11.456
572.60	12.136
572.93	11.817
573.27	11.861
573.61	11.722
573.95	11.379
574.28	11.561
574.62	11.318
574.96	11.347
575.29	10.663
575.63	11.284
575.97	11.295
576.30	11.187
576.64	11.214
576.98	11.191
577.31	11.445
577.65	10.829
577.98	10.564
578.32	10.625
578.66	10.770
578.99	11.412
579.33	11.006
579.67	11.032
580.00	10.800
580.34	11.109
580.67	11.096
581.01	11.235
581.35	10.952
581.68	10.488
582.02	10.620
582.35	10.407
582.69	10.622
583.02	10.460
583.36	11.053
583.70	11.114
584.03	11.608
584.37	11.434
584.70	11.321
585.04	10.897
585.37	10.843
585.71	11.034
586.04	10.671
586.38	10.725
586.72	10.888
587.05	11.014
587.39	10.948
587.72	11.198
588.06	10.579
588.39	11.182
588.73	11.141
589.06	11.526
589.40	11.362
589.73	11.603
590.07	12.183
590.40	11.742
590.73	11.972
591.07	12.486
591.40	11.856
591.74	11.688
592.07	11.522
592.41	12.270
592.74	11.717
593.08	11.230
593.41	10.922
593.75	10.776
594.08	11.303
594.41	11.013
594.75	11.130
595.08	11.454
595.42	11.817
595.75	11.451
596.09	11.748
596.42	11.799
596.75	11.579
597.09	11.927
597.42	11.796
597.75	11.805
598.09	12.146
598.42	11.628
598.76	11.488
599.09	12.063
599.42	11.592
599.76	11.194
600.09	11.288
600.42	10.877
600.76	10.741
601.09	11.219
601.42	11.193
601.76	11.063
602.09	11.810
602.42	10.647
602.76	11.082
603.09	11.878
603.42	11.596
603.76	10.846
604.09	10.930
604.42	11.601
604.76	11.418
605.09	11.224
605.42	11.703
605.75	11.488
606.09	11.744
606.42	10.785
606.75	11.543
607.09	11.173
607.42	11.169
607.75	11.704
608.08	11.170
608.42	11.745
608.75	11.468
609.08	11.571
609.41	11.500
609.75	11.951
610.08	11.331
610.41	12.385
610.74	12.165
611.07	11.505
611.41	11.585
611.74	11.616
612.07	12.091
612.40	11.745
612.73	11.982
613.07	12.266
613.40	11.930
613.73	11.583
614.06	11.850
614.39	12.071
614.72	11.652
615.06	11.276
615.39	12.525
615.72	11.471
616.05	11.652
616.38	11.872
616.71	12.154
617.05	12.301
617.38	11.854
617.71	13.048
618.04	12.114
618.37	12.340
618.70	12.067
619.03	12.393
619.36	13.882
619.69	12.731
620.03	13.177
620.36	12.203
620.69	14.049
621.02	13.179
621.35	13.252
621.68	14.086
622.01	13.137
622.34	12.891
622.67	12.992
623.00	12.934
623.33	13.765
623.66	12.641
623.99	11.986
624.32	13.008
624.65	12.377
624.99	12.576
625.32	12.692
625.65	12.207
625.98	13.180
626.31	13.724
626.64	13.440
626.97	12.930
627.30	12.888
627.63	13.030
627.96	13.067
628.29	13.614
628.62	13.687
628.95	14.450
629.28	13.848
629.61	13.269
629.94	14.607
630.26	14.298
630.59	13.918
630.92	13.722
631.25	15.050
631.58	13.886
631.91	13.321
632.24	14.286
632.57	13.163
632.90	15.321
633.23	16.474
633.56	15.174
633.89	14.684
634.22	16.685
634.55	15.376
634.88	16.648
635.20	15.807
635.53	15.215
635.86	15.996
636.19	15.488
636.52	13.622
636.85	14.563
637.18	15.493
637.51	14.972
637.83	14.645
638.16	16.764
638.49	16.407
638.82	15.728
639.15	15.746
639.48	17.299
639.81	15.995
640.13	15.706
640.46	14.918
640.79	15.215
641.12	16.798
641.45	16.818
641.77	16.380
642.10	15.663
642.43	17.354
642.76	16.051
643.09	17.291
643.41	14.306
643.74	18.705
644.07	16.814
644.40	14.941
644.73	16.216
645.05	18.276
645.38	14.548
645.71	16.692
646.04	18.321
646.36	17.840
646.69	15.840
647.02	17.920
647.35	16.063
647.67	16.532
648.00	17.915
648.33	17.444
648.66	17.273
648.98	15.072
649.31	15.385
649.64	16.598
649.96	13.371
650.29	14.714
650.62	17.968
650.94	17.319
651.27	18.501
651.60	16.588
651.92	16.897
652.25	17.008
652.58	15.887
652.90	15.269
653.23	14.180
653.56	15.727
653.88	14.831
654.21	15.689
654.54	14.495
654.86	15.339
655.19	16.227
655.52	11.329
655.84	7.422
656.17	7.986
656.49	11.541
656.82	13.027
657.15	10.495
657.47	8.042
657.80	5.967
658.13	4.920
658.45	6.751
658.78	8.373
659.10	8.564
659.43	8.741
659.75	9.465
660.08	10.025
660.41	13.067
660.73	16.562
661.06	17.568
661.38	18.058
661.71	16.727
662.03	16.160
662.36	17.524
662.68	15.829
663.01	19.099
663.33	18.302
663.66	18.146
663.98	17.857
664.31	20.336
664.63	20.115
664.96	19.137
665.28	18.267
665.61	16.226
665.93	18.113
666.26	20.374
666.58	20.367
666.91	17.954
667.23	16.867
667.56	18.070
667.88	20.124
668.21	18.443
668.53	18.347
668.86	18.838
669.18	18.330
669.50	18.388
669.83	19.302
670.15	18.087
670.48	16.602
670.80	18.127
671.13	17.729
671.45	20.441
671.77	20.223
672.10	17.415
672.42	17.105
672.75	15.981
673.07	16.534
673.39	16.454
673.72	16.782
674.04	16.667
674.37	15.789
674.69	17.844
675.01	15.672
675.34	16.085
675.66	18.555
675.98	19.132
676.31	16.600
676.63	16.700
676.95	17.460
677.28	16.227
677.60	17.505
677.92	15.079
678.25	17.054
678.57	16.015
678.89	17.360
679.22	17.096
679.54	16.192
679.86	14.834
680.18	13.884
680.51	13.765
680.83	14.020
681.15	15.425
681.48	17.535
681.80	16.637
682.12	17.301
682.44	14.955
682.77	16.370
683.09	17.087
683.41	17.143
683.73	19.488
684.06	16.667
684.38	14.535
684.70	15.288
685.02	12.847
685.34	17.958
685.67	14.952
685.99	15.928
686.31	13.097
686.63	13.171
686.96	14.052
687.28	13.926
687.60	16.212
687.92	14.238
688.24	17.241
688.56	17.616
688.89	15.870
689.21	15.029
689.53	17.984
689.85	14.431
690.17	15.728
690.49	18.952
690.82	17.647
691.14	18.990
691.46	18.275
691.78	17.739
692.10	15.840
692.42	16.152
692.74	15.310
693.06	15.310
693.39	14.229
693.71	15.914
694.03	16.568
694.35	20.683
694.67	15.071
694.99	13.304
695.31	17.342
695.63	17.873
695.95	17.195
696.27	21.681
696.59	19.332
696.91	20.759
697.23	16.290
697.56	13.900
697.88	14.172
698.20	16.604
698.52	12.646
698.84	14.990
699.16	19.403
699.48	16.949
699.80	19.172
700.12	18.476
700.44	17.056
700.76	16.706
701.08	20.104
701.40	16.623
701.72	18.984
702.04	21.409
702.36	20.161
702.68	20.213
703.00	13.784
703.32	19.851
703.64	17.128
703.96	18.490
704.28	18.783
704.60	18.873
704.91	17.927
705.23	18.466
705.55	19.881
705.87	16.825
706.19	24.451
706.51	25.078
706.83	20.059
707.15	20.588
707.47	17.191
707.79	20.000
708.11	14.059
708.43	15.056
708.74	16.968
709.06	20.000
709.38	18.114
709.70	18.529
710.02	19.565
710.34	20.442
710.66	21.667
710.98	19.399
711.29	19.220
711.61	20.891
711.93	18.541
712.25	19.880
712.57	19.293
712.89	22.424
713.20	19.169
713.52	17.445
713.84	17.523
714.16	16.812
714.48	14.409
714.80	19.241
715.11	15.957
715.43	20.670
715.75	18.873
716.07	19.364
716.39	19.429
716.70	16.822
717.02	23.232
717.34	22.302
717.66	25.694
717.97	25.000
718.29	21.831
718.61	20.270
718.93	20.069
719.24	19.799
719.56	17.586
719.88	17.516
720.20	17.742
720.51	20.261
720.83	22.408
721.15	21.429
721.46	22.603
721.78	20.906
722.10	23.264
722.42	20.067
722.73	18.051
723.05	18.947
723.37	23.675
723.68	18.359
724.00	20.455
724.32	23.954
724.63	21.923
724.95	23.137
725.27	22.305
725.58	20.588
725.90	18.662
726.22	19.863
726.53	17.057
726.85	23.453
727.16	22.819
727.48	19.269
727.80	22.302
728.11	19.286
728.43	21.014
728.74	20.629
729.06	16.846
729.38	24.561
729.69	24.000
730.01	25.000
730.32	18.456
730.64	20.266
730.96	17.718
731.27	15.596
731.59	17.529
731.90	16.156
732.22	18.571
732.53	15.100
732.85	19.006
733.16	18.976
733.48	18.809
733.80	22.609
734.11	23.006
734.43	15.497
734.74	16.354
735.06	20.106
735.37	16.753
735.69	17.101
736.00	16.820
736.32	16.061
736.63	14.511
736.95	18.012
737.26	20.122
737.58	18.712
737.89	19.880
738.21	18.874
738.52	18.729
738.83	21.978
739.15	19.164
739.46	18.621
739.78	19.728
740.09	19.534
740.41	19.939
740.72	20.635
741.04	21.678
741.35	21.484
741.66	22.530
741.98	22.747
742.29	24.074
742.61	20.354
742.92	17.373
743.23	20.400
743.55	24.528
743.86	21.961
744.18	22.458
744.49	22.727
744.80	28.111
745.12	22.768
745.43	22.430
745.74	25.778
746.06	17.105
746.37	28.372
746.68	23.451
747.00	20.628
747.31	21.008
747.62	18.443
747.94	13.734
748.25	18.288
748.56	24.153
748.88	23.661
749.19	26.512
749.50	22.831
749.82	23.045
750.13	22.134
750.44	21.667
750.75	17.785
751.07	20.724
751.38	17.822
751.69	18.182
752.01	20.979
752.32	18.272
752.63	23.154
752.94	22.028
753.26	23.047
753.57	22.179
753.88	22.472
754.19	19.495
754.51	18.937
754.82	16.443
755.13	19.257
755.44	14.815
755.75	23.368
756.07	22.603
756.38	16.667
756.69	19.063
757.00	19.288
757.31	19.437
757.63	16.253
757.94	15.957
758.25	15.217
758.56	14.416
758.87	15.539
759.18	18.605
759.50	16.109
759.81	17.507
760.12	14.607
760.43	13.445
760.74	18.228
761.05	14.854
761.36	13.802
761.67	16.712
761.99	16.056
762.30	16.399
762.61	18.750
762.92	18.939
763.23	18.868
763.54	23.077
763.85	20.623
764.16	22.569
764.47	17.230
764.78	17.264
765.10	16.768
765.41	13.920
765.72	14.917
766.03	16.918
766.34	18.118
766.65	17.871
766.96	24.291
767.27	23.832
767.58	24.752
767.89	32.044
768.20	27.439
768.51	20.918
768.82	25.877
769.13	17.647
769.44	20.677
769.75	20.225
770.06	23.109
770.37	20.614
770.68	20.889
770.99	24.576
771.30	22.176
771.61	21.154
771.92	20.611
772.23	19.355
772.54	24.889
772.85	29.208
773.16	26.630
773.47	21.667
773.78	23.267
774.09	27.273
774.39	32.727
774.70	21.176
775.01	25.000
775.32	25.466
775.63	29.452
775.94	32.716
776.25	33.793
776.56	32.824
776.87	35.878
777.18	31.061
777.48	41.732
777.79	32.308
778.10	34.091
778.41	35.075
778.72	31.579
779.03	28.205
779.34	29.054
779.65	30.435
779.95	31.056
780.26	28.571
780.57	33.333
780.88	35.461
781.19	30.000
781.50	33.136
781.80	29.508
782.11	25.397
782.42	24.138
782.73	29.379
783.04	29.677
783.34	21.705
783.65	25.850
783.96	33.548
784.27	29.139
784.57	28.289
784.88	35.507
785.19	27.500
785.50	32.759
785.81	43.411
786.11	38.519
786.42	34.646
786.73	36.937
787.04	44.340
787.34	28.455
787.65	43.182
787.96	32.576
788.26	37.795
788.57	39.416
788.88	33.803
789.19	34.351
789.49	34.459
789.80	29.687
790.11	33.058
790.41	38.889
790.72	33.333
791.03	38.462
791.33	49.495
791.64	29.474
791.95	33.684
792.25	46.875
792.56	40.000
792.87	52.439
793.17	36.364
793.48	41.176
793.79	51.724
794.09	45.455
794.40	44.828
794.70	34.921
795.01	31.538
795.32	32.824
795.62	33.333
795.93	42.017
796.23	37.398
796.54	50.000
796.85	56.818
797.15	53.247
797.46	54.878
797.76	46.250
798.07	60.000
798.37	47.500
798.68	55.000
798.99	60.976
799.29	45.333
799.60	33.721
799.90	56.579
800.21	42.424
800.51	53.521
800.82	68.966
801.12	60.000
801.43	64.000
801.73	50.000
802.04	49.351
802.34	56.164
802.65	74.510
802.95	67.391
803.26	59.677
803.56	75.000
803.87	61.194
804.17	60.317
804.48	81.132
804.78	48.611
805.09	48.485
805.39	85.714
805.70	66.667
806.00	40.000
806.30	45.312
806.61	48.235
806.91	52.222
807.22	32.609
807.52	35.526
807.83	68.421
808.13	47.826
808.43	54.839
808.74	52.055
809.04	41.071
809.35	58.824
809.65	57.576
809.95	80.392
810.26	98.148
810.56	71.875
810.86	67.347
811.17	56.140
811.47	67.391
811.77	81.034
812.08	56.897
812.38	76.190
812.69	80.952
812.99	75.556
813.29	77.143
813.59	112.903
813.90	77.586
814.20	57.377
814.50	62.000
814.81	64.912
815.11	77.778
815.41	71.429
815.72	92.857
816.02	72.000
816.32	73.171
816.62	86.207
816.93	81.818
817.23	107.317
817.53	62.500
817.84	77.778
818.14	71.429
818.44	102.083
818.74	77.358
819.04	64.103
819.35	109.091
819.65	82.692
819.95	101.852
820.25	80.851
820.56	102.703
820.86	102.632
821.16	61.702
821.46	97.368
821.76	80.000
822.07	64.286
822.37	81.579
822.67	125.581
822.97	78.947
823.27	104.348
823.57	100.000
823.88	84.615
824.18	106.061
824.48	104.348
824.78	100.000
825.08	95.652
825.38	124.138
825.69	102.941
825.99	87.234
826.29	69.444
826.59	88.571
826.89	110.000
827.19	97.143
827.49	125.806
827.79	107.692
828.09	80.952
828.39	80.556
828.70	81.081
829.00	150.000
829.30	106.250
829.60	80.556
829.90	116.129
830.20	118.182
830.50	113.514
830.80	141.667
831.10	153.846
831.40	123.810
831.70	183.333
832.00	130.000
832.30	139.130
832.60	158.333
832.90	121.212
833.20	225.000
833.50	102.632
833.80	111.765
834.10	118.421
834.40	131.579
834.70	106.667
835.00	140.000
835.30	81.081
835.60	125.000
835.90	100.000
836.20	138.462
836.50	140.909
836.80	104.878
837.10	152.174
837.40	361.538
837.70	152.632
838.00	136.667
838.30	158.333
838.60	136.000
838.90	380.000
839.19	206.250
839.49	133.333
839.79	131.034
840.09	165.385
840.39	280.000
840.69	226.316
840.99	152.381
841.29	178.261
841.59	200.000
841.88	172.000
842.18	300.000
842.48	160.714
842.78	137.037
843.08	200.000
843.38	163.636
843.68	250.000
843.97	385.714
844.27	182.609
844.57	1250.000
844.87	271.429
845.17	211.111
845.47	128.571
845.76	162.500
846.06	428.571
846.36	229.412
846.66	192.308
846.96	162.500
847.25	230.769
847.55	163.158
847.85	188.889
848.15	440.000
848.44	336.364
848.74	147.619
849.04	170.833
849.34	194.118
849.63	287.500
849.93	243.750
850.23	666.667
850.53	462.500
850.82	227.273
851.12	170.588
851.42	179.167
851.71	293.750
852.01	0.000
852.31	223.529
852.61	400.000
852.90	141.667
853.20	355.556
853.50	-1500.000
853.79	140.000
854.09	143.750
854.39	106.897
854.68	127.586
854.98	190.476
855.28	109.677
855.57	221.429
855.87	177.778
856.17	133.333
856.46	189.474
856.76	109.677
857.05	229.412
857.35	245.455
857.65	300.000
857.94	165.000
858.24	500.000
858.53	357.143
858.83	585.714
859.13	182.609
859.42	266.667
859.72	437.500
860.01	333.333
860.31	625.000
860.60	370.000
860.90	500.000
861.20	269.231
861.49	400.000
861.79	-2500.000
862.08	528.571
862.38	322.222
862.67	228.571
862.97	340.000
863.26	156.667
863.56	800.000
863.85	253.846
864.15	252.941
864.44	177.778
864.74	333.333
865.03	254.545
865.33	300.000
865.62	153.333
865.92	533.333
866.21	750.000
866.51	620.000
866.80	200.000
867.10	533.333
867.39	3300.000
867.69	800.000
867.98	675.000
868.27	238.095
868.57	286.667
868.86	1075.000
869.16	147.619
869.45	2800.000
869.75	-333.333
870.04	750.000
870.33	660.000
870.63	550.000
870.92	205.882
871.22	900.000
871.51	471.429
871.80	300.000
872.10	338.462
>>>>>End Processed Spectral Data<<<<<
