SpectraSuite Data File
++++++++++++++++++++++++++++++++++++
Date: Tue May 12 15:22:24 PDT 2015
User: schluterlab
Dark Spectrum Present: Yes
Reference Spectrum Present: Yes
Number of Sampled Component Spectra: 1
Spectrometers: USB2E3373
Integration Time (usec): 3000 (USB2E3373)
Spectra Averaged: 3 (USB2E3373)
Boxcar Smoothing: 0 (USB2E3373)
Correct for Electrical Dark: No (USB2E3373)
Strobe/Lamp Enabled: No (USB2E3373)
Correct for Detector Non-linearity: No (USB2E3373)
Correct for Stray Light: No (USB2E3373)
Number of Pixels in Processed Spectrum: 2048
>>>>>Begin Processed Spectral Data<<<<<
178.53	0.000
178.91	-183.333
179.29	-550.000
179.67	-4100.000
180.04	-193.333
180.42	500.000
180.80	1700.000
181.18	0.000
181.56	-300.000
181.94	0.000
182.31	1100.000
182.69	-3300.000
183.07	571.429
183.45	-3500.000
183.83	-1700.000
184.20	430.000
184.58	400.000
184.96	-223.077
185.34	-200.000
185.72	1950.000
186.09	-700.000
186.47	-2700.000
186.85	1066.667
187.23	660.000
187.61	1400.000
187.98	337.500
188.36	285.714
188.74	316.667
189.12	358.333
189.49	825.000
189.87	0.000
190.25	500.000
190.63	3400.000
191.00	-233.333
191.38	-3200.000
191.76	-650.000
192.14	562.500
192.51	-3000.000
192.89	1600.000
193.27	1133.333
193.65	-1000.000
194.02	-700.000
194.40	557.143
194.78	-242.857
195.15	220.000
195.53	-3200.000
195.91	-440.000
196.29	3500.000
196.66	256.250
197.04	800.000
197.42	-1150.000
197.79	500.000
198.17	391.667
198.55	0.000
198.92	457.143
199.30	966.667
199.68	1750.000
200.05	466.667
200.43	-450.000
200.81	238.889
201.18	3200.000
201.56	333.333
201.94	-750.000
202.31	-262.500
202.69	-460.000
203.07	2400.000
203.44	-316.667
203.82	333.333
204.19	720.000
204.57	-1300.000
204.95	-825.000
205.32	-660.000
205.70	500.000
206.08	800.000
206.45	-600.000
206.83	333.333
207.20	184.211
207.58	258.333
207.96	780.000
208.33	0.000
208.71	457.143
209.08	500.000
209.46	-2800.000
209.84	-775.000
210.21	760.000
210.59	-660.000
210.96	383.333
211.34	-850.000
211.71	418.182
212.09	1075.000
212.46	1750.000
212.84	-433.333
213.22	377.778
213.59	-3100.000
213.97	280.000
214.34	1025.000
214.72	1133.333
215.09	1133.333
215.47	-2400.000
215.84	-380.000
216.22	-400.000
216.59	0.000
216.97	0.000
217.34	1300.000
217.72	-1300.000
218.09	1066.667
218.47	475.000
218.84	950.000
219.22	1333.333
219.59	933.333
219.97	357.143
220.34	433.333
220.72	1800.000
221.09	2800.000
221.47	208.333
221.84	1033.333
222.22	410.000
222.59	183.333
222.97	242.857
223.34	175.000
223.72	-1400.000
224.09	900.000
224.46	300.000
224.84	-750.000
225.21	355.556
225.59	253.333
225.96	1400.000
226.34	-740.000
226.71	-625.000
227.08	-280.000
227.46	0.000
227.83	-583.333
228.21	-1400.000
228.58	358.333
228.95	1050.000
229.33	433.333
229.70	775.000
230.08	361.538
230.45	3100.000
230.82	-750.000
231.20	-400.000
231.57	-1066.667
231.95	540.000
232.32	300.000
232.69	516.667
233.07	225.000
233.44	-1400.000
233.81	220.000
234.19	162.963
234.56	231.250
234.93	158.824
235.31	190.000
235.68	300.000
236.05	157.143
236.43	151.852
236.80	271.429
237.17	127.586
237.55	146.875
237.92	117.500
238.29	142.424
238.67	125.000
239.04	90.244
239.41	95.833
239.79	105.000
240.16	110.417
240.53	88.525
240.91	94.203
241.28	88.136
241.65	106.061
242.02	90.141
242.40	77.143
242.77	74.725
243.14	72.152
243.51	84.848
243.89	64.486
244.26	65.421
244.63	76.238
245.00	76.147
245.38	62.712
245.75	62.879
246.12	68.148
246.49	58.156
246.87	52.459
247.24	61.333
247.61	61.250
247.98	66.667
248.36	50.909
248.73	56.122
249.10	52.976
249.47	51.000
249.84	56.219
250.22	52.973
250.59	58.000
250.96	51.477
251.33	54.419
251.70	54.464
252.08	54.202
252.45	46.614
252.82	49.430
253.19	46.640
253.56	51.923
253.94	50.362
254.31	53.876
254.68	53.659
255.05	48.621
255.42	51.825
255.79	48.534
256.16	50.169
256.54	49.026
256.91	48.693
257.28	50.167
257.65	46.708
258.02	46.903
258.39	47.564
258.76	48.116
259.14	45.714
259.51	46.939
259.88	52.584
260.25	43.956
260.62	44.932
260.99	45.730
261.36	47.632
261.73	46.809
262.10	45.288
262.47	46.500
262.85	45.867
263.22	46.530
263.59	46.803
263.96	46.617
264.33	44.938
264.70	46.437
265.07	49.024
265.44	48.394
265.81	47.642
266.18	45.080
266.55	46.809
266.92	46.309
267.29	48.465
267.66	46.861
268.03	45.291
268.40	44.186
268.77	47.137
269.14	44.685
269.51	44.989
269.88	43.265
270.25	43.629
270.62	45.279
270.99	43.813
271.36	44.919
271.73	43.816
272.10	45.859
272.47	43.056
272.84	41.517
273.21	45.041
273.58	42.308
273.95	45.175
274.32	43.580
274.69	44.291
275.06	43.898
275.43	43.295
275.80	43.585
276.17	43.199
276.54	44.112
276.91	45.896
277.28	43.066
277.65	43.358
278.02	40.809
278.39	42.086
278.76	44.138
279.13	41.815
279.50	42.909
279.87	41.527
280.23	42.726
280.60	43.248
280.97	45.000
281.34	41.089
281.71	41.739
282.08	44.444
282.45	42.061
282.82	41.137
283.19	42.607
283.56	41.322
283.92	43.485
284.29	43.428
284.66	41.176
285.03	43.781
285.40	42.645
285.77	39.043
286.14	41.176
286.51	40.798
286.87	37.184
287.24	37.838
287.61	41.185
287.98	38.806
288.35	39.111
288.72	39.454
289.08	37.387
289.45	39.482
289.82	40.000
290.19	40.117
290.56	41.776
290.93	38.273
291.29	36.878
291.66	37.288
292.03	39.271
292.40	36.721
292.77	36.351
293.13	36.805
293.50	35.762
293.87	35.095
294.24	37.483
294.60	37.012
294.97	38.741
295.34	33.732
295.71	34.823
296.08	36.933
296.44	34.307
296.81	33.995
297.18	32.700
297.55	34.360
297.91	32.512
298.28	34.300
298.65	33.374
299.02	33.172
299.38	32.374
299.75	33.293
300.12	31.537
300.48	33.489
300.85	34.684
301.22	31.860
301.59	31.368
301.95	31.972
302.32	31.315
302.69	32.240
303.05	34.007
303.42	30.493
303.79	31.744
304.15	31.793
304.52	30.867
304.89	31.343
305.25	31.257
305.62	31.450
305.99	30.326
306.35	31.263
306.72	31.113
307.09	30.849
307.45	30.412
307.82	30.967
308.19	30.412
308.55	29.000
308.92	29.342
309.29	30.769
309.65	30.723
310.02	30.426
310.38	29.511
310.75	30.280
311.12	29.119
311.48	30.985
311.85	30.153
312.22	30.850
312.58	28.766
312.95	30.000
313.31	29.682
313.68	28.799
314.05	29.029
314.41	30.447
314.78	29.451
315.14	29.763
315.51	29.328
315.87	27.646
316.24	29.225
316.61	28.111
316.97	27.890
317.34	27.942
317.70	28.183
318.07	29.982
318.43	29.525
318.80	28.284
319.16	27.972
319.53	28.230
319.89	27.151
320.26	30.261
320.62	29.762
320.99	28.027
321.35	27.273
321.72	29.412
322.08	30.009
322.45	28.429
322.81	27.996
323.18	28.419
323.54	29.268
323.91	29.012
324.27	28.912
324.64	28.114
325.00	29.310
325.37	27.319
325.73	27.066
326.10	27.258
326.46	27.581
326.83	27.280
327.19	27.952
327.56	27.796
327.92	29.426
328.29	28.560
328.65	29.452
329.01	27.545
329.38	28.003
329.74	27.669
330.11	27.628
330.47	28.474
330.84	25.884
331.20	26.227
331.56	28.066
331.93	26.689
332.29	25.680
332.66	27.721
333.02	25.430
333.38	27.225
333.75	27.523
334.11	26.678
334.48	27.692
334.84	26.943
335.20	26.604
335.57	26.448
335.93	27.334
336.29	26.700
336.66	27.101
337.02	26.861
337.38	26.569
337.75	26.520
338.11	27.679
338.47	26.672
338.84	26.503
339.20	25.195
339.56	25.399
339.93	27.425
340.29	25.042
340.65	26.320
341.02	27.031
341.38	25.780
341.74	26.744
342.11	26.210
342.47	26.825
342.83	27.892
343.20	25.465
343.56	25.973
343.92	26.177
344.28	26.316
344.65	26.161
345.01	25.317
345.37	24.920
345.73	25.556
346.10	25.418
346.46	26.954
346.82	24.614
347.19	25.966
347.55	26.230
347.91	25.151
348.27	24.322
348.63	26.345
349.00	25.133
349.36	25.370
349.72	25.382
350.08	24.922
350.45	26.352
350.81	24.924
351.17	24.884
351.53	25.250
351.89	25.796
352.26	24.792
352.62	23.680
352.98	25.537
353.34	25.886
353.70	24.159
354.07	24.846
354.43	24.731
354.79	24.829
355.15	25.268
355.51	25.000
355.87	24.774
356.24	24.865
356.60	23.973
356.96	24.109
357.32	25.320
357.68	23.715
358.04	24.924
358.40	25.337
358.77	24.418
359.13	24.174
359.49	24.314
359.85	24.795
360.21	23.997
360.57	24.526
360.93	23.737
361.29	24.531
361.66	24.459
362.02	23.437
362.38	23.016
362.74	24.558
363.10	24.264
363.46	23.619
363.82	24.895
364.18	23.969
364.54	24.464
364.90	23.896
365.26	24.497
365.62	23.135
365.98	23.675
366.35	23.172
366.71	23.942
367.07	24.027
367.43	23.774
367.79	24.136
368.15	22.863
368.51	24.052
368.87	22.622
369.23	22.800
369.59	23.938
369.95	24.126
370.31	22.587
370.67	23.664
371.03	23.599
371.39	24.238
371.75	22.819
372.11	22.978
372.47	24.110
372.83	22.774
373.19	23.441
373.55	22.887
373.91	22.859
374.27	23.347
374.63	23.797
374.99	24.191
375.35	23.118
375.71	23.351
376.07	22.347
376.42	22.315
376.78	23.250
377.14	22.936
377.50	22.909
377.86	22.870
378.22	23.278
378.58	23.426
378.94	22.812
379.30	22.620
379.66	23.179
380.02	22.991
380.38	23.185
380.74	23.875
381.09	23.423
381.45	22.775
381.81	22.340
382.17	23.077
382.53	22.376
382.89	22.295
383.25	22.676
383.61	22.133
383.97	22.376
384.32	22.966
384.68	23.411
385.04	22.685
385.40	22.183
385.76	21.709
386.12	22.882
386.48	22.918
386.83	22.738
387.19	23.027
387.55	22.674
387.91	23.441
388.27	23.319
388.62	22.829
388.98	22.857
389.34	21.237
389.70	21.639
390.06	22.378
390.42	22.455
390.77	22.174
391.13	22.450
391.49	22.263
391.85	22.523
392.20	23.123
392.56	22.999
392.92	21.898
393.28	22.253
393.64	21.445
393.99	21.873
394.35	22.131
394.71	21.954
395.07	22.628
395.42	22.775
395.78	22.949
396.14	22.410
396.50	22.684
396.85	22.073
397.21	22.984
397.57	22.415
397.92	21.433
398.28	22.394
398.64	22.862
399.00	22.234
399.35	21.578
399.71	21.302
400.07	21.689
400.42	22.090
400.78	21.935
401.14	21.903
401.49	21.083
401.85	22.248
402.21	21.383
402.57	22.023
402.92	22.000
403.28	20.585
403.63	21.071
403.99	22.678
404.35	21.981
404.70	22.682
405.06	20.887
405.42	21.484
405.77	21.665
406.13	21.584
406.49	20.694
406.84	21.545
407.20	21.747
407.55	21.846
407.91	22.017
408.27	22.498
408.62	21.940
408.98	22.058
409.34	20.514
409.69	21.406
410.05	21.527
410.40	20.966
410.76	21.580
411.11	21.623
411.47	21.481
411.83	21.675
412.18	21.618
412.54	21.201
412.89	20.472
413.25	21.494
413.60	22.138
413.96	21.484
414.31	21.429
414.67	22.471
415.03	21.648
415.38	21.577
415.74	21.857
416.09	21.736
416.45	21.978
416.80	22.899
417.16	20.306
417.51	21.338
417.87	21.589
418.22	21.993
418.58	20.701
418.93	20.464
419.29	21.010
419.64	21.805
420.00	20.943
420.35	20.964
420.71	21.412
421.06	20.659
421.42	20.610
421.77	21.210
422.12	20.838
422.48	20.544
422.83	21.763
423.19	20.302
423.54	21.119
423.90	20.951
424.25	21.519
424.61	20.662
424.96	20.610
425.31	20.033
425.67	20.595
426.02	21.144
426.38	20.362
426.73	21.573
427.09	20.878
427.44	20.146
427.79	20.412
428.15	21.391
428.50	21.314
428.85	21.458
429.21	21.286
429.56	21.087
429.92	20.587
430.27	20.803
430.62	20.754
430.98	20.210
431.33	20.111
431.68	19.852
432.04	20.228
432.39	20.911
432.74	20.785
433.10	20.155
433.45	20.793
433.80	21.401
434.16	20.284
434.51	20.795
434.86	21.829
435.22	19.935
435.57	20.332
435.92	21.286
436.28	20.737
436.63	20.908
436.98	20.833
437.34	21.119
437.69	19.877
438.04	20.430
438.39	20.899
438.75	20.824
439.10	20.237
439.45	19.276
439.81	21.400
440.16	20.308
440.51	19.426
440.86	20.798
441.22	20.455
441.57	20.945
441.92	20.237
442.27	20.206
442.63	19.817
442.98	20.474
443.33	20.675
443.68	20.171
444.03	20.500
444.39	20.810
444.74	20.342
445.09	19.537
445.44	20.670
445.79	20.078
446.15	20.421
446.50	19.831
446.85	20.618
447.20	20.100
447.55	20.283
447.91	20.938
448.26	19.808
448.61	20.674
448.96	20.534
449.31	19.912
449.66	20.598
450.02	19.611
450.37	20.600
450.72	20.220
451.07	21.117
451.42	20.984
451.77	21.306
452.12	20.250
452.47	20.049
452.83	20.056
453.18	20.000
453.53	20.663
453.88	20.343
454.23	20.105
454.58	19.930
454.93	20.049
455.28	20.196
455.63	19.799
455.98	19.797
456.34	21.155
456.69	19.573
457.04	19.511
457.39	19.486
457.74	20.439
458.09	19.876
458.44	19.660
458.79	19.682
459.14	19.149
459.49	19.989
459.84	20.109
460.19	19.774
460.54	20.228
460.89	20.043
461.24	21.249
461.59	19.615
461.94	19.976
462.29	19.966
462.64	19.849
462.99	20.090
463.34	20.480
463.69	20.387
464.04	20.438
464.39	20.321
464.74	19.285
465.09	19.907
465.44	19.260
465.79	20.359
466.14	19.608
466.49	19.967
466.84	19.955
467.19	19.684
467.54	19.760
467.89	20.305
468.24	20.151
468.59	19.345
468.94	19.626
469.29	19.426
469.64	20.579
469.99	19.344
470.34	19.418
470.68	20.000
471.03	19.880
471.38	19.404
471.73	19.073
472.08	19.896
472.43	19.367
472.78	19.910
473.13	19.274
473.48	19.193
473.83	18.433
474.17	18.906
474.52	19.135
474.87	19.045
475.22	19.703
475.57	19.307
475.92	18.958
476.27	18.009
476.61	19.196
476.96	18.809
477.31	18.972
477.66	19.270
478.01	20.010
478.36	19.928
478.70	19.107
479.05	18.358
479.40	18.700
479.75	19.364
480.10	18.877
480.45	18.674
480.79	18.756
481.14	18.545
481.49	18.893
481.84	18.865
482.19	19.432
482.53	18.665
482.88	18.548
483.23	17.862
483.58	18.716
483.92	19.424
484.27	19.435
484.62	19.355
484.97	18.972
485.31	18.626
485.66	20.005
486.01	20.182
486.36	19.745
486.70	19.152
487.05	19.168
487.40	18.732
487.75	18.568
488.09	18.438
488.44	18.706
488.79	18.952
489.13	18.738
489.48	18.618
489.83	17.932
490.17	18.786
490.52	18.734
490.87	17.716
491.22	18.484
491.56	18.533
491.91	17.608
492.26	17.105
492.60	18.588
492.95	17.671
493.30	18.016
493.64	18.239
493.99	18.739
494.34	17.929
494.68	17.618
495.03	18.410
495.37	18.550
495.72	18.601
496.07	17.610
496.41	18.245
496.76	18.700
497.11	19.066
497.45	17.755
497.80	18.536
498.14	18.262
498.49	17.920
498.84	18.738
499.18	17.870
499.53	18.328
499.87	17.880
500.22	17.780
500.56	17.874
500.91	18.692
501.26	17.777
501.60	17.851
501.95	17.921
502.29	17.956
502.64	17.380
502.98	18.008
503.33	17.506
503.67	18.411
504.02	17.152
504.36	17.692
504.71	17.786
505.06	17.973
505.40	18.250
505.75	17.587
506.09	18.245
506.44	17.998
506.78	18.242
507.13	17.693
507.47	17.176
507.82	17.810
508.16	18.275
508.51	17.681
508.85	17.569
509.19	18.013
509.54	17.529
509.88	18.100
510.23	17.451
510.57	17.423
510.92	17.433
511.26	17.821
511.61	16.790
511.95	17.322
512.30	17.600
512.64	17.082
512.98	17.017
513.33	17.520
513.67	18.384
514.02	17.403
514.36	16.511
514.70	16.640
515.05	17.048
515.39	17.982
515.74	17.715
516.08	17.048
516.42	17.213
516.77	17.120
517.11	16.853
517.46	17.080
517.80	16.275
518.14	17.972
518.49	16.373
518.83	16.538
519.17	16.972
519.52	16.876
519.86	16.730
520.20	16.055
520.55	16.393
520.89	16.322
521.23	15.946
521.58	16.351
521.92	17.201
522.26	16.410
522.61	16.459
522.95	16.937
523.29	17.076
523.64	16.185
523.98	16.784
524.32	16.205
524.66	16.464
525.01	16.805
525.35	16.323
525.69	16.737
526.04	17.430
526.38	16.775
526.72	16.706
527.06	16.913
527.41	16.929
527.75	17.164
528.09	15.834
528.43	16.962
528.78	16.398
529.12	16.436
529.46	16.482
529.80	17.231
530.15	17.089
530.49	15.704
530.83	16.453
531.17	16.113
531.51	16.616
531.86	16.063
532.20	16.069
532.54	16.384
532.88	16.677
533.22	17.428
533.57	17.572
533.91	16.434
534.25	16.503
534.59	17.485
534.93	17.179
535.27	16.335
535.62	16.919
535.96	17.080
536.30	17.794
536.64	15.466
536.98	16.677
537.32	16.938
537.66	16.773
538.01	17.276
538.35	17.031
538.69	16.566
539.03	15.796
539.37	16.201
539.71	17.222
540.05	16.246
540.39	17.799
540.73	16.899
541.07	16.750
541.42	16.915
541.76	17.263
542.10	16.400
542.44	17.332
542.78	16.803
543.12	15.951
543.46	16.103
543.80	17.293
544.14	17.214
544.48	16.788
544.82	17.187
545.16	15.847
545.50	16.718
545.84	16.730
546.18	17.230
546.52	17.639
546.86	16.892
547.20	16.473
547.54	16.909
547.88	16.423
548.22	16.818
548.56	16.794
548.90	16.963
549.24	17.056
549.58	16.881
549.92	16.896
550.26	16.565
550.60	17.432
550.94	17.096
551.28	16.690
551.62	17.172
551.96	16.824
552.30	16.480
552.64	17.411
552.98	16.624
553.32	15.877
553.66	15.765
554.00	16.409
554.34	17.577
554.68	17.003
555.02	16.565
555.36	16.290
555.69	16.950
556.03	16.752
556.37	17.017
556.71	17.731
557.05	15.662
557.39	17.467
557.73	16.307
558.07	16.968
558.41	16.313
558.75	16.553
559.08	17.441
559.42	16.750
559.76	16.679
560.10	16.518
560.44	16.788
560.78	17.711
561.12	16.338
561.45	16.458
561.79	16.355
562.13	15.982
562.47	16.677
562.81	17.046
563.15	16.871
563.48	16.398
563.82	18.278
564.16	17.475
564.50	16.757
564.84	17.021
565.17	17.291
565.51	17.796
565.85	16.841
566.19	17.083
566.52	15.945
566.86	18.039
567.20	17.809
567.54	17.631
567.88	17.997
568.21	17.923
568.55	18.385
568.89	17.792
569.23	17.472
569.56	18.530
569.90	18.254
570.24	18.671
570.57	18.916
570.91	18.565
571.25	19.069
571.59	18.754
571.92	17.707
572.26	18.248
572.60	18.384
572.93	18.689
573.27	18.754
573.61	18.841
573.95	19.298
574.28	19.389
574.62	18.677
574.96	18.648
575.29	17.999
575.63	17.974
575.97	18.160
576.30	18.426
576.64	19.022
576.98	18.899
577.31	18.925
577.65	19.534
577.98	19.107
578.32	18.941
578.66	19.071
578.99	19.048
579.33	18.493
579.67	18.601
580.00	18.757
580.34	18.887
580.67	18.501
581.01	18.916
581.35	19.280
581.68	18.734
582.02	19.240
582.35	19.157
582.69	18.980
583.02	18.572
583.36	19.026
583.70	18.469
584.03	18.693
584.37	18.677
584.70	19.059
585.04	19.034
585.37	19.252
585.71	19.371
586.04	18.992
586.38	19.153
586.72	18.764
587.05	18.657
587.39	18.989
587.72	19.102
588.06	18.699
588.39	19.140
588.73	19.041
589.06	18.850
589.40	18.779
589.73	18.519
590.07	18.394
590.40	19.199
590.73	19.097
591.07	19.279
591.40	18.403
591.74	18.101
592.07	17.970
592.41	18.185
592.74	18.638
593.08	18.783
593.41	18.552
593.75	18.741
594.08	18.725
594.41	18.182
594.75	18.425
595.08	18.313
595.42	19.421
595.75	18.657
596.09	18.874
596.42	18.463
596.75	18.830
597.09	18.324
597.42	18.776
597.75	18.093
598.09	18.629
598.42	18.605
598.76	18.543
599.09	18.867
599.42	18.858
599.76	18.928
600.09	19.017
600.42	18.992
600.76	18.457
601.09	18.364
601.42	18.585
601.76	18.403
602.09	19.021
602.42	18.558
602.76	18.634
603.09	18.401
603.42	18.716
603.76	18.474
604.09	18.531
604.42	18.343
604.76	18.175
605.09	18.245
605.42	18.570
605.75	18.318
606.09	18.363
606.42	18.828
606.75	18.578
607.09	18.674
607.42	18.120
607.75	18.631
608.08	18.115
608.42	18.331
608.75	17.843
609.08	17.686
609.41	18.318
609.75	18.681
610.08	19.020
610.41	18.928
610.74	18.961
611.07	18.781
611.41	18.860
611.74	17.686
612.07	17.919
612.40	18.177
612.73	18.323
613.07	18.550
613.40	18.296
613.73	18.173
614.06	17.850
614.39	18.586
614.72	17.981
615.06	17.458
615.39	18.366
615.72	17.909
616.05	19.036
616.38	18.113
616.71	17.526
617.05	17.683
617.38	17.921
617.71	17.942
618.04	18.116
618.37	18.677
618.70	17.552
619.03	17.643
619.36	18.028
619.69	17.480
620.03	18.200
620.36	18.304
620.69	19.029
621.02	18.003
621.35	17.192
621.68	16.740
622.01	18.155
622.34	16.679
622.67	17.346
623.00	18.108
623.33	17.881
623.66	17.565
623.99	17.603
624.32	17.547
624.65	18.236
624.99	17.782
625.32	18.437
625.65	16.552
625.98	17.225
626.31	19.139
626.64	17.464
626.97	16.144
627.30	17.314
627.63	17.347
627.96	17.136
628.29	17.904
628.62	16.339
628.95	18.440
629.28	17.266
629.61	18.014
629.94	17.891
630.26	16.638
630.59	17.908
630.92	16.771
631.25	17.407
631.58	17.840
631.91	16.746
632.24	16.521
632.57	15.521
632.90	17.805
633.23	18.678
633.56	17.703
633.89	15.327
634.22	17.869
634.55	17.419
634.88	16.867
635.20	17.601
635.53	17.189
635.86	16.107
636.19	15.825
636.52	17.297
636.85	16.721
637.18	18.202
637.51	16.983
637.83	15.675
638.16	16.530
638.49	17.844
638.82	19.366
639.15	16.569
639.48	18.009
639.81	17.582
640.13	16.564
640.46	16.941
640.79	15.995
641.12	16.273
641.45	17.853
641.77	18.230
642.10	17.001
642.43	16.501
642.76	15.341
643.09	16.859
643.41	16.830
643.74	16.835
644.07	18.584
644.40	16.716
644.73	15.616
645.05	19.316
645.38	18.070
645.71	18.058
646.04	16.947
646.36	15.649
646.69	15.520
647.02	17.120
647.35	16.693
647.67	17.504
648.00	16.124
648.33	16.992
648.66	15.909
648.98	17.536
649.31	15.655
649.64	16.321
649.96	17.639
650.29	16.143
650.62	19.440
650.94	17.771
651.27	18.182
651.60	16.432
651.92	16.129
652.25	17.795
652.58	18.865
652.90	17.665
653.23	15.362
653.56	18.101
653.88	18.649
654.21	18.328
654.54	17.277
654.86	17.847
655.19	20.844
655.52	17.888
655.84	18.073
656.17	21.497
656.49	31.984
656.82	37.316
657.15	30.517
657.47	22.379
657.80	15.515
658.13	11.808
658.45	16.201
658.78	19.418
659.10	19.183
659.43	20.795
659.75	21.691
660.08	21.679
660.41	21.779
660.73	19.824
661.06	19.369
661.38	19.250
661.71	18.165
662.03	16.730
662.36	16.952
662.68	17.691
663.01	17.117
663.33	18.113
663.66	16.765
663.98	18.452
664.31	19.590
664.63	17.816
664.96	18.386
665.28	18.456
665.61	16.981
665.93	17.547
666.26	18.131
666.58	20.917
666.91	19.112
667.23	17.671
667.56	20.123
667.88	20.332
668.21	17.008
668.53	18.952
668.86	20.040
669.18	17.312
669.50	17.975
669.83	18.275
670.15	19.543
670.48	15.234
670.80	19.124
671.13	16.932
671.45	19.840
671.77	19.852
672.10	17.415
672.42	17.928
672.75	20.253
673.07	18.442
673.39	16.134
673.72	19.031
674.04	19.892
674.37	18.512
674.69	18.216
675.01	18.657
675.34	16.860
675.66	17.969
675.98	19.527
676.31	19.200
676.63	18.688
676.95	18.651
677.28	18.256
677.60	15.694
677.92	17.857
678.25	19.961
678.57	20.112
678.89	21.519
679.22	18.934
679.54	18.327
679.86	19.372
680.18	17.575
680.51	18.740
680.83	18.074
681.15	18.198
681.48	20.312
681.80	18.389
682.12	17.474
682.44	18.198
682.77	18.327
683.09	19.223
683.41	19.184
683.73	18.898
684.06	17.460
684.38	19.767
684.70	19.245
685.02	16.146
685.34	20.246
685.67	20.257
685.99	18.883
686.31	18.182
686.63	18.537
686.96	18.791
687.28	18.121
687.60	19.454
687.92	19.095
688.24	22.414
688.56	18.861
688.89	17.017
689.21	19.461
689.53	20.751
689.85	19.106
690.17	18.252
690.49	18.952
690.82	20.588
691.14	22.626
691.46	19.302
691.78	19.298
692.10	19.847
692.42	21.053
692.74	20.543
693.06	21.705
693.39	18.379
693.71	19.843
694.03	21.893
694.35	21.687
694.67	19.348
694.99	18.847
695.31	19.369
695.63	20.362
695.95	17.421
696.27	19.912
696.59	20.048
696.91	18.734
697.23	19.683
697.56	15.975
697.88	18.363
698.20	20.566
698.52	17.510
698.84	20.534
699.16	21.535
699.48	20.127
699.80	21.786
700.12	22.402
700.44	19.626
700.76	20.048
701.08	16.971
701.40	15.844
701.72	23.797
702.04	25.474
702.36	20.968
702.68	23.936
703.00	21.303
703.32	22.829
703.64	21.411
703.96	22.135
704.28	20.635
704.60	21.972
704.91	21.289
705.23	21.875
705.55	22.552
705.87	20.317
706.19	23.197
706.51	23.511
706.83	22.419
707.15	25.668
707.47	19.855
707.79	22.299
708.11	21.088
708.43	21.573
708.74	20.136
709.06	22.326
709.38	22.581
709.70	20.163
710.02	19.293
710.34	22.099
710.66	23.611
710.98	25.137
711.29	21.448
711.61	23.677
711.93	19.757
712.25	22.289
712.57	21.865
712.89	24.848
713.20	24.920
713.52	20.872
713.84	22.356
714.16	19.130
714.48	17.867
714.80	21.951
715.11	21.543
715.43	21.788
715.75	20.845
716.07	20.231
716.39	22.857
716.70	22.741
717.02	22.559
717.34	24.101
717.66	24.306
717.97	29.167
718.29	23.944
718.61	18.581
718.93	23.875
719.24	22.819
719.56	22.414
719.88	20.382
720.20	23.548
720.51	21.569
720.83	20.736
721.15	22.789
721.46	23.630
721.78	24.739
722.10	25.347
722.42	27.425
722.73	26.715
723.05	25.614
723.37	25.442
723.68	23.047
724.00	25.000
724.32	28.137
724.63	21.154
724.95	28.235
725.27	26.766
725.58	27.574
725.90	21.479
726.22	25.000
726.53	23.411
726.85	26.059
727.16	23.826
727.48	23.920
727.80	24.460
728.11	28.929
728.43	24.638
728.74	25.524
729.06	21.864
729.38	25.263
729.69	28.333
730.01	26.316
730.32	25.839
730.64	27.243
730.96	27.027
731.27	19.878
731.59	23.276
731.90	22.563
732.22	24.571
732.53	19.943
732.85	24.561
733.16	23.193
733.48	25.705
733.80	25.797
734.11	24.233
734.43	23.392
734.74	23.324
735.06	26.190
735.37	24.742
735.69	25.507
736.00	26.606
736.32	21.818
736.63	22.397
736.95	21.118
737.26	24.695
737.58	26.380
737.89	26.506
738.21	24.503
738.52	28.094
738.83	31.502
739.15	26.481
739.46	26.897
739.78	25.850
740.09	23.907
740.41	25.460
740.72	27.937
741.04	30.420
741.35	30.078
741.66	22.925
741.98	28.755
742.29	26.852
742.61	24.779
742.92	25.424
743.23	24.000
743.55	24.151
743.86	25.490
744.18	27.966
744.49	28.512
744.80	28.111
745.12	26.786
745.43	29.907
745.74	28.889
746.06	27.193
746.37	31.628
746.68	34.071
747.00	26.906
747.31	31.092
747.62	23.361
747.94	27.039
748.25	26.070
748.56	33.898
748.88	30.357
749.19	26.047
749.50	26.484
749.82	31.687
750.13	27.273
750.44	25.333
750.75	26.510
751.07	27.632
751.38	23.432
751.69	24.242
752.01	27.273
752.32	27.243
752.63	30.872
752.94	26.923
753.26	31.250
753.57	29.572
753.88	26.217
754.19	29.242
754.51	24.585
754.82	21.812
755.13	22.297
755.44	28.519
755.75	26.117
756.07	25.685
756.38	26.144
756.69	22.188
757.00	27.003
757.31	23.944
757.63	25.620
757.94	26.862
758.25	24.879
758.56	24.027
758.87	25.564
759.18	26.163
759.50	25.228
759.81	28.190
760.12	26.966
760.43	26.891
760.74	27.342
761.05	25.729
761.36	23.958
761.67	26.954
761.99	31.549
762.30	27.010
762.61	25.000
762.92	28.409
763.23	28.679
763.54	29.231
763.85	24.125
764.16	30.903
764.47	26.351
764.78	22.801
765.10	25.915
765.41	23.295
765.72	24.862
766.03	22.659
766.34	23.345
766.65	29.658
766.96	30.769
767.27	36.916
767.58	32.178
767.89	34.254
768.20	35.976
768.51	31.122
768.82	35.526
769.13	27.451
769.44	25.940
769.75	26.217
770.06	32.353
770.37	26.754
770.68	28.889
770.99	35.169
771.30	30.544
771.61	27.692
771.92	27.099
772.23	30.645
772.54	33.333
772.85	33.663
773.16	32.065
773.47	33.333
773.78	35.149
774.09	31.250
774.39	35.152
774.70	31.176
775.01	36.184
775.32	34.783
775.63	34.932
775.94	36.420
776.25	39.310
776.56	32.824
776.87	38.931
777.18	41.667
777.48	44.882
777.79	37.692
778.10	39.394
778.41	44.776
778.72	40.602
779.03	30.769
779.34	29.730
779.65	36.646
779.95	34.161
780.26	37.500
780.57	41.497
780.88	43.972
781.19	47.500
781.50	36.095
781.80	36.066
782.11	35.979
782.42	32.184
782.73	37.853
783.04	37.419
783.34	37.984
783.65	37.415
783.96	40.000
784.27	34.437
784.57	37.500
784.88	31.884
785.19	34.167
785.50	44.828
785.81	44.186
786.11	39.259
786.42	39.370
786.73	42.342
787.04	48.113
787.34	37.398
787.65	45.455
787.96	37.879
788.26	45.669
788.57	45.985
788.88	44.366
789.19	46.565
789.49	40.541
789.80	43.750
790.11	42.975
790.41	50.926
790.72	38.889
791.03	47.115
791.33	50.505
791.64	47.368
791.95	44.211
792.25	39.583
792.56	50.000
792.87	45.122
793.17	50.000
793.48	51.765
793.79	45.977
794.09	44.318
794.40	49.138
794.70	42.063
795.01	39.231
795.32	32.824
795.62	36.752
795.93	42.857
796.23	46.341
796.54	52.041
796.85	47.727
797.15	75.325
797.46	71.951
797.76	52.500
798.07	65.333
798.37	68.750
798.68	72.500
798.99	65.854
799.29	65.333
799.60	43.023
799.90	47.368
800.21	66.667
800.51	49.296
800.82	62.069
801.12	61.538
801.43	52.000
801.73	84.483
802.04	53.247
802.34	63.014
802.65	80.392
802.95	58.696
803.26	74.194
803.56	73.333
803.87	55.224
804.17	57.143
804.48	71.698
804.78	59.722
805.09	71.212
805.39	69.841
805.70	66.667
806.00	51.429
806.30	73.437
806.61	49.412
806.91	57.778
807.22	48.913
807.52	60.526
807.83	72.368
808.13	62.319
808.43	70.968
808.74	63.014
809.04	55.357
809.35	58.824
809.65	54.545
809.95	84.314
810.26	90.741
810.56	85.937
810.86	95.918
811.17	73.684
811.47	58.696
811.77	77.586
812.08	67.241
812.38	66.667
812.69	80.952
812.99	73.333
813.29	105.714
813.59	100.000
813.90	56.897
814.20	77.049
814.50	72.000
814.81	64.912
815.11	74.074
815.41	66.071
815.72	69.643
816.02	84.000
816.32	112.195
816.62	84.483
816.93	127.273
817.23	97.561
817.53	89.286
817.84	57.778
818.14	83.333
818.44	75.000
818.74	83.019
819.04	84.615
819.35	109.091
819.65	94.231
819.95	100.000
820.25	87.234
820.56	108.108
820.86	110.526
821.16	78.723
821.46	86.842
821.76	81.818
822.07	66.667
822.37	92.105
822.67	88.372
822.97	76.316
823.27	86.957
823.57	96.875
823.88	92.308
824.18	118.182
824.48	117.391
824.78	100.000
825.08	165.217
825.38	141.379
825.69	126.471
825.99	87.234
826.29	105.556
826.59	97.143
826.89	126.667
827.19	77.143
827.49	145.161
827.79	100.000
828.09	83.333
828.39	100.000
828.70	97.297
829.00	125.000
829.30	187.500
829.60	94.444
829.90	138.710
830.20	93.939
830.50	124.324
830.80	195.833
831.10	142.308
831.40	166.667
831.70	200.000
832.00	123.333
832.30	147.826
832.60	162.500
832.90	115.152
833.20	210.000
833.50	134.211
833.80	108.824
834.10	131.579
834.40	152.632
834.70	93.333
835.00	148.000
835.30	116.216
835.60	150.000
835.90	102.703
836.20	103.846
836.50	95.455
836.80	92.683
837.10	139.130
837.40	269.231
837.70	131.579
838.00	170.000
838.30	141.667
838.60	132.000
838.90	300.000
839.19	212.500
839.49	116.667
839.79	103.448
840.09	134.615
840.39	200.000
840.69	157.895
840.99	128.571
841.29	121.739
841.59	205.000
841.88	140.000
842.18	211.111
842.48	135.714
842.78	140.741
843.08	200.000
843.38	154.545
843.68	221.429
843.97	400.000
844.27	130.435
844.57	1500.000
844.87	292.857
845.17	222.222
845.47	100.000
845.76	175.000
846.06	342.857
846.36	188.235
846.66	215.385
846.96	206.250
847.25	246.154
847.55	147.368
847.85	177.778
848.15	480.000
848.44	336.364
848.74	138.095
849.04	187.500
849.34	164.706
849.63	250.000
849.93	237.500
850.23	866.667
850.53	300.000
850.82	200.000
851.12	205.882
851.42	191.667
851.71	243.750
852.01	0.000
852.31	211.765
852.61	290.000
852.90	154.167
853.20	288.889
853.50	-2100.000
853.79	120.000
854.09	140.625
854.39	134.483
854.68	148.276
854.98	161.905
855.28	129.032
855.57	228.571
855.87	155.556
856.17	148.148
856.46	210.526
856.76	119.355
857.05	241.176
857.35	272.727
857.65	215.385
857.94	160.000
858.24	422.222
858.53	292.857
858.83	571.429
859.13	130.435
859.42	322.222
859.72	337.500
860.01	241.667
860.31	1025.000
860.60	250.000
860.90	387.500
861.20	238.462
861.49	542.857
861.79	-3500.000
862.08	400.000
862.38	455.556
862.67	278.571
862.97	360.000
863.26	116.667
863.56	650.000
863.85	361.538
864.15	288.235
864.44	188.889
864.74	291.667
865.03	300.000
865.33	275.000
865.62	233.333
865.92	550.000
866.21	875.000
866.51	620.000
866.80	211.111
867.10	1033.333
867.39	3200.000
867.69	620.000
867.98	675.000
868.27	142.857
868.57	286.667
868.86	850.000
869.16	138.095
869.45	3400.000
869.75	-416.667
870.04	450.000
870.33	640.000
870.63	287.500
870.92	176.471
871.22	950.000
871.51	528.571
871.80	275.000
872.10	269.231
>>>>>End Processed Spectral Data<<<<<
