SpectraSuite Data File
++++++++++++++++++++++++++++++++++++
Date: Wed May 13 21:47:36 PDT 2015
User: schluterlab
Dark Spectrum Present: Yes
Reference Spectrum Present: Yes
Number of Sampled Component Spectra: 1
Spectrometers: USB2E3373
Integration Time (usec): 3000 (USB2E3373)
Spectra Averaged: 3 (USB2E3373)
Boxcar Smoothing: 0 (USB2E3373)
Correct for Electrical Dark: No (USB2E3373)
Strobe/Lamp Enabled: No (USB2E3373)
Correct for Detector Non-linearity: No (USB2E3373)
Correct for Stray Light: No (USB2E3373)
Number of Pixels in Processed Spectrum: 2048
>>>>>Begin Processed Spectral Data<<<<<
178.53	0.000
178.91	250.000
179.29	200.000
179.67	-600.000
180.04	-400.000
180.42	220.000
180.80	1500.000
181.18	366.667
181.56	-350.000
181.94	-225.000
182.31	27.273
182.69	130.769
183.07	-200.000
183.45	283.333
183.83	166.667
184.20	100.000
184.58	-133.333
184.96	-66.667
185.34	171.429
185.72	0.000
186.09	-900.000
186.47	-240.000
186.85	100.000
187.23	-200.000
187.61	650.000
187.98	700.000
188.36	-62.500
188.74	0.000
189.12	45.455
189.49	20.000
189.87	158.333
190.25	340.000
190.63	400.000
191.00	-160.000
191.38	340.000
191.76	425.000
192.14	116.667
192.51	-26.316
192.89	100.000
193.27	150.000
193.65	-300.000
194.02	100.000
194.40	180.000
194.78	300.000
195.15	100.000
195.53	-80.000
195.91	-25.000
196.29	-33.333
196.66	0.000
197.04	400.000
197.42	-160.000
197.79	-80.000
198.17	-75.000
198.55	-233.333
198.92	275.000
199.30	-533.333
199.68	-90.000
200.05	600.000
200.43	200.000
200.81	-1600.000
201.18	-200.000
201.56	-183.333
201.94	525.000
202.31	30.435
202.69	-42.857
203.07	-400.000
203.44	0.000
203.82	-366.667
204.19	-60.000
204.57	0.000
204.95	-150.000
205.32	0.000
205.70	-350.000
206.08	-225.000
206.45	-133.333
206.83	350.000
207.20	-233.333
207.58	-30.000
207.96	-1700.000
208.33	-57.143
208.71	-700.000
209.08	100.000
209.46	375.000
209.84	0.000
210.21	140.000
210.59	1200.000
210.96	280.000
211.34	1100.000
211.71	-850.000
212.09	0.000
212.46	-140.000
212.84	-133.333
213.22	-250.000
213.59	-1200.000
213.97	-500.000
214.34	-750.000
214.72	-38.462
215.09	262.500
215.47	188.889
215.84	1150.000
216.22	-87.500
216.59	-150.000
216.97	633.333
217.34	155.556
217.72	0.000
218.09	233.333
218.47	-400.000
218.84	-85.714
219.22	-12.500
219.59	-233.333
219.97	-150.000
220.34	-25.000
220.72	-60.000
221.09	0.000
221.47	-200.000
221.84	-600.000
222.22	0.000
222.59	800.000
222.97	-133.333
223.34	-75.000
223.72	-600.000
224.09	-500.000
224.46	-72.727
224.84	-75.000
225.21	-171.429
225.59	-100.000
225.96	-16.667
226.34	-70.000
226.71	-71.429
227.08	850.000
227.46	-75.000
227.83	-400.000
228.21	-56.250
228.58	-150.000
228.95	-47.059
229.33	68.750
229.70	-87.500
230.08	-7.692
230.45	-112.500
230.82	-8.333
231.20	200.000
231.57	0.000
231.95	700.000
232.32	33.333
232.69	-11.765
233.07	-1000.000
233.44	-17.391
233.81	-400.000
234.19	8.333
234.56	-73.333
234.93	33.333
235.31	47.368
235.68	7.692
236.05	-30.769
236.43	-16.667
236.80	6.061
237.17	-13.333
237.55	58.824
237.92	24.138
238.29	-14.815
238.67	38.889
239.04	6.452
239.41	-12.766
239.79	40.426
240.16	18.605
240.53	25.000
240.91	32.143
241.28	39.286
241.65	35.484
242.02	25.000
242.40	23.188
242.77	24.638
243.14	38.462
243.51	38.298
243.89	32.692
244.26	43.396
244.63	26.923
245.00	41.667
245.38	31.092
245.75	40.984
246.12	34.586
246.49	36.585
246.87	34.454
247.24	37.838
247.61	42.384
247.98	33.333
248.36	37.870
248.73	39.326
249.10	31.313
249.47	46.774
249.84	40.526
250.22	40.299
250.59	42.991
250.96	39.545
251.33	38.756
251.70	43.515
252.08	40.167
252.45	40.741
252.82	37.262
253.19	40.467
253.56	37.410
253.94	41.281
254.31	38.028
254.68	41.611
255.05	41.254
255.42	43.357
255.79	38.650
256.16	44.479
256.54	41.905
256.91	39.557
257.28	40.566
257.65	41.720
258.02	37.243
258.39	41.520
258.76	39.244
259.14	44.318
259.51	40.169
259.88	40.108
260.25	40.833
260.62	40.730
260.99	44.828
261.36	41.710
261.73	36.543
262.10	41.476
262.47	37.778
262.85	41.294
263.22	40.513
263.59	41.039
263.96	39.659
264.33	40.144
264.70	39.767
265.07	42.824
265.44	43.678
265.81	40.961
266.18	43.052
266.55	39.956
266.92	38.136
267.29	42.387
267.66	41.826
268.03	43.004
268.40	40.678
268.77	42.355
269.14	43.061
269.51	42.300
269.88	40.122
270.25	44.703
270.62	40.164
270.99	43.110
271.36	42.063
271.73	43.574
272.10	39.429
272.47	42.610
272.84	40.748
273.21	42.074
273.58	41.393
273.95	37.358
274.32	43.657
274.69	40.619
275.06	42.226
275.43	39.736
275.80	40.603
276.17	41.068
276.54	38.899
276.91	40.244
277.28	43.682
277.65	41.783
278.02	40.893
278.39	40.853
278.76	40.970
279.13	40.137
279.50	39.655
279.87	40.761
280.23	44.685
280.60	41.003
280.97	40.097
281.34	41.167
281.71	37.724
282.08	42.051
282.45	39.836
282.82	37.700
283.19	39.787
283.56	39.219
283.92	39.755
284.29	40.094
284.66	39.539
285.03	40.065
285.40	37.311
285.77	38.589
286.14	40.122
286.51	41.529
286.87	37.538
287.24	37.463
287.61	39.006
287.98	37.353
288.35	36.662
288.72	39.742
289.08	38.889
289.45	38.032
289.82	40.242
290.19	37.167
290.56	39.347
290.93	34.392
291.29	36.662
291.66	37.432
292.03	37.057
292.40	35.935
292.77	35.609
293.13	35.425
293.50	36.340
293.87	37.067
294.24	36.376
294.60	36.931
294.97	35.979
295.34	36.016
295.71	34.954
296.08	36.257
296.44	35.077
296.81	37.028
297.18	35.625
297.55	36.910
297.91	36.398
298.28	36.199
298.65	36.207
299.02	36.020
299.38	36.933
299.75	34.976
300.12	34.767
300.48	36.491
300.85	34.988
301.22	34.727
301.59	36.385
301.95	35.192
302.32	36.289
302.69	36.045
303.05	35.880
303.42	37.273
303.79	36.488
304.15	37.349
304.52	38.495
304.89	37.209
305.25	35.895
305.62	37.419
305.99	38.847
306.35	39.603
306.72	39.064
307.09	38.582
307.45	39.404
307.82	39.579
308.19	39.707
308.55	37.871
308.92	38.703
309.29	38.939
309.65	38.861
310.02	39.463
310.38	41.870
310.75	40.927
311.12	41.497
311.48	42.334
311.85	42.717
312.22	42.843
312.58	41.739
312.95	42.786
313.31	42.424
313.68	42.557
314.05	43.100
314.41	45.629
314.78	46.015
315.14	44.352
315.51	44.434
315.87	45.042
316.24	45.179
316.61	46.575
316.97	47.130
317.34	46.791
317.70	48.439
318.07	49.512
318.43	50.136
318.80	48.168
319.16	47.569
319.53	50.717
319.89	50.678
320.26	51.479
320.62	51.251
320.99	52.810
321.35	50.234
321.72	53.994
322.08	53.598
322.45	55.412
322.81	55.915
323.18	55.277
323.54	56.137
323.91	59.259
324.27	57.876
324.64	56.969
325.00	59.318
325.37	60.324
325.73	59.259
326.10	60.639
326.46	61.288
326.83	60.194
327.19	61.870
327.56	62.208
327.92	61.303
328.29	63.105
328.65	65.031
329.01	64.028
329.38	65.565
329.74	64.292
330.11	66.546
330.47	64.670
330.84	65.614
331.20	65.414
331.56	66.938
331.93	66.408
332.29	66.811
332.66	64.661
333.02	65.161
333.38	66.930
333.75	65.358
334.11	67.274
334.48	67.916
334.84	66.696
335.20	67.410
335.57	65.796
335.93	66.495
336.29	67.951
336.66	65.897
337.02	67.391
337.38	67.450
337.75	66.925
338.11	66.695
338.47	67.209
338.84	66.151
339.20	67.989
339.56	67.235
339.93	66.897
340.29	67.037
340.65	68.178
341.02	67.970
341.38	67.736
341.74	65.798
342.11	69.116
342.47	68.452
342.83	67.239
343.20	70.389
343.56	67.294
343.92	68.318
344.28	67.776
344.65	69.714
345.01	67.151
345.37	71.217
345.73	70.425
346.10	69.422
346.46	67.724
346.82	68.700
347.19	69.699
347.55	69.790
347.91	68.433
348.27	67.744
348.63	69.872
349.00	69.104
349.36	70.958
349.72	69.606
350.08	69.345
350.45	67.815
350.81	68.623
351.17	68.899
351.53	69.678
351.89	68.944
352.26	69.266
352.62	70.775
352.98	70.607
353.34	69.887
353.70	70.093
354.07	70.353
354.43	69.518
354.79	71.795
355.15	70.186
355.51	69.021
355.87	71.149
356.24	71.990
356.60	70.524
356.96	70.146
357.32	70.433
357.68	71.123
358.04	70.442
358.40	70.698
358.77	71.254
359.13	71.284
359.49	70.704
359.85	71.645
360.21	71.550
360.57	72.700
360.93	72.914
361.29	72.613
361.66	71.602
362.02	73.536
362.38	72.304
362.74	71.791
363.10	71.439
363.46	72.695
363.82	72.136
364.18	70.703
364.54	73.231
364.90	73.171
365.26	72.611
365.62	72.301
365.98	72.669
366.35	72.411
366.71	72.254
367.07	72.431
367.43	73.589
367.79	74.079
368.15	73.066
368.51	72.152
368.87	72.784
369.23	73.523
369.59	73.855
369.95	73.440
370.31	71.269
370.67	72.122
371.03	74.239
371.39	74.166
371.75	73.357
372.11	71.724
372.47	72.675
372.83	73.786
373.19	72.734
373.55	74.350
373.91	73.550
374.27	73.444
374.63	73.684
374.99	73.747
375.35	72.260
375.71	73.641
376.07	73.612
376.42	72.059
376.78	74.240
377.14	74.102
377.50	72.947
377.86	75.100
378.22	74.463
378.58	74.086
378.94	73.938
379.30	74.079
379.66	74.106
380.02	73.836
380.38	74.880
380.74	73.999
381.09	72.979
381.45	75.756
381.81	73.506
382.17	75.299
382.53	73.169
382.89	73.100
383.25	74.753
383.61	73.366
383.97	74.375
384.32	74.858
384.68	75.139
385.04	74.160
385.40	74.658
385.76	73.236
386.12	75.081
386.48	74.357
386.83	74.468
387.19	75.077
387.55	73.084
387.91	74.785
388.27	74.784
388.62	74.969
388.98	74.844
389.34	75.063
389.70	73.260
390.06	72.250
390.42	73.840
390.77	73.479
391.13	74.242
391.49	72.233
391.85	73.227
392.20	73.120
392.56	74.159
392.92	72.791
393.28	73.039
393.64	74.006
393.99	70.808
394.35	72.654
394.71	72.885
395.07	72.579
395.42	72.821
395.78	72.844
396.14	75.016
396.50	71.592
396.85	74.187
397.21	71.848
397.57	72.422
397.92	72.096
398.28	72.250
398.64	72.313
399.00	72.098
399.35	72.077
399.71	71.287
400.07	71.386
400.42	72.288
400.78	71.239
401.14	72.594
401.49	71.240
401.85	72.666
402.21	72.632
402.57	69.957
402.92	71.151
403.28	70.544
403.63	71.358
403.99	71.593
404.35	70.823
404.70	69.909
405.06	70.170
405.42	69.849
405.77	70.622
406.13	70.571
406.49	69.203
406.84	69.963
407.20	69.627
407.55	71.818
407.91	69.887
408.27	68.434
408.62	70.534
408.98	68.434
409.34	69.678
409.69	69.331
410.05	68.781
410.40	68.594
410.76	69.013
411.11	69.030
411.47	70.206
411.83	68.559
412.18	68.136
412.54	68.421
412.89	68.777
413.25	67.316
413.60	68.276
413.96	67.228
414.31	67.509
414.67	66.730
415.03	68.945
415.38	67.371
415.74	67.186
416.09	67.944
416.45	68.489
416.80	68.725
417.16	67.274
417.51	67.582
417.87	66.402
418.22	67.033
418.58	66.689
418.93	66.981
419.29	67.723
419.64	67.239
420.00	67.302
420.35	65.332
420.71	66.728
421.06	66.421
421.42	67.518
421.77	66.821
422.12	66.877
422.48	65.322
422.83	66.155
423.19	66.647
423.54	67.079
423.90	63.539
424.25	66.378
424.61	65.558
424.96	63.927
425.31	65.059
425.67	65.726
426.02	65.253
426.38	66.791
426.73	64.936
427.09	63.665
427.44	64.651
427.79	65.380
428.15	64.587
428.50	64.773
428.85	65.375
429.21	64.434
429.56	64.612
429.92	64.498
430.27	64.826
430.62	65.897
430.98	63.564
431.33	64.481
431.68	65.495
432.04	65.690
432.39	63.684
432.74	63.581
433.10	63.858
433.45	63.432
433.80	64.483
434.16	63.954
434.51	63.098
434.86	65.783
435.22	63.667
435.57	63.882
435.92	65.440
436.28	62.282
436.63	64.088
436.98	63.455
437.34	64.347
437.69	64.168
438.04	62.139
438.39	63.574
438.75	63.290
439.10	64.604
439.45	61.864
439.81	63.732
440.16	64.174
440.51	63.377
440.86	63.841
441.22	63.454
441.57	61.714
441.92	63.090
442.27	62.392
442.63	62.809
442.98	62.963
443.33	63.093
443.68	63.047
444.03	62.742
444.39	63.708
444.74	63.722
445.09	62.335
445.44	62.986
445.79	63.552
446.15	62.895
446.50	63.656
446.85	63.816
447.20	61.997
447.55	62.395
447.91	61.348
448.26	62.379
448.61	62.371
448.96	62.187
449.31	61.393
449.66	63.563
450.02	62.592
450.37	62.045
450.72	61.998
451.07	62.445
451.42	61.385
451.77	64.212
452.12	61.616
452.47	62.169
452.83	61.498
453.18	60.726
453.53	62.043
453.88	59.458
454.23	62.299
454.58	60.355
454.93	61.386
455.28	62.235
455.63	60.823
455.98	61.108
456.34	61.030
456.69	61.470
457.04	60.310
457.39	61.275
457.74	60.802
458.09	60.012
458.44	60.870
458.79	60.242
459.14	59.157
459.49	60.183
459.84	59.526
460.19	59.544
460.54	60.888
460.89	59.685
461.24	59.309
461.59	60.990
461.94	59.987
462.29	59.191
462.64	59.499
462.99	60.429
463.34	59.185
463.69	61.082
464.04	58.403
464.39	59.304
464.74	59.767
465.09	59.888
465.44	58.474
465.79	58.769
466.14	58.951
466.49	58.768
466.84	59.773
467.19	58.153
467.54	60.272
467.89	58.580
468.24	59.373
468.59	57.999
468.94	58.174
469.29	59.815
469.64	58.368
469.99	58.759
470.34	58.463
470.68	58.736
471.03	58.815
471.38	57.997
471.73	57.613
472.08	57.595
472.43	58.245
472.78	57.674
473.13	54.683
473.48	55.903
473.83	56.937
474.17	56.510
474.52	57.087
474.87	56.333
475.22	56.643
475.57	56.386
475.92	56.652
476.27	56.061
476.61	55.323
476.96	56.254
477.31	55.879
477.66	56.158
478.01	54.615
478.36	56.240
478.70	55.908
479.05	56.548
479.40	55.070
479.75	54.729
480.10	55.074
480.45	55.665
480.79	55.401
481.14	55.674
481.49	55.994
481.84	54.147
482.19	54.006
482.53	54.190
482.88	53.643
483.23	54.139
483.58	53.828
483.92	55.010
484.27	53.065
484.62	52.907
484.97	53.878
485.31	54.905
485.66	52.073
486.01	53.252
486.36	52.270
486.70	54.566
487.05	54.249
487.40	53.941
487.75	55.125
488.09	53.519
488.44	53.277
488.79	53.596
489.13	51.451
489.48	53.356
489.83	52.345
490.17	52.292
490.52	53.389
490.87	50.858
491.22	52.379
491.56	53.713
491.91	52.616
492.26	52.950
492.60	51.659
492.95	53.499
493.30	51.744
493.64	49.784
493.99	51.691
494.34	51.830
494.68	51.122
495.03	51.186
495.37	50.268
495.72	51.579
496.07	51.875
496.41	50.959
496.76	50.229
497.11	51.972
497.45	52.675
497.80	51.540
498.14	50.730
498.49	49.823
498.84	50.152
499.18	49.925
499.53	50.419
499.87	50.752
500.22	51.618
500.56	50.552
500.91	49.849
501.26	49.754
501.60	49.314
501.95	50.503
502.29	49.757
502.64	49.566
502.98	49.422
503.33	49.927
503.67	49.513
504.02	50.000
504.36	48.985
504.71	48.425
505.06	48.905
505.40	50.258
505.75	49.237
506.09	48.697
506.44	48.135
506.78	47.892
507.13	47.869
507.47	48.197
507.82	47.724
508.16	49.182
508.51	48.502
508.85	47.382
509.19	49.206
509.54	49.383
509.88	48.441
510.23	47.684
510.57	47.669
510.92	48.330
511.26	48.680
511.61	48.573
511.95	48.126
512.30	47.751
512.64	47.900
512.98	46.814
513.33	46.535
513.67	47.530
514.02	46.921
514.36	45.562
514.70	47.286
515.05	47.981
515.39	46.108
515.74	46.300
516.08	46.372
516.42	46.429
516.77	46.046
517.11	46.796
517.46	48.079
517.80	46.550
518.14	44.948
518.49	45.931
518.83	45.764
519.17	46.205
519.52	46.924
519.86	46.691
520.20	45.785
520.55	45.460
520.89	45.604
521.23	45.256
521.58	46.334
521.92	44.312
522.26	44.372
522.61	45.766
522.95	45.790
523.29	43.937
523.64	44.310
523.98	44.282
524.32	43.604
524.66	45.195
525.01	45.282
525.35	45.359
525.69	45.527
526.04	43.779
526.38	44.487
526.72	45.299
527.06	44.487
527.41	44.408
527.75	43.925
528.09	44.929
528.43	44.573
528.78	43.346
529.12	44.567
529.46	43.378
529.80	44.078
530.15	43.308
530.49	43.733
530.83	42.586
531.17	43.904
531.51	43.965
531.86	42.344
532.20	43.418
532.54	42.828
532.88	42.886
533.22	43.906
533.57	42.185
533.91	43.613
534.25	43.229
534.59	42.664
534.93	43.622
535.27	42.803
535.62	42.237
535.96	42.095
536.30	43.152
536.64	41.900
536.98	41.275
537.32	43.274
537.66	41.608
538.01	41.678
538.35	42.196
538.69	42.274
539.03	41.611
539.37	42.857
539.71	42.087
540.05	41.296
540.39	40.950
540.73	41.271
541.07	41.156
541.42	41.953
541.76	42.490
542.10	40.149
542.44	41.234
542.78	41.568
543.12	41.307
543.46	39.945
543.80	40.733
544.14	41.432
544.48	40.942
544.82	39.677
545.16	40.568
545.50	41.121
545.84	40.463
546.18	40.042
546.52	40.296
546.86	40.141
547.20	39.099
547.54	40.600
547.88	40.013
548.22	39.218
548.56	39.626
548.90	39.581
549.24	40.694
549.58	39.644
549.92	41.453
550.26	41.033
550.60	40.390
550.94	38.731
551.28	38.531
551.62	39.023
551.96	38.873
552.30	37.773
552.64	39.266
552.98	40.909
553.32	39.293
553.66	39.839
554.00	39.381
554.34	37.070
554.68	38.255
555.02	40.344
555.36	38.805
555.69	39.330
556.03	37.670
556.37	38.549
556.71	38.823
557.05	37.934
557.39	39.940
557.73	39.259
558.07	38.131
558.41	38.002
558.75	39.415
559.08	37.931
559.42	37.923
559.76	38.073
560.10	37.894
560.44	38.615
560.78	38.417
561.12	38.122
561.45	37.687
561.79	37.758
562.13	37.553
562.47	38.571
562.81	38.384
563.15	37.110
563.48	37.027
563.82	36.799
564.16	37.847
564.50	38.331
564.84	37.905
565.17	37.483
565.51	38.168
565.85	37.308
566.19	36.954
566.52	36.501
566.86	36.157
567.20	37.569
567.54	37.363
567.88	36.226
568.21	37.534
568.55	36.620
568.89	36.740
569.23	37.259
569.56	37.088
569.90	37.155
570.24	36.895
570.57	37.018
570.91	36.352
571.25	36.529
571.59	36.500
571.92	37.577
572.26	37.511
572.60	37.358
572.93	36.801
573.27	36.805
573.61	37.345
573.95	36.674
574.28	36.865
574.62	36.510
574.96	36.811
575.29	36.911
575.63	36.855
575.97	36.848
576.30	36.564
576.64	36.416
576.98	37.462
577.31	36.282
577.65	36.227
577.98	37.016
578.32	36.289
578.66	36.603
578.99	36.901
579.33	36.457
579.67	36.864
580.00	36.696
580.34	36.282
580.67	36.820
581.01	35.914
581.35	36.297
581.68	36.210
582.02	36.396
582.35	36.402
582.69	36.502
583.02	35.879
583.36	36.325
583.70	36.310
584.03	35.967
584.37	35.902
584.70	35.819
585.04	35.837
585.37	35.504
585.71	35.818
586.04	35.213
586.38	35.306
586.72	35.150
587.05	35.702
587.39	35.732
587.72	35.878
588.06	36.005
588.39	35.460
588.73	35.409
589.06	35.629
589.40	35.122
589.73	35.250
590.07	35.509
590.40	35.820
590.73	35.900
591.07	35.311
591.40	34.696
591.74	35.527
592.07	34.459
592.41	34.535
592.74	35.262
593.08	34.188
593.41	34.682
593.75	34.755
594.08	35.199
594.41	35.027
594.75	35.232
595.08	35.474
595.42	33.858
595.75	34.743
596.09	35.104
596.42	34.355
596.75	34.752
597.09	33.894
597.42	34.679
597.75	35.467
598.09	34.745
598.42	34.273
598.76	34.509
599.09	35.494
599.42	34.554
599.76	34.698
600.09	34.187
600.42	34.689
600.76	34.109
601.09	34.652
601.42	34.300
601.76	34.517
602.09	34.212
602.42	34.214
602.76	34.312
603.09	33.840
603.42	33.627
603.76	34.373
604.09	32.885
604.42	33.445
604.76	34.003
605.09	34.391
605.42	34.413
605.75	33.362
606.09	33.402
606.42	34.248
606.75	33.896
607.09	34.264
607.42	33.888
607.75	32.910
608.08	34.310
608.42	34.067
608.75	34.353
609.08	32.974
609.41	34.029
609.75	33.737
610.08	33.580
610.41	34.062
610.74	33.686
611.07	33.216
611.41	33.572
611.74	32.712
612.07	32.256
612.40	33.514
612.73	33.919
613.07	33.093
613.40	34.251
613.73	32.882
614.06	32.504
614.39	32.296
614.72	32.260
615.06	32.278
615.39	32.781
615.72	32.559
616.05	33.108
616.38	33.219
616.71	32.573
617.05	33.538
617.38	32.656
617.71	32.292
618.04	32.663
618.37	32.934
618.70	32.665
619.03	32.302
619.36	32.669
619.69	32.529
620.03	31.378
620.36	32.220
620.69	31.977
621.02	31.385
621.35	30.989
621.68	30.644
622.01	32.686
622.34	31.483
622.67	32.028
623.00	31.307
623.33	32.012
623.66	30.706
623.99	32.633
624.32	31.475
624.65	31.528
624.99	31.815
625.32	32.188
625.65	32.558
625.98	31.201
626.31	31.918
626.64	30.696
626.97	30.623
627.30	32.250
627.63	31.142
627.96	30.216
628.29	31.907
628.62	31.818
628.95	31.864
629.28	30.542
629.61	32.823
629.94	31.141
630.26	31.527
630.59	31.269
630.92	31.024
631.25	31.617
631.58	32.227
631.91	30.965
632.24	28.869
632.57	30.444
632.90	31.622
633.23	30.456
633.56	30.336
633.89	30.024
634.22	30.860
634.55	28.867
634.88	29.657
635.20	30.625
635.53	28.424
635.86	30.000
636.19	29.653
636.52	29.146
636.85	29.312
637.18	27.162
637.51	30.087
637.83	29.765
638.16	29.333
638.49	29.907
638.82	29.412
639.15	30.452
639.48	29.278
639.81	30.278
640.13	30.141
640.46	31.215
640.79	28.921
641.12	28.994
641.45	29.258
641.77	28.277
642.10	30.106
642.43	28.459
642.76	25.868
643.09	30.192
643.41	27.273
643.74	27.625
644.07	28.479
644.40	28.524
644.73	29.492
645.05	28.970
645.38	24.917
645.71	27.381
646.04	24.916
646.36	28.299
646.69	27.622
647.02	27.505
647.35	29.433
647.67	26.617
648.00	27.536
648.33	27.966
648.66	28.381
648.98	26.863
649.31	28.221
649.64	28.326
649.96	31.122
650.29	27.778
650.62	25.206
650.94	27.931
651.27	27.562
651.60	27.098
651.92	27.240
652.25	28.141
652.58	28.713
652.90	29.125
653.23	27.165
653.56	25.950
653.88	25.597
654.21	26.451
654.54	27.076
654.86	26.667
655.19	27.031
655.52	30.045
655.84	30.796
656.17	37.229
656.49	49.613
656.82	49.353
657.15	37.448
657.47	27.633
657.80	20.857
658.13	21.907
658.45	31.394
658.78	31.623
659.10	30.885
659.43	30.775
659.75	29.193
660.08	29.034
660.41	28.905
660.73	26.033
661.06	28.061
661.38	26.938
661.71	26.230
662.03	27.907
662.36	26.549
662.68	25.376
663.01	29.025
663.33	26.782
663.66	23.282
663.98	25.618
664.31	27.253
664.63	21.622
664.96	29.540
665.28	27.897
665.61	26.350
665.93	26.124
666.26	27.215
666.58	25.696
666.91	28.027
667.23	24.654
667.56	26.437
667.88	24.766
668.21	24.107
668.53	27.356
668.86	26.619
669.18	26.714
669.50	25.806
669.83	25.298
670.15	21.429
670.48	26.667
670.80	26.696
671.13	26.545
671.45	26.484
671.77	28.233
672.10	27.290
672.42	28.053
672.75	26.607
673.07	27.273
673.39	27.052
673.72	26.547
674.04	26.230
674.37	26.626
674.69	25.926
675.01	26.282
675.34	26.039
675.66	26.362
675.98	23.894
676.31	26.471
676.63	25.397
676.95	23.059
677.28	24.541
677.60	27.941
677.92	27.051
678.25	25.597
678.57	25.662
678.89	26.439
679.22	21.946
679.54	25.102
679.86	27.930
680.18	26.923
680.51	25.577
680.83	25.536
681.15	26.719
681.48	23.447
681.80	26.380
682.12	21.458
682.44	24.748
682.77	24.211
683.09	23.661
683.41	23.023
683.73	26.786
684.06	25.442
684.38	25.855
684.70	24.440
685.02	26.860
685.34	27.789
685.67	25.141
685.99	25.623
686.31	25.690
686.63	26.287
686.96	27.273
687.28	24.551
687.60	29.301
687.92	23.930
688.24	25.600
688.56	28.509
688.89	23.385
689.21	22.646
689.53	24.324
689.85	26.517
690.17	25.934
690.49	22.464
690.82	26.253
691.14	26.570
691.46	26.218
691.78	25.275
692.10	23.567
692.42	25.055
692.74	27.826
693.06	24.045
693.39	23.888
693.71	27.778
694.03	26.364
694.35	25.901
694.67	29.000
694.99	26.031
695.31	23.256
695.63	26.098
695.95	22.901
696.27	21.644
696.59	24.194
696.91	19.832
697.23	22.081
697.56	26.619
697.88	24.948
698.20	25.270
698.52	26.402
698.84	24.402
699.16	25.768
699.48	27.407
699.80	27.907
700.12	29.223
700.44	23.099
700.76	25.562
701.08	25.680
701.40	22.156
701.72	22.769
702.04	19.811
702.36	25.305
702.68	19.207
703.00	28.363
703.32	20.613
703.64	24.398
703.96	21.114
704.28	23.795
704.60	23.780
704.91	24.765
705.23	24.367
705.55	22.414
705.87	23.592
706.19	21.245
706.51	20.775
706.83	19.108
707.15	24.085
707.47	28.926
707.79	24.873
708.11	24.422
708.43	26.904
708.74	25.266
709.06	26.203
709.38	23.055
709.70	24.324
710.02	24.299
710.34	20.667
710.66	17.590
710.98	23.220
711.29	24.351
711.61	19.355
711.93	23.548
712.25	19.231
712.57	15.088
712.89	26.740
713.20	26.241
713.52	22.993
713.84	24.194
714.16	22.977
714.48	24.051
714.80	22.364
715.11	26.163
715.43	21.118
715.75	28.882
716.07	24.398
716.39	24.916
716.70	22.662
717.02	22.745
717.34	28.030
717.66	20.690
717.97	18.254
718.29	23.228
718.61	20.601
718.93	22.481
719.24	25.830
719.56	19.850
719.88	21.269
720.20	23.320
720.51	22.656
720.83	28.405
721.15	21.138
721.46	23.664
721.78	24.303
722.10	26.295
722.42	20.565
722.73	23.166
723.05	24.490
723.37	17.647
723.68	17.600
724.00	16.596
724.32	24.268
724.63	25.514
724.95	13.248
725.27	27.004
725.58	25.926
725.90	23.013
726.22	20.290
726.53	18.431
726.85	24.818
727.16	23.333
727.48	22.222
727.80	23.828
728.11	20.902
728.43	21.094
728.74	23.016
729.06	20.800
729.38	20.553
729.69	25.979
730.01	20.074
730.32	24.723
730.64	21.970
730.96	25.874
731.27	20.401
731.59	24.762
731.90	17.152
732.22	23.397
732.53	18.581
732.85	20.805
733.16	24.092
733.48	23.649
733.80	25.676
734.11	25.000
734.43	23.839
734.74	24.024
735.06	23.631
735.37	22.188
735.69	22.654
736.00	19.802
736.32	24.468
736.63	23.793
736.95	25.000
737.26	25.517
737.58	23.611
737.89	22.680
738.21	23.843
738.52	21.293
738.83	24.082
739.15	22.363
739.46	22.568
739.78	20.423
740.09	24.315
740.41	19.643
740.72	23.404
741.04	20.000
741.35	23.246
741.66	21.333
741.98	22.115
742.29	31.683
742.61	23.902
742.92	24.561
743.23	18.396
743.55	25.225
743.86	20.628
744.18	24.020
744.49	18.274
744.80	19.388
745.12	24.299
745.43	20.853
745.74	22.072
746.06	20.093
746.37	16.514
746.68	24.038
747.00	20.574
747.31	19.231
747.62	21.101
747.94	30.131
748.25	24.312
748.56	21.778
748.88	26.761
749.19	25.714
749.50	17.961
749.82	22.535
750.13	19.583
750.44	24.231
750.75	20.664
751.07	25.623
751.38	21.986
751.69	20.849
752.01	23.828
752.32	19.231
752.63	28.731
752.94	23.200
753.26	22.176
753.57	22.083
753.88	23.077
754.19	23.506
754.51	24.812
754.82	17.949
755.13	19.130
755.44	22.358
755.75	22.000
756.07	20.295
756.38	25.180
756.69	21.843
757.00	23.676
757.31	22.330
757.63	21.605
757.94	24.011
758.25	26.455
758.56	24.457
758.87	24.107
759.18	23.975
759.50	26.263
759.81	27.090
760.12	24.923
760.43	19.643
760.74	23.164
761.05	22.652
761.36	24.642
761.67	26.586
761.99	22.337
762.30	20.438
762.61	23.457
762.92	26.068
763.23	24.590
763.54	25.108
763.85	22.041
764.16	18.293
764.47	20.800
764.78	17.857
765.10	23.934
765.41	23.100
765.72	24.224
766.03	19.802
766.34	28.077
766.65	18.410
766.96	17.371
767.27	25.248
767.58	14.607
767.89	25.309
768.20	20.994
768.51	23.116
768.82	28.846
769.13	25.664
769.44	28.033
769.75	19.658
770.06	22.870
770.37	21.569
770.68	23.301
770.99	25.243
771.30	24.790
771.61	22.041
771.92	26.971
772.23	23.423
772.54	19.890
772.85	23.256
773.16	21.693
773.47	15.976
773.78	27.586
774.09	16.875
774.39	17.391
774.70	15.646
775.01	20.690
775.32	19.286
775.63	15.789
775.94	10.526
776.25	17.600
776.56	26.446
776.87	27.778
777.18	11.712
777.48	14.414
777.79	22.047
778.10	11.927
778.41	17.544
778.72	21.849
779.03	14.085
779.34	26.351
779.65	28.169
779.95	20.530
780.26	12.950
780.57	25.180
780.88	14.789
781.19	14.286
781.50	24.161
781.80	14.620
782.11	16.860
782.42	22.642
782.73	17.647
783.04	24.138
783.34	11.450
783.65	15.436
783.96	23.846
784.27	23.571
784.57	17.021
784.88	10.577
785.19	30.909
785.50	10.000
785.81	18.095
786.11	5.882
786.42	20.354
786.73	13.208
787.04	4.587
787.34	9.901
787.65	21.667
787.96	17.355
788.26	22.464
788.57	11.905
788.88	13.008
789.19	18.400
789.49	9.160
789.80	28.030
790.11	9.434
790.41	15.842
790.72	10.638
791.03	9.783
791.33	14.118
791.64	20.988
791.95	20.652
792.25	23.864
792.56	28.205
792.87	12.821
793.17	8.974
793.48	16.667
793.79	7.500
794.09	19.231
794.40	21.875
794.70	16.216
795.01	20.312
795.32	15.652
795.62	3.261
795.93	16.981
796.23	28.283
796.54	13.415
796.85	19.048
797.15	7.576
797.46	11.594
797.76	18.421
798.07	18.182
798.37	3.659
798.68	4.839
798.99	4.054
799.29	14.458
799.60	6.410
799.90	7.692
800.21	19.697
800.51	4.000
800.82	22.667
801.12	-20.833
801.43	-13.333
801.73	-1.351
802.04	31.429
802.34	9.836
802.65	20.896
802.95	1.818
803.26	8.621
803.56	9.231
803.87	16.981
804.17	0.000
804.48	7.353
804.78	-19.512
805.09	17.391
805.39	7.353
805.70	-12.766
806.00	-1.754
806.30	21.795
806.61	15.789
806.91	16.216
807.22	21.053
807.52	11.364
807.83	-3.390
808.13	12.121
808.43	3.333
808.74	-15.517
809.04	14.286
809.35	-20.408
809.65	0.000
809.95	-22.449
810.26	28.169
810.56	8.333
810.86	4.082
811.17	30.769
811.47	6.383
811.77	-12.500
812.08	9.434
812.38	-3.125
812.69	-5.455
812.99	-2.439
813.29	-27.027
813.59	-48.649
813.90	-7.273
814.20	20.000
814.50	18.333
814.81	27.273
815.11	15.789
815.41	2.326
815.72	20.000
816.02	-14.286
816.32	-29.730
816.62	8.333
816.93	15.556
817.23	-6.667
817.53	2.778
817.84	16.216
818.14	0.000
818.44	16.000
818.74	-14.286
819.04	2.439
819.35	0.000
819.65	13.636
819.95	-122.222
820.25	-24.242
820.56	-9.524
820.86	-13.889
821.16	-2.273
821.46	-10.870
821.76	0.000
822.07	6.522
822.37	42.424
822.67	31.707
822.97	8.108
823.27	-2.857
823.57	10.345
823.88	5.882
824.18	27.778
824.48	25.714
824.78	-80.952
825.08	-10.714
825.38	-25.926
825.69	35.484
825.99	19.512
826.29	-25.926
826.59	-9.375
826.89	3.226
827.19	-39.130
827.49	-5.556
827.79	8.696
828.09	9.677
828.39	6.250
828.70	-37.500
829.00	-24.138
829.30	-10.811
829.60	-66.667
829.90	-18.519
830.20	28.125
830.50	9.091
830.80	-76.471
831.10	-40.909
831.40	-32.353
831.70	34.615
832.00	18.182
832.30	38.235
832.60	13.514
832.90	1100.000
833.20	17.857
833.50	-130.000
833.80	2.632
834.10	-50.000
834.40	-68.182
834.70	-33.333
835.00	-30.000
835.30	-25.000
835.60	0.000
835.90	9.524
836.20	8.000
836.50	-16.667
836.80	-94.737
837.10	27.027
837.40	23.333
837.70	-17.391
838.00	29.167
838.30	5.263
838.60	-130.000
838.90	-80.000
839.19	-125.000
839.49	-107.692
839.79	-10.526
840.09	-266.667
840.39	-70.000
840.69	-9.091
840.99	9.524
841.29	-62.500
841.59	-69.231
841.88	-126.667
842.18	0.000
842.48	13.333
842.78	-300.000
843.08	-28.571
843.38	-187.500
843.68	-37.500
843.97	0.000
844.27	-166.667
844.57	-72.727
844.87	-40.000
845.17	-4.545
845.47	1066.667
845.76	-80.000
846.06	-150.000
846.36	-700.000
846.66	-63.158
846.96	-72.727
847.25	-66.667
847.55	-77.778
847.85	-57.143
848.15	-53.846
848.44	-283.333
848.74	-91.667
849.04	-169.231
849.34	-200.000
849.63	-118.182
849.93	-85.714
850.23	30.000
850.53	-187.500
850.82	-50.000
851.12	-6.667
851.42	-41.176
851.71	-137.500
852.01	52.941
852.31	-123.077
852.61	650.000
852.90	-11.765
853.20	-60.000
853.50	-56.250
853.79	-164.286
854.09	-175.000
854.39	-55.000
854.68	-10.000
854.98	-19.048
855.28	-60.000
855.57	0.000
855.87	-12.500
856.17	-68.000
856.46	12.500
856.76	-15.000
857.05	-4.000
857.35	-41.667
857.65	-76.471
857.94	-125.000
858.24	-83.333
858.53	-5.000
858.83	-54.545
859.13	12.000
859.42	-135.714
859.72	-237.500
860.01	8.333
860.31	-112.500
860.60	18.750
860.90	-50.000
861.20	-233.333
861.49	40.000
861.79	-75.000
862.08	150.000
862.38	-50.000
862.67	285.714
862.97	125.000
863.26	-54.545
863.56	-45.455
863.85	-15.789
864.15	-5.882
864.44	-200.000
864.74	-150.000
865.03	-66.667
865.33	-42.857
865.62	135.714
865.92	26.316
866.21	-16.667
866.51	-36.364
866.80	-88.889
867.10	-212.500
867.39	12.500
867.69	-80.000
867.98	-20.000
868.27	0.000
868.57	0.000
868.86	1000.000
869.16	-300.000
869.45	-342.857
869.75	200.000
870.04	-30.000
870.33	-1200.000
870.63	-26.316
870.92	-100.000
871.22	-400.000
871.51	-71.429
871.80	-188.889
872.10	-150.000
>>>>>End Processed Spectral Data<<<<<
