SpectraSuite Data File
++++++++++++++++++++++++++++++++++++
Date: Tue May 12 15:28:59 PDT 2015
User: schluterlab
Dark Spectrum Present: Yes
Reference Spectrum Present: Yes
Number of Sampled Component Spectra: 1
Spectrometers: USB2E3373
Integration Time (usec): 3000 (USB2E3373)
Spectra Averaged: 3 (USB2E3373)
Boxcar Smoothing: 0 (USB2E3373)
Correct for Electrical Dark: No (USB2E3373)
Strobe/Lamp Enabled: No (USB2E3373)
Correct for Detector Non-linearity: No (USB2E3373)
Correct for Stray Light: No (USB2E3373)
Number of Pixels in Processed Spectrum: 2048
>>>>>Begin Processed Spectral Data<<<<<
178.53	0.000
178.91	-300.000
179.29	-800.000
179.67	-4300.000
180.04	-173.333
180.42	675.000
180.80	1900.000
181.18	0.000
181.56	-337.500
181.94	0.000
182.31	1333.333
182.69	-3400.000
183.07	642.857
183.45	-3800.000
183.83	-1350.000
184.20	420.000
184.58	500.000
184.96	-246.154
185.34	-166.667
185.72	1700.000
186.09	-825.000
186.47	-2700.000
186.85	1033.333
187.23	580.000
187.61	2100.000
187.98	525.000
188.36	235.714
188.74	358.333
189.12	450.000
189.49	1000.000
189.87	0.000
190.25	550.000
190.63	3100.000
191.00	-333.333
191.38	-4200.000
191.76	-725.000
192.14	650.000
192.51	-2500.000
192.89	1650.000
193.27	1200.000
193.65	-1000.000
194.02	-920.000
194.40	642.857
194.78	-271.429
195.15	266.667
195.53	-4900.000
195.91	-600.000
196.29	4500.000
196.66	268.750
197.04	1100.000
197.42	-1850.000
197.79	550.000
198.17	358.333
198.55	0.000
198.92	500.000
199.30	1066.667
199.68	2100.000
200.05	716.667
200.43	-516.667
200.81	227.778
201.18	3500.000
201.56	283.333
201.94	-900.000
202.31	-387.500
202.69	-560.000
203.07	3600.000
203.44	-500.000
203.82	366.667
204.19	1060.000
204.57	-1000.000
204.95	-950.000
205.32	-720.000
205.70	550.000
206.08	800.000
206.45	-800.000
206.83	355.556
207.20	200.000
207.58	250.000
207.96	840.000
208.33	0.000
208.71	700.000
209.08	840.000
209.46	-2900.000
209.84	-900.000
210.21	960.000
210.59	-640.000
210.96	341.667
211.34	-1075.000
211.71	427.273
212.09	900.000
212.46	1850.000
212.84	-500.000
213.22	488.889
213.59	-3300.000
213.97	400.000
214.34	875.000
214.72	1000.000
215.09	1266.667
215.47	-3400.000
215.84	-320.000
216.22	-425.000
216.59	0.000
216.97	0.000
217.34	1350.000
217.72	-1750.000
218.09	1233.333
218.47	512.500
218.84	900.000
219.22	833.333
219.59	933.333
219.97	600.000
220.34	388.889
220.72	1700.000
221.09	4200.000
221.47	333.333
221.84	1133.333
222.22	280.000
222.59	277.778
222.97	235.714
223.34	300.000
223.72	-1550.000
224.09	1166.667
224.46	261.538
224.84	-750.000
225.21	433.333
225.59	306.667
225.96	1300.000
226.34	-720.000
226.71	-600.000
227.08	-780.000
227.46	0.000
227.83	-416.667
228.21	-1900.000
228.58	350.000
228.95	975.000
229.33	322.222
229.70	1100.000
230.08	323.077
230.45	3100.000
230.82	-800.000
231.20	-666.667
231.57	-800.000
231.95	520.000
232.32	275.000
232.69	700.000
233.07	283.333
233.44	-1500.000
233.81	253.333
234.19	196.296
234.56	231.250
234.93	164.706
235.31	210.000
235.68	293.750
236.05	153.571
236.43	125.926
236.80	207.143
237.17	165.517
237.55	128.125
237.92	110.000
238.29	100.000
238.67	125.000
239.04	100.000
239.41	70.833
239.79	95.000
240.16	89.583
240.53	60.656
240.91	69.565
241.28	84.746
241.65	46.970
242.02	64.789
242.40	58.571
242.77	49.451
243.14	49.367
243.51	62.626
243.89	49.533
244.26	48.598
244.63	50.495
245.00	46.789
245.38	32.203
245.75	34.848
246.12	36.296
246.49	34.752
246.87	28.689
247.24	30.667
247.61	33.750
247.98	31.293
248.36	28.485
248.73	33.163
249.10	25.595
249.47	32.000
249.84	25.871
250.22	31.351
250.59	27.000
250.96	29.114
251.33	26.512
251.70	30.804
252.08	27.311
252.45	21.912
252.82	23.574
253.19	24.901
253.56	23.462
253.94	23.188
254.31	23.643
254.68	26.132
255.05	26.897
255.42	22.628
255.79	23.453
256.16	20.339
256.54	21.429
256.91	21.569
257.28	23.077
257.65	17.868
258.02	17.404
258.39	20.057
258.76	22.319
259.14	17.714
259.51	21.866
259.88	20.365
260.25	20.330
260.62	18.904
260.99	15.978
261.36	17.270
261.73	16.755
262.10	20.419
262.47	19.750
262.85	17.067
263.22	19.794
263.59	18.926
263.96	19.298
264.33	19.259
264.70	18.428
265.07	16.098
265.44	17.890
265.81	17.925
266.18	15.332
266.55	14.184
266.92	17.226
267.29	18.421
267.66	15.695
268.03	15.695
268.40	19.239
268.77	17.181
269.14	14.317
269.51	15.145
269.88	17.143
270.25	13.823
270.62	14.378
270.99	18.256
271.36	16.260
271.73	16.352
272.10	16.162
272.47	14.286
272.84	14.371
273.21	14.050
273.58	17.004
273.95	14.168
274.32	15.564
274.69	16.339
275.06	17.486
275.43	15.134
275.80	15.472
276.17	15.809
276.54	17.570
276.91	16.978
277.28	13.686
277.65	15.683
278.02	14.706
278.39	14.209
278.76	15.172
279.13	14.235
279.50	12.000
279.87	13.035
280.23	13.628
280.60	13.321
280.97	13.793
281.34	13.696
281.71	14.435
282.08	17.436
282.45	13.851
282.82	14.716
283.19	13.037
283.56	14.545
283.92	13.518
284.29	13.311
284.66	14.286
285.03	15.423
285.40	12.893
285.77	13.272
286.14	13.158
286.51	14.110
286.87	12.025
287.24	14.264
287.61	13.222
287.98	14.030
288.35	13.926
288.72	13.354
289.08	15.015
289.45	12.652
289.82	13.438
290.19	14.202
290.56	14.702
290.93	14.676
291.29	12.293
291.66	12.994
292.03	13.885
292.40	13.957
292.77	12.396
293.13	14.265
293.50	12.821
293.87	11.518
294.24	14.406
294.60	13.459
294.97	13.427
295.34	12.351
295.71	13.666
296.08	13.067
296.44	12.834
296.81	11.787
297.18	13.561
297.55	12.069
297.91	11.576
298.28	12.198
298.65	13.988
299.02	12.304
299.38	13.549
299.75	12.805
300.12	12.959
300.48	14.052
300.85	12.634
301.22	13.605
301.59	12.618
301.95	11.785
302.32	13.504
302.69	12.783
303.05	13.019
303.42	11.659
303.79	14.085
304.15	13.751
304.52	12.685
304.89	13.113
305.25	13.904
305.62	13.113
305.99	12.826
306.35	12.211
306.72	12.487
307.09	13.251
307.45	12.566
307.82	13.786
308.19	13.918
308.55	12.400
308.92	14.524
309.29	15.582
309.65	13.479
310.02	13.590
310.38	13.260
310.75	12.729
311.12	13.410
311.48	16.120
311.85	14.027
312.22	15.091
312.58	13.314
312.95	14.951
313.31	15.449
313.68	14.165
314.05	16.484
314.41	14.711
314.78	14.489
315.14	16.588
315.51	16.272
315.87	15.146
316.24	15.593
316.61	15.577
316.97	15.229
317.34	17.341
317.70	16.506
318.07	16.548
318.43	17.750
318.80	17.163
319.16	17.483
319.53	16.991
319.89	17.832
320.26	19.088
320.62	18.498
320.99	17.445
321.35	18.831
321.72	19.734
322.08	19.206
322.45	18.347
322.81	19.945
323.18	19.005
323.54	20.035
323.91	20.671
324.27	19.894
324.64	20.156
325.00	21.983
325.37	22.175
325.73	20.573
326.10	22.204
326.46	23.121
326.83	21.840
327.19	22.169
327.56	22.045
327.92	24.098
328.29	23.977
328.65	23.630
329.01	22.840
329.38	23.858
329.74	22.374
330.11	24.500
330.47	24.382
330.84	23.123
331.20	24.112
331.56	25.216
331.93	24.636
332.29	22.874
332.66	23.554
333.02	23.883
333.38	22.688
333.75	24.771
334.11	24.497
334.48	24.872
334.84	24.916
335.20	24.551
335.57	24.853
335.93	23.549
336.29	23.881
336.66	24.014
337.02	23.011
337.38	24.592
337.75	26.182
338.11	24.473
338.47	23.878
338.84	24.979
339.20	23.377
339.56	24.306
339.93	23.746
340.29	23.866
340.65	24.895
341.02	24.377
341.38	23.974
341.74	24.502
342.11	24.791
342.47	23.544
342.83	25.841
343.20	24.576
343.56	23.272
343.92	23.782
344.28	23.604
344.65	24.857
345.01	23.492
345.37	24.599
345.73	24.048
346.10	23.108
346.46	24.242
346.82	22.608
347.19	23.802
347.55	23.653
347.91	23.414
348.27	23.160
348.63	25.158
349.00	24.752
349.36	24.202
349.72	25.000
350.08	25.078
350.45	24.600
350.81	25.229
351.17	24.653
351.53	24.172
351.89	24.631
352.26	24.187
352.62	25.415
352.98	25.383
353.34	23.883
353.70	23.471
354.07	23.846
354.43	24.731
354.79	24.070
355.15	24.349
355.51	23.565
355.87	25.226
356.24	24.711
356.60	24.125
356.96	23.427
357.32	24.115
357.68	24.816
358.04	24.848
358.40	24.888
358.77	25.770
359.13	25.526
359.49	24.166
359.85	24.646
360.21	24.071
360.57	25.182
360.93	25.036
361.29	24.531
361.66	24.907
362.02	24.432
362.38	24.531
362.74	24.982
363.10	25.666
363.46	23.757
363.82	24.895
364.18	24.467
364.54	25.393
364.90	24.565
365.26	24.983
365.62	24.309
365.98	24.570
366.35	24.414
366.71	24.150
367.07	24.846
367.43	24.580
367.79	24.934
368.15	23.677
368.51	24.328
368.87	23.981
369.23	25.918
369.59	24.882
369.95	25.105
370.31	23.956
370.67	24.913
371.03	25.770
371.39	24.931
371.75	24.564
372.11	25.289
372.47	25.959
372.83	24.813
373.19	25.634
373.55	26.667
373.91	24.931
374.27	24.802
374.63	25.763
374.99	26.482
375.35	25.605
375.71	25.726
376.07	24.801
376.42	24.616
376.78	26.140
377.14	24.967
377.50	24.844
377.86	24.600
378.22	25.960
378.58	25.605
378.94	26.373
379.30	24.924
379.66	26.069
380.02	25.806
380.38	25.351
380.74	26.413
381.09	25.467
381.45	25.607
381.81	25.650
382.17	25.458
382.53	25.675
382.89	25.665
383.25	25.577
383.61	25.014
383.97	25.315
384.32	26.040
384.68	26.619
385.04	26.143
385.40	26.335
385.76	25.512
386.12	25.479
386.48	26.505
386.83	25.550
387.19	25.206
387.55	25.736
387.91	25.693
388.27	25.937
388.62	24.354
388.98	25.364
389.34	25.223
389.70	25.531
390.06	26.159
390.42	26.157
390.77	25.553
391.13	26.132
391.49	25.529
391.85	26.523
392.20	25.924
392.56	25.926
392.92	25.042
393.28	25.056
393.64	24.197
393.99	25.370
394.35	25.191
394.71	24.970
395.07	25.365
395.42	25.059
395.78	25.725
396.14	26.084
396.50	25.090
396.85	25.915
397.21	24.729
397.57	24.328
397.92	24.032
398.28	24.876
398.64	25.771
399.00	24.212
399.35	24.584
399.71	24.227
400.07	24.886
400.42	24.657
400.78	25.337
401.14	24.134
401.49	24.309
401.85	25.492
402.21	24.019
402.57	25.494
402.92	24.970
403.28	24.761
403.63	24.956
403.99	24.548
404.35	24.443
404.70	24.158
405.06	23.302
405.42	24.716
405.77	24.146
406.13	23.644
406.49	23.479
406.84	23.181
407.20	24.258
407.55	23.692
407.91	24.378
408.27	24.318
408.62	23.359
408.98	24.660
409.34	23.963
409.69	23.833
410.05	24.031
410.40	24.323
410.76	23.011
411.11	24.585
411.47	23.086
411.83	23.023
412.18	22.826
412.54	23.844
412.89	23.540
413.25	24.515
413.60	24.124
413.96	23.818
414.31	23.140
414.67	23.588
415.03	23.372
415.38	24.038
415.74	23.184
416.09	24.297
416.45	24.370
416.80	24.375
417.16	23.234
417.51	23.949
417.87	24.155
418.22	23.633
418.58	23.694
418.93	22.487
419.29	23.413
419.64	23.077
420.00	24.582
420.35	22.764
420.71	23.279
421.06	23.896
421.42	23.489
421.77	22.710
422.12	23.153
422.48	22.034
422.83	23.772
423.19	23.110
423.54	23.587
423.90	23.613
424.25	23.005
424.61	24.608
424.96	22.925
425.31	23.864
425.67	24.242
426.02	23.612
426.38	23.104
426.73	23.597
427.09	24.259
427.44	23.860
427.79	23.899
428.15	25.457
428.50	24.971
428.85	24.339
429.21	23.987
429.56	24.377
429.92	24.465
430.27	23.367
430.62	23.250
430.98	23.603
431.33	23.790
431.68	23.012
432.04	24.108
432.39	24.259
432.74	24.883
433.10	24.252
433.45	24.813
433.80	25.097
434.16	23.542
434.51	23.891
434.86	24.551
435.22	23.393
435.57	24.007
435.92	24.530
436.28	25.518
436.63	24.689
436.98	25.113
437.34	25.171
437.69	24.188
438.04	25.000
438.39	24.927
438.75	24.388
439.10	25.256
439.45	24.590
439.81	25.333
440.16	24.546
440.51	24.550
440.86	25.584
441.22	25.162
441.57	24.829
441.92	23.741
442.27	24.072
442.63	24.543
442.98	24.515
443.33	25.121
443.68	24.296
444.03	25.071
444.39	24.200
444.74	25.414
445.09	25.171
445.44	25.399
445.79	24.561
446.15	24.895
446.50	25.105
446.85	25.100
447.20	24.826
447.55	24.905
447.91	25.946
448.26	24.707
448.61	25.760
448.96	25.218
449.31	25.358
449.66	25.914
450.02	24.905
450.37	25.430
450.72	25.620
451.07	25.538
451.42	25.430
451.77	26.231
452.12	26.205
452.47	26.185
452.83	25.634
453.18	26.426
453.53	25.696
453.88	25.771
454.23	26.496
454.58	25.641
454.93	25.812
455.28	26.010
455.63	26.359
455.98	26.001
456.34	26.687
456.69	26.280
457.04	26.014
457.39	25.486
457.74	26.914
458.09	25.828
458.44	24.973
458.79	24.828
459.14	25.095
459.49	26.274
459.84	25.924
460.19	25.537
460.54	26.724
460.89	26.386
461.24	25.372
461.59	25.794
461.94	25.650
462.29	25.858
462.64	26.508
462.99	25.912
463.34	26.960
463.69	26.558
464.04	27.116
464.39	26.159
464.74	25.557
465.09	26.059
465.44	26.387
465.79	25.422
466.14	25.808
466.49	25.285
466.84	26.421
467.19	26.245
467.54	26.186
467.89	27.054
468.24	26.578
468.59	25.714
468.94	26.449
469.29	27.489
469.64	27.331
469.99	27.571
470.34	27.514
470.68	27.448
471.03	28.152
471.38	27.483
471.73	27.629
472.08	27.789
472.43	26.878
472.78	27.529
473.13	26.971
473.48	27.323
473.83	28.033
474.17	26.991
474.52	26.836
474.87	26.720
475.22	27.013
475.57	26.495
475.92	26.776
476.27	26.659
476.61	26.917
476.96	26.907
477.31	27.815
477.66	28.019
478.01	26.818
478.36	26.416
478.70	26.849
479.05	27.144
479.40	26.835
479.75	26.961
480.10	27.009
480.45	26.050
480.79	27.327
481.14	26.819
481.49	26.258
481.84	26.517
482.19	26.987
482.53	26.526
482.88	27.464
483.23	26.387
483.58	26.346
483.92	27.239
484.27	26.584
484.62	26.613
484.97	26.139
485.31	26.160
485.66	25.145
486.01	24.702
486.36	24.002
486.70	23.607
487.05	23.675
487.40	24.169
487.75	24.404
488.09	25.199
488.44	25.048
488.79	26.241
489.13	26.017
489.48	27.008
489.83	27.231
490.17	27.333
490.52	26.873
490.87	27.284
491.22	27.793
491.56	27.536
491.91	26.837
492.26	27.528
492.60	27.836
492.95	27.821
493.30	27.298
493.64	27.628
493.99	27.639
494.34	27.208
494.68	27.490
495.03	27.930
495.37	27.510
495.72	27.879
496.07	27.583
496.41	27.107
496.76	27.227
497.11	27.592
497.45	27.970
497.80	28.221
498.14	28.202
498.49	28.087
498.84	28.832
499.18	27.514
499.53	28.342
499.87	28.527
500.22	28.973
500.56	27.994
500.91	28.942
501.26	28.434
501.60	27.960
501.95	27.240
502.29	28.089
502.64	27.569
502.98	28.012
503.33	28.998
503.67	28.079
504.02	28.348
504.36	28.190
504.71	30.085
505.06	28.437
505.40	29.153
505.75	28.812
506.09	28.838
506.44	29.464
506.78	29.820
507.13	29.472
507.47	28.578
507.82	30.462
508.16	29.789
508.51	30.338
508.85	29.725
509.19	30.592
509.54	29.492
509.88	30.482
510.23	30.147
510.57	29.681
510.92	30.320
511.26	30.422
511.61	30.379
511.95	31.110
512.30	30.200
512.64	30.010
512.98	30.907
513.33	30.635
513.67	31.279
514.02	31.896
514.36	30.685
514.70	31.360
515.05	31.859
515.39	32.127
515.74	31.766
516.08	32.298
516.42	31.749
516.77	31.840
517.11	32.693
517.46	32.166
517.80	31.895
518.14	33.352
518.49	31.753
518.83	32.308
519.17	33.001
519.52	33.042
519.86	32.752
520.20	33.205
520.55	31.882
520.89	33.448
521.23	33.879
521.58	32.874
521.92	33.878
522.26	33.412
522.61	35.472
522.95	33.874
523.29	33.918
523.64	33.179
523.98	35.153
524.32	33.333
524.66	33.507
525.01	34.201
525.35	33.530
525.69	34.919
526.04	33.968
526.38	34.255
526.72	35.084
527.06	33.471
527.41	35.429
527.75	35.301
528.09	34.076
528.43	34.777
528.78	35.897
529.12	34.678
529.46	34.424
529.80	33.703
530.15	33.471
530.49	32.912
530.83	34.552
531.17	34.625
531.51	34.090
531.86	34.300
532.20	34.734
532.54	34.338
532.88	34.728
533.22	35.161
533.57	35.937
533.91	33.508
534.25	33.987
534.59	35.205
534.93	33.675
535.27	32.783
535.62	34.072
535.96	33.924
536.30	35.588
536.64	34.224
536.98	34.613
537.32	35.812
537.66	34.630
538.01	34.985
538.35	34.685
538.69	34.102
539.03	34.080
539.37	34.587
539.71	33.704
540.05	34.215
540.39	35.597
540.73	34.747
541.07	35.320
541.42	35.634
541.76	34.649
542.10	35.142
542.44	36.284
542.78	33.795
543.12	34.294
543.46	34.211
543.80	34.524
544.14	35.975
544.48	35.158
544.82	35.229
545.16	34.851
545.50	35.587
545.84	35.480
546.18	36.021
546.52	35.082
546.86	36.493
547.20	34.561
547.54	34.389
547.88	36.131
548.22	35.398
548.56	34.944
548.90	33.808
549.24	36.576
549.58	35.760
549.92	35.102
550.26	36.173
550.60	35.595
550.94	36.974
551.28	36.069
551.62	36.552
551.96	36.892
552.30	35.465
552.64	36.117
552.98	35.954
553.32	34.763
553.66	35.179
554.00	35.457
554.34	36.618
554.68	36.089
555.02	36.728
555.36	35.971
555.69	35.929
556.03	36.242
556.37	36.010
556.71	36.310
557.05	35.452
557.39	37.067
557.73	37.668
558.07	36.150
558.41	36.600
558.75	36.867
559.08	37.884
559.42	37.294
559.76	36.778
560.10	35.650
560.44	37.226
560.78	36.317
561.12	35.982
561.45	34.606
561.79	35.081
562.13	35.692
562.47	36.924
562.81	36.239
563.15	35.811
563.48	34.658
563.82	36.556
564.16	36.754
564.50	36.407
564.84	35.805
565.17	35.651
565.51	36.268
565.85	35.595
566.19	35.714
566.52	35.740
566.86	36.661
567.20	36.404
567.54	34.825
567.88	35.263
568.21	34.348
568.55	34.582
568.89	34.352
569.23	33.779
569.56	33.267
569.90	32.088
570.24	31.789
570.57	31.830
570.91	30.671
571.25	30.902
571.59	30.429
571.92	29.952
572.26	29.623
572.60	29.797
572.93	30.650
573.27	30.241
573.61	29.940
573.95	30.080
574.28	30.393
574.62	29.390
574.96	28.978
575.29	29.183
575.63	29.517
575.97	29.625
576.30	29.436
576.64	29.555
576.98	29.673
577.31	30.056
577.65	29.842
577.98	28.940
578.32	28.609
578.66	28.946
578.99	29.222
579.33	30.018
579.67	29.679
580.00	29.122
580.34	29.526
580.67	29.284
581.01	29.756
581.35	29.418
581.68	29.060
582.02	28.893
582.35	28.760
582.69	28.800
583.02	28.860
583.36	29.403
583.70	29.836
584.03	30.425
584.37	30.767
584.70	30.580
585.04	29.622
585.37	29.170
585.71	30.584
586.04	29.844
586.38	30.117
586.72	30.039
587.05	30.365
587.39	30.544
587.72	30.861
588.06	30.643
588.39	30.885
588.73	30.509
589.06	31.835
589.40	31.581
589.73	32.055
590.07	32.498
590.40	32.997
590.73	33.162
591.07	33.093
591.40	32.495
591.74	32.995
592.07	33.028
592.41	32.734
592.74	32.149
593.08	31.478
593.41	31.747
593.75	30.864
594.08	31.629
594.41	31.606
594.75	31.781
595.08	32.202
595.42	33.114
595.75	31.754
596.09	32.603
596.42	33.394
596.75	33.173
597.09	33.636
597.42	33.551
597.75	33.185
598.09	32.786
598.42	33.007
598.76	32.884
599.09	33.321
599.42	32.180
599.76	32.395
600.09	31.966
600.42	32.113
600.76	32.291
601.09	32.240
601.42	32.207
601.76	32.044
602.09	33.113
602.42	32.089
602.76	32.751
603.09	33.409
603.42	33.321
603.76	32.719
604.09	31.849
604.42	33.107
604.76	32.754
605.09	33.143
605.42	33.239
605.75	32.965
606.09	32.747
606.42	33.070
606.75	32.724
607.09	33.281
607.42	32.423
607.75	32.962
608.08	33.469
608.42	32.970
608.75	33.291
609.08	32.952
609.41	33.182
609.75	34.844
610.08	33.318
610.41	33.333
610.74	33.247
611.07	33.561
611.41	34.708
611.74	34.560
612.07	34.393
612.40	34.942
612.73	34.498
613.07	34.921
613.40	35.940
613.73	34.598
614.06	34.400
614.39	34.646
614.72	34.455
615.06	34.768
615.39	34.554
615.72	33.979
616.05	34.706
616.38	34.754
616.71	35.214
617.05	35.530
617.38	35.169
617.71	35.321
618.04	35.390
618.37	35.019
618.70	35.624
619.03	35.653
619.36	37.060
619.69	37.335
620.03	37.769
620.36	36.930
620.69	38.186
621.02	37.228
621.35	37.966
621.68	39.159
622.01	39.557
622.34	38.602
622.67	38.764
623.00	36.760
623.33	37.517
623.66	37.458
623.99	38.082
624.32	37.669
624.65	37.591
624.99	37.255
625.32	37.475
625.65	36.552
625.98	37.587
626.31	37.908
626.64	39.028
626.97	38.179
627.30	39.441
627.63	38.462
627.96	38.341
628.29	40.099
628.62	39.863
628.95	40.869
629.28	41.192
629.61	41.564
629.94	40.709
630.26	39.775
630.59	41.578
630.92	39.910
631.25	41.251
631.58	41.948
631.91	40.533
632.24	41.885
632.57	40.668
632.90	42.961
633.23	44.176
633.56	43.519
633.89	44.051
634.22	43.057
634.55	43.118
634.88	44.031
635.20	42.825
635.53	45.296
635.86	44.631
636.19	42.649
636.52	42.811
636.85	42.611
637.18	43.120
637.51	42.123
637.83	42.334
638.16	44.197
638.49	43.353
638.82	43.662
639.15	42.891
639.48	44.787
639.81	44.444
640.13	43.804
640.46	44.374
640.79	45.644
641.12	43.832
641.45	47.089
641.77	45.839
642.10	46.854
642.43	47.937
642.76	45.170
643.09	46.830
643.41	46.564
643.74	49.353
644.07	47.345
644.40	47.633
644.73	47.598
645.05	47.548
645.38	47.626
645.71	48.710
646.04	47.328
646.36	47.418
646.69	47.360
647.02	47.200
647.35	45.984
647.67	51.053
648.00	49.674
648.33	47.669
648.66	48.182
648.98	43.913
649.31	42.645
649.64	43.430
649.96	44.808
650.29	44.714
650.62	47.717
650.94	49.096
651.27	51.037
651.60	48.200
651.92	47.619
652.25	48.031
652.58	45.106
652.90	46.257
653.23	46.086
653.56	46.884
653.88	46.549
654.21	46.041
654.54	43.631
654.86	47.788
655.19	44.855
655.52	37.223
655.84	26.005
656.17	30.009
656.49	42.923
656.82	49.801
657.15	40.078
657.47	30.251
657.80	22.424
658.13	17.991
658.45	24.210
658.78	29.691
659.10	31.221
659.43	31.903
659.75	33.961
660.08	37.218
660.41	39.655
660.73	47.051
661.06	47.447
661.38	49.063
661.71	48.921
662.03	50.570
662.36	49.333
662.68	49.907
663.01	50.631
663.33	49.434
663.66	51.874
663.98	51.786
664.31	50.746
664.63	50.192
664.96	50.469
665.28	47.458
665.61	50.189
665.93	50.000
666.26	48.411
666.58	50.642
666.91	47.490
667.23	49.799
667.56	51.951
667.88	50.830
668.21	51.844
668.53	50.403
668.86	51.303
669.18	50.102
669.50	51.653
669.83	54.004
670.15	51.975
670.48	48.437
670.80	52.390
671.13	49.203
671.45	51.102
671.77	48.237
672.10	47.576
672.42	47.039
672.75	45.886
673.07	44.197
673.39	44.728
673.72	48.962
674.04	46.774
674.37	48.094
674.69	45.167
675.01	48.134
675.34	47.674
675.66	47.656
675.98	52.465
676.31	48.200
676.63	48.708
676.95	49.802
677.28	49.493
677.60	48.692
677.92	45.040
678.25	46.318
678.57	46.555
678.89	47.197
679.22	47.610
679.54	46.263
679.86	46.771
680.18	44.991
680.51	46.103
680.83	46.115
681.15	48.007
681.48	45.833
681.80	44.308
682.12	46.886
682.44	46.306
682.77	44.840
683.09	47.573
683.41	46.939
683.73	49.409
684.06	48.611
684.38	50.388
684.70	44.784
685.02	44.618
685.34	48.063
685.67	43.891
685.99	45.977
686.31	42.681
686.63	42.602
686.96	44.608
687.28	41.275
687.60	44.881
687.92	45.729
688.24	46.552
688.56	44.484
688.89	42.256
689.21	49.711
689.53	48.617
689.85	47.154
690.17	46.214
690.49	50.000
690.82	47.479
691.14	48.081
691.46	46.612
691.78	46.004
692.10	46.947
692.42	42.650
692.74	48.643
693.06	47.287
693.39	45.652
693.71	45.383
694.03	47.140
694.35	49.598
694.67	47.454
694.99	49.889
695.31	48.874
695.63	47.964
695.95	48.190
696.27	51.991
696.59	49.881
696.91	49.873
697.23	47.738
697.56	46.266
697.88	41.118
698.20	45.472
698.52	43.774
698.84	43.326
699.16	46.269
699.48	45.551
699.80	50.109
700.12	50.346
700.44	46.963
700.76	47.971
701.08	51.697
701.40	52.208
701.72	56.417
702.04	53.930
702.36	50.000
702.68	51.862
703.00	49.373
703.32	51.365
703.64	49.118
703.96	50.000
704.28	51.058
704.60	49.859
704.91	49.580
705.23	53.977
705.55	53.709
705.87	56.508
706.19	58.307
706.51	55.799
706.83	54.572
707.15	54.011
707.47	48.426
707.79	45.977
708.11	45.351
708.43	45.618
708.74	44.796
709.06	47.209
709.38	50.620
709.70	50.136
710.02	45.924
710.34	50.000
710.66	48.889
710.98	48.634
711.29	49.861
711.61	51.532
711.93	52.888
712.25	49.096
712.57	54.341
712.89	51.212
713.20	53.035
713.52	49.221
713.84	48.338
714.16	48.406
714.48	46.110
714.80	46.883
715.11	44.681
715.43	46.369
715.75	49.577
716.07	51.156
716.39	49.714
716.70	48.598
717.02	53.199
717.34	52.878
717.66	52.431
717.97	58.712
718.29	53.873
718.61	48.986
718.93	49.827
719.24	52.685
719.56	53.793
719.88	49.682
720.20	52.903
720.51	48.039
720.83	53.177
721.15	52.041
721.46	52.740
721.78	49.826
722.10	53.125
722.42	53.512
722.73	51.625
723.05	54.386
723.37	53.710
723.68	55.859
724.00	54.167
724.32	54.373
724.63	56.154
724.95	54.902
725.27	55.390
725.58	51.471
725.90	51.408
726.22	50.000
726.53	50.836
726.85	47.231
727.16	48.658
727.48	50.166
727.80	51.079
728.11	52.143
728.43	50.000
728.74	53.497
729.06	51.971
729.38	52.281
729.69	51.667
730.01	51.645
730.32	49.664
730.64	50.831
730.96	45.946
731.27	46.177
731.59	45.690
731.90	43.454
732.22	43.714
732.53	41.026
732.85	46.784
733.16	47.289
733.48	47.022
733.80	48.696
734.11	49.387
734.43	40.351
734.74	45.845
735.06	47.884
735.37	43.299
735.69	44.638
736.00	50.459
736.32	42.424
736.63	42.271
736.95	44.410
737.26	44.207
737.58	44.785
737.89	45.482
738.21	47.351
738.52	49.164
738.83	56.777
739.15	49.129
739.46	47.241
739.78	49.660
740.09	46.356
740.41	47.853
740.72	48.571
741.04	51.049
741.35	50.000
741.66	52.174
741.98	57.940
742.29	57.407
742.61	53.097
742.92	52.966
743.23	51.600
743.55	54.340
743.86	50.196
744.18	50.000
744.49	55.372
744.80	56.221
745.12	61.161
745.43	56.075
745.74	56.889
746.06	51.316
746.37	59.535
746.68	61.062
747.00	55.605
747.31	57.983
747.62	50.820
747.94	54.077
748.25	56.420
748.56	60.169
748.88	55.357
749.19	56.279
749.50	54.795
749.82	55.144
750.13	55.336
750.44	46.667
750.75	43.624
751.07	48.355
751.38	44.224
751.69	47.475
752.01	47.902
752.32	47.508
752.63	47.651
752.94	52.448
753.26	55.078
753.57	48.638
753.88	53.184
754.19	54.874
754.51	46.512
754.82	45.638
755.13	46.622
755.44	50.370
755.75	49.141
756.07	50.685
756.38	44.118
756.69	47.188
757.00	46.588
757.31	46.197
757.63	42.975
757.94	40.426
758.25	42.754
758.56	39.359
758.87	41.604
759.18	46.512
759.50	48.024
759.81	44.510
760.12	44.382
760.43	42.017
760.74	45.570
761.05	42.440
761.36	41.667
761.67	40.970
761.99	40.000
762.30	42.444
762.61	46.875
762.92	51.894
763.23	51.321
763.54	51.154
763.85	43.191
764.16	48.264
764.47	43.919
764.78	44.625
765.10	42.683
765.41	40.341
765.72	39.779
766.03	41.088
766.34	45.296
766.65	48.289
766.96	53.846
767.27	60.280
767.58	58.416
767.89	62.983
768.20	64.024
768.51	53.061
768.82	50.439
769.13	45.882
769.44	43.985
769.75	46.816
770.06	49.160
770.37	47.368
770.68	46.222
770.99	52.966
771.30	51.464
771.61	43.462
771.92	42.748
772.23	49.597
772.54	51.111
772.85	53.960
773.16	56.522
773.47	61.667
773.78	51.980
774.09	60.227
774.39	63.030
774.70	54.706
775.01	57.895
775.32	57.764
775.63	63.014
775.94	66.667
776.25	68.276
776.56	76.336
776.87	70.229
777.18	70.455
777.48	83.465
777.79	63.846
778.10	70.455
778.41	69.403
778.72	65.414
779.03	51.282
779.34	56.757
779.65	57.143
779.95	60.248
780.26	55.357
780.57	70.748
780.88	62.411
781.19	59.167
781.50	55.621
781.80	55.738
782.11	51.323
782.42	48.851
782.73	53.672
783.04	51.613
783.34	60.465
783.65	60.544
783.96	54.839
784.27	55.629
784.57	59.211
784.88	59.420
785.19	71.667
785.50	65.517
785.81	67.442
786.11	61.481
786.42	65.354
786.73	67.568
787.04	77.358
787.34	54.472
787.65	59.848
787.96	65.152
788.26	66.929
788.57	72.263
788.88	54.930
789.19	66.412
789.49	68.919
789.80	61.719
790.11	61.983
790.41	60.185
790.72	58.333
791.03	72.115
791.33	65.657
791.64	74.737
791.95	62.105
792.25	68.750
792.56	73.000
792.87	75.610
793.17	75.000
793.48	75.294
793.79	77.011
794.09	79.545
794.40	73.276
794.70	57.937
795.01	60.000
795.32	55.725
795.62	54.701
795.93	72.269
796.23	58.537
796.54	75.510
796.85	72.727
797.15	88.312
797.46	95.122
797.76	81.250
798.07	92.000
798.37	86.250
798.68	96.250
798.99	87.805
799.29	77.333
799.60	60.465
799.90	77.632
800.21	93.939
800.51	91.549
800.82	110.345
801.12	107.692
801.43	96.000
801.73	96.552
802.04	72.727
802.34	76.712
802.65	105.882
802.95	95.652
803.26	109.677
803.56	116.667
803.87	92.537
804.17	111.111
804.48	96.226
804.78	87.500
805.09	90.909
805.39	74.603
805.70	96.491
806.00	72.857
806.30	93.750
806.61	77.647
806.91	90.000
807.22	67.391
807.52	76.316
807.83	107.895
808.13	85.507
808.43	101.613
808.74	86.301
809.04	101.786
809.35	86.765
809.65	84.848
809.95	143.137
810.26	120.370
810.56	93.750
810.86	116.327
811.17	89.474
811.47	119.565
811.77	100.000
812.08	81.034
812.38	85.714
812.69	130.952
812.99	124.444
813.29	131.429
813.59	161.290
813.90	94.828
814.20	111.475
814.50	110.000
814.81	101.754
815.11	101.852
815.41	107.143
815.72	125.000
816.02	114.000
816.32	139.024
816.62	112.069
816.93	124.242
817.23	124.390
817.53	112.500
817.84	115.556
818.14	109.524
818.44	100.000
818.74	101.887
819.04	120.513
819.35	169.697
819.65	117.308
819.95	124.074
820.25	146.809
820.56	162.162
820.86	126.316
821.16	87.234
821.46	152.632
821.76	116.364
822.07	90.476
822.37	115.789
822.67	127.907
822.97	131.579
823.27	128.261
823.57	137.500
823.88	133.333
824.18	148.485
824.48	169.565
824.78	119.444
825.08	178.261
825.38	165.517
825.69	144.118
825.99	125.532
826.29	116.667
826.59	157.143
826.89	173.333
827.19	125.714
827.49	148.387
827.79	203.846
828.09	102.381
828.39	133.333
828.70	110.811
829.00	160.714
829.30	243.750
829.60	141.667
829.90	161.290
830.20	145.455
830.50	148.649
830.80	175.000
831.10	180.769
831.40	142.857
831.70	216.667
832.00	140.000
832.30	239.130
832.60	175.000
832.90	200.000
833.20	195.000
833.50	157.895
833.80	135.294
834.10	155.263
834.40	184.211
834.70	146.667
835.00	176.000
835.30	127.027
835.60	175.000
835.90	137.838
836.20	180.769
836.50	190.909
836.80	121.951
837.10	195.652
837.40	407.692
837.70	257.895
838.00	150.000
838.30	183.333
838.60	160.000
838.90	430.000
839.19	200.000
839.49	140.000
839.79	110.345
840.09	184.615
840.39	266.667
840.69	205.263
840.99	185.714
841.29	191.304
841.59	235.000
841.88	204.000
842.18	488.889
842.48	203.571
842.78	192.593
843.08	253.846
843.38	195.455
843.68	278.571
843.97	500.000
844.27	169.565
844.57	2000.000
844.87	364.286
845.17	266.667
845.47	185.714
845.76	200.000
846.06	657.143
846.36	205.882
846.66	307.692
846.96	287.500
847.25	284.615
847.55	236.842
847.85	261.111
848.15	460.000
848.44	336.364
848.74	242.857
849.04	187.500
849.34	182.353
849.63	275.000
849.93	293.750
850.23	1000.000
850.53	450.000
850.82	354.545
851.12	258.824
851.42	208.333
851.71	293.750
852.01	0.000
852.31	217.647
852.61	470.000
852.90	212.500
853.20	355.556
853.50	-2000.000
853.79	164.000
854.09	156.250
854.39	151.724
854.68	168.966
854.98	266.667
855.28	151.613
855.57	300.000
855.87	261.111
856.17	107.407
856.46	242.105
856.76	151.613
857.05	288.235
857.35	300.000
857.65	300.000
857.94	240.000
858.24	511.111
858.53	357.143
858.83	614.286
859.13	213.043
859.42	422.222
859.72	425.000
860.01	275.000
860.31	1225.000
860.60	370.000
860.90	475.000
861.20	323.077
861.49	585.714
861.79	-3700.000
862.08	585.714
862.38	355.556
862.67	235.714
862.97	380.000
863.26	186.667
863.56	1025.000
863.85	307.692
864.15	300.000
864.44	238.889
864.74	341.667
865.03	327.273
865.33	350.000
865.62	273.333
865.92	583.333
866.21	900.000
866.51	740.000
866.80	266.667
867.10	1066.667
867.39	4100.000
867.69	760.000
867.98	825.000
868.27	190.476
868.57	320.000
868.86	1050.000
869.16	204.762
869.45	4300.000
869.75	-666.667
870.04	950.000
870.33	760.000
870.63	350.000
870.92	194.118
871.22	1075.000
871.51	600.000
871.80	383.333
872.10	269.231
>>>>>End Processed Spectral Data<<<<<
