SpectraSuite Data File
++++++++++++++++++++++++++++++++++++
Date: Tue May 12 17:17:14 PDT 2015
User: schluterlab
Dark Spectrum Present: Yes
Reference Spectrum Present: Yes
Number of Sampled Component Spectra: 1
Spectrometers: USB2E3373
Integration Time (usec): 3000 (USB2E3373)
Spectra Averaged: 3 (USB2E3373)
Boxcar Smoothing: 0 (USB2E3373)
Correct for Electrical Dark: No (USB2E3373)
Strobe/Lamp Enabled: No (USB2E3373)
Correct for Detector Non-linearity: No (USB2E3373)
Correct for Stray Light: No (USB2E3373)
Number of Pixels in Processed Spectrum: 2048
>>>>>Begin Processed Spectral Data<<<<<
178.53	0.000
178.91	-225.000
179.29	-775.000
179.67	-3200.000
180.04	-173.333
180.42	850.000
180.80	1750.000
181.18	0.000
181.56	-350.000
181.94	0.000
182.31	1333.333
182.69	-3100.000
183.07	714.286
183.45	-3800.000
183.83	-1650.000
184.20	390.000
184.58	457.143
184.96	-230.769
185.34	-216.667
185.72	1250.000
186.09	-1050.000
186.47	-2800.000
186.85	966.667
187.23	660.000
187.61	1950.000
187.98	487.500
188.36	257.143
188.74	383.333
189.12	308.333
189.49	1000.000
189.87	0.000
190.25	600.000
190.63	2700.000
191.00	-216.667
191.38	-3800.000
191.76	-700.000
192.14	550.000
192.51	-2500.000
192.89	1700.000
193.27	1000.000
193.65	-1133.333
194.02	-740.000
194.40	628.571
194.78	-214.286
195.15	266.667
195.53	-2600.000
195.91	-680.000
196.29	2800.000
196.66	293.750
197.04	1075.000
197.42	-1400.000
197.79	750.000
198.17	391.667
198.55	0.000
198.92	585.714
199.30	1100.000
199.68	2000.000
200.05	700.000
200.43	-550.000
200.81	188.889
201.18	2600.000
201.56	308.333
201.94	-850.000
202.31	-325.000
202.69	-600.000
203.07	3100.000
203.44	-483.333
203.82	358.333
204.19	800.000
204.57	-1150.000
204.95	-825.000
205.32	-720.000
205.70	466.667
206.08	750.000
206.45	-1033.333
206.83	344.444
207.20	247.368
207.58	225.000
207.96	740.000
208.33	0.000
208.71	642.857
209.08	920.000
209.46	-3300.000
209.84	-1150.000
210.21	820.000
210.59	-700.000
210.96	258.333
211.34	-825.000
211.71	318.182
212.09	900.000
212.46	1350.000
212.84	-450.000
213.22	444.444
213.59	-3100.000
213.97	360.000
214.34	1000.000
214.72	900.000
215.09	833.333
215.47	-3200.000
215.84	-400.000
216.22	-425.000
216.59	0.000
216.97	0.000
217.34	1600.000
217.72	-1750.000
218.09	1400.000
218.47	462.500
218.84	725.000
219.22	1533.333
219.59	1133.333
219.97	614.286
220.34	466.667
220.72	1350.000
221.09	3400.000
221.47	225.000
221.84	1100.000
222.22	370.000
222.59	272.222
222.97	250.000
223.34	231.250
223.72	-1850.000
224.09	1100.000
224.46	246.154
224.84	-775.000
225.21	422.222
225.59	226.667
225.96	1433.333
226.34	-560.000
226.71	-650.000
227.08	-700.000
227.46	0.000
227.83	-716.667
228.21	-1500.000
228.58	391.667
228.95	1150.000
229.33	433.333
229.70	850.000
230.08	300.000
230.45	3600.000
230.82	-950.000
231.20	-866.667
231.57	-966.667
231.95	600.000
232.32	325.000
232.69	433.333
233.07	258.333
233.44	-1900.000
233.81	266.667
234.19	181.481
234.56	287.500
234.93	200.000
235.31	165.000
235.68	262.500
236.05	153.571
236.43	144.444
236.80	200.000
237.17	168.966
237.55	131.250
237.92	115.000
238.29	100.000
238.67	128.125
239.04	87.805
239.41	79.167
239.79	80.000
240.16	100.000
240.53	52.459
240.91	65.217
241.28	72.881
241.65	75.758
242.02	61.972
242.40	67.143
242.77	59.341
243.14	41.772
243.51	67.677
243.89	47.664
244.26	50.467
244.63	46.535
245.00	41.284
245.38	43.220
245.75	41.667
246.12	42.222
246.49	35.461
246.87	40.164
247.24	41.333
247.61	41.250
247.98	35.374
248.36	33.333
248.73	35.204
249.10	28.571
249.47	32.000
249.84	32.836
250.22	32.973
250.59	30.500
250.96	29.958
251.33	31.163
251.70	29.464
252.08	26.050
252.45	25.498
252.82	25.095
253.19	28.063
253.56	27.692
253.94	29.348
254.31	27.132
254.68	28.223
255.05	28.276
255.42	25.182
255.79	26.384
256.16	27.458
256.54	23.052
256.91	28.105
257.28	26.087
257.65	23.511
258.02	23.304
258.39	27.507
258.76	26.957
259.14	19.714
259.51	27.114
259.88	22.492
260.25	23.626
260.62	25.205
260.99	20.386
261.36	23.677
261.73	25.266
262.10	24.869
262.47	21.000
262.85	22.933
263.22	23.650
263.59	23.018
263.96	24.812
264.33	20.741
264.70	21.867
265.07	22.927
265.44	21.330
265.81	23.113
266.18	23.799
266.55	21.040
266.92	23.490
267.29	22.807
267.66	21.300
268.03	21.076
268.40	22.622
268.77	22.247
269.14	19.523
269.51	20.045
269.88	20.612
270.25	17.279
270.62	21.245
270.99	22.312
271.36	22.967
271.73	18.868
272.10	20.606
272.47	20.833
272.84	21.158
273.21	19.421
273.58	18.826
273.95	20.739
274.32	20.817
274.69	24.213
275.06	20.765
275.43	19.923
275.80	19.811
276.17	21.691
276.54	20.000
276.91	21.269
277.28	18.978
277.65	20.664
278.02	19.853
278.39	21.763
278.76	21.034
279.13	19.573
279.50	20.364
279.87	17.691
280.23	18.600
280.60	17.883
280.97	19.828
281.34	20.462
281.71	21.217
282.08	19.487
282.45	17.230
282.82	21.237
283.19	19.873
283.56	19.339
283.92	18.730
284.29	19.800
284.66	18.487
285.03	19.569
285.40	19.835
285.77	16.667
286.14	19.040
286.51	17.945
286.87	16.456
287.24	18.018
287.61	18.541
287.98	19.552
288.35	18.963
288.72	16.844
289.08	18.619
289.45	17.378
289.82	17.656
290.19	16.984
290.56	17.031
290.93	17.842
291.29	17.818
291.66	16.949
292.03	18.654
292.40	16.667
292.77	16.435
293.13	16.833
293.50	17.274
293.87	15.989
294.24	18.322
294.60	17.362
294.97	18.322
295.34	16.335
295.71	16.426
296.08	16.533
296.44	16.391
296.81	14.888
297.18	14.575
297.55	16.133
297.91	14.163
298.28	17.391
298.65	15.583
299.02	14.837
299.38	14.868
299.75	16.220
300.12	15.711
300.48	16.042
300.85	16.448
301.22	14.535
301.59	14.505
301.95	15.986
302.32	15.250
302.69	17.081
303.05	16.274
303.42	15.247
303.79	16.901
304.15	15.072
304.52	15.116
304.89	15.672
305.25	15.907
305.62	16.738
305.99	15.000
306.35	16.526
306.72	15.713
307.09	16.563
307.45	14.995
307.82	16.564
308.19	16.495
308.55	16.500
308.92	17.468
309.29	17.357
309.65	17.641
310.02	18.053
310.38	17.946
310.75	17.647
311.12	16.858
311.48	19.402
311.85	17.557
312.22	19.198
312.58	17.687
312.95	18.738
313.31	19.476
313.68	20.263
314.05	20.513
314.41	19.646
314.78	20.644
315.14	21.706
315.51	21.854
315.87	20.712
316.24	22.222
316.61	21.844
316.97	22.477
317.34	23.181
317.70	24.144
318.07	25.890
318.43	25.835
318.80	26.357
319.16	26.486
319.53	26.106
319.89	26.254
320.26	27.561
320.62	28.755
320.99	28.980
321.35	28.479
321.72	30.835
322.08	30.840
322.45	31.698
322.81	32.571
323.18	32.416
323.54	32.230
323.91	34.542
324.27	33.510
324.64	33.131
325.00	35.862
325.37	35.413
325.73	35.329
326.10	37.780
326.46	38.398
326.83	37.520
327.19	39.598
327.56	39.457
327.92	39.098
328.29	39.689
328.65	40.154
329.01	42.173
329.38	41.709
329.74	42.272
330.11	41.964
330.47	41.432
330.84	41.070
331.20	42.640
331.56	44.301
331.93	44.654
332.29	43.452
332.66	44.133
333.02	42.869
333.38	45.899
333.75	44.621
334.11	44.211
334.48	45.128
334.84	45.017
335.20	45.338
335.57	44.249
335.93	45.332
336.29	43.615
336.66	46.913
337.02	46.450
337.38	45.228
337.75	46.453
338.11	45.738
338.47	45.216
338.84	45.385
339.20	44.156
339.56	45.837
339.93	44.983
340.29	45.126
340.65	46.857
341.02	46.179
341.38	45.895
341.74	45.847
342.11	46.494
342.47	47.416
342.83	46.842
343.20	47.211
343.56	44.480
343.92	46.656
344.28	47.289
344.65	46.536
345.01	45.952
345.37	46.554
345.73	44.524
346.10	46.693
346.46	46.890
346.82	46.219
347.19	48.068
347.55	45.746
347.91	46.979
348.27	45.546
348.63	47.468
349.00	45.925
349.36	47.160
349.72	46.713
350.08	47.516
350.45	47.068
350.81	48.624
351.17	45.994
351.53	47.421
351.89	47.242
352.26	46.636
352.62	46.305
352.98	48.926
353.34	48.536
353.70	48.089
354.07	49.231
354.43	48.080
354.79	47.608
355.15	48.162
355.51	48.112
355.87	47.590
356.24	48.499
356.60	46.728
356.96	48.522
357.32	49.133
357.68	48.311
358.04	48.708
358.40	47.826
358.77	48.535
359.13	47.748
359.49	48.925
359.85	50.112
360.21	49.257
360.57	48.905
360.93	49.278
361.29	48.701
361.66	50.037
362.02	48.509
362.38	49.351
362.74	50.885
363.10	49.018
363.46	49.171
363.82	49.509
364.18	49.929
364.54	49.714
364.90	49.331
365.26	50.729
365.62	50.898
365.98	49.209
366.35	49.793
366.71	50.312
367.07	50.717
367.43	50.101
367.79	50.665
368.15	49.457
368.51	50.310
368.87	51.291
369.23	50.450
369.59	50.978
369.95	51.818
370.31	52.361
370.67	51.145
371.03	51.541
371.39	51.870
371.75	52.338
372.11	51.326
372.47	51.027
372.83	51.734
373.19	51.474
373.55	52.921
373.91	51.174
374.27	51.190
374.63	52.610
374.99	51.752
375.35	52.957
375.71	51.979
376.07	52.454
376.42	50.384
376.78	53.308
377.14	52.294
377.50	52.122
377.86	53.235
378.22	53.382
378.58	53.450
378.94	53.410
379.30	53.426
379.66	53.101
380.02	52.669
380.38	52.927
380.74	53.230
381.09	53.738
381.45	52.948
381.81	52.423
382.17	52.930
382.53	53.629
382.89	53.755
383.25	52.635
383.61	53.545
383.97	52.310
384.32	54.792
384.68	54.070
385.04	53.517
385.40	53.381
385.76	54.008
386.12	53.927
386.48	54.347
386.83	55.073
387.19	54.181
387.55	53.651
387.91	53.868
388.27	53.896
388.62	53.110
388.98	53.178
389.34	53.302
389.70	53.538
390.06	55.244
390.42	54.781
390.77	53.686
391.13	53.168
391.49	54.688
391.85	54.585
392.20	54.470
392.56	53.823
392.92	53.902
393.28	54.428
393.64	54.243
393.99	54.179
394.35	54.679
394.71	53.559
395.07	54.380
395.42	54.859
395.78	55.089
396.14	55.723
396.50	53.670
396.85	53.537
397.21	54.091
397.57	54.393
397.92	52.802
398.28	55.378
398.64	54.625
399.00	53.715
399.35	53.408
399.71	55.243
400.07	54.110
400.42	54.925
400.78	54.311
401.14	54.786
401.49	54.493
401.85	53.650
402.21	54.833
402.57	55.236
402.92	55.152
403.28	53.819
403.63	55.386
403.99	53.860
404.35	55.100
404.70	54.991
405.06	54.015
405.42	53.501
405.77	53.583
406.13	54.284
406.49	54.065
406.84	54.935
407.20	54.623
407.55	54.954
407.91	53.669
408.27	54.397
408.62	54.051
408.98	55.234
409.34	53.244
409.69	54.636
410.05	54.383
410.40	53.357
410.76	53.520
411.11	54.739
411.47	54.506
411.83	53.310
412.18	55.254
412.54	54.474
412.89	53.156
413.25	54.618
413.60	53.855
413.96	54.817
414.31	54.841
414.67	56.176
415.03	54.853
415.38	53.754
415.74	54.454
416.09	53.904
416.45	56.303
416.80	55.613
417.16	54.297
417.51	55.796
417.87	54.881
418.22	54.678
418.58	55.732
418.93	54.551
419.29	54.405
419.64	54.755
420.00	54.475
420.35	54.123
420.71	54.609
421.06	54.915
421.42	53.425
421.77	55.247
422.12	53.583
422.48	52.953
422.83	54.688
423.19	52.916
423.54	54.361
423.90	54.757
424.25	53.990
424.61	55.252
424.96	53.755
425.31	53.476
425.67	55.780
426.02	55.412
426.38	54.026
426.73	55.408
427.09	55.219
427.44	54.980
427.79	54.774
428.15	54.979
428.50	54.343
428.85	55.026
429.21	53.593
429.56	53.589
429.92	54.749
430.27	52.298
430.62	52.961
430.98	53.094
431.33	53.478
431.68	52.198
432.04	53.854
432.39	55.324
432.74	54.625
433.10	55.150
433.45	55.026
433.80	55.874
434.16	54.283
434.51	54.128
434.86	55.090
435.22	54.673
435.57	54.950
435.92	55.435
436.28	55.472
436.63	54.565
436.98	55.405
437.34	54.623
437.69	54.143
438.04	55.161
438.39	54.933
438.75	54.510
439.10	55.208
439.45	53.929
439.81	55.350
440.16	54.816
440.51	55.462
440.86	55.157
441.22	54.870
441.57	54.226
441.92	54.492
442.27	53.969
442.63	54.929
442.98	54.041
443.33	54.740
443.68	54.779
444.03	53.864
444.39	55.508
444.74	55.176
445.09	54.397
445.44	54.729
445.79	54.971
446.15	55.158
446.50	55.011
446.85	55.030
447.20	54.229
447.55	54.541
447.91	55.994
448.26	55.112
448.61	56.495
448.96	55.556
449.31	54.895
449.66	56.091
450.02	55.592
450.37	55.303
450.72	56.088
451.07	55.905
451.42	56.194
451.77	56.014
452.12	55.757
452.47	56.926
452.83	55.662
453.18	55.736
453.53	55.299
453.88	56.057
454.23	56.014
454.58	55.478
454.93	55.365
455.28	56.426
455.63	57.092
455.98	54.146
456.34	57.386
456.69	55.488
457.04	55.310
457.39	56.114
457.74	56.532
458.09	54.576
458.44	55.093
458.79	54.801
459.14	56.356
459.49	54.020
459.84	55.978
460.19	53.898
460.54	56.296
460.89	56.290
461.24	55.040
461.59	55.499
461.94	53.960
462.29	55.034
462.64	57.286
462.99	56.686
463.34	57.161
463.69	55.172
464.04	56.074
464.39	55.295
464.74	55.217
465.09	54.324
465.44	54.897
465.79	55.253
466.14	55.008
466.49	54.965
466.84	54.404
467.19	55.770
467.54	54.715
467.89	56.338
468.24	54.835
468.59	56.071
468.94	55.857
469.29	55.406
469.64	55.627
469.99	55.784
470.34	55.787
470.68	57.172
471.03	57.839
471.38	56.358
471.73	55.976
472.08	56.556
472.43	56.797
472.78	55.954
473.13	56.821
473.48	55.746
473.83	56.832
474.17	56.353
474.52	55.687
474.87	55.202
475.22	56.139
475.57	55.824
475.92	54.624
476.27	54.788
476.61	55.067
476.96	55.277
477.31	56.401
477.66	56.146
478.01	56.163
478.36	56.437
478.70	55.385
479.05	56.015
479.40	55.506
479.75	55.462
480.10	55.470
480.45	53.408
480.79	55.023
481.14	55.207
481.49	54.758
481.84	53.914
482.19	55.546
482.53	54.545
482.88	54.570
483.23	54.172
483.58	55.341
483.92	56.124
484.27	54.966
484.62	55.390
484.97	53.370
485.31	53.994
485.66	52.161
486.01	49.851
486.36	49.215
486.70	48.989
487.05	49.909
487.40	50.546
487.75	51.686
488.09	51.960
488.44	51.785
488.79	52.794
489.13	53.714
489.48	53.935
489.83	54.003
490.17	53.757
490.52	55.340
490.87	54.569
491.22	55.674
491.56	54.194
491.91	54.167
492.26	55.323
492.60	54.806
492.95	55.777
493.30	55.096
493.64	55.885
493.99	55.009
494.34	54.415
494.68	54.803
495.03	55.276
495.37	55.290
495.72	55.618
496.07	54.717
496.41	54.909
496.76	54.158
497.11	54.542
497.45	53.880
497.80	55.190
498.14	54.831
498.49	54.875
498.84	55.421
499.18	54.479
499.53	54.479
499.87	54.133
500.22	55.781
500.56	54.225
500.91	54.870
501.26	55.627
501.60	54.235
501.95	54.480
502.29	54.667
502.64	53.639
502.98	54.647
503.33	54.788
503.67	54.040
504.02	53.471
504.36	55.023
504.71	56.055
505.06	55.655
505.40	54.984
505.75	54.911
506.09	54.083
506.44	55.169
506.78	55.955
507.13	55.889
507.47	55.992
507.82	56.545
508.16	56.198
508.51	55.072
508.85	55.603
509.19	55.898
509.54	55.225
509.88	56.042
510.23	56.275
510.57	54.730
510.92	57.093
511.26	56.376
511.61	54.850
511.95	55.251
512.30	55.650
512.64	55.140
512.98	56.791
513.33	56.814
513.67	55.930
514.02	56.208
514.36	55.244
514.70	57.120
515.05	57.219
515.39	57.950
515.74	57.736
516.08	57.516
516.42	59.836
516.77	57.120
517.11	57.280
517.46	56.843
517.80	57.673
518.14	57.690
518.49	57.277
518.83	56.484
519.17	57.238
519.52	57.236
519.86	57.657
520.20	57.041
520.55	56.755
520.89	57.931
521.23	58.762
521.58	58.061
521.92	59.650
522.26	57.761
522.61	60.368
522.95	60.060
523.29	58.304
523.64	58.035
523.98	59.038
524.32	58.535
524.66	60.232
525.01	59.172
525.35	58.456
525.69	59.964
526.04	59.310
526.38	58.917
526.72	58.174
527.06	58.427
527.41	59.129
527.75	59.769
528.09	58.940
528.43	58.694
528.78	58.259
529.12	60.084
529.46	57.160
529.80	58.119
530.15	57.219
530.49	58.664
530.83	58.318
531.17	59.041
531.51	58.246
531.86	57.729
532.20	57.849
532.54	59.448
532.88	58.776
533.22	58.806
533.57	59.182
533.91	57.867
534.25	57.069
534.59	58.480
534.93	55.518
535.27	56.232
535.62	57.818
535.96	56.560
536.30	60.146
536.64	57.516
536.98	57.961
537.32	58.812
537.66	58.355
538.01	56.842
538.35	57.517
538.69	56.796
539.03	56.965
539.37	56.311
539.71	57.531
540.05	57.046
540.39	58.868
540.73	57.911
541.07	58.532
541.42	57.649
541.76	57.213
542.10	56.967
542.44	57.731
542.78	56.828
543.12	56.564
543.46	56.579
543.80	56.704
544.14	57.523
544.48	57.117
544.82	57.003
545.16	57.013
545.50	56.423
545.84	57.134
546.18	59.818
546.52	59.082
546.86	56.931
547.20	56.654
547.54	55.035
547.88	57.056
548.22	56.102
548.56	56.806
548.90	55.279
549.24	56.665
549.58	56.057
549.92	58.481
550.26	59.162
550.60	56.687
550.94	58.616
551.28	58.000
551.62	58.345
551.96	57.838
552.30	56.889
552.64	57.929
552.98	56.314
553.32	56.402
553.66	57.459
554.00	57.786
554.34	58.389
554.68	59.073
555.02	58.181
555.36	57.114
555.69	56.937
556.03	56.306
556.37	56.915
556.71	56.454
557.05	56.029
557.39	57.267
557.73	57.143
558.07	55.399
558.41	58.739
558.75	57.729
559.08	60.329
559.42	59.413
559.76	58.232
560.10	57.261
560.44	57.731
560.78	57.097
561.12	56.834
561.45	56.070
561.79	54.994
562.13	56.728
562.47	56.132
562.81	56.864
563.15	56.173
563.48	54.969
563.82	57.954
564.16	56.841
564.50	54.250
564.84	55.137
565.17	54.843
565.51	57.020
565.85	56.570
566.19	55.536
566.52	55.174
566.86	55.342
567.20	54.494
567.54	53.821
567.88	53.573
568.21	52.222
568.55	52.918
568.89	51.870
569.23	50.949
569.56	50.399
569.90	49.335
570.24	49.063
570.57	48.735
570.91	48.175
571.25	47.628
571.59	46.954
571.92	46.502
572.26	46.119
572.60	46.404
572.93	47.355
573.27	46.697
573.61	46.400
573.95	46.016
574.28	46.243
574.62	46.041
574.96	45.072
575.29	45.551
575.63	45.300
575.97	45.448
576.30	45.811
576.64	46.217
576.98	45.902
577.31	45.174
577.65	44.981
577.98	45.007
578.32	44.434
578.66	44.596
578.99	44.913
579.33	45.151
579.67	44.957
580.00	44.944
580.34	44.055
580.67	44.787
581.01	44.964
581.35	44.325
581.68	44.268
582.02	43.648
582.35	43.801
582.69	44.297
583.02	44.512
583.36	45.244
583.70	45.538
584.03	45.389
584.37	45.381
584.70	45.260
585.04	44.587
585.37	44.184
585.71	45.438
586.04	45.060
586.38	45.056
586.72	46.100
587.05	44.750
587.39	45.183
587.72	45.865
588.06	45.716
588.39	45.829
588.73	45.764
589.06	46.338
589.40	47.042
589.73	46.575
590.07	48.284
590.40	47.561
590.73	48.145
591.07	48.273
591.40	48.463
591.74	48.945
592.07	48.170
592.41	47.682
592.74	47.638
593.08	46.257
593.41	45.482
593.75	44.949
594.08	46.196
594.41	45.976
594.75	47.192
595.08	47.394
595.42	46.379
595.75	46.726
596.09	46.507
596.42	46.868
596.75	48.758
597.09	48.411
597.42	48.082
597.75	47.099
598.09	47.641
598.42	47.083
598.76	46.608
599.09	47.003
599.42	45.606
599.76	45.828
600.09	45.458
600.42	46.098
600.76	46.635
601.09	45.944
601.42	45.723
601.76	46.652
602.09	46.909
602.42	46.802
602.76	46.717
603.09	47.926
603.42	47.266
603.76	46.421
604.09	46.652
604.42	46.817
604.76	47.491
605.09	47.347
605.42	47.501
605.75	46.585
606.09	47.437
606.42	46.712
606.75	47.377
607.09	46.704
607.42	46.766
607.75	46.258
608.08	46.466
608.42	48.238
608.75	47.026
609.08	47.162
609.41	48.455
609.75	49.679
610.08	48.381
610.41	48.485
610.74	47.359
611.07	48.113
611.41	48.749
611.74	48.375
612.07	48.748
612.40	49.123
612.73	48.877
613.07	49.265
613.40	49.023
613.73	48.777
614.06	47.400
614.39	48.990
614.72	49.121
615.06	47.527
615.39	47.574
615.72	46.805
616.05	48.719
616.38	47.996
616.71	49.593
617.05	48.710
617.38	50.618
617.71	50.112
618.04	50.252
618.37	49.305
618.70	48.095
619.03	49.756
619.36	52.010
619.69	51.055
620.03	52.316
620.36	51.381
620.69	52.235
621.02	53.057
621.35	52.865
621.68	53.097
622.01	54.391
622.34	53.678
622.67	53.371
623.00	51.668
623.33	52.159
623.66	50.898
623.99	51.849
624.32	52.981
624.65	50.494
624.99	51.386
625.32	52.639
625.65	51.310
625.98	51.534
626.31	54.154
626.64	52.696
626.97	53.481
627.30	52.873
627.63	54.239
627.96	53.756
628.29	54.373
628.62	54.063
628.95	57.181
629.28	56.354
629.61	56.327
629.94	55.315
630.26	54.766
630.59	57.713
630.92	54.529
631.25	55.938
631.58	57.859
631.91	56.993
632.24	56.365
632.57	56.385
632.90	58.903
633.23	59.077
633.56	58.272
633.89	58.842
634.22	60.280
634.55	59.892
634.88	58.488
635.20	61.659
635.53	59.930
635.86	59.955
636.19	58.810
636.52	56.432
636.85	59.439
637.18	59.372
637.51	57.654
637.83	58.924
638.16	61.196
638.49	60.958
638.82	59.624
639.15	60.047
639.48	60.308
639.81	59.707
640.13	60.859
640.46	60.809
640.79	61.508
641.12	61.417
641.45	60.931
641.77	62.616
642.10	61.446
642.43	63.585
642.76	62.642
643.09	62.248
643.41	61.431
643.74	61.583
644.07	64.012
644.40	63.462
644.73	62.913
645.05	62.556
645.38	65.084
645.71	63.126
646.04	65.038
646.36	63.537
646.69	65.440
647.02	66.080
647.35	62.047
647.67	61.750
648.00	65.147
648.33	61.654
648.66	62.727
648.98	58.841
649.31	57.085
649.64	59.889
649.96	61.878
650.29	59.000
650.62	64.212
650.94	59.789
651.27	63.477
651.60	60.720
651.92	61.751
652.25	63.622
652.58	58.440
652.90	60.928
653.23	60.266
653.56	58.457
653.88	60.059
654.21	60.264
654.54	59.004
654.86	56.490
655.19	57.652
655.52	46.848
655.84	35.936
656.17	40.974
656.49	58.299
656.82	66.638
657.15	53.627
657.47	40.660
657.80	30.547
658.13	24.268
658.45	32.471
658.78	40.044
659.10	41.106
659.43	42.032
659.75	43.339
660.08	46.930
660.41	52.178
660.73	56.211
661.06	59.459
661.38	62.521
661.71	61.691
662.03	63.118
662.36	64.381
662.68	60.149
663.01	64.144
663.33	63.585
663.66	63.511
663.98	65.476
664.31	64.179
664.63	65.517
664.96	63.039
665.28	61.770
665.61	61.509
665.93	62.264
666.26	64.299
666.58	61.651
666.91	64.479
667.23	63.454
667.56	66.735
667.88	68.050
668.21	67.213
668.53	63.911
668.86	65.331
669.18	64.358
669.50	63.843
669.83	63.655
670.15	63.410
670.48	60.352
670.80	64.343
671.13	61.155
671.45	63.527
671.77	63.080
672.10	59.425
672.42	58.224
672.75	57.911
673.07	59.300
673.39	54.153
673.72	58.824
674.04	60.753
674.37	60.254
674.69	63.197
675.01	60.448
675.34	58.915
675.66	62.305
675.98	61.538
676.31	62.800
676.63	61.233
676.95	60.714
677.28	60.243
677.60	62.575
677.92	62.103
678.25	62.209
678.57	59.218
678.89	61.121
679.22	59.191
679.54	59.075
679.86	58.290
680.18	57.293
680.51	57.711
680.83	56.081
681.15	57.192
681.48	58.333
681.80	55.867
682.12	57.439
682.44	57.477
682.77	54.270
683.09	59.029
683.41	62.857
683.73	60.039
684.06	58.730
684.38	61.628
684.70	58.094
685.02	53.646
685.34	57.218
685.67	55.145
685.99	56.158
686.31	53.467
686.63	52.520
686.96	53.758
687.28	53.859
687.60	54.608
687.92	53.936
688.24	55.172
688.56	55.516
688.89	54.493
689.21	57.418
689.53	61.265
689.85	57.114
690.17	59.223
690.49	56.855
690.82	55.672
691.14	57.576
691.46	57.700
691.78	55.945
692.10	56.107
692.42	55.717
692.74	55.233
693.06	55.814
693.39	55.534
693.71	58.350
694.03	55.227
694.35	57.430
694.67	54.582
694.99	56.984
695.31	61.712
695.63	60.860
695.95	57.692
696.27	62.611
696.59	59.666
696.91	59.747
697.23	57.692
697.56	54.149
697.88	52.495
698.20	54.717
698.52	49.805
698.84	54.825
699.16	57.569
699.48	56.568
699.80	58.824
700.12	59.122
700.44	58.178
700.76	60.143
701.08	61.619
701.40	58.182
701.72	61.765
702.04	63.686
702.36	62.634
702.68	61.436
703.00	57.143
703.32	56.824
703.64	57.431
703.96	59.896
704.28	59.524
704.60	66.761
704.91	61.905
705.23	63.636
705.55	63.205
705.87	66.667
706.19	63.009
706.51	67.398
706.83	62.537
707.15	58.021
707.47	56.901
707.79	55.632
708.11	55.329
708.43	54.831
708.74	54.525
709.06	57.674
709.38	55.335
709.70	56.676
710.02	56.522
710.34	58.011
710.66	57.222
710.98	59.563
711.29	60.446
711.61	57.660
711.93	63.526
712.25	57.530
712.57	61.415
712.89	60.909
713.20	62.939
713.52	60.125
713.84	61.329
714.16	54.783
714.48	53.602
714.80	55.014
715.11	52.660
715.43	55.866
715.75	52.958
716.07	58.960
716.39	59.714
716.70	57.009
717.02	62.963
717.34	64.748
717.66	63.194
717.97	70.455
718.29	64.085
718.61	56.757
718.93	59.170
719.24	60.403
719.56	65.172
719.88	54.777
720.20	55.484
720.51	56.209
720.83	60.870
721.15	59.864
721.46	60.616
721.78	63.763
722.10	64.931
722.42	59.866
722.73	60.289
723.05	58.246
723.37	61.837
723.68	56.250
724.00	64.015
724.32	61.977
724.63	60.769
724.95	68.235
725.27	57.621
725.58	62.132
725.90	55.282
726.22	54.452
726.53	59.866
726.85	59.935
727.16	58.389
727.48	52.159
727.80	62.590
728.11	60.714
728.43	60.145
728.74	55.245
729.06	57.706
729.38	58.596
729.69	59.667
730.01	56.579
730.32	57.718
730.64	59.468
730.96	51.652
731.27	48.930
731.59	51.149
731.90	50.139
732.22	53.143
732.53	52.991
732.85	54.971
733.16	53.012
733.48	55.486
733.80	51.884
734.11	56.748
734.43	48.830
734.74	52.011
735.06	50.000
735.37	48.454
735.69	51.304
736.00	55.352
736.32	48.788
736.63	53.312
736.95	52.795
737.26	53.049
737.58	51.227
737.89	50.301
738.21	50.331
738.52	51.171
738.83	61.172
739.15	52.265
739.46	55.172
739.78	57.483
740.09	52.187
740.41	51.534
740.72	52.698
741.04	58.741
741.35	59.375
741.66	62.055
741.98	61.373
742.29	61.111
742.61	57.522
742.92	61.864
743.23	53.600
743.55	50.943
743.86	56.078
744.18	58.051
744.49	60.331
744.80	64.977
745.12	64.732
745.43	62.617
745.74	60.889
746.06	59.211
746.37	57.209
746.68	61.062
747.00	60.987
747.31	57.563
747.62	53.279
747.94	60.944
748.25	53.307
748.56	60.169
748.88	60.268
749.19	60.000
749.50	55.708
749.82	60.494
750.13	56.522
750.44	51.667
750.75	58.054
751.07	49.342
751.38	52.475
751.69	51.515
752.01	51.049
752.32	53.156
752.63	54.027
752.94	55.594
753.26	54.688
753.57	60.700
753.88	53.184
754.19	55.596
754.51	51.827
754.82	48.658
755.13	51.689
755.44	57.407
755.75	58.076
756.07	51.027
756.38	46.732
756.69	45.938
757.00	48.368
757.31	47.606
757.63	47.658
757.94	47.074
758.25	47.101
758.56	45.538
758.87	45.614
759.18	50.291
759.50	51.064
759.81	46.884
760.12	48.315
760.43	49.020
760.74	45.570
761.05	44.032
761.36	44.010
761.67	46.092
761.99	45.352
762.30	51.125
762.61	50.347
762.92	50.379
763.23	54.717
763.54	50.385
763.85	53.696
764.16	50.347
764.47	51.351
764.78	44.300
765.10	45.427
765.41	44.602
765.72	46.685
766.03	45.619
766.34	46.690
766.65	55.894
766.96	54.656
767.27	56.542
767.58	59.901
767.89	60.773
768.20	67.683
768.51	54.082
768.82	49.123
769.13	51.765
769.44	50.752
769.75	46.442
770.06	50.000
770.37	45.614
770.68	49.778
770.99	58.475
771.30	49.791
771.61	52.692
771.92	50.382
772.23	46.371
772.54	56.889
772.85	57.921
773.16	58.696
773.47	59.444
773.78	57.426
774.09	61.364
774.39	58.788
774.70	60.000
775.01	68.421
775.32	62.733
775.63	65.068
775.94	64.815
776.25	65.517
776.56	70.992
776.87	68.702
777.18	68.182
777.48	80.315
777.79	72.308
778.10	70.455
778.41	67.910
778.72	60.902
779.03	56.410
779.34	67.568
779.65	63.354
779.95	60.870
780.26	62.500
780.57	68.027
780.88	65.248
781.19	78.333
781.50	62.722
781.80	57.923
782.11	57.143
782.42	56.322
782.73	58.192
783.04	54.839
783.34	65.116
783.65	58.503
783.96	55.484
784.27	52.980
784.57	59.211
784.88	64.493
785.19	64.167
785.50	69.828
785.81	67.442
786.11	60.000
786.42	61.417
786.73	65.766
787.04	72.642
787.34	57.724
787.65	59.848
787.96	66.667
788.26	66.142
788.57	70.073
788.88	55.634
789.19	70.992
789.49	62.838
789.80	62.500
790.11	71.074
790.41	64.815
790.72	62.037
791.03	66.346
791.33	80.808
791.64	76.842
791.95	72.632
792.25	63.542
792.56	79.000
792.87	81.707
793.17	77.273
793.48	70.588
793.79	73.563
794.09	77.273
794.40	66.379
794.70	61.111
795.01	56.923
795.32	58.779
795.62	58.974
795.93	68.067
796.23	64.228
796.54	79.592
796.85	73.864
797.15	89.610
797.46	75.610
797.76	72.500
798.07	101.333
798.37	81.250
798.68	90.000
798.99	91.463
799.29	78.667
799.60	54.651
799.90	82.895
800.21	86.364
800.51	94.366
800.82	89.655
801.12	93.846
801.43	88.000
801.73	96.552
802.04	68.831
802.34	68.493
802.65	96.078
802.95	104.348
803.26	98.387
803.56	105.000
803.87	89.552
804.17	98.413
804.48	79.245
804.78	73.611
805.09	101.515
805.39	103.175
805.70	96.491
806.00	80.000
806.30	89.062
806.61	76.471
806.91	83.333
807.22	64.130
807.52	68.421
807.83	86.842
808.13	85.507
808.43	96.774
808.74	87.671
809.04	98.214
809.35	107.353
809.65	93.939
809.95	129.412
810.26	127.778
810.56	106.250
810.86	104.082
811.17	96.491
811.47	108.696
811.77	93.103
812.08	87.931
812.38	116.667
812.69	119.048
812.99	88.889
813.29	151.429
813.59	187.097
813.90	87.931
814.20	104.918
814.50	116.000
814.81	89.474
815.11	111.111
815.41	103.571
815.72	108.929
816.02	82.000
816.32	139.024
816.62	91.379
816.93	172.727
817.23	117.073
817.53	112.500
817.84	102.222
818.14	126.190
818.44	110.417
818.74	103.774
819.04	102.564
819.35	148.485
819.65	119.231
819.95	114.815
820.25	114.894
820.56	137.838
820.86	160.526
821.16	85.106
821.46	128.947
821.76	112.727
822.07	83.333
822.37	126.316
822.67	132.558
822.97	97.368
823.27	123.913
823.57	140.625
823.88	125.641
824.18	142.424
824.48	243.478
824.78	150.000
825.08	208.696
825.38	151.724
825.69	138.235
825.99	100.000
826.29	122.222
826.59	105.714
826.89	186.667
827.19	108.571
827.49	161.290
827.79	180.769
828.09	123.810
828.39	111.111
828.70	110.811
829.00	192.857
829.30	237.500
829.60	130.556
829.90	132.258
830.20	142.424
830.50	132.432
830.80	170.833
831.10	146.154
831.40	180.952
831.70	200.000
832.00	140.000
832.30	160.870
832.60	166.667
832.90	154.545
833.20	190.000
833.50	131.579
833.80	100.000
834.10	121.053
834.40	236.842
834.70	130.000
835.00	200.000
835.30	97.297
835.60	150.000
835.90	143.243
836.20	173.077
836.50	236.364
836.80	117.073
837.10	169.565
837.40	300.000
837.70	184.211
838.00	186.667
838.30	208.333
838.60	132.000
838.90	450.000
839.19	218.750
839.49	123.333
839.79	158.621
840.09	138.462
840.39	200.000
840.69	163.158
840.99	157.143
841.29	213.043
841.59	215.000
841.88	136.000
842.18	477.778
842.48	164.286
842.78	159.259
843.08	238.462
843.38	190.909
843.68	357.143
843.97	485.714
844.27	178.261
844.57	1350.000
844.87	292.857
845.17	211.111
845.47	147.619
845.76	166.667
846.06	485.714
846.36	205.882
846.66	315.385
846.96	237.500
847.25	207.692
847.55	205.263
847.85	205.556
848.15	740.000
848.44	345.455
848.74	142.857
849.04	225.000
849.34	229.412
849.63	275.000
849.93	218.750
850.23	1133.333
850.53	412.500
850.82	281.818
851.12	194.118
851.42	179.167
851.71	218.750
852.01	0.000
852.31	205.882
852.61	500.000
852.90	166.667
853.20	344.444
853.50	-2600.000
853.79	168.000
854.09	153.125
854.39	144.828
854.68	158.621
854.98	257.143
855.28	125.806
855.57	221.429
855.87	227.778
856.17	196.296
856.46	205.263
856.76	119.355
857.05	258.824
857.35	272.727
857.65	300.000
857.94	180.000
858.24	477.778
858.53	257.143
858.83	614.286
859.13	186.957
859.42	355.556
859.72	512.500
860.01	316.667
860.31	900.000
860.60	420.000
860.90	500.000
861.20	269.231
861.49	400.000
861.79	-3300.000
862.08	514.286
862.38	366.667
862.67	242.857
862.97	320.000
863.26	180.000
863.56	950.000
863.85	323.077
864.15	258.824
864.44	166.667
864.74	275.000
865.03	363.636
865.33	325.000
865.62	253.333
865.92	483.333
866.21	825.000
866.51	540.000
866.80	238.889
867.10	900.000
867.39	3300.000
867.69	720.000
867.98	900.000
868.27	190.476
868.57	240.000
868.86	1225.000
869.16	128.571
869.45	3100.000
869.75	-483.333
870.04	550.000
870.33	740.000
870.63	462.500
870.92	270.588
871.22	650.000
871.51	414.286
871.80	341.667
872.10	284.615
>>>>>End Processed Spectral Data<<<<<
