SpectraSuite Data File
++++++++++++++++++++++++++++++++++++
Date: Tue May 12 16:35:58 PDT 2015
User: schluterlab
Dark Spectrum Present: Yes
Reference Spectrum Present: Yes
Number of Sampled Component Spectra: 1
Spectrometers: USB2E3373
Integration Time (usec): 3000 (USB2E3373)
Spectra Averaged: 3 (USB2E3373)
Boxcar Smoothing: 0 (USB2E3373)
Correct for Electrical Dark: No (USB2E3373)
Strobe/Lamp Enabled: No (USB2E3373)
Correct for Detector Non-linearity: No (USB2E3373)
Correct for Stray Light: No (USB2E3373)
Number of Pixels in Processed Spectrum: 2048
>>>>>Begin Processed Spectral Data<<<<<
178.53	0.000
178.91	-225.000
179.29	-600.000
179.67	-4100.000
180.04	-113.333
180.42	550.000
180.80	1200.000
181.18	0.000
181.56	-162.500
181.94	0.000
182.31	1233.333
182.69	-2800.000
183.07	514.286
183.45	-3600.000
183.83	-1650.000
184.20	420.000
184.58	714.286
184.96	-292.308
185.34	-241.667
185.72	1800.000
186.09	-800.000
186.47	-2800.000
186.85	1033.333
187.23	620.000
187.61	1500.000
187.98	437.500
188.36	192.857
188.74	283.333
189.12	358.333
189.49	925.000
189.87	0.000
190.25	350.000
190.63	3300.000
191.00	-166.667
191.38	-3400.000
191.76	-650.000
192.14	512.500
192.51	-2500.000
192.89	1600.000
193.27	800.000
193.65	-1166.667
194.02	-640.000
194.40	457.143
194.78	-235.714
195.15	240.000
195.53	-3100.000
195.91	-500.000
196.29	4000.000
196.66	218.750
197.04	1000.000
197.42	-1750.000
197.79	725.000
198.17	341.667
198.55	0.000
198.92	485.714
199.30	1233.333
199.68	1950.000
200.05	800.000
200.43	-466.667
200.81	205.556
201.18	3200.000
201.56	308.333
201.94	-825.000
202.31	-275.000
202.69	-580.000
203.07	3300.000
203.44	-400.000
203.82	358.333
204.19	640.000
204.57	-950.000
204.95	-725.000
205.32	-780.000
205.70	516.667
206.08	750.000
206.45	-1000.000
206.83	388.889
207.20	157.895
207.58	275.000
207.96	680.000
208.33	0.000
208.71	585.714
209.08	560.000
209.46	-2800.000
209.84	-925.000
210.21	780.000
210.59	-520.000
210.96	316.667
211.34	-900.000
211.71	318.182
212.09	750.000
212.46	1600.000
212.84	-483.333
213.22	411.111
213.59	-3400.000
213.97	330.000
214.34	775.000
214.72	1166.667
215.09	933.333
215.47	-2700.000
215.84	-430.000
216.22	-412.500
216.59	0.000
216.97	0.000
217.34	1100.000
217.72	-1800.000
218.09	1433.333
218.47	475.000
218.84	800.000
219.22	1200.000
219.59	600.000
219.97	557.143
220.34	388.889
220.72	1500.000
221.09	3000.000
221.47	258.333
221.84	933.333
222.22	360.000
222.59	233.333
222.97	214.286
223.34	237.500
223.72	-1800.000
224.09	1166.667
224.46	346.154
224.84	-825.000
225.21	355.556
225.59	273.333
225.96	1300.000
226.34	-600.000
226.71	-600.000
227.08	-580.000
227.46	0.000
227.83	-466.667
228.21	-1550.000
228.58	291.667
228.95	950.000
229.33	344.444
229.70	1050.000
230.08	361.538
230.45	3800.000
230.82	-850.000
231.20	-900.000
231.57	-1133.333
231.95	580.000
232.32	341.667
232.69	616.667
233.07	233.333
233.44	-1800.000
233.81	340.000
234.19	170.370
234.56	206.250
234.93	176.471
235.31	190.000
235.68	237.500
236.05	171.429
236.43	125.926
236.80	278.571
237.17	172.414
237.55	121.875
237.92	100.000
238.29	124.242
238.67	150.000
239.04	107.317
239.41	79.167
239.79	97.500
240.16	85.417
240.53	78.689
240.91	84.058
241.28	88.136
241.65	83.333
242.02	85.915
242.40	87.143
242.77	71.429
243.14	63.291
243.51	75.758
243.89	59.813
244.26	65.421
244.63	55.446
245.00	58.716
245.38	64.407
245.75	57.576
246.12	62.963
246.49	46.099
246.87	50.000
247.24	55.333
247.61	57.500
247.98	61.905
248.36	51.515
248.73	60.204
249.10	51.786
249.47	51.000
249.84	49.751
250.22	48.649
250.59	47.000
250.96	41.772
251.33	51.163
251.70	51.339
252.08	45.798
252.45	44.223
252.82	45.247
253.19	41.107
253.56	42.692
253.94	45.290
254.31	51.163
254.68	48.084
255.05	48.276
255.42	45.255
255.79	45.928
256.16	44.407
256.54	46.753
256.91	45.098
257.28	43.478
257.65	46.082
258.02	43.658
258.39	45.272
258.76	42.899
259.14	44.286
259.51	44.315
259.88	46.809
260.25	42.033
260.62	40.274
260.99	39.945
261.36	43.454
261.73	42.021
262.10	43.979
262.47	38.750
262.85	44.533
263.22	45.501
263.59	43.734
263.96	42.857
264.33	42.963
264.70	46.683
265.07	44.390
265.44	41.514
265.81	42.453
266.18	44.851
266.55	42.080
266.92	42.953
267.29	44.079
267.66	41.928
268.03	42.377
268.40	41.860
268.77	42.291
269.14	40.130
269.51	38.976
269.88	39.796
270.25	41.685
270.62	43.133
270.99	39.351
271.36	40.041
271.73	40.671
272.10	39.798
272.47	40.278
272.84	40.319
273.21	39.463
273.58	40.688
273.95	41.889
274.32	37.743
274.69	42.323
275.06	41.166
275.43	39.655
275.80	39.245
276.17	40.074
276.54	37.383
276.91	38.806
277.28	39.416
277.65	41.144
278.02	39.522
278.39	37.950
278.76	38.276
279.13	38.968
279.50	38.545
279.87	38.361
280.23	37.569
280.60	40.511
280.97	39.310
281.34	38.449
281.71	39.130
282.08	40.000
282.45	38.682
282.82	39.298
283.19	36.248
283.56	37.190
283.92	39.739
284.29	36.938
284.66	36.639
285.03	38.308
285.40	37.851
285.77	37.346
286.14	36.378
286.51	36.350
286.87	35.601
287.24	34.084
287.61	35.866
287.98	36.119
288.35	34.519
288.72	35.812
289.08	34.384
289.45	36.738
289.82	35.156
290.19	37.042
290.56	34.061
290.93	36.978
291.29	33.840
291.66	35.028
292.03	35.764
292.40	34.011
292.77	32.869
293.13	34.522
293.50	32.928
293.87	32.791
294.24	33.986
294.60	34.455
294.97	35.385
295.34	33.333
295.71	32.720
296.08	32.667
296.44	33.291
296.81	32.754
297.18	33.080
297.55	31.281
297.91	32.266
298.28	31.522
298.65	31.288
299.02	31.122
299.38	29.616
299.75	30.610
300.12	32.454
300.48	33.724
300.85	32.420
301.22	32.093
301.59	32.075
301.95	33.139
302.32	33.295
302.69	32.127
303.05	32.660
303.42	32.511
303.79	31.744
304.15	32.123
304.52	32.135
304.89	31.876
305.25	32.481
305.62	31.876
305.99	32.609
306.35	33.263
306.72	33.819
307.09	32.505
307.45	32.418
307.82	32.407
308.19	32.268
308.55	31.800
308.92	34.053
309.29	33.925
309.65	33.796
310.02	34.888
310.38	32.901
310.75	32.980
311.12	32.854
311.48	33.880
311.85	34.924
312.22	35.530
312.58	34.888
312.95	35.631
313.31	36.330
313.68	36.492
314.05	35.806
314.41	36.592
314.78	37.121
315.14	36.398
315.51	37.370
315.87	37.774
316.24	38.002
316.61	39.302
316.97	38.349
317.34	39.263
317.70	40.211
318.07	39.947
318.43	40.070
318.80	41.856
319.16	40.647
319.53	40.796
319.89	40.412
320.26	41.434
320.62	43.498
320.99	43.279
321.35	42.301
321.72	43.738
322.08	44.691
322.45	43.415
322.81	44.922
323.18	45.737
323.54	46.429
323.91	46.056
324.27	46.596
324.64	46.886
325.00	48.448
325.37	47.218
325.73	48.651
326.10	49.379
326.46	49.546
326.83	50.160
327.19	51.566
327.56	50.799
327.92	51.967
328.29	53.110
328.65	52.997
329.01	52.524
329.38	52.030
329.74	52.348
330.11	51.520
330.47	54.731
330.84	51.855
331.20	52.453
331.56	54.404
331.93	53.807
332.29	52.721
332.66	54.422
333.02	52.491
333.38	55.323
333.75	53.294
334.11	54.111
334.48	54.359
334.84	52.872
335.20	53.636
335.57	54.828
335.93	54.415
336.29	53.814
336.66	55.317
337.02	53.978
337.38	54.256
337.75	53.716
338.11	57.722
338.47	52.667
338.84	53.006
339.20	53.680
339.56	53.574
339.93	54.431
340.29	53.277
340.65	55.071
341.02	54.626
341.38	53.941
341.74	55.150
342.11	54.674
342.47	54.143
342.83	56.194
343.20	54.891
343.56	52.820
343.92	55.244
344.28	54.386
344.65	54.931
345.01	54.048
345.37	55.609
345.73	53.333
346.10	54.980
346.46	55.742
346.82	53.858
347.19	55.332
347.55	53.708
347.91	54.154
348.27	53.834
348.63	56.171
349.00	54.989
349.36	56.498
349.72	56.040
350.08	54.581
350.45	55.903
350.81	55.352
351.17	56.086
351.53	55.350
351.89	55.789
352.26	56.992
352.62	55.882
352.98	55.675
353.34	57.781
353.70	57.416
354.07	56.846
354.43	57.373
354.79	55.049
355.15	56.585
355.51	56.344
355.87	57.229
356.24	57.814
356.60	56.240
356.96	57.847
357.32	56.368
357.68	56.975
358.04	56.915
358.40	57.271
358.77	58.077
359.13	58.333
359.49	57.228
359.85	57.260
360.21	58.098
360.57	57.810
360.93	58.442
361.29	58.225
361.66	60.626
362.02	56.179
362.38	59.452
362.74	58.457
363.10	59.257
363.46	58.080
363.82	58.065
364.18	59.246
364.54	59.728
364.90	59.505
365.26	60.583
365.62	60.704
365.98	58.431
366.35	59.517
366.71	60.167
367.07	59.181
367.43	59.100
367.79	58.710
368.15	59.430
368.51	60.924
368.87	60.258
369.23	61.331
369.59	59.744
369.95	61.399
370.31	59.548
370.67	60.791
371.03	60.854
371.39	60.873
371.75	60.991
372.11	61.251
372.47	60.959
372.83	62.542
373.19	62.029
373.55	62.199
373.91	60.981
374.27	61.045
374.63	62.034
374.99	62.601
375.35	62.970
375.71	61.544
376.07	62.202
376.42	61.317
376.78	63.134
377.14	64.089
377.50	61.673
377.86	62.972
378.22	64.778
378.58	63.620
378.94	63.790
379.30	63.978
379.66	64.600
380.02	64.106
380.38	62.061
380.74	65.283
381.09	63.318
381.45	61.792
381.81	64.598
382.17	64.957
382.53	65.747
382.89	65.405
383.25	64.121
383.61	62.824
383.97	64.007
384.32	64.919
384.68	65.657
385.04	65.533
385.40	64.591
385.76	65.067
386.12	65.182
386.48	66.565
386.83	67.421
387.19	65.489
387.55	64.959
387.91	65.935
388.27	66.805
388.62	65.552
388.98	65.423
389.34	65.259
389.70	64.976
390.06	66.341
390.42	66.317
390.77	65.786
391.13	66.023
391.49	66.909
391.85	66.462
392.20	66.269
392.56	66.249
392.92	65.525
393.28	66.200
393.64	66.858
393.99	65.738
394.35	65.745
394.71	64.113
395.07	66.363
395.42	66.803
395.78	66.564
396.14	66.446
396.50	66.546
396.85	65.366
397.21	66.486
397.57	66.467
397.92	64.125
398.28	66.630
398.64	65.852
399.00	64.725
399.35	65.271
399.71	65.728
400.07	66.153
400.42	65.672
400.78	66.510
401.14	66.412
401.49	65.726
401.85	67.439
402.21	65.847
402.57	67.983
402.92	67.152
403.28	65.453
403.63	66.510
403.99	65.862
404.35	66.530
404.70	68.340
405.06	65.076
405.42	66.367
405.77	66.097
406.13	64.534
406.49	65.435
406.84	65.087
407.20	65.068
407.55	65.600
407.91	65.986
408.27	65.676
408.62	65.642
408.98	65.523
409.34	64.641
409.69	66.895
410.05	65.593
410.40	66.254
410.76	65.369
411.11	66.232
411.47	64.444
411.83	64.558
412.18	65.036
412.54	65.285
412.89	63.599
413.25	64.823
413.60	66.297
413.96	64.692
414.31	62.928
414.67	66.418
415.03	64.112
415.38	66.814
415.74	65.509
416.09	63.960
416.45	65.999
416.80	66.838
417.16	63.908
417.51	65.478
417.87	64.831
418.22	65.917
418.58	64.968
418.93	64.247
419.29	63.463
419.64	65.173
420.00	65.453
420.35	64.750
420.71	64.469
421.06	65.627
421.42	64.479
421.77	65.908
422.12	65.601
422.48	64.304
422.83	63.560
423.19	63.877
423.54	64.125
423.90	66.535
424.25	65.658
424.61	64.771
424.96	64.879
425.31	65.627
425.67	65.320
426.02	65.059
426.38	64.119
426.73	64.777
427.09	64.235
427.44	65.053
427.79	65.523
428.15	65.763
428.50	65.771
428.85	66.020
429.21	64.506
429.56	65.653
429.92	65.241
430.27	63.135
430.62	62.457
430.98	62.425
431.33	63.206
431.68	62.667
432.04	63.580
432.39	64.544
432.74	65.398
433.10	65.282
433.45	64.561
433.80	65.637
434.16	64.162
434.51	64.396
434.86	65.161
435.22	63.911
435.57	64.256
435.92	66.363
436.28	64.516
436.63	63.371
436.98	65.766
437.34	63.927
437.69	63.494
438.04	63.011
438.39	65.616
438.75	63.697
439.10	63.465
439.45	63.708
439.81	65.067
440.16	65.107
440.51	62.950
440.86	64.786
441.22	63.312
441.57	64.672
441.92	63.327
442.27	63.505
442.63	62.652
442.98	64.116
443.33	64.006
443.68	63.632
444.03	63.242
444.39	63.559
444.74	63.768
445.09	63.454
445.44	63.177
445.79	62.719
446.15	63.526
446.50	62.395
446.85	62.849
447.20	63.184
447.55	63.513
447.91	64.198
448.26	62.354
448.61	63.847
448.96	64.325
449.31	62.596
449.66	63.012
450.02	62.021
450.37	64.187
450.72	62.865
451.07	64.165
451.42	62.833
451.77	62.829
452.12	63.415
452.47	63.426
452.83	63.775
453.18	63.724
453.53	64.239
453.88	63.657
454.23	63.393
454.58	62.063
454.93	62.784
455.28	63.464
455.63	63.239
455.98	63.790
456.34	63.769
456.69	63.171
457.04	63.246
457.39	62.800
457.74	63.345
458.09	62.212
458.44	62.267
458.79	62.865
459.14	62.793
459.49	61.268
459.84	63.370
460.19	61.921
460.54	62.393
460.89	63.113
461.24	60.309
461.59	62.755
461.94	63.061
462.29	62.300
462.64	63.191
462.99	62.636
463.34	62.346
463.69	62.129
464.04	61.716
464.39	61.878
464.74	61.313
465.09	61.172
465.44	60.773
465.79	61.404
466.14	60.095
466.49	60.825
466.84	60.201
467.19	60.867
467.54	60.721
467.89	62.148
468.24	60.915
468.59	61.429
468.94	61.836
469.29	63.042
469.64	61.929
469.99	60.925
470.34	61.037
470.68	61.724
471.03	62.642
471.38	61.258
471.73	60.941
472.08	62.361
472.43	62.259
472.78	62.356
473.13	60.013
473.48	62.042
473.83	61.837
474.17	60.547
474.52	60.367
474.87	59.750
475.22	60.822
475.57	58.919
475.92	59.223
476.27	58.705
476.61	59.357
476.96	58.986
477.31	61.285
477.66	61.728
478.01	59.567
478.36	59.835
478.70	58.908
479.05	59.467
479.40	58.929
479.75	60.874
480.10	60.552
480.45	59.617
480.79	59.677
481.14	58.963
481.49	58.646
481.84	58.487
482.19	58.777
482.53	58.015
482.88	59.140
483.23	59.314
483.58	59.066
483.92	60.375
484.27	57.277
484.62	57.980
484.97	56.876
485.31	57.238
485.66	54.823
486.01	52.883
486.36	52.323
486.70	51.964
487.05	53.056
487.40	53.704
487.75	54.953
488.09	54.545
488.44	55.609
488.79	55.467
489.13	56.663
489.48	56.692
489.83	56.839
490.17	57.267
490.52	58.226
490.87	57.026
491.22	58.688
491.56	57.444
491.91	58.244
492.26	57.105
492.60	58.041
492.95	58.541
493.30	58.690
493.64	57.727
493.99	57.379
494.34	57.060
494.68	57.503
495.03	57.791
495.37	57.091
495.72	57.716
496.07	56.604
496.41	56.082
496.76	56.057
497.11	56.170
497.45	55.984
497.80	58.063
498.14	56.449
498.49	57.382
498.84	56.822
499.18	57.130
499.53	56.592
499.87	56.559
500.22	56.702
500.56	56.453
500.91	56.586
501.26	56.132
501.60	55.100
501.95	56.631
502.29	55.511
502.64	55.007
502.98	55.892
503.33	55.768
503.67	55.453
504.02	55.217
504.36	55.475
504.71	56.197
505.06	56.171
505.40	56.013
505.75	55.005
506.09	55.296
506.44	55.686
506.78	56.096
507.13	56.956
507.47	55.313
507.82	56.642
508.16	56.786
508.51	57.826
508.85	54.701
509.19	56.437
509.54	55.371
509.88	56.191
510.23	55.686
510.57	54.295
510.92	55.894
511.26	57.580
511.61	55.391
511.95	54.853
512.30	56.050
512.64	56.386
512.98	55.407
513.33	54.867
513.67	56.189
514.02	54.338
514.36	55.504
514.70	54.987
515.05	55.834
515.39	57.346
515.74	56.479
516.08	56.427
516.42	57.596
516.77	55.307
517.11	56.320
517.46	56.196
517.80	55.980
518.14	57.239
518.49	56.670
518.83	55.440
519.17	55.574
519.52	55.926
519.86	55.640
520.20	55.836
520.55	56.077
520.89	56.322
521.23	56.659
521.58	55.307
521.92	56.093
522.26	56.576
522.61	56.982
522.95	56.997
523.29	57.076
523.64	55.723
523.98	56.631
524.32	55.998
524.66	55.362
525.01	56.568
525.35	56.806
525.69	56.773
526.04	55.503
526.38	56.033
526.72	55.609
527.06	55.352
527.41	57.316
527.75	55.326
528.09	56.893
528.43	56.132
528.78	55.814
529.12	56.773
529.46	55.231
529.80	55.666
530.15	54.154
530.49	54.994
530.83	55.637
531.17	55.228
531.51	55.549
531.86	53.865
532.20	54.141
532.54	54.865
532.88	55.903
533.22	54.357
533.57	55.095
533.91	53.030
534.25	52.164
534.59	53.626
534.93	52.218
535.27	52.305
535.62	53.384
535.96	52.837
536.30	54.906
536.64	53.292
536.98	52.675
537.32	53.875
537.66	54.592
538.01	53.189
538.35	53.837
538.69	52.367
539.03	52.363
539.37	53.216
539.71	52.778
540.05	53.415
540.39	53.082
540.73	54.051
541.07	52.384
541.42	52.799
541.76	53.144
542.10	51.665
542.44	52.244
542.78	52.297
543.12	50.245
543.46	52.694
543.80	52.506
544.14	52.570
544.48	52.068
544.82	52.599
545.16	50.759
545.50	50.891
545.84	50.568
546.18	52.926
546.52	53.443
546.86	51.966
547.20	51.227
547.54	51.172
547.88	50.608
548.22	51.305
548.56	50.442
548.90	49.941
549.24	51.737
549.58	52.255
549.92	50.950
550.26	51.792
550.60	52.096
550.94	52.035
551.28	53.103
551.62	53.655
551.96	52.365
552.30	50.956
552.64	50.162
552.98	51.353
553.32	49.872
553.66	49.772
554.00	49.871
554.34	51.598
554.68	50.806
555.02	51.188
555.36	50.864
555.69	49.804
556.03	51.019
556.37	49.713
556.71	50.391
557.05	49.279
557.39	50.800
557.73	50.606
558.07	50.637
558.41	50.308
558.75	51.778
559.08	50.536
559.42	52.613
559.76	52.530
560.10	49.897
560.44	49.237
560.78	50.959
561.12	50.668
561.45	49.812
561.79	48.752
562.13	48.958
562.47	48.670
562.81	49.837
563.15	48.933
563.48	47.950
563.82	49.532
564.16	50.435
564.50	48.764
564.84	48.389
565.17	48.901
565.51	49.076
565.85	50.339
566.19	49.464
566.52	47.473
566.86	48.920
567.20	48.258
567.54	46.616
567.88	47.053
568.21	45.831
568.55	46.158
568.89	44.343
569.23	44.780
569.56	44.449
569.90	42.652
570.24	42.555
570.57	42.213
570.91	40.967
571.25	41.845
571.59	40.440
571.92	40.581
572.26	40.135
572.60	39.961
572.93	41.863
573.27	40.638
573.61	40.715
573.95	40.239
574.28	40.015
574.62	39.637
574.96	39.150
575.29	39.122
575.63	38.799
575.97	38.608
576.30	39.231
576.64	39.358
576.98	38.704
577.31	39.440
577.65	38.484
577.98	37.830
578.32	37.732
578.66	37.344
578.99	38.221
579.33	38.678
579.67	38.403
580.00	38.202
580.34	38.131
580.67	37.696
581.01	38.315
581.35	38.322
581.68	37.468
582.02	37.012
582.35	36.975
582.69	37.332
583.02	37.507
583.36	37.988
583.70	38.760
584.03	39.224
584.37	38.970
584.70	38.567
585.04	37.901
585.37	37.286
585.71	38.382
586.04	38.028
586.38	38.090
586.72	38.919
587.05	38.755
587.39	38.230
587.72	37.790
588.06	38.540
588.39	38.306
588.73	37.783
589.06	39.014
589.40	39.531
589.73	39.036
590.07	40.426
590.40	40.592
590.73	40.727
591.07	40.759
591.40	40.319
591.74	41.071
592.07	40.100
592.41	40.647
592.74	39.509
593.08	38.639
593.41	37.941
593.75	37.950
594.08	38.251
594.41	38.286
594.75	38.836
595.08	38.580
595.42	39.269
595.75	38.203
596.09	38.860
596.42	38.674
596.75	39.784
597.09	39.868
597.42	38.776
597.75	39.594
598.09	40.254
598.42	38.841
598.76	39.052
599.09	39.095
599.42	37.820
599.76	37.585
600.09	37.390
600.42	37.880
600.76	37.559
601.09	38.488
601.42	37.768
601.76	38.525
602.09	38.484
602.42	37.338
602.76	38.330
603.09	38.612
603.42	38.606
603.76	39.009
604.09	38.328
604.42	38.154
604.76	38.720
605.09	38.939
605.42	39.334
605.75	38.571
606.09	38.409
606.42	37.768
606.75	38.749
607.09	38.571
607.42	38.329
607.75	37.580
608.08	38.099
608.42	38.087
608.75	39.024
609.08	39.023
609.41	39.364
609.75	39.744
610.08	40.018
610.41	38.560
610.74	38.961
611.07	39.427
611.41	39.249
611.74	39.675
612.07	39.933
612.40	39.766
612.73	39.740
613.07	39.584
613.40	39.449
613.73	39.141
614.06	38.800
614.39	40.808
614.72	38.624
615.06	38.724
615.39	38.861
615.72	38.577
616.05	39.377
616.38	39.219
616.71	40.098
617.05	39.044
617.38	39.494
617.71	41.057
618.04	39.989
618.37	40.300
618.70	40.185
619.03	41.331
619.36	41.269
619.69	41.359
620.03	42.270
620.36	40.462
620.69	42.273
621.02	43.003
621.35	42.049
621.68	43.584
622.01	43.911
622.34	42.607
622.67	42.416
623.00	41.661
623.33	41.430
623.66	42.648
623.99	41.849
624.32	41.938
624.65	40.816
624.99	41.717
625.32	41.483
625.65	41.448
625.98	40.795
626.31	43.546
626.64	42.141
626.97	42.387
627.30	42.702
627.63	43.878
627.96	42.488
628.29	45.050
628.62	43.627
628.95	46.099
629.28	44.084
629.61	45.079
629.94	44.252
630.26	44.541
630.59	45.213
630.92	44.126
631.25	44.696
631.58	46.095
631.91	45.290
632.24	45.773
632.57	46.955
632.90	47.826
633.23	46.170
633.56	46.575
633.89	46.838
634.22	47.793
634.55	47.742
634.88	46.550
635.20	47.870
635.53	47.503
635.86	47.092
636.19	47.587
636.52	44.649
636.85	45.739
637.18	47.021
637.51	46.592
637.83	44.165
638.16	48.535
638.49	49.222
638.82	47.770
639.15	46.298
639.48	49.171
639.81	47.985
640.13	47.485
640.46	46.144
640.79	51.235
641.12	46.982
641.45	48.771
641.77	49.802
642.10	47.523
642.43	48.791
642.76	46.875
643.09	49.135
643.41	47.686
643.74	50.216
644.07	50.442
644.40	50.296
644.73	50.150
645.05	51.560
645.38	49.617
645.71	48.103
646.04	52.061
646.36	49.139
646.69	51.360
647.02	52.800
647.35	48.189
647.67	50.567
648.00	49.186
648.33	50.226
648.66	50.758
648.98	46.377
649.31	46.424
649.64	46.335
649.96	47.653
650.29	46.857
650.62	47.275
650.94	47.892
651.27	51.834
651.60	50.078
651.92	49.309
652.25	50.551
652.58	45.816
652.90	47.904
653.23	48.892
653.56	47.033
653.88	44.493
654.21	46.334
654.54	47.438
654.86	45.280
655.19	44.591
655.52	37.053
655.84	28.128
656.17	32.182
656.49	45.978
656.82	52.635
657.15	41.851
657.47	31.922
657.80	23.706
658.13	18.890
658.45	25.608
658.78	31.057
659.10	31.979
659.43	32.755
659.75	34.969
660.08	37.218
660.41	40.744
660.73	42.409
661.06	47.297
661.38	48.552
661.71	47.122
662.03	49.240
662.36	49.714
662.68	49.162
663.01	50.090
663.33	49.057
663.66	53.649
663.98	48.413
664.31	50.933
664.63	51.341
664.96	50.469
665.28	49.529
665.61	48.491
665.93	48.868
666.26	49.346
666.58	50.642
666.91	50.579
667.23	51.205
667.56	49.487
667.88	52.905
668.21	53.689
668.53	48.589
668.86	53.507
669.18	49.898
669.50	49.587
669.83	52.977
670.15	51.767
670.48	47.461
670.80	50.000
671.13	50.000
671.45	52.305
671.77	49.907
672.10	49.192
672.42	45.066
672.75	44.937
673.07	45.946
673.39	45.687
673.72	48.616
674.04	46.057
674.37	48.276
674.69	48.327
675.01	45.522
675.34	47.868
675.66	50.586
675.98	51.677
676.31	48.000
676.63	47.913
676.95	49.603
677.28	48.073
677.60	51.107
677.92	46.230
678.25	48.450
678.57	48.045
678.89	46.655
679.22	47.794
679.54	46.619
679.86	45.724
680.18	46.397
680.51	43.615
680.83	42.905
681.15	47.834
681.48	45.833
681.80	45.009
682.12	45.502
682.44	43.604
682.77	44.484
683.09	48.932
683.41	48.367
683.73	49.016
684.06	47.619
684.38	45.543
684.70	46.403
685.02	42.708
685.34	45.246
685.67	43.891
685.99	43.842
686.31	40.986
686.63	43.252
686.96	42.484
687.28	43.121
687.60	41.638
687.92	44.221
688.24	43.966
688.56	42.705
688.89	43.595
689.21	44.123
689.53	47.036
689.85	45.325
690.17	43.689
690.49	49.597
690.82	44.328
691.14	46.869
691.46	46.612
691.78	45.029
692.10	44.656
692.42	43.013
692.74	44.767
693.06	44.186
693.39	42.292
693.71	46.169
694.03	45.365
694.35	48.996
694.67	43.585
694.99	44.568
695.31	46.847
695.63	48.416
695.95	44.796
696.27	48.451
696.59	47.255
696.91	48.354
697.23	47.285
697.56	42.739
697.88	42.914
698.20	43.019
698.52	42.023
698.84	45.175
699.16	46.695
699.48	45.763
699.80	46.841
700.12	48.268
700.44	46.729
700.76	46.778
701.08	49.608
701.40	47.792
701.72	49.465
702.04	51.220
702.36	51.613
702.68	49.734
703.00	46.366
703.32	50.868
703.64	47.103
703.96	53.646
704.28	47.619
704.60	50.704
704.91	50.420
705.23	50.284
705.55	51.335
705.87	52.698
706.19	54.859
706.51	54.545
706.83	47.788
707.15	49.198
707.47	46.005
707.79	48.276
708.11	44.218
708.43	45.393
708.74	43.213
709.06	44.419
709.38	46.402
709.70	46.594
710.02	45.924
710.34	50.552
710.66	47.500
710.98	50.546
711.29	46.240
711.61	47.911
711.93	51.672
712.25	50.301
712.57	51.125
712.89	51.212
713.20	54.633
713.52	53.271
713.84	49.547
714.16	46.667
714.48	44.092
714.80	49.593
715.11	45.479
715.43	43.855
715.75	46.761
716.07	46.532
716.39	48.000
716.70	45.483
717.02	51.178
717.34	47.122
717.66	49.653
717.97	55.682
718.29	52.465
718.61	47.973
718.93	48.443
719.24	50.671
719.56	48.276
719.88	47.771
720.20	47.419
720.51	46.078
720.83	47.492
721.15	48.299
721.46	49.658
721.78	45.993
722.10	51.389
722.42	50.502
722.73	48.736
723.05	55.439
723.37	51.237
723.68	51.172
724.00	50.000
724.32	51.331
724.63	53.462
724.95	50.196
725.27	49.442
725.58	50.368
725.90	44.718
726.22	44.863
726.53	46.488
726.85	43.974
727.16	50.671
727.48	48.505
727.80	47.842
728.11	46.786
728.43	51.087
728.74	46.503
729.06	45.520
729.38	52.281
729.69	50.000
730.01	45.066
730.32	48.322
730.64	46.512
730.96	47.147
731.27	42.813
731.59	43.391
731.90	40.669
732.22	44.571
732.53	37.607
732.85	43.567
733.16	45.181
733.48	47.022
733.80	46.087
734.11	45.706
734.43	40.643
734.74	42.091
735.06	41.534
735.37	38.918
735.69	41.449
736.00	43.731
736.32	40.000
736.63	41.009
736.95	42.857
737.26	46.951
737.58	44.479
737.89	42.169
738.21	45.695
738.52	39.465
738.83	48.718
739.15	46.341
739.46	42.069
739.78	47.619
740.09	47.230
740.41	40.184
740.72	44.762
741.04	44.755
741.35	49.219
741.66	53.755
741.98	48.927
742.29	54.630
742.61	45.575
742.92	47.458
743.23	46.400
743.55	42.264
743.86	45.098
744.18	48.729
744.49	54.132
744.80	51.152
745.12	48.661
745.43	56.542
745.74	54.667
746.06	49.561
746.37	53.488
746.68	57.522
747.00	51.570
747.31	46.218
747.62	49.180
747.94	47.639
748.25	52.140
748.56	49.576
748.88	51.786
749.19	50.698
749.50	47.945
749.82	52.263
750.13	53.755
750.44	42.667
750.75	42.953
751.07	46.382
751.38	42.904
751.69	42.761
752.01	41.608
752.32	43.522
752.63	44.295
752.94	44.755
753.26	48.047
753.57	50.195
753.88	45.318
754.19	42.960
754.51	43.854
754.82	38.926
755.13	42.905
755.44	44.815
755.75	45.361
756.07	44.178
756.38	39.216
756.69	40.938
757.00	43.917
757.31	43.099
757.63	37.190
757.94	37.234
758.25	36.957
758.56	34.325
758.87	38.847
759.18	40.698
759.50	39.818
759.81	42.433
760.12	39.607
760.43	38.936
760.74	37.975
761.05	40.318
761.36	38.802
761.67	40.701
761.99	36.901
762.30	38.264
762.61	43.750
762.92	42.803
763.23	46.792
763.54	44.615
763.85	45.525
764.16	46.181
764.47	42.568
764.78	44.625
765.10	36.890
765.41	37.500
765.72	39.779
766.03	36.858
766.34	38.676
766.65	47.909
766.96	46.154
767.27	44.393
767.58	49.010
767.89	55.801
768.20	54.878
768.51	47.959
768.82	46.053
769.13	41.961
769.44	47.368
769.75	41.199
770.06	45.378
770.37	47.368
770.68	40.889
770.99	47.881
771.30	47.280
771.61	45.385
771.92	40.458
772.23	43.952
772.54	48.889
772.85	52.970
773.16	51.087
773.47	58.333
773.78	49.505
774.09	53.977
774.39	56.970
774.70	47.647
775.01	45.395
775.32	59.006
775.63	63.014
775.94	63.580
776.25	52.414
776.56	54.198
776.87	61.069
777.18	57.576
777.48	65.354
777.79	58.462
778.10	65.152
778.41	58.209
778.72	49.624
779.03	48.077
779.34	52.027
779.65	55.280
779.95	52.174
780.26	42.857
780.57	57.823
780.88	58.865
781.19	63.333
781.50	59.172
781.80	48.087
782.11	52.910
782.42	48.276
782.73	51.412
783.04	51.613
783.34	57.364
783.65	52.381
783.96	60.645
784.27	45.033
784.57	50.000
784.88	53.623
785.19	62.500
785.50	56.034
785.81	69.767
786.11	57.037
786.42	59.055
786.73	55.856
787.04	56.604
787.34	56.911
787.65	63.636
787.96	53.030
788.26	57.480
788.57	64.234
788.88	50.704
789.19	58.779
789.49	54.730
789.80	58.594
790.11	55.372
790.41	65.741
790.72	68.519
791.03	59.615
791.33	61.616
791.64	66.316
791.95	66.316
792.25	63.542
792.56	70.000
792.87	59.756
793.17	64.773
793.48	68.235
793.79	63.218
794.09	59.091
794.40	65.517
794.70	57.937
795.01	51.538
795.32	45.038
795.62	56.410
795.93	57.983
796.23	60.976
796.54	55.102
796.85	77.273
797.15	81.818
797.46	86.585
797.76	65.000
798.07	84.000
798.37	67.500
798.68	71.250
798.99	80.488
799.29	74.667
799.60	60.465
799.90	73.684
800.21	86.364
800.51	73.239
800.82	87.931
801.12	103.077
801.43	85.333
801.73	84.483
802.04	71.429
802.34	76.712
802.65	74.510
802.95	100.000
803.26	90.323
803.56	98.333
803.87	83.582
804.17	93.651
804.48	81.132
804.78	84.722
805.09	87.879
805.39	100.000
805.70	85.965
806.00	62.857
806.30	87.500
806.61	69.412
806.91	65.556
807.22	60.870
807.52	84.211
807.83	77.632
808.13	75.362
808.43	80.645
808.74	76.712
809.04	100.000
809.35	83.824
809.65	80.303
809.95	100.000
810.26	112.963
810.56	84.375
810.86	93.878
811.17	96.491
811.47	93.478
811.77	93.103
812.08	77.586
812.38	88.095
812.69	95.238
812.99	88.889
813.29	125.714
813.59	148.387
813.90	72.414
814.20	91.803
814.50	70.000
814.81	64.912
815.11	111.111
815.41	80.357
815.72	96.429
816.02	96.000
816.32	109.756
816.62	91.379
816.93	121.212
817.23	146.341
817.53	96.429
817.84	102.222
818.14	107.143
818.44	118.750
818.74	113.208
819.04	94.872
819.35	115.152
819.65	107.692
819.95	127.778
820.25	110.638
820.56	118.919
820.86	144.737
821.16	70.213
821.46	121.053
821.76	87.273
822.07	59.524
822.37	107.895
822.67	125.581
822.97	73.684
823.27	130.435
823.57	156.250
823.88	110.256
824.18	112.121
824.48	200.000
824.78	136.111
825.08	165.217
825.38	141.379
825.69	105.882
825.99	85.106
826.29	100.000
826.59	137.143
826.89	133.333
827.19	108.571
827.49	141.935
827.79	165.385
828.09	102.381
828.39	111.111
828.70	75.676
829.00	185.714
829.30	225.000
829.60	136.111
829.90	138.710
830.20	115.152
830.50	135.135
830.80	162.500
831.10	146.154
831.40	138.095
831.70	191.667
832.00	140.000
832.30	191.304
832.60	204.167
832.90	181.818
833.20	175.000
833.50	126.316
833.80	120.588
834.10	123.684
834.40	115.789
834.70	120.000
835.00	160.000
835.30	116.216
835.60	162.500
835.90	124.324
836.20	119.231
836.50	131.818
836.80	114.634
837.10	134.783
837.40	315.385
837.70	142.105
838.00	163.333
838.30	170.833
838.60	160.000
838.90	330.000
839.19	243.750
839.49	136.667
839.79	124.138
840.09	150.000
840.39	260.000
840.69	184.211
840.99	176.190
841.29	191.304
841.59	185.000
841.88	136.000
842.18	322.222
842.48	150.000
842.78	144.444
843.08	161.538
843.38	231.818
843.68	207.143
843.97	500.000
844.27	165.217
844.57	1600.000
844.87	300.000
845.17	266.667
845.47	123.810
845.76	170.833
846.06	442.857
846.36	182.353
846.66	307.692
846.96	250.000
847.25	246.154
847.55	152.632
847.85	211.111
848.15	680.000
848.44	272.727
848.74	171.429
849.04	150.000
849.34	170.588
849.63	237.500
849.93	225.000
850.23	600.000
850.53	475.000
850.82	318.182
851.12	194.118
851.42	208.333
851.71	231.250
852.01	0.000
852.31	200.000
852.61	420.000
852.90	162.500
853.20	266.667
853.50	-1900.000
853.79	164.000
854.09	146.875
854.39	162.069
854.68	151.724
854.98	176.190
855.28	100.000
855.57	250.000
855.87	166.667
856.17	133.333
856.46	163.158
856.76	125.806
857.05	205.882
857.35	254.545
857.65	323.077
857.94	125.000
858.24	411.111
858.53	250.000
858.83	585.714
859.13	195.652
859.42	277.778
859.72	387.500
860.01	191.667
860.31	900.000
860.60	340.000
860.90	337.500
861.20	284.615
861.49	342.857
861.79	-2300.000
862.08	457.143
862.38	344.444
862.67	192.857
862.97	310.000
863.26	150.000
863.56	950.000
863.85	292.308
864.15	247.059
864.44	194.444
864.74	358.333
865.03	281.818
865.33	287.500
865.62	260.000
865.92	533.333
866.21	1000.000
866.51	640.000
866.80	205.556
867.10	866.667
867.39	3400.000
867.69	740.000
867.98	950.000
868.27	166.667
868.57	226.667
868.86	750.000
869.16	147.619
869.45	3200.000
869.75	-633.333
870.04	800.000
870.33	700.000
870.63	425.000
870.92	188.235
871.22	900.000
871.51	371.429
871.80	341.667
872.10	276.923
>>>>>End Processed Spectral Data<<<<<
