SpectraSuite Data File
++++++++++++++++++++++++++++++++++++
Date: Tue May 12 17:11:22 PDT 2015
User: schluterlab
Dark Spectrum Present: Yes
Reference Spectrum Present: Yes
Number of Sampled Component Spectra: 1
Spectrometers: USB2E3373
Integration Time (usec): 3000 (USB2E3373)
Spectra Averaged: 3 (USB2E3373)
Boxcar Smoothing: 0 (USB2E3373)
Correct for Electrical Dark: No (USB2E3373)
Strobe/Lamp Enabled: No (USB2E3373)
Correct for Detector Non-linearity: No (USB2E3373)
Correct for Stray Light: No (USB2E3373)
Number of Pixels in Processed Spectrum: 2048
>>>>>Begin Processed Spectral Data<<<<<
178.53	0.000
178.91	-175.000
179.29	-775.000
179.67	-3300.000
180.04	-186.667
180.42	700.000
180.80	1800.000
181.18	0.000
181.56	-300.000
181.94	0.000
182.31	1066.667
182.69	-2700.000
183.07	585.714
183.45	-1900.000
183.83	-1300.000
184.20	350.000
184.58	328.571
184.96	-192.308
185.34	-308.333
185.72	1300.000
186.09	-800.000
186.47	-2300.000
186.85	1200.000
187.23	720.000
187.61	1400.000
187.98	500.000
188.36	185.714
188.74	308.333
189.12	325.000
189.49	750.000
189.87	0.000
190.25	475.000
190.63	2700.000
191.00	-216.667
191.38	-3800.000
191.76	-750.000
192.14	512.500
192.51	-2900.000
192.89	1650.000
193.27	833.333
193.65	-966.667
194.02	-820.000
194.40	500.000
194.78	-192.857
195.15	280.000
195.53	-2900.000
195.91	-540.000
196.29	3500.000
196.66	237.500
197.04	700.000
197.42	-1150.000
197.79	600.000
198.17	283.333
198.55	0.000
198.92	442.857
199.30	1000.000
199.68	1650.000
200.05	733.333
200.43	-416.667
200.81	144.444
201.18	3400.000
201.56	333.333
201.94	-750.000
202.31	-437.500
202.69	-420.000
203.07	3000.000
203.44	-400.000
203.82	325.000
204.19	680.000
204.57	-1450.000
204.95	-850.000
205.32	-600.000
205.70	583.333
206.08	950.000
206.45	-1200.000
206.83	355.556
207.20	231.579
207.58	233.333
207.96	440.000
208.33	0.000
208.71	557.143
209.08	420.000
209.46	-2100.000
209.84	-625.000
210.21	820.000
210.59	-600.000
210.96	300.000
211.34	-725.000
211.71	400.000
212.09	1025.000
212.46	1600.000
212.84	-383.333
213.22	433.333
213.59	-2800.000
213.97	330.000
214.34	975.000
214.72	933.333
215.09	966.667
215.47	-2900.000
215.84	-290.000
216.22	-450.000
216.59	0.000
216.97	0.000
217.34	1350.000
217.72	-1500.000
218.09	1500.000
218.47	400.000
218.84	750.000
219.22	966.667
219.59	966.667
219.97	642.857
220.34	433.333
220.72	1500.000
221.09	3100.000
221.47	250.000
221.84	700.000
222.22	240.000
222.59	194.444
222.97	264.286
223.34	193.750
223.72	-1650.000
224.09	1300.000
224.46	246.154
224.84	-825.000
225.21	366.667
225.59	326.667
225.96	1100.000
226.34	-580.000
226.71	-625.000
227.08	-620.000
227.46	0.000
227.83	-550.000
228.21	-1450.000
228.58	375.000
228.95	1075.000
229.33	344.444
229.70	850.000
230.08	269.231
230.45	3600.000
230.82	-850.000
231.20	-966.667
231.57	-1133.333
231.95	580.000
232.32	333.333
232.69	500.000
233.07	308.333
233.44	-1400.000
233.81	200.000
234.19	196.296
234.56	187.500
234.93	194.118
235.31	195.000
235.68	250.000
236.05	121.429
236.43	137.037
236.80	242.857
237.17	134.483
237.55	140.625
237.92	107.500
238.29	133.333
238.67	156.250
239.04	90.244
239.41	97.917
239.79	85.000
240.16	104.167
240.53	80.328
240.91	81.159
241.28	89.831
241.65	75.758
242.02	67.606
242.40	90.000
242.77	67.033
243.14	74.684
243.51	70.707
243.89	59.813
244.26	59.813
244.63	55.446
245.00	63.303
245.38	54.237
245.75	53.030
246.12	62.222
246.49	55.319
246.87	61.475
247.24	61.333
247.61	57.500
247.98	53.741
248.36	55.152
248.73	56.122
249.10	44.048
249.47	50.000
249.84	42.786
250.22	48.108
250.59	48.000
250.96	43.038
251.33	46.977
251.70	43.750
252.08	43.697
252.45	44.223
252.82	42.966
253.19	42.688
253.56	39.231
253.94	43.841
254.31	41.085
254.68	43.554
255.05	44.138
255.42	43.431
255.79	42.020
256.16	43.390
256.54	43.831
256.91	42.484
257.28	38.796
257.65	37.618
258.02	41.003
258.39	40.401
258.76	40.290
259.14	41.429
259.51	42.274
259.88	45.593
260.25	35.989
260.62	39.178
260.99	38.292
261.36	37.604
261.73	36.968
262.10	41.885
262.47	38.250
262.85	38.400
263.22	41.388
263.59	39.898
263.96	39.098
264.33	40.988
264.70	38.575
265.07	40.000
265.44	38.073
265.81	40.566
266.18	38.444
266.55	37.589
266.92	37.808
267.29	38.377
267.66	38.117
268.03	37.892
268.40	36.575
268.77	40.749
269.14	40.998
269.51	36.080
269.88	40.408
270.25	36.501
270.62	39.485
270.99	38.540
271.36	37.602
271.73	38.155
272.10	36.768
272.47	38.492
272.84	37.325
273.21	37.397
273.58	39.069
273.95	38.193
274.32	38.132
274.69	36.811
275.06	37.705
275.43	35.824
275.80	35.283
276.17	36.765
276.54	36.075
276.91	38.619
277.28	35.766
277.65	36.900
278.02	36.949
278.39	35.432
278.76	35.690
279.13	33.808
279.50	37.273
279.87	35.940
280.23	35.359
280.60	35.036
280.97	37.241
281.34	35.644
281.71	36.522
282.08	36.410
282.45	36.149
282.82	36.120
283.19	34.658
283.56	33.719
283.92	36.482
284.29	34.609
284.66	36.134
285.03	33.499
285.40	33.884
285.77	34.568
286.14	35.139
286.51	34.509
286.87	33.544
287.24	33.333
287.61	34.195
287.98	34.328
288.35	32.889
288.72	31.563
289.08	33.183
289.45	33.994
289.82	35.000
290.19	32.943
290.56	33.042
290.93	34.820
291.29	30.939
291.66	30.508
292.03	31.837
292.40	31.165
292.77	31.755
293.13	32.953
293.50	30.769
293.87	30.894
294.24	32.587
294.60	34.859
294.97	33.427
295.34	33.068
295.71	32.983
296.08	30.000
296.44	30.623
296.81	30.893
297.18	31.052
297.55	32.020
297.91	29.680
298.28	31.159
298.65	30.307
299.02	31.122
299.38	31.295
299.75	30.488
300.12	31.766
300.48	31.382
300.85	33.611
301.22	31.047
301.59	31.368
301.95	31.505
302.32	31.781
302.69	32.240
303.05	33.109
303.42	32.735
303.79	33.153
304.15	31.353
304.52	31.818
304.89	32.623
305.25	32.925
305.62	32.196
305.99	32.283
306.35	33.684
306.72	33.299
307.09	32.091
307.45	33.685
307.82	31.687
308.19	33.196
308.55	32.600
308.92	32.385
309.29	32.150
309.65	32.210
310.02	33.164
310.38	34.297
310.75	33.076
311.12	32.663
311.48	35.328
311.85	33.779
312.22	34.670
312.58	34.888
312.95	33.786
313.31	35.487
313.68	34.240
314.05	35.897
314.41	36.127
314.78	34.375
315.14	35.735
315.51	36.045
315.87	35.858
316.24	36.041
316.61	34.736
316.97	35.596
317.34	36.568
317.70	36.523
318.07	37.189
318.43	36.907
318.80	38.004
319.16	37.850
319.53	37.876
319.89	37.276
320.26	39.013
320.62	37.546
320.99	38.132
321.35	39.518
321.72	37.951
322.08	40.351
322.45	38.965
322.81	40.439
323.18	39.520
323.54	39.721
323.91	41.976
324.27	41.645
324.64	42.388
325.00	42.414
325.37	41.568
325.73	43.002
326.10	44.242
326.46	42.857
326.83	42.960
327.19	44.659
327.56	43.291
327.92	43.934
328.29	45.908
328.65	44.863
329.01	45.081
329.38	45.093
329.74	45.090
330.11	45.004
330.47	46.121
330.84	44.435
331.20	44.078
331.56	45.682
331.93	44.996
332.29	45.663
332.66	46.173
333.02	43.986
333.38	46.510
333.75	45.455
334.11	44.883
334.48	45.385
334.84	44.510
335.20	46.022
335.57	43.913
335.93	46.005
336.29	45.025
336.66	48.199
337.02	44.739
337.38	45.572
337.75	45.861
338.11	46.160
338.47	46.655
338.84	45.555
339.20	45.281
339.56	45.164
339.93	44.649
340.29	43.697
340.65	45.767
341.02	44.087
341.38	46.305
341.74	46.096
342.11	44.741
342.47	44.627
342.83	44.627
343.20	45.756
343.56	43.765
343.92	46.573
344.28	45.534
344.65	45.884
345.01	45.000
345.37	43.910
345.73	44.603
346.10	46.056
346.46	46.890
346.82	44.599
347.19	46.832
347.55	45.043
347.91	44.033
348.27	44.384
348.63	45.807
349.00	44.935
349.36	45.525
349.72	45.719
350.08	45.652
350.45	44.783
350.81	45.489
351.17	44.376
351.53	45.574
351.89	44.833
352.26	45.351
352.62	45.173
352.98	45.936
353.34	46.610
353.70	44.572
354.07	46.538
354.43	46.774
354.79	45.330
355.15	45.559
355.51	46.526
355.87	45.783
356.24	46.574
356.60	44.749
356.96	45.868
357.32	44.160
357.68	46.182
358.04	46.884
358.40	46.627
358.77	46.732
359.13	45.796
359.49	45.589
359.85	46.612
360.21	44.874
360.57	46.131
360.93	45.022
361.29	46.681
361.66	46.905
362.02	45.881
362.38	46.681
362.74	46.638
363.10	46.143
363.46	44.959
363.82	45.302
364.18	47.013
364.54	45.565
364.90	46.051
365.26	46.981
365.62	45.511
365.98	45.974
366.35	46.138
366.71	46.912
367.07	45.529
367.43	46.474
367.79	46.742
368.15	45.183
368.51	46.106
368.87	46.332
369.23	44.906
369.59	47.269
369.95	47.203
370.31	46.475
370.67	46.010
371.03	47.129
371.39	46.884
371.75	46.197
372.11	46.635
372.47	46.438
372.83	46.499
373.19	46.676
373.55	47.560
373.91	46.754
374.27	46.495
374.63	46.847
374.99	46.900
375.35	47.312
375.71	47.889
376.07	46.684
376.42	46.100
376.78	49.004
377.14	47.969
377.50	47.690
377.86	46.060
378.22	46.496
378.58	48.002
378.94	47.133
379.30	47.605
379.66	47.441
380.02	46.628
380.38	46.604
380.74	47.116
381.09	48.072
381.45	46.012
381.81	46.395
382.17	46.215
382.53	46.431
382.89	47.191
383.25	47.661
383.61	46.513
383.97	46.191
384.32	47.438
384.68	48.663
385.04	48.300
385.40	47.212
385.76	46.167
386.12	47.372
386.48	47.781
386.83	47.983
387.19	46.643
387.55	46.702
387.91	47.055
388.27	45.449
388.62	47.183
388.98	47.289
389.34	46.044
389.70	46.934
390.06	47.012
390.42	47.008
390.77	47.912
391.13	46.168
391.49	45.977
391.85	47.262
392.20	46.544
392.56	48.208
392.92	46.322
393.28	45.628
393.64	45.814
393.99	45.465
394.35	46.263
394.71	46.622
395.07	45.985
395.42	44.731
395.78	47.810
396.14	46.747
396.50	46.570
396.85	47.012
397.21	46.751
397.57	47.221
397.92	45.003
398.28	47.104
398.64	46.597
399.00	44.896
399.35	45.035
399.71	45.199
400.07	45.491
400.42	45.910
400.78	45.806
401.14	45.449
401.49	46.083
401.85	46.002
402.21	45.577
402.57	46.020
402.92	45.879
403.28	45.048
403.63	45.792
403.99	45.235
404.35	45.721
404.70	46.545
405.06	44.301
405.42	44.883
405.77	44.046
406.13	44.252
406.49	44.855
406.84	44.557
407.20	45.205
407.55	44.738
407.91	45.884
408.27	45.603
408.62	45.772
408.98	45.240
409.34	44.652
409.69	44.742
410.05	44.246
410.40	44.346
410.76	43.732
411.11	45.201
411.47	44.444
411.83	44.464
412.18	44.686
412.54	44.084
412.89	43.776
413.25	43.900
413.60	45.035
413.96	44.524
414.31	45.396
414.67	45.313
415.03	44.955
415.38	44.984
415.74	44.915
416.09	44.222
416.45	44.409
416.80	46.376
417.16	46.085
417.51	44.650
417.87	44.431
418.22	44.775
418.58	46.178
418.93	44.735
419.29	45.225
419.64	45.306
420.00	44.869
420.35	44.832
420.71	44.224
421.06	44.497
421.42	45.078
421.77	44.753
422.12	45.039
422.48	44.016
422.83	45.368
423.19	44.924
423.54	45.858
423.90	45.300
424.25	45.955
424.61	45.560
424.96	44.890
425.31	44.390
425.67	45.286
426.02	44.195
426.38	45.391
426.73	45.807
427.09	45.611
427.44	44.344
427.79	46.712
428.15	46.612
428.50	46.686
428.85	46.678
429.21	45.705
429.56	45.813
429.92	45.351
430.27	45.186
430.62	43.661
430.98	45.309
431.33	45.968
431.68	44.346
432.04	45.059
432.39	45.939
432.74	46.838
433.10	45.847
433.45	45.893
433.80	46.773
434.16	46.663
434.51	46.801
434.86	47.033
435.22	46.407
435.57	46.532
435.92	45.418
436.28	46.832
436.63	46.083
436.98	47.691
437.34	47.260
437.69	45.689
438.04	45.699
438.39	47.928
438.75	46.715
439.10	46.789
439.45	45.223
439.81	46.327
440.16	46.670
440.51	46.171
440.86	47.692
441.22	46.699
441.57	46.194
441.92	46.594
442.27	46.237
442.63	46.341
442.98	45.366
443.33	46.867
443.68	47.032
444.03	46.041
444.39	46.328
444.74	46.429
445.09	47.183
445.44	46.068
445.79	47.320
446.15	46.947
446.50	46.624
446.85	47.012
447.20	45.721
447.55	47.036
447.91	47.150
448.26	46.912
448.61	46.932
448.96	47.930
449.31	47.690
449.66	48.173
450.02	46.948
450.37	47.363
450.72	47.934
451.07	47.586
451.42	47.007
451.77	46.506
452.12	46.739
452.47	46.962
452.83	48.225
453.18	47.988
453.53	48.372
453.88	48.571
454.23	47.472
454.58	47.844
454.93	47.149
455.28	47.797
455.63	47.163
455.98	47.603
456.34	48.450
456.69	48.232
457.04	47.255
457.39	47.829
457.74	48.536
458.09	45.705
458.44	46.824
458.79	47.639
459.14	47.027
459.49	47.622
459.84	48.315
460.19	47.288
460.54	47.407
460.89	48.188
461.24	46.793
461.59	46.825
461.94	47.163
462.29	47.826
462.64	47.550
462.99	48.433
463.34	46.533
463.69	48.215
464.04	47.899
464.39	47.682
464.74	46.835
465.09	47.069
465.44	46.736
465.79	46.162
466.14	46.370
466.49	46.880
466.84	47.826
467.19	46.866
467.54	47.868
467.89	47.711
468.24	47.713
468.59	47.560
468.94	49.275
469.29	48.381
469.64	47.653
469.99	48.907
470.34	47.881
470.68	47.517
471.03	48.432
471.38	49.338
471.73	48.008
472.08	50.554
472.43	48.852
472.78	47.951
473.13	47.685
473.48	49.144
473.83	48.763
474.17	47.112
474.52	48.104
474.87	47.356
475.22	48.715
475.57	47.062
475.92	47.266
476.27	47.715
476.61	47.882
476.96	48.015
477.31	48.380
477.66	49.168
478.01	47.911
478.36	47.219
478.70	47.196
479.05	48.902
479.40	47.371
479.75	48.361
480.10	46.854
480.45	46.872
480.79	47.189
481.14	47.504
481.49	47.027
481.84	46.042
482.19	47.817
482.53	46.992
482.88	47.491
483.23	47.497
483.58	47.711
483.92	48.492
484.27	46.575
484.62	46.562
484.97	46.552
485.31	45.588
485.66	44.201
486.01	43.099
486.36	42.162
486.70	42.545
487.05	42.863
487.40	44.017
487.75	43.957
488.09	43.807
488.44	45.092
488.79	45.019
489.13	46.099
489.48	47.303
489.83	47.289
490.17	46.780
490.52	46.899
490.87	46.681
491.22	48.892
491.56	48.134
491.91	48.029
492.26	47.305
492.60	48.474
492.95	47.621
493.30	47.498
493.64	48.113
493.99	47.540
494.34	47.333
494.68	47.720
495.03	48.002
495.37	47.816
495.72	48.112
496.07	47.619
496.41	47.350
496.76	46.138
497.11	47.215
497.45	48.224
497.80	48.285
498.14	48.960
498.49	46.843
498.84	49.393
499.18	45.978
499.53	47.864
499.87	47.484
500.22	48.042
500.56	48.607
500.91	48.516
501.26	49.288
501.60	48.224
501.95	48.118
502.29	47.822
502.64	46.890
502.98	47.043
503.33	48.107
503.67	48.079
504.02	48.276
504.36	47.647
504.71	48.675
505.06	47.771
505.40	47.169
505.75	48.036
506.09	48.950
506.44	49.483
506.78	48.913
507.13	48.328
507.47	48.811
507.82	49.440
508.16	49.143
508.51	48.696
508.85	48.433
509.19	49.486
509.54	49.170
509.88	49.826
510.23	49.118
510.57	48.311
510.92	48.701
511.26	49.347
511.61	47.809
511.95	48.731
512.30	49.050
512.64	50.467
512.98	49.872
513.33	49.590
513.67	49.663
514.02	50.597
514.36	50.363
514.70	51.147
515.05	50.986
515.39	52.083
515.74	51.613
516.08	50.545
516.42	53.497
516.77	51.520
517.11	50.987
517.46	51.455
517.80	51.557
518.14	52.563
518.49	51.819
518.83	50.495
519.17	51.359
519.52	52.212
519.86	52.098
520.20	52.986
520.55	52.346
520.89	52.184
521.23	52.512
521.58	52.381
521.92	51.953
522.26	52.251
522.61	53.298
522.95	54.414
523.29	53.450
523.64	52.775
523.98	52.465
524.32	52.191
524.66	52.290
525.01	53.195
525.35	53.153
525.69	54.184
526.04	54.015
526.38	53.796
526.72	53.640
527.06	52.691
527.41	54.172
527.75	53.926
528.09	52.619
528.43	54.118
528.78	53.369
529.12	54.124
529.46	53.594
529.80	53.096
530.15	53.035
530.49	51.564
530.83	53.931
531.17	55.043
531.51	53.342
531.86	51.691
532.20	53.956
532.54	54.614
532.88	54.966
533.22	54.235
533.57	54.851
533.91	51.981
534.25	52.337
534.59	53.275
534.93	53.299
535.27	51.394
535.62	52.625
535.96	53.428
536.30	54.296
536.64	53.913
536.98	53.493
537.32	54.000
537.66	53.571
538.01	53.808
538.35	53.774
538.69	53.701
539.03	53.483
539.37	52.427
539.71	53.333
540.05	53.477
540.39	52.956
540.73	54.051
541.07	52.949
541.42	53.794
541.76	54.131
542.10	52.219
542.44	53.616
542.78	52.549
543.12	52.025
543.46	53.258
543.80	53.321
544.14	53.684
544.48	52.798
544.82	53.700
545.16	51.852
545.50	53.596
545.84	53.598
546.18	54.486
546.52	54.820
546.86	53.449
547.20	52.584
547.54	52.248
547.88	52.798
548.22	53.127
548.56	52.033
548.90	51.957
549.24	54.264
549.58	52.513
549.92	55.141
550.26	55.375
550.60	54.291
550.94	53.053
551.28	54.483
551.62	55.655
551.96	53.581
552.30	53.395
552.64	55.146
552.98	53.866
553.32	52.753
553.66	53.029
554.00	54.698
554.34	55.459
554.68	55.645
555.02	54.718
555.36	53.989
555.69	53.338
556.03	53.057
556.37	53.474
556.71	55.085
557.05	53.014
557.39	53.933
557.73	53.908
558.07	53.454
558.41	54.969
558.75	54.104
559.08	56.254
559.42	56.979
559.76	56.023
560.10	54.646
560.44	53.948
560.78	53.900
561.12	54.545
561.45	54.193
561.79	53.121
562.13	52.116
562.47	55.419
562.81	55.172
563.15	53.394
563.48	51.615
563.82	54.772
564.16	53.918
564.50	51.597
564.84	52.644
565.17	52.050
565.51	54.618
565.85	54.349
566.19	52.440
566.52	52.407
566.86	53.006
567.20	52.753
567.54	51.965
567.88	51.643
568.21	50.325
568.55	51.411
568.89	50.137
569.23	48.706
569.56	48.762
569.90	46.964
570.24	47.087
570.57	47.534
570.91	46.240
571.25	45.492
571.59	45.629
571.92	44.699
572.26	45.499
572.60	45.404
572.93	45.802
573.27	46.267
573.61	44.613
573.95	45.120
574.28	44.232
574.62	44.294
574.96	43.987
575.29	43.582
575.63	44.264
575.97	43.622
576.30	44.014
576.64	44.612
576.98	44.137
577.31	44.860
577.65	43.711
577.98	43.275
578.32	42.989
578.66	43.565
578.99	43.675
579.33	44.001
579.67	43.296
580.00	43.683
580.34	44.099
580.67	44.206
581.01	43.472
581.35	43.789
581.68	43.309
582.02	42.731
582.35	43.015
582.69	42.887
583.02	43.787
583.36	43.387
583.70	44.316
584.03	44.991
584.37	44.498
584.70	44.787
585.04	44.444
585.37	43.688
585.71	45.034
586.04	43.997
586.38	44.673
586.72	44.891
587.05	44.647
587.39	45.082
587.72	45.157
588.06	44.301
588.39	44.703
588.73	44.048
589.06	46.396
589.40	46.041
589.73	46.182
590.07	47.529
590.40	47.247
590.73	48.256
591.07	48.349
591.40	47.984
591.74	48.336
592.07	46.922
592.41	47.402
592.74	46.723
593.08	46.810
593.41	45.482
593.75	44.978
594.08	45.735
594.41	45.324
594.75	46.473
595.08	46.742
595.42	45.853
595.75	46.364
596.09	46.820
596.42	46.650
596.75	48.117
597.09	47.751
597.42	47.061
597.75	47.911
598.09	46.861
598.42	47.491
598.76	46.492
599.09	46.966
599.42	46.090
599.76	45.251
600.09	45.254
600.42	46.374
600.76	46.941
601.09	46.255
601.42	46.146
601.76	46.259
602.09	47.241
602.42	45.656
602.76	46.869
603.09	47.549
603.42	46.936
603.76	47.035
604.09	46.544
604.42	46.704
604.76	47.215
605.09	47.755
605.42	47.013
605.75	46.940
606.09	46.480
606.42	46.787
606.75	47.804
607.09	46.664
607.42	47.368
607.75	47.811
608.08	46.791
608.42	47.273
608.75	48.010
609.08	48.526
609.41	48.136
609.75	49.084
610.08	48.606
610.41	48.046
610.74	47.749
611.07	48.431
611.41	48.934
611.74	49.570
612.07	49.037
612.40	49.513
612.73	49.626
613.07	50.684
613.40	49.574
613.73	50.075
614.06	49.450
614.39	50.404
614.72	49.674
615.06	48.813
615.39	49.703
615.72	48.209
616.05	49.221
616.38	49.061
616.71	49.647
617.05	50.302
617.38	51.517
617.71	51.800
618.04	51.206
618.37	50.417
618.70	50.693
619.03	51.709
619.36	52.387
619.69	51.913
620.03	53.816
620.36	52.730
620.69	52.937
621.02	53.668
621.35	53.582
621.68	54.499
622.01	54.170
622.34	54.843
622.67	54.073
623.00	52.825
623.33	54.184
623.66	53.759
623.99	54.658
624.32	53.117
624.65	53.061
624.99	54.361
625.32	54.375
625.65	54.000
625.98	52.999
626.31	55.786
626.64	54.214
626.97	55.624
627.30	55.668
627.63	56.358
627.96	55.321
628.29	57.096
628.62	54.833
628.95	59.220
629.28	59.159
629.61	58.084
629.94	57.131
630.26	56.672
630.59	58.156
630.92	57.578
631.25	57.842
631.58	61.331
631.91	58.896
632.24	58.795
632.57	59.136
632.90	61.491
633.23	61.175
633.56	61.749
633.89	62.701
634.22	61.141
634.55	62.796
634.88	63.746
635.20	61.099
635.53	64.460
635.86	62.640
636.19	60.718
636.52	59.568
636.85	59.331
637.18	59.913
637.51	61.229
637.83	60.755
638.16	63.775
638.49	63.473
638.82	61.268
639.15	62.867
639.48	63.863
639.81	62.882
640.13	62.699
640.46	63.717
640.79	64.109
641.12	64.304
641.45	64.424
641.77	64.201
642.10	64.123
642.43	65.718
642.76	65.483
643.09	65.706
643.41	65.077
643.74	65.755
644.07	68.879
644.40	68.047
644.73	68.018
645.05	66.568
645.38	67.534
645.71	68.589
646.04	69.008
646.36	68.075
646.69	68.160
647.02	67.840
647.35	67.559
647.67	68.233
648.00	68.730
648.33	65.113
648.66	67.121
648.98	63.478
649.31	59.784
649.64	63.209
649.96	62.589
650.29	63.429
650.62	64.507
650.94	66.867
651.27	68.740
651.60	66.980
651.92	66.359
652.25	68.661
652.58	64.255
652.90	65.269
653.23	64.402
653.56	66.172
653.88	64.170
654.21	62.463
654.54	63.690
654.86	64.749
655.19	60.422
655.52	52.470
655.84	40.656
656.17	46.041
656.49	64.689
656.82	73.623
657.15	58.675
657.47	44.299
657.80	33.458
658.13	26.279
658.45	36.008
658.78	43.646
659.10	44.189
659.43	45.756
659.75	47.634
660.08	50.251
660.41	54.356
660.73	61.355
661.06	62.913
661.38	65.247
661.71	68.705
662.03	68.251
662.36	68.952
662.68	66.667
663.01	67.207
663.33	68.679
663.66	67.850
663.98	70.437
664.31	68.843
664.63	70.881
664.96	70.919
665.28	70.245
665.61	67.547
665.93	68.491
666.26	69.907
666.58	67.890
666.91	69.112
667.23	69.478
667.56	72.279
667.88	70.539
668.21	70.082
668.53	69.758
668.86	69.539
669.18	70.468
669.50	68.802
669.83	70.637
670.15	70.062
670.48	67.383
670.80	71.116
671.13	68.327
671.45	71.743
671.77	67.347
672.10	68.402
672.42	63.322
672.75	61.867
673.07	64.865
673.39	63.259
673.72	66.263
674.04	65.412
674.37	67.332
674.69	66.729
675.01	66.045
675.34	67.054
675.66	67.969
675.98	67.061
676.31	70.200
676.63	66.799
676.95	67.262
677.28	66.937
677.60	69.014
677.92	65.873
678.25	67.636
678.57	64.432
678.89	66.365
679.22	67.647
679.54	64.947
679.86	64.921
680.18	65.026
680.51	61.194
680.83	62.331
681.15	64.645
681.48	64.062
681.80	61.996
682.12	64.360
682.44	63.964
682.77	64.413
683.09	66.408
683.41	69.388
683.73	64.567
684.06	70.437
684.38	67.636
684.70	61.871
685.02	61.285
685.34	65.845
685.67	60.450
685.99	63.547
686.31	59.168
686.63	62.276
686.96	60.294
687.28	60.403
687.60	60.922
687.92	62.814
688.24	63.103
688.56	61.922
688.89	63.289
689.21	62.620
689.53	65.020
689.85	62.602
690.17	64.660
690.49	66.129
690.82	66.807
691.14	67.273
691.46	65.092
691.78	64.717
692.10	62.595
692.42	61.525
692.74	66.085
693.06	65.891
693.39	65.613
693.71	64.047
694.03	64.694
694.35	69.076
694.67	63.544
694.99	68.293
695.31	68.018
695.63	68.778
695.95	67.873
696.27	68.363
696.59	67.780
696.91	66.329
697.23	68.552
697.56	61.826
697.88	61.477
698.20	61.132
698.52	59.533
698.84	64.066
699.16	65.245
699.48	64.407
699.80	68.410
700.12	69.053
700.44	67.991
700.76	67.303
701.08	70.496
701.40	69.091
701.72	71.123
702.04	74.526
702.36	71.237
702.68	70.745
703.00	64.662
703.32	68.983
703.64	67.254
703.96	65.104
704.28	69.841
704.60	71.268
704.91	71.709
705.23	70.170
705.55	72.997
705.87	70.476
706.19	76.803
706.51	72.414
706.83	72.566
707.15	67.914
707.47	66.344
707.79	63.908
708.11	60.998
708.43	63.371
708.74	61.538
709.06	58.605
709.38	65.509
709.70	68.392
710.02	66.304
710.34	66.851
710.66	68.889
710.98	68.579
711.29	67.409
711.61	68.245
711.93	72.036
712.25	71.988
712.57	72.669
712.89	70.000
713.20	71.246
713.52	71.651
713.84	69.486
714.16	67.536
714.48	60.807
714.80	63.686
715.11	63.298
715.43	63.687
715.75	66.479
716.07	65.896
716.39	68.000
716.70	66.355
717.02	74.411
717.34	73.022
717.66	69.097
717.97	80.682
718.29	76.056
718.61	67.905
718.93	71.280
719.24	71.141
719.56	70.000
719.88	68.153
720.20	70.968
720.51	66.013
720.83	67.559
721.15	70.068
721.46	71.233
721.78	68.990
722.10	70.833
722.42	66.890
722.73	66.065
723.05	66.667
723.37	71.378
723.68	67.188
724.00	69.697
724.32	74.144
724.63	72.308
724.95	78.431
725.27	72.862
725.58	65.809
725.90	66.549
726.22	64.041
726.53	68.227
726.85	70.358
727.16	68.456
727.48	65.449
727.80	71.583
728.11	68.929
728.43	71.377
728.74	70.629
729.06	65.591
729.38	72.632
729.69	65.333
730.01	64.145
730.32	69.128
730.64	67.442
730.96	62.462
731.27	59.327
731.59	57.759
731.90	58.774
732.22	60.571
732.53	54.416
732.85	64.620
733.16	62.048
733.48	62.382
733.80	66.087
734.11	68.098
734.43	57.895
734.74	57.373
735.06	60.582
735.37	59.278
735.69	61.449
736.00	63.609
736.32	63.030
736.63	61.830
736.95	63.975
737.26	61.585
737.58	65.951
737.89	61.747
738.21	62.252
738.52	63.880
738.83	70.330
739.15	64.808
739.46	64.138
739.78	64.286
740.09	59.184
740.41	60.736
740.72	63.492
741.04	70.629
741.35	69.531
741.66	67.194
741.98	69.528
742.29	70.370
742.61	69.469
742.92	68.220
743.23	69.200
743.55	69.057
743.86	68.235
744.18	69.492
744.49	69.835
744.80	74.654
745.12	71.429
745.43	82.243
745.74	70.222
746.06	64.912
746.37	79.535
746.68	76.549
747.00	74.439
747.31	73.950
747.62	62.295
747.94	68.240
748.25	65.759
748.56	71.610
748.88	69.196
749.19	74.884
749.50	71.233
749.82	71.605
750.13	68.379
750.44	63.333
750.75	62.416
751.07	62.829
751.38	59.736
751.69	64.310
752.01	66.084
752.32	62.791
752.63	63.423
752.94	59.790
753.26	70.312
753.57	66.926
753.88	62.172
754.19	64.982
754.51	60.133
754.82	60.738
755.13	61.824
755.44	64.444
755.75	64.261
756.07	64.384
756.38	59.804
756.69	60.313
757.00	62.611
757.31	59.718
757.63	55.096
757.94	57.713
758.25	53.623
758.56	54.005
758.87	55.639
759.18	59.012
759.50	56.231
759.81	61.128
760.12	61.236
760.43	60.224
760.74	55.696
761.05	55.968
761.36	54.687
761.67	53.639
761.99	57.465
762.30	60.772
762.61	55.556
762.92	60.227
763.23	63.396
763.54	57.308
763.85	62.257
764.16	60.069
764.47	58.446
764.78	55.375
765.10	57.622
765.41	55.114
765.72	57.459
766.03	60.121
766.34	60.627
766.65	68.441
766.96	68.016
767.27	73.364
767.58	68.812
767.89	77.901
768.20	76.220
768.51	63.265
768.82	67.105
769.13	62.353
769.44	62.406
769.75	56.554
770.06	65.546
770.37	58.333
770.68	63.556
770.99	63.136
771.30	68.201
771.61	58.846
771.92	62.977
772.23	62.097
772.54	67.111
772.85	66.832
773.16	69.022
773.47	66.667
773.78	65.347
774.09	71.023
774.39	76.970
774.70	72.941
775.01	70.395
775.32	65.217
775.63	78.082
775.94	74.074
776.25	71.034
776.56	79.389
776.87	83.969
777.18	79.545
777.48	88.189
777.79	86.154
778.10	78.030
778.41	87.313
778.72	78.195
779.03	71.154
779.34	71.622
779.65	70.186
779.95	77.019
780.26	62.500
780.57	73.469
780.88	82.270
781.19	83.333
781.50	68.047
781.80	69.945
782.11	62.434
782.42	67.816
782.73	66.667
783.04	68.387
783.34	69.767
783.65	69.388
783.96	76.129
784.27	67.550
784.57	67.105
784.88	73.188
785.19	75.833
785.50	76.724
785.81	82.946
786.11	70.370
786.42	76.378
786.73	89.189
787.04	84.906
787.34	62.602
787.65	81.061
787.96	83.333
788.26	89.764
788.57	78.832
788.88	69.718
789.19	74.046
789.49	72.973
789.80	67.187
790.11	82.645
790.41	69.444
790.72	67.593
791.03	86.538
791.33	87.879
791.64	92.632
791.95	74.737
792.25	87.500
792.56	71.000
792.87	100.000
793.17	96.591
793.48	91.765
793.79	87.356
794.09	89.773
794.40	86.207
794.70	72.222
795.01	66.923
795.32	67.176
795.62	64.103
795.93	81.513
796.23	71.545
796.54	85.714
796.85	73.864
797.15	101.299
797.46	98.780
797.76	81.250
798.07	98.667
798.37	91.250
798.68	98.750
798.99	92.683
799.29	90.667
799.60	76.744
799.90	77.632
800.21	109.091
800.51	95.775
800.82	108.621
801.12	100.000
801.43	88.000
801.73	103.448
802.04	98.701
802.34	104.110
802.65	101.961
802.95	117.391
803.26	109.677
803.56	118.333
803.87	107.463
804.17	109.524
804.48	84.906
804.78	84.722
805.09	103.030
805.39	106.349
805.70	108.772
806.00	78.571
806.30	89.062
806.61	77.647
806.91	80.000
807.22	76.087
807.52	90.789
807.83	109.211
808.13	95.652
808.43	109.677
808.74	93.151
809.04	100.000
809.35	95.588
809.65	109.091
809.95	107.843
810.26	131.481
810.56	117.188
810.86	122.449
811.17	119.298
811.47	123.913
811.77	98.276
812.08	86.207
812.38	104.762
812.69	121.429
812.99	93.333
813.29	151.429
813.59	164.516
813.90	113.793
814.20	103.279
814.50	94.000
814.81	105.263
815.11	107.407
815.41	98.214
815.72	123.214
816.02	116.000
816.32	124.390
816.62	98.276
816.93	133.333
817.23	119.512
817.53	121.429
817.84	133.333
818.14	114.286
818.44	120.833
818.74	111.321
819.04	138.462
819.35	160.606
819.65	130.769
819.95	111.111
820.25	119.149
820.56	145.946
820.86	144.737
821.16	87.234
821.46	142.105
821.76	118.182
822.07	92.857
822.37	136.842
822.67	141.860
822.97	97.368
823.27	126.087
823.57	140.625
823.88	128.205
824.18	136.364
824.48	191.304
824.78	144.444
825.08	200.000
825.38	165.517
825.69	150.000
825.99	117.021
826.29	111.111
826.59	151.429
826.89	156.667
827.19	102.857
827.49	183.871
827.79	211.538
828.09	126.190
828.39	116.667
828.70	110.811
829.00	192.857
829.30	325.000
829.60	119.444
829.90	132.258
830.20	115.152
830.50	129.730
830.80	191.667
831.10	176.923
831.40	185.714
831.70	212.500
832.00	126.667
832.30	195.652
832.60	200.000
832.90	187.879
833.20	215.000
833.50	131.579
833.80	135.294
834.10	136.842
834.40	226.316
834.70	116.667
835.00	176.000
835.30	124.324
835.60	143.750
835.90	121.622
836.20	153.846
836.50	181.818
836.80	109.756
837.10	169.565
837.40	361.538
837.70	205.263
838.00	200.000
838.30	183.333
838.60	184.000
838.90	350.000
839.19	200.000
839.49	156.667
839.79	148.276
840.09	169.231
840.39	253.333
840.69	294.737
840.99	185.714
841.29	217.391
841.59	230.000
841.88	180.000
842.18	311.111
842.48	153.571
842.78	174.074
843.08	238.462
843.38	209.091
843.68	307.143
843.97	628.571
844.27	200.000
844.57	1650.000
844.87	278.571
845.17	222.222
845.47	138.095
845.76	225.000
846.06	457.143
846.36	200.000
846.66	330.769
846.96	218.750
847.25	169.231
847.55	178.947
847.85	211.111
848.15	580.000
848.44	263.636
848.74	180.952
849.04	145.833
849.34	205.882
849.63	268.750
849.93	225.000
850.23	1200.000
850.53	450.000
850.82	281.818
851.12	211.765
851.42	191.667
851.71	231.250
852.01	0.000
852.31	241.176
852.61	370.000
852.90	175.000
853.20	366.667
853.50	-1300.000
853.79	136.000
854.09	175.000
854.39	148.276
854.68	158.621
854.98	223.810
855.28	138.710
855.57	307.143
855.87	211.111
856.17	111.111
856.46	205.263
856.76	145.161
857.05	247.059
857.35	236.364
857.65	253.846
857.94	175.000
858.24	388.889
858.53	321.429
858.83	542.857
859.13	204.348
859.42	400.000
859.72	362.500
860.01	250.000
860.31	925.000
860.60	410.000
860.90	500.000
861.20	330.769
861.49	342.857
861.79	-2900.000
862.08	485.714
862.38	433.333
862.67	264.286
862.97	330.000
863.26	143.333
863.56	925.000
863.85	300.000
864.15	282.353
864.44	255.556
864.74	341.667
865.03	427.273
865.33	387.500
865.62	260.000
865.92	533.333
866.21	1075.000
866.51	720.000
866.80	233.333
867.10	1000.000
867.39	4000.000
867.69	540.000
867.98	925.000
868.27	152.381
868.57	300.000
868.86	800.000
869.16	123.810
869.45	2600.000
869.75	-400.000
870.04	875.000
870.33	680.000
870.63	412.500
870.92	158.824
871.22	750.000
871.51	385.714
871.80	408.333
872.10	261.538
>>>>>End Processed Spectral Data<<<<<
