SpectraSuite Data File
++++++++++++++++++++++++++++++++++++
Date: Tue May 12 15:29:03 PDT 2015
User: schluterlab
Dark Spectrum Present: Yes
Reference Spectrum Present: Yes
Number of Sampled Component Spectra: 1
Spectrometers: USB2E3373
Integration Time (usec): 3000 (USB2E3373)
Spectra Averaged: 3 (USB2E3373)
Boxcar Smoothing: 0 (USB2E3373)
Correct for Electrical Dark: No (USB2E3373)
Strobe/Lamp Enabled: No (USB2E3373)
Correct for Detector Non-linearity: No (USB2E3373)
Correct for Stray Light: No (USB2E3373)
Number of Pixels in Processed Spectrum: 2048
>>>>>Begin Processed Spectral Data<<<<<
178.53	0.000
178.91	-208.333
179.29	-850.000
179.67	-3400.000
180.04	-160.000
180.42	950.000
180.80	1650.000
181.18	0.000
181.56	-437.500
181.94	0.000
182.31	1333.333
182.69	-3000.000
183.07	600.000
183.45	-3500.000
183.83	-1750.000
184.20	400.000
184.58	485.714
184.96	-315.385
185.34	-175.000
185.72	1800.000
186.09	-750.000
186.47	-3500.000
186.85	1066.667
187.23	900.000
187.61	2150.000
187.98	500.000
188.36	228.571
188.74	408.333
189.12	316.667
189.49	975.000
189.87	0.000
190.25	537.500
190.63	1700.000
191.00	-241.667
191.38	-3400.000
191.76	-675.000
192.14	575.000
192.51	-2800.000
192.89	2250.000
193.27	1133.333
193.65	-966.667
194.02	-760.000
194.40	585.714
194.78	-335.714
195.15	273.333
195.53	-3200.000
195.91	-720.000
196.29	4300.000
196.66	293.750
197.04	1100.000
197.42	-1400.000
197.79	800.000
198.17	275.000
198.55	0.000
198.92	442.857
199.30	1300.000
199.68	1850.000
200.05	616.667
200.43	-300.000
200.81	205.556
201.18	3800.000
201.56	325.000
201.94	-700.000
202.31	-325.000
202.69	-680.000
203.07	4100.000
203.44	-516.667
203.82	366.667
204.19	720.000
204.57	-1600.000
204.95	-975.000
205.32	-760.000
205.70	533.333
206.08	725.000
206.45	-966.667
206.83	488.889
207.20	205.263
207.58	266.667
207.96	740.000
208.33	0.000
208.71	728.571
209.08	840.000
209.46	-2600.000
209.84	-775.000
210.21	1040.000
210.59	-700.000
210.96	375.000
211.34	-925.000
211.71	481.818
212.09	925.000
212.46	1850.000
212.84	-466.667
213.22	466.667
213.59	-3400.000
213.97	320.000
214.34	975.000
214.72	1300.000
215.09	1333.333
215.47	-3000.000
215.84	-400.000
216.22	-425.000
216.59	0.000
216.97	0.000
217.34	1600.000
217.72	-1250.000
218.09	1433.333
218.47	412.500
218.84	1050.000
219.22	1133.333
219.59	900.000
219.97	500.000
220.34	377.778
220.72	1600.000
221.09	4100.000
221.47	283.333
221.84	1166.667
222.22	370.000
222.59	238.889
222.97	250.000
223.34	206.250
223.72	-1500.000
224.09	1100.000
224.46	292.308
224.84	-975.000
225.21	400.000
225.59	293.333
225.96	1466.667
226.34	-660.000
226.71	-925.000
227.08	-740.000
227.46	0.000
227.83	-516.667
228.21	-1450.000
228.58	391.667
228.95	975.000
229.33	333.333
229.70	1075.000
230.08	346.154
230.45	3600.000
230.82	-1075.000
231.20	-800.000
231.57	-900.000
231.95	760.000
232.32	316.667
232.69	516.667
233.07	358.333
233.44	-1450.000
233.81	300.000
234.19	125.926
234.56	262.500
234.93	188.235
235.31	180.000
235.68	262.500
236.05	160.714
236.43	100.000
236.80	271.429
237.17	148.276
237.55	90.625
237.92	112.500
238.29	103.030
238.67	87.500
239.04	85.366
239.41	66.667
239.79	77.500
240.16	50.000
240.53	47.541
240.91	50.725
241.28	52.542
241.65	51.515
242.02	57.746
242.40	41.429
242.77	53.846
243.14	48.101
243.51	48.485
243.89	40.187
244.26	38.318
244.63	38.614
245.00	42.202
245.38	22.034
245.75	23.485
246.12	34.815
246.49	24.823
246.87	22.951
247.24	28.667
247.61	29.375
247.98	24.490
248.36	18.788
248.73	26.531
249.10	17.857
249.47	15.500
249.84	20.398
250.22	20.000
250.59	21.500
250.96	19.831
251.33	15.349
251.70	15.625
252.08	19.328
252.45	17.530
252.82	15.589
253.19	13.043
253.56	13.846
253.94	17.754
254.31	16.667
254.68	11.150
255.05	14.483
255.42	16.423
255.79	18.893
256.16	15.254
256.54	13.636
256.91	10.458
257.28	14.381
257.65	11.285
258.02	10.029
258.39	14.900
258.76	14.783
259.14	9.714
259.51	13.994
259.88	10.638
260.25	12.363
260.62	11.781
260.99	9.917
261.36	10.585
261.73	10.638
262.10	10.995
262.47	12.750
262.85	10.400
263.22	10.026
263.59	12.532
263.96	14.035
264.33	9.630
264.70	10.319
265.07	9.756
265.44	10.550
265.81	11.792
266.18	10.984
266.55	10.875
266.92	10.291
267.29	8.991
267.66	10.090
268.03	8.520
268.40	12.051
268.77	8.811
269.14	8.677
269.51	10.022
269.88	10.204
270.25	7.343
270.62	9.442
270.99	10.142
271.36	9.756
271.73	8.595
272.10	6.263
272.47	6.746
272.84	6.986
273.21	8.264
273.58	10.931
273.95	7.598
274.32	8.755
274.69	10.236
275.06	10.565
275.43	7.854
275.80	7.547
276.17	8.272
276.54	8.598
276.91	9.328
277.28	7.847
277.65	8.672
278.02	9.926
278.39	7.734
278.76	9.138
279.13	8.185
279.50	8.182
279.87	6.331
280.23	7.551
280.60	8.212
280.97	8.621
281.34	8.746
281.71	8.522
282.08	6.667
282.45	8.108
282.82	8.528
283.19	8.267
283.56	9.091
283.92	6.189
284.29	7.654
284.66	6.050
285.03	8.624
285.40	6.942
285.77	6.636
286.14	9.133
286.51	7.362
286.87	6.171
287.24	5.706
287.61	8.207
287.98	7.910
288.35	5.926
288.72	6.525
289.08	6.006
289.45	6.707
289.82	6.875
290.19	6.442
290.56	8.151
290.93	8.058
291.29	6.215
291.66	6.215
292.03	6.311
292.40	7.046
292.77	6.685
293.13	5.849
293.50	4.993
293.87	7.724
294.24	9.091
294.60	7.402
294.97	7.273
295.34	7.304
295.71	6.439
296.08	7.733
296.44	6.226
296.81	7.196
297.18	6.084
297.55	7.266
297.91	5.542
298.28	5.797
298.65	7.485
299.02	6.393
299.38	7.794
299.75	5.854
300.12	6.766
300.48	7.143
300.85	6.794
301.22	6.279
301.59	7.311
301.95	6.068
302.32	6.752
302.69	7.466
303.05	6.958
303.42	7.063
303.79	6.826
304.15	6.381
304.52	6.237
304.89	6.503
305.25	6.340
305.62	6.503
305.99	6.087
306.35	6.000
306.72	6.348
307.09	6.832
307.45	5.597
307.82	6.070
308.19	7.010
308.55	5.500
308.92	6.771
309.29	7.495
309.65	5.847
310.02	6.491
310.38	6.082
310.75	5.304
311.12	6.130
311.48	7.915
311.85	7.634
312.22	7.354
312.58	6.706
312.95	6.408
313.31	6.835
313.68	6.004
314.05	7.051
314.41	6.145
314.78	6.629
315.14	7.583
315.51	7.096
315.87	6.113
316.24	6.909
316.61	7.520
316.97	5.413
317.34	7.547
317.70	6.497
318.07	6.762
318.43	7.821
318.80	7.268
319.16	8.042
319.53	6.991
319.89	6.362
320.26	7.635
320.62	7.967
320.99	7.436
321.35	7.421
321.72	8.349
322.08	7.572
322.45	8.447
322.81	6.770
323.18	8.881
323.54	9.233
323.91	8.976
324.27	8.223
324.64	7.612
325.00	9.397
325.37	8.938
325.73	8.853
326.10	9.445
326.46	9.579
326.83	9.280
327.19	10.683
327.56	9.824
327.92	10.574
328.29	10.884
328.65	11.130
329.01	9.752
329.38	11.760
329.74	10.589
330.11	11.555
330.47	12.276
330.84	11.648
331.20	11.760
331.56	14.335
331.93	12.746
332.29	12.585
332.66	13.690
333.02	13.144
333.38	14.136
333.75	15.930
334.11	14.430
334.48	15.641
334.84	14.443
335.20	15.483
335.57	15.869
335.93	14.886
336.29	14.677
336.66	15.866
337.02	14.286
337.38	15.219
337.75	16.470
338.11	16.962
338.47	15.495
338.84	16.173
339.20	15.931
339.56	15.391
339.93	15.468
340.29	14.202
340.65	16.513
341.02	16.171
341.38	15.764
341.74	14.950
342.11	15.025
342.47	15.094
342.83	16.653
343.20	16.249
343.56	15.012
343.92	15.937
344.28	16.667
344.65	15.974
345.01	14.841
345.37	15.385
345.73	15.952
346.10	15.378
346.46	16.108
346.82	14.892
347.19	17.388
347.55	16.315
347.91	15.332
348.27	15.647
348.63	16.693
349.00	15.080
349.36	15.875
349.72	15.443
350.08	16.848
350.45	16.375
350.81	16.743
351.17	15.408
351.53	15.627
351.89	14.685
352.26	16.175
352.62	15.686
352.98	16.258
353.34	16.872
353.70	15.367
354.07	17.308
354.43	15.745
354.79	15.566
355.15	16.080
355.51	14.804
355.87	16.340
356.24	16.782
356.60	15.677
356.96	15.239
357.32	16.428
357.68	15.492
358.04	15.274
358.40	16.642
358.77	15.702
359.13	15.691
359.49	15.419
359.85	14.966
360.21	15.676
360.57	15.766
360.93	15.079
361.29	16.017
361.66	16.928
362.02	14.986
362.38	15.873
362.74	15.640
363.10	15.498
363.46	14.848
363.82	15.358
364.18	15.718
364.54	15.594
364.90	16.064
365.26	15.059
365.62	15.055
365.98	14.797
366.35	14.828
366.71	15.614
367.07	16.314
367.43	15.312
367.79	15.293
368.15	14.586
368.51	15.507
368.87	14.742
369.23	15.800
369.59	15.914
369.95	15.455
370.31	14.648
370.67	15.128
371.03	15.476
371.39	14.820
371.75	15.283
372.11	15.840
372.47	16.027
372.83	15.432
373.19	15.833
373.55	16.220
373.91	14.917
374.27	15.146
374.63	15.254
374.99	15.296
375.35	15.255
375.71	14.908
376.07	15.318
376.42	14.642
376.78	15.800
377.14	14.810
377.50	14.981
377.86	14.222
378.22	14.442
378.58	15.799
378.94	14.846
379.30	14.797
379.66	15.051
380.02	15.308
380.38	14.461
380.74	15.571
381.09	16.238
381.45	14.913
381.81	14.184
382.17	15.263
382.53	15.057
382.89	14.370
383.25	15.216
383.61	14.467
383.97	15.117
384.32	15.069
384.68	15.686
385.04	15.123
385.40	15.480
385.76	15.097
386.12	15.461
386.48	15.502
386.83	14.853
387.19	14.900
387.55	14.782
387.91	15.127
388.27	14.218
388.62	14.789
388.98	15.860
389.34	14.039
389.70	14.328
390.06	14.390
390.42	15.238
390.77	15.233
391.13	14.303
391.49	14.822
391.85	15.508
392.20	14.541
392.56	14.875
392.92	14.374
393.28	14.630
393.64	13.819
393.99	14.997
394.35	14.067
394.71	13.993
395.07	14.234
395.42	14.344
395.78	14.991
396.14	14.940
396.50	14.140
396.85	14.573
397.21	15.042
397.57	14.465
397.92	13.865
398.28	14.175
398.64	14.660
399.00	14.484
399.35	13.473
399.71	13.907
400.07	13.642
400.42	14.388
400.78	13.607
401.14	14.797
401.49	13.710
401.85	14.368
402.21	13.240
402.57	13.585
402.92	14.000
403.28	13.305
403.63	14.597
403.99	13.631
404.35	13.423
404.70	14.117
405.06	13.532
405.42	13.704
405.77	13.671
406.13	13.720
406.49	13.303
406.84	13.254
407.20	14.155
407.55	14.092
407.91	14.040
408.27	14.312
408.62	14.370
408.98	13.483
409.34	13.910
409.69	14.126
410.05	12.821
410.40	13.133
410.76	13.337
411.11	13.744
411.47	13.086
411.83	12.771
412.18	12.802
412.54	13.694
412.89	13.510
413.25	13.569
413.60	13.259
413.96	13.645
414.31	12.869
414.67	13.780
415.03	13.474
415.38	14.259
415.74	13.392
416.09	13.679
416.45	14.350
416.80	13.919
417.16	13.113
417.51	13.312
417.87	13.767
418.22	12.940
418.58	13.312
418.93	13.801
419.29	13.432
419.64	13.689
420.00	13.842
420.35	13.763
420.71	12.835
421.06	13.773
421.42	12.666
421.77	13.381
422.12	12.900
422.48	12.943
422.83	13.951
423.19	12.527
423.54	13.165
423.90	13.250
424.25	13.759
424.61	12.710
424.96	13.439
425.31	13.574
425.67	13.131
426.02	13.685
426.38	12.777
426.73	13.187
427.09	13.701
427.44	12.943
427.79	13.608
428.15	14.437
428.50	13.886
428.85	13.521
429.21	13.614
429.56	13.609
429.92	13.725
430.27	13.014
430.62	12.531
430.98	13.124
431.33	13.962
431.68	12.691
432.04	13.451
432.39	13.996
432.74	14.403
433.10	14.341
433.45	14.015
433.80	14.506
434.16	13.978
434.51	13.880
434.86	14.752
435.22	13.668
435.57	14.760
435.92	14.343
436.28	13.825
436.63	14.317
436.98	14.809
437.34	15.183
437.69	14.110
438.04	14.731
438.39	14.886
438.75	15.145
439.10	14.517
439.45	14.189
439.81	14.864
440.16	15.135
440.51	14.583
440.86	15.840
441.22	15.206
441.57	15.276
441.92	15.252
442.27	15.052
442.63	14.939
442.98	15.571
443.33	15.694
443.68	15.392
444.03	15.551
444.39	15.631
444.74	15.373
445.09	15.113
445.44	15.675
445.79	15.692
446.15	16.211
446.50	15.612
446.85	16.235
447.20	14.279
447.55	15.933
447.91	16.622
448.26	16.081
448.61	16.915
448.96	17.320
449.31	16.447
449.66	16.501
450.02	16.478
450.37	17.046
450.72	16.915
451.07	17.976
451.42	17.250
451.77	17.583
452.12	17.867
452.47	16.646
452.83	17.465
453.18	17.357
453.53	17.821
453.88	17.943
454.23	17.838
454.58	17.832
454.93	17.535
455.28	18.237
455.63	17.967
455.98	17.766
456.34	18.237
456.69	18.415
457.04	17.243
457.39	18.057
457.74	18.694
458.09	17.518
458.44	17.032
458.79	17.613
459.14	18.167
459.49	17.610
459.84	18.207
460.19	18.757
460.54	18.974
460.89	17.910
461.24	18.270
461.59	18.707
461.94	18.735
462.29	18.364
462.64	19.158
462.99	18.746
463.34	18.535
463.69	19.903
464.04	19.286
464.39	18.432
464.74	17.702
465.09	18.572
465.44	18.281
465.79	18.345
466.14	18.707
466.49	18.177
466.84	18.395
467.19	19.449
467.54	18.318
467.89	18.486
468.24	19.398
468.59	18.929
468.94	19.746
469.29	20.220
469.64	20.322
469.99	20.051
470.34	19.608
470.68	19.793
471.03	20.080
471.38	19.603
471.73	19.138
472.08	19.765
472.43	19.367
472.78	20.166
473.13	19.086
473.48	20.232
473.83	19.611
474.17	19.696
474.52	19.905
474.87	18.704
475.22	19.874
475.57	19.307
475.92	18.855
476.27	18.662
476.61	18.874
476.96	19.592
477.31	19.846
477.66	20.021
478.01	19.649
478.36	19.670
478.70	19.256
479.05	20.031
479.40	19.494
479.75	19.712
480.10	19.603
480.45	19.374
480.79	19.171
481.14	19.781
481.49	19.488
481.84	19.921
482.19	19.563
482.53	20.290
482.88	20.609
483.23	20.072
483.58	19.659
483.92	20.795
484.27	19.349
484.62	20.501
484.97	19.244
485.31	19.079
485.66	19.636
486.01	18.601
486.36	18.378
486.70	18.215
487.05	18.579
487.40	18.637
487.75	18.802
488.09	19.062
488.44	19.535
488.79	19.681
489.13	20.381
489.48	20.256
489.83	20.142
490.17	19.860
490.52	21.232
490.87	20.776
491.22	20.833
491.56	21.124
491.91	20.609
492.26	20.757
492.60	21.048
492.95	21.477
493.30	20.928
493.64	21.204
493.99	20.751
494.34	20.977
494.68	20.717
495.03	21.284
495.37	21.837
495.72	21.538
496.07	21.204
496.41	20.808
496.76	21.275
497.11	20.737
497.45	21.175
497.80	21.733
498.14	21.914
498.49	21.773
498.84	21.355
499.18	21.161
499.53	21.543
499.87	21.384
500.22	22.064
500.56	21.773
500.91	22.866
501.26	23.105
501.60	22.040
501.95	21.550
502.29	21.733
502.64	21.173
502.98	22.010
503.33	22.004
503.67	22.163
504.02	22.660
504.36	21.584
504.71	22.091
505.06	22.525
505.40	21.993
505.75	22.030
506.09	22.165
506.44	22.603
506.78	23.204
507.13	22.540
507.47	22.465
507.82	24.039
508.16	23.469
508.51	22.995
508.85	22.745
509.19	22.516
509.54	23.535
509.88	24.167
510.23	23.627
510.57	22.490
510.92	23.576
511.26	23.092
511.61	23.289
511.95	23.544
512.30	23.600
512.64	23.572
512.98	23.731
513.33	24.129
513.67	23.200
514.02	22.961
514.36	23.676
514.70	23.627
515.05	23.601
515.39	23.136
515.74	24.330
516.08	25.109
516.42	25.082
516.77	24.853
517.11	24.800
517.46	24.623
517.80	23.648
518.14	25.239
518.49	24.642
518.83	24.670
519.17	24.847
519.52	24.631
519.86	24.305
520.20	24.767
520.55	24.816
520.89	25.000
521.23	25.701
521.58	25.301
521.92	25.539
522.26	25.237
522.61	26.381
522.95	25.766
523.29	25.497
523.64	25.434
523.98	26.291
524.32	25.144
524.66	25.449
525.01	25.976
525.35	25.928
525.69	25.768
526.04	27.127
526.38	25.956
526.72	25.418
527.06	25.961
527.41	26.904
527.75	25.746
528.09	25.587
528.43	26.297
528.78	25.999
529.12	26.610
529.46	26.300
529.80	26.227
530.15	26.341
530.49	25.993
530.83	25.960
531.17	25.277
531.51	26.916
531.86	26.027
532.20	26.638
532.54	26.742
532.88	26.546
533.22	27.849
533.57	25.808
533.91	26.107
534.25	25.620
534.59	26.316
534.93	25.995
535.27	25.555
535.62	26.838
535.96	26.359
536.30	27.179
536.64	27.640
536.98	26.746
537.32	27.500
537.66	26.531
538.01	26.811
538.35	27.885
538.69	26.214
539.03	27.488
539.37	26.517
539.71	27.531
540.05	27.815
540.39	27.233
540.73	27.278
541.07	27.227
541.42	27.674
541.76	27.189
542.10	27.620
542.44	27.431
542.78	26.998
543.12	26.933
543.46	27.068
543.80	27.193
544.14	27.864
544.48	28.102
544.82	26.972
545.16	26.655
545.50	28.273
545.84	27.967
546.18	28.218
546.52	28.852
546.86	28.175
547.20	27.907
547.54	27.422
547.88	28.041
548.22	28.476
548.56	28.403
548.90	27.461
549.24	28.806
549.58	28.093
549.92	30.452
550.26	28.871
550.60	28.476
550.94	29.647
551.28	29.310
551.62	29.448
551.96	28.716
552.30	28.543
552.64	28.673
552.98	28.093
553.32	28.681
553.66	28.339
554.00	29.858
554.34	30.559
554.68	29.704
555.02	29.803
555.36	28.856
555.69	28.927
556.03	28.599
556.37	29.254
556.71	30.052
557.05	28.244
557.39	29.267
557.73	29.784
558.07	30.315
558.41	30.158
558.75	29.891
559.08	30.522
559.42	31.281
559.76	31.005
560.10	29.869
560.44	30.989
560.78	30.179
561.12	30.134
561.45	28.849
561.79	29.026
562.13	29.501
562.47	30.175
562.81	29.993
563.15	30.769
563.48	28.882
563.82	30.505
564.16	31.095
564.50	29.717
564.84	30.334
565.17	29.471
565.51	31.650
565.85	31.771
566.19	30.298
566.52	30.385
566.86	29.422
567.20	29.775
567.54	29.531
567.88	29.890
568.21	29.006
568.55	29.232
568.89	29.380
569.23	28.818
569.56	28.514
569.90	27.776
570.24	28.313
570.57	28.034
570.91	28.237
571.25	27.402
571.59	26.791
571.92	26.803
572.26	26.846
572.60	27.131
572.93	27.315
573.27	27.570
573.61	26.990
573.95	27.440
574.28	27.412
574.62	26.619
574.96	26.243
575.29	26.647
575.63	26.337
575.97	26.680
576.30	27.006
576.64	27.171
576.98	26.770
577.31	27.480
577.65	27.197
577.98	27.035
578.32	26.488
578.66	26.264
578.99	27.166
579.33	27.740
579.67	27.325
580.00	27.264
580.34	27.336
580.67	27.360
581.01	28.154
581.35	27.291
581.68	26.673
582.02	27.376
582.35	26.753
582.69	27.355
583.02	27.372
583.36	27.716
583.70	28.268
584.03	28.859
584.37	28.824
584.70	28.241
585.04	27.909
585.37	27.683
585.71	28.112
586.04	27.945
586.38	28.681
586.72	28.649
587.05	29.002
587.39	28.597
587.72	29.251
588.06	29.004
588.39	28.813
588.73	29.011
589.06	29.093
589.40	30.047
589.73	29.826
590.07	30.508
590.40	30.976
590.73	30.922
591.07	31.461
591.40	31.018
591.74	30.925
592.07	31.115
592.41	31.455
592.74	30.941
593.08	30.273
593.41	30.341
593.75	29.341
594.08	30.336
594.41	30.368
594.75	30.685
595.08	31.104
595.42	30.612
595.75	30.240
596.09	31.491
596.42	31.209
596.75	32.131
597.09	31.985
597.42	31.918
597.75	31.684
598.09	31.227
598.42	31.865
598.76	31.534
599.09	31.556
599.42	31.315
599.76	31.513
600.09	30.237
600.42	31.319
600.76	31.441
601.09	31.826
601.42	30.834
601.76	32.116
602.09	32.119
602.42	31.571
602.76	32.410
603.09	32.730
603.42	32.844
603.76	31.923
604.09	32.392
604.42	31.751
604.76	32.477
605.09	32.531
605.42	32.507
605.75	32.807
606.09	32.173
606.42	32.431
606.75	32.336
607.09	32.057
607.42	32.824
607.75	33.002
608.08	32.575
608.42	33.473
608.75	33.333
609.08	33.436
609.41	33.909
609.75	33.883
610.08	33.588
610.41	33.948
610.74	33.766
611.07	34.197
611.41	34.291
611.74	34.656
612.07	34.297
612.40	34.649
612.73	35.147
613.07	35.073
613.40	34.787
613.73	34.948
614.06	34.700
614.39	35.101
614.72	34.304
615.06	34.273
615.39	35.000
615.72	34.221
616.05	34.907
616.38	34.196
616.71	35.323
617.05	35.530
617.38	34.944
617.71	35.883
618.04	35.558
618.37	34.908
618.70	34.988
619.03	35.836
619.36	36.432
619.69	37.533
620.03	37.834
620.36	36.737
620.69	37.292
621.02	37.840
621.35	37.751
621.68	38.569
622.01	39.336
622.34	36.999
622.67	37.430
623.00	37.236
623.33	38.259
623.66	36.993
623.99	37.329
624.32	37.195
624.65	37.591
624.99	37.999
625.32	38.410
625.65	37.586
625.98	37.378
626.31	39.911
626.64	37.434
626.97	38.103
627.30	39.829
627.63	40.738
627.96	39.358
628.29	40.347
628.62	38.666
628.95	41.844
629.28	40.754
629.61	42.091
629.94	40.709
630.26	39.515
630.59	42.110
630.92	40.807
631.25	42.520
631.58	43.780
631.91	42.531
632.24	42.274
632.57	41.159
632.90	43.375
633.23	42.812
633.56	43.730
633.89	44.159
634.22	44.026
634.55	45.376
634.88	44.578
635.20	46.188
635.53	45.064
635.86	44.407
636.19	44.557
636.52	42.811
636.85	42.718
637.18	42.579
637.51	44.581
637.83	43.707
638.16	46.073
638.49	44.551
638.82	44.601
639.15	42.773
639.48	46.445
639.81	45.421
640.13	45.399
640.46	44.880
640.79	45.124
641.12	45.407
641.45	48.383
641.77	47.160
642.10	48.193
642.43	49.929
642.76	48.011
643.09	46.974
643.41	47.405
643.74	49.209
644.07	46.608
644.40	47.485
644.73	49.099
645.05	48.886
645.38	47.320
645.71	48.862
646.04	50.687
646.36	47.887
646.69	49.600
647.02	48.320
647.35	47.402
647.67	48.298
648.00	47.557
648.33	44.361
648.66	47.576
648.98	47.681
649.31	45.344
649.64	46.058
649.96	48.364
650.29	45.143
650.62	49.337
650.94	49.247
651.27	50.877
651.60	51.174
651.92	47.158
652.25	49.606
652.58	47.234
652.90	49.401
653.23	47.415
653.56	48.961
653.88	46.843
654.21	46.481
654.54	45.827
654.86	49.115
655.19	46.702
655.52	38.586
655.84	29.865
656.17	34.227
656.49	48.973
656.82	56.615
657.15	45.177
657.47	34.289
657.80	25.717
658.13	20.494
658.45	28.124
658.78	33.907
659.10	35.601
659.43	37.015
659.75	39.001
660.08	40.852
660.41	44.918
660.73	48.808
661.06	50.150
661.38	51.959
661.71	50.000
662.03	51.711
662.36	50.857
662.68	52.700
663.01	50.090
663.33	49.623
663.66	56.016
663.98	51.984
664.31	53.545
664.63	52.107
664.96	52.158
665.28	50.094
665.61	50.566
665.93	51.321
666.26	51.028
666.58	50.459
666.91	51.544
667.23	52.610
667.56	55.441
667.88	54.979
668.21	52.869
668.53	52.823
668.86	53.908
669.18	53.971
669.50	53.099
669.83	57.290
670.15	51.975
670.48	51.172
670.80	54.183
671.13	51.594
671.45	53.307
671.77	52.319
672.10	48.115
672.42	49.013
672.75	49.209
673.07	48.649
673.39	47.604
673.72	50.519
674.04	52.151
674.37	50.998
674.69	51.673
675.01	51.306
675.34	50.000
675.66	52.930
675.98	54.043
676.31	53.000
676.63	52.087
676.95	52.183
677.28	50.913
677.60	52.716
677.92	49.405
678.25	51.357
678.57	49.534
678.89	51.537
679.22	50.000
679.54	49.466
679.86	49.738
680.18	49.033
680.51	46.434
680.83	47.635
681.15	50.087
681.48	49.826
681.80	48.687
682.12	47.405
682.44	49.009
682.77	49.110
683.09	53.981
683.41	54.694
683.73	50.787
684.06	52.183
684.38	52.907
684.70	49.640
685.02	48.785
685.34	49.120
685.67	48.392
685.99	47.291
686.31	46.225
686.63	48.293
686.96	47.386
687.28	44.966
687.60	47.440
687.92	48.911
688.24	47.759
688.56	48.754
688.89	48.566
689.21	51.830
689.53	54.545
689.85	49.797
690.17	52.039
690.49	48.589
690.82	52.101
691.14	53.131
691.46	55.236
691.78	51.852
692.10	48.855
692.42	47.005
692.74	50.194
693.06	51.357
693.39	50.198
693.71	47.151
694.03	53.254
694.35	53.414
694.67	48.065
694.99	52.328
695.31	52.477
695.63	53.167
695.95	53.167
696.27	54.646
696.59	53.938
696.91	51.392
697.23	52.262
697.56	48.340
697.88	45.709
698.20	47.736
698.52	50.195
698.84	51.745
699.16	52.239
699.48	50.424
699.80	53.377
700.12	53.811
700.44	52.336
700.76	54.893
701.08	56.136
701.40	55.844
701.72	61.497
702.04	56.369
702.36	55.108
702.68	55.053
703.00	52.882
703.32	57.320
703.64	51.385
703.96	54.427
704.28	54.762
704.60	56.056
704.91	54.062
705.23	54.545
705.55	56.677
705.87	56.508
706.19	59.875
706.51	57.994
706.83	57.522
707.15	55.615
707.47	54.964
707.79	52.184
708.11	51.247
708.43	47.640
708.74	51.131
709.06	49.767
709.38	52.854
709.70	52.861
710.02	53.261
710.34	55.801
710.66	53.889
710.98	53.825
711.29	54.318
711.61	54.039
711.93	60.182
712.25	55.422
712.57	58.199
712.89	56.364
713.20	60.383
713.52	54.829
713.84	58.610
714.16	48.696
714.48	54.179
714.80	51.491
715.11	52.394
715.43	53.073
715.75	56.901
716.07	54.913
716.39	56.571
716.70	55.452
717.02	57.576
717.34	64.029
717.66	55.903
717.97	62.500
718.29	59.859
718.61	55.405
718.93	56.055
719.24	61.074
719.56	54.828
719.88	53.185
720.20	58.710
720.51	50.327
720.83	54.515
721.15	60.204
721.46	54.795
721.78	57.491
722.10	57.639
722.42	57.525
722.73	60.289
723.05	58.947
723.37	59.364
723.68	58.594
724.00	57.576
724.32	59.316
724.63	60.769
724.95	57.255
725.27	56.877
725.58	55.882
725.90	52.817
726.22	54.452
726.53	59.866
726.85	54.397
727.16	54.698
727.48	51.827
727.80	58.273
728.11	56.071
728.43	60.145
728.74	53.147
729.06	53.763
729.38	61.754
729.69	58.000
730.01	53.289
730.32	54.362
730.64	58.472
730.96	53.754
731.27	47.401
731.59	48.851
731.90	51.253
732.22	50.000
732.53	48.718
732.85	54.971
733.16	50.000
733.48	51.097
733.80	52.754
734.11	54.294
734.43	50.000
734.74	49.866
735.06	49.471
735.37	45.103
735.69	51.594
736.00	54.128
736.32	46.970
736.63	48.896
736.95	54.037
737.26	51.220
737.58	53.988
737.89	50.904
738.21	49.338
738.52	53.177
738.83	60.440
739.15	54.355
739.46	48.621
739.78	56.122
740.09	48.105
740.41	51.840
740.72	54.286
741.04	57.692
741.35	57.812
741.66	54.545
741.98	62.232
742.29	60.648
742.61	54.867
742.92	55.085
743.23	56.000
743.55	54.717
743.86	54.510
744.18	55.932
744.49	61.570
744.80	63.594
745.12	62.054
745.43	70.093
745.74	64.000
746.06	54.825
746.37	62.791
746.68	63.717
747.00	60.090
747.31	58.824
747.62	53.279
747.94	55.365
748.25	56.031
748.56	55.508
748.88	59.375
749.19	62.791
749.50	59.361
749.82	53.909
750.13	58.103
750.44	49.667
750.75	58.054
751.07	53.947
751.38	51.155
751.69	51.852
752.01	51.748
752.32	51.163
752.63	53.691
752.94	53.497
753.26	62.109
753.57	60.311
753.88	53.933
754.19	53.791
754.51	50.831
754.82	55.369
755.13	48.649
755.44	58.148
755.75	59.107
756.07	52.740
756.38	50.000
756.69	51.562
757.00	52.819
757.31	49.296
757.63	48.209
757.94	47.606
758.25	44.928
758.56	45.538
758.87	46.617
759.18	52.326
759.50	51.672
759.81	45.401
760.12	48.876
760.43	49.300
760.74	47.595
761.05	45.889
761.36	44.531
761.67	47.709
761.99	47.324
762.30	51.125
762.61	51.042
762.92	56.818
763.23	56.604
763.54	51.923
763.85	55.642
764.16	51.042
764.47	46.622
764.78	48.208
765.10	50.000
765.41	46.591
765.72	46.409
766.03	48.640
766.34	50.871
766.65	52.091
766.96	57.490
767.27	59.813
767.58	60.396
767.89	68.508
768.20	75.000
768.51	60.204
768.82	57.018
769.13	49.804
769.44	50.376
769.75	51.685
770.06	55.042
770.37	53.509
770.68	52.000
770.99	59.322
771.30	51.883
771.61	53.846
771.92	52.290
772.23	50.000
772.54	56.000
772.85	57.426
773.16	63.043
773.47	58.333
773.78	54.950
774.09	59.091
774.39	66.061
774.70	56.471
775.01	55.921
775.32	57.764
775.63	63.014
775.94	77.778
776.25	69.655
776.56	71.756
776.87	68.702
777.18	66.667
777.48	81.102
777.79	66.923
778.10	69.697
778.41	67.910
778.72	65.414
779.03	60.256
779.34	64.189
779.65	67.081
779.95	65.839
780.26	63.690
780.57	73.469
780.88	75.177
781.19	75.833
781.50	56.805
781.80	54.645
782.11	54.497
782.42	53.448
782.73	66.102
783.04	55.484
783.34	72.868
783.65	61.224
783.96	64.516
784.27	59.603
784.57	59.868
784.88	68.116
785.19	62.500
785.50	77.586
785.81	73.643
786.11	64.444
786.42	66.142
786.73	81.081
787.04	70.755
787.34	61.789
787.65	75.000
787.96	73.485
788.26	80.315
788.57	73.723
788.88	73.239
789.19	61.832
789.49	68.243
789.80	59.375
790.11	71.901
790.41	80.556
790.72	59.259
791.03	69.231
791.33	70.707
791.64	82.105
791.95	81.053
792.25	84.375
792.56	72.000
792.87	80.488
793.17	64.773
793.48	89.412
793.79	97.701
794.09	81.818
794.40	79.310
794.70	65.873
795.01	64.615
795.32	64.885
795.62	60.684
795.93	74.790
796.23	64.228
796.54	82.653
796.85	82.955
797.15	93.506
797.46	96.341
797.76	80.000
798.07	97.333
798.37	90.000
798.68	77.500
798.99	100.000
799.29	81.333
799.60	75.581
799.90	89.474
800.21	104.545
800.51	92.958
800.82	98.276
801.12	103.077
801.43	101.333
801.73	113.793
802.04	79.221
802.34	83.562
802.65	125.490
802.95	95.652
803.26	95.161
803.56	120.000
803.87	95.522
804.17	93.651
804.48	101.887
804.78	93.056
805.09	96.970
805.39	82.540
805.70	108.772
806.00	90.000
806.30	96.875
806.61	63.529
806.91	82.222
807.22	59.783
807.52	100.000
807.83	98.684
808.13	88.406
808.43	88.710
808.74	93.151
809.04	89.286
809.35	107.353
809.65	107.576
809.95	98.039
810.26	129.630
810.56	98.438
810.86	108.163
811.17	126.316
811.47	100.000
811.77	108.621
812.08	96.552
812.38	123.810
812.69	116.667
812.99	122.222
813.29	154.286
813.59	141.935
813.90	108.621
814.20	113.115
814.50	98.000
814.81	94.737
815.11	116.667
815.41	101.786
815.72	116.071
816.02	96.000
816.32	121.951
816.62	113.793
816.93	151.515
817.23	109.756
817.53	100.000
817.84	117.778
818.14	123.810
818.44	131.250
818.74	101.887
819.04	133.333
819.35	148.485
819.65	117.308
819.95	135.185
820.25	151.064
820.56	140.541
820.86	160.526
821.16	110.638
821.46	121.053
821.76	109.091
822.07	109.524
822.37	131.579
822.67	141.860
822.97	128.947
823.27	121.739
823.57	162.500
823.88	158.974
824.18	112.121
824.48	226.087
824.78	147.222
825.08	182.609
825.38	172.414
825.69	138.235
825.99	112.766
826.29	111.111
826.59	142.857
826.89	153.333
827.19	131.429
827.49	154.839
827.79	176.923
828.09	126.190
828.39	119.444
828.70	113.514
829.00	189.286
829.30	187.500
829.60	147.222
829.90	151.613
830.20	139.394
830.50	154.054
830.80	212.500
831.10	215.385
831.40	219.048
831.70	233.333
832.00	160.000
832.30	252.174
832.60	175.000
832.90	148.485
833.20	260.000
833.50	150.000
833.80	132.353
834.10	131.579
834.40	194.737
834.70	140.000
835.00	176.000
835.30	116.216
835.60	137.500
835.90	162.162
836.20	207.692
836.50	145.455
836.80	121.951
837.10	160.870
837.40	369.231
837.70	242.105
838.00	150.000
838.30	158.333
838.60	184.000
838.90	320.000
839.19	318.750
839.49	176.667
839.79	110.345
840.09	200.000
840.39	213.333
840.69	236.842
840.99	204.762
841.29	239.130
841.59	220.000
841.88	204.000
842.18	311.111
842.48	178.571
842.78	159.259
843.08	207.692
843.38	231.818
843.68	307.143
843.97	457.143
844.27	139.130
844.57	2200.000
844.87	321.429
845.17	288.889
845.47	180.952
845.76	200.000
846.06	742.857
846.36	247.059
846.66	338.462
846.96	343.750
847.25	246.154
847.55	215.789
847.85	177.778
848.15	560.000
848.44	327.273
848.74	195.238
849.04	212.500
849.34	211.765
849.63	231.250
849.93	281.250
850.23	966.667
850.53	487.500
850.82	363.636
851.12	241.176
851.42	229.167
851.71	325.000
852.01	0.000
852.31	252.941
852.61	370.000
852.90	183.333
853.20	488.889
853.50	-1900.000
853.79	212.000
854.09	171.875
854.39	144.828
854.68	175.862
854.98	247.619
855.28	138.710
855.57	335.714
855.87	222.222
856.17	170.370
856.46	231.579
856.76	158.065
857.05	311.765
857.35	318.182
857.65	307.692
857.94	270.000
858.24	555.556
858.53	300.000
858.83	671.429
859.13	213.043
859.42	488.889
859.72	425.000
860.01	191.667
860.31	1075.000
860.60	350.000
860.90	400.000
861.20	269.231
861.49	614.286
861.79	-4300.000
862.08	585.714
862.38	488.889
862.67	214.286
862.97	310.000
863.26	176.667
863.56	1150.000
863.85	353.846
864.15	323.529
864.44	222.222
864.74	366.667
865.03	381.818
865.33	387.500
865.62	246.667
865.92	700.000
866.21	1175.000
866.51	660.000
866.80	327.778
867.10	1066.667
867.39	4300.000
867.69	700.000
867.98	800.000
868.27	195.238
868.57	386.667
868.86	1025.000
869.16	180.952
869.45	3200.000
869.75	-550.000
870.04	825.000
870.33	640.000
870.63	487.500
870.92	241.176
871.22	975.000
871.51	542.857
871.80	366.667
872.10	353.846
>>>>>End Processed Spectral Data<<<<<
