SpectraSuite Data File
++++++++++++++++++++++++++++++++++++
Date: Tue May 12 16:35:33 PDT 2015
User: schluterlab
Dark Spectrum Present: Yes
Reference Spectrum Present: Yes
Number of Sampled Component Spectra: 1
Spectrometers: USB2E3373
Integration Time (usec): 3000 (USB2E3373)
Spectra Averaged: 3 (USB2E3373)
Boxcar Smoothing: 0 (USB2E3373)
Correct for Electrical Dark: No (USB2E3373)
Strobe/Lamp Enabled: No (USB2E3373)
Correct for Detector Non-linearity: No (USB2E3373)
Correct for Stray Light: No (USB2E3373)
Number of Pixels in Processed Spectrum: 2048
>>>>>Begin Processed Spectral Data<<<<<
178.53	0.000
178.91	-233.333
179.29	-800.000
179.67	-3200.000
180.04	-80.000
180.42	775.000
180.80	1600.000
181.18	0.000
181.56	-350.000
181.94	0.000
182.31	933.333
182.69	-2900.000
183.07	528.571
183.45	-3800.000
183.83	-1500.000
184.20	300.000
184.58	557.143
184.96	-269.231
185.34	-183.333
185.72	1750.000
186.09	-750.000
186.47	-3100.000
186.85	1000.000
187.23	740.000
187.61	1550.000
187.98	512.500
188.36	214.286
188.74	308.333
189.12	391.667
189.49	925.000
189.87	0.000
190.25	462.500
190.63	2500.000
191.00	-158.333
191.38	-3200.000
191.76	-825.000
192.14	387.500
192.51	-2200.000
192.89	2150.000
193.27	1300.000
193.65	-1033.333
194.02	-720.000
194.40	528.571
194.78	-150.000
195.15	186.667
195.53	-2400.000
195.91	-320.000
196.29	3100.000
196.66	206.250
197.04	850.000
197.42	-1650.000
197.79	675.000
198.17	291.667
198.55	0.000
198.92	371.429
199.30	1166.667
199.68	2300.000
200.05	633.333
200.43	-466.667
200.81	166.667
201.18	2600.000
201.56	375.000
201.94	-625.000
202.31	-362.500
202.69	-500.000
203.07	3300.000
203.44	-400.000
203.82	333.333
204.19	440.000
204.57	-1700.000
204.95	-650.000
205.32	-620.000
205.70	416.667
206.08	825.000
206.45	-1033.333
206.83	388.889
207.20	173.684
207.58	241.667
207.96	720.000
208.33	0.000
208.71	514.286
209.08	780.000
209.46	-2700.000
209.84	-625.000
210.21	960.000
210.59	-560.000
210.96	291.667
211.34	-900.000
211.71	427.273
212.09	850.000
212.46	1600.000
212.84	-566.667
213.22	466.667
213.59	-3500.000
213.97	390.000
214.34	825.000
214.72	933.333
215.09	900.000
215.47	-3000.000
215.84	-310.000
216.22	-487.500
216.59	0.000
216.97	0.000
217.34	1350.000
217.72	-1250.000
218.09	1066.667
218.47	387.500
218.84	750.000
219.22	733.333
219.59	900.000
219.97	514.286
220.34	411.111
220.72	1500.000
221.09	2900.000
221.47	275.000
221.84	1000.000
222.22	320.000
222.59	238.889
222.97	307.143
223.34	218.750
223.72	-2200.000
224.09	1033.333
224.46	292.308
224.84	-700.000
225.21	377.778
225.59	233.333
225.96	1433.333
226.34	-560.000
226.71	-650.000
227.08	-620.000
227.46	0.000
227.83	-533.333
228.21	-1350.000
228.58	341.667
228.95	725.000
229.33	344.444
229.70	1050.000
230.08	315.385
230.45	3600.000
230.82	-950.000
231.20	-766.667
231.57	-1066.667
231.95	340.000
232.32	283.333
232.69	483.333
233.07	216.667
233.44	-1550.000
233.81	280.000
234.19	133.333
234.56	175.000
234.93	211.765
235.31	165.000
235.68	187.500
236.05	171.429
236.43	170.370
236.80	257.143
237.17	158.621
237.55	125.000
237.92	107.500
238.29	145.455
238.67	90.625
239.04	121.951
239.41	79.167
239.79	95.000
240.16	93.750
240.53	59.016
240.91	72.464
241.28	81.356
241.65	66.667
242.02	70.423
242.40	77.143
242.77	62.637
243.14	70.886
243.51	65.657
243.89	50.467
244.26	51.402
244.63	64.356
245.00	50.459
245.38	37.288
245.75	46.212
246.12	57.778
246.49	43.262
246.87	36.885
247.24	46.667
247.61	40.625
247.98	44.218
248.36	34.545
248.73	40.306
249.10	39.881
249.47	36.500
249.84	33.831
250.22	44.865
250.59	37.500
250.96	37.975
251.33	33.488
251.70	38.393
252.08	33.613
252.45	33.865
252.82	30.038
253.19	34.783
253.56	36.538
253.94	35.145
254.31	32.171
254.68	35.540
255.05	36.552
255.42	34.307
255.79	36.156
256.16	28.136
256.54	34.416
256.91	32.353
257.28	31.438
257.65	29.154
258.02	32.448
258.39	31.232
258.76	32.464
259.14	30.286
259.51	32.070
259.88	33.131
260.25	27.747
260.62	31.233
260.99	30.028
261.36	31.198
261.73	30.851
262.10	29.581
262.47	28.250
262.85	26.133
263.22	31.620
263.59	30.691
263.96	32.331
264.33	28.395
264.70	31.450
265.07	29.024
265.44	30.963
265.81	29.009
266.18	32.265
266.55	28.132
266.92	29.754
267.29	31.140
267.66	24.888
268.03	30.717
268.40	29.598
268.77	29.736
269.14	29.935
269.51	30.735
269.88	30.816
270.25	27.646
270.62	28.755
270.99	30.629
271.36	29.675
271.73	25.157
272.10	27.677
272.47	27.183
272.84	27.944
273.21	26.240
273.58	27.935
273.95	26.283
274.32	30.350
274.69	28.937
275.06	28.233
275.43	27.203
275.80	27.358
276.17	27.941
276.54	27.103
276.91	29.291
277.28	26.642
277.65	28.229
278.02	29.596
278.39	27.878
278.76	27.414
279.13	26.335
279.50	26.364
279.87	27.002
280.23	24.862
280.60	27.920
280.97	27.586
281.34	26.568
281.71	27.652
282.08	26.667
282.45	25.845
282.82	25.753
283.19	25.437
283.56	25.620
283.92	27.199
284.29	25.458
284.66	26.723
285.03	27.529
285.40	25.620
285.77	22.840
286.14	26.161
286.51	24.693
286.87	24.367
287.24	24.474
287.61	24.924
287.98	25.522
288.35	23.852
288.72	24.431
289.08	25.676
289.45	24.695
289.82	25.156
290.19	23.280
290.56	25.036
290.93	24.892
291.29	22.238
291.66	21.469
292.03	24.123
292.40	22.087
292.77	22.563
293.13	22.967
293.50	21.323
293.87	21.003
294.24	23.357
294.60	20.996
294.97	23.217
295.34	22.178
295.71	21.419
296.08	22.000
296.44	20.839
296.81	21.216
297.18	20.913
297.55	20.567
297.91	20.690
298.28	20.531
298.65	20.736
299.02	20.748
299.38	20.863
299.75	19.634
300.12	20.183
300.48	19.672
300.85	20.381
301.22	20.465
301.59	18.750
301.95	19.837
302.32	20.605
302.69	20.249
303.05	22.222
303.42	20.067
303.79	20.260
304.15	19.582
304.52	19.873
304.89	19.083
305.25	20.133
305.62	20.043
305.99	19.022
306.35	19.474
306.72	19.459
307.09	19.048
307.45	18.585
307.82	17.695
308.19	18.660
308.55	18.200
308.92	20.118
309.29	18.146
309.65	19.227
310.02	19.270
310.38	17.547
310.75	18.419
311.12	18.774
311.48	19.112
311.85	18.798
312.22	18.434
312.58	19.048
312.95	17.573
313.31	19.288
313.68	17.355
314.05	18.132
314.41	18.436
314.78	17.708
315.14	18.483
315.51	18.165
315.87	17.883
316.24	18.394
316.61	17.726
316.97	17.064
317.34	18.239
317.70	18.964
318.07	18.149
318.43	18.014
318.80	17.863
319.16	17.395
319.53	18.142
319.89	16.667
320.26	17.691
320.62	18.040
320.99	18.398
321.35	17.625
321.72	17.268
322.08	18.098
322.45	17.348
322.81	17.841
323.18	17.496
323.54	18.118
323.91	17.588
324.27	17.330
324.64	16.436
325.00	17.931
325.37	17.201
325.73	16.779
326.10	17.481
326.46	18.249
326.83	17.280
327.19	17.751
327.56	16.534
327.92	17.049
328.29	18.085
328.65	17.894
329.01	18.050
329.38	17.259
329.74	17.079
330.11	17.811
330.47	17.306
330.84	16.221
331.20	17.343
331.56	18.394
331.93	17.536
332.29	15.731
332.66	17.177
333.02	16.495
333.38	17.801
333.75	17.681
334.11	16.695
334.48	17.436
334.84	16.639
335.20	17.109
335.57	16.037
335.93	16.821
336.29	16.667
336.66	17.496
337.02	15.740
337.38	17.713
337.75	17.399
338.11	16.624
338.47	17.189
338.84	16.003
339.20	15.238
339.56	16.484
339.93	16.555
340.29	15.294
340.65	16.848
341.02	17.056
341.38	17.570
341.74	15.532
342.11	15.776
342.47	16.571
342.83	15.915
343.20	16.977
343.56	14.932
343.92	15.442
344.28	16.188
344.65	16.381
345.01	15.317
345.37	16.106
345.73	16.111
346.10	15.458
346.46	16.427
346.82	15.509
347.19	17.002
347.55	14.832
347.91	16.012
348.27	14.717
348.63	15.348
349.00	15.842
349.36	15.953
349.72	15.902
350.08	15.994
350.45	16.756
350.81	15.443
351.17	14.715
351.53	14.858
351.89	16.317
352.26	15.646
352.62	16.063
352.98	15.721
353.34	15.871
353.70	14.297
354.07	15.308
354.43	15.361
354.79	15.110
355.15	15.697
355.51	15.710
355.87	15.211
356.24	16.089
356.60	14.384
356.96	14.177
357.32	15.750
357.68	15.639
358.04	15.805
358.40	16.042
358.77	15.928
359.13	14.339
359.49	15.196
359.85	14.445
360.21	14.413
360.57	15.766
360.93	14.935
361.29	15.079
361.66	16.182
362.02	14.560
362.38	15.512
362.74	14.862
363.10	15.288
363.46	14.019
363.82	15.638
364.18	15.078
364.54	16.094
364.90	15.395
365.26	15.614
365.62	15.608
365.98	14.591
366.35	14.276
366.71	15.128
367.07	14.881
367.43	15.984
367.79	14.827
368.15	14.247
368.51	15.644
368.87	14.334
369.23	15.315
369.59	14.295
369.95	15.315
370.31	14.511
370.67	15.059
371.03	15.196
371.39	14.751
371.75	14.794
372.11	14.956
372.47	15.342
372.83	14.956
373.19	14.805
373.55	15.464
373.91	14.227
374.27	14.220
374.63	14.915
374.99	14.420
375.35	14.919
375.71	15.106
376.07	13.926
376.42	14.578
376.78	14.836
377.14	14.941
377.50	14.482
377.86	14.542
378.22	14.381
378.58	14.649
378.94	14.605
379.30	14.069
379.66	14.690
380.02	14.018
380.38	13.642
380.74	14.245
381.09	14.428
381.45	13.237
381.81	14.303
382.17	14.042
382.53	14.697
382.89	14.607
383.25	13.914
383.61	14.236
383.97	13.017
384.32	14.045
384.68	15.567
385.04	14.537
385.40	14.413
385.76	14.804
386.12	13.667
386.48	14.650
386.83	14.548
387.19	14.134
387.55	14.723
387.91	14.665
388.27	14.218
388.62	14.085
388.98	14.461
389.34	14.337
389.70	14.446
390.06	14.573
390.42	14.621
390.77	14.066
391.13	14.243
391.49	14.519
391.85	14.585
392.20	14.720
392.56	14.695
392.92	14.318
393.28	14.294
393.64	13.188
393.99	13.693
394.35	14.067
394.71	13.752
395.07	13.443
395.42	14.052
395.78	14.744
396.14	14.277
396.50	13.117
396.85	13.780
397.21	13.718
397.57	14.585
397.92	13.634
398.28	13.514
398.64	14.718
399.00	13.789
399.35	14.010
399.71	14.459
400.07	13.927
400.42	13.970
400.78	13.490
401.14	14.093
401.49	13.537
401.85	14.600
402.21	14.353
402.57	13.884
402.92	14.061
403.28	13.723
403.63	14.126
403.99	13.932
404.35	14.889
404.70	14.589
405.06	13.756
405.42	13.764
405.77	13.396
406.13	13.557
406.49	13.587
406.84	13.875
407.20	13.984
407.55	13.846
407.91	14.231
408.27	14.979
408.62	13.779
408.98	13.956
409.34	13.150
409.69	14.126
410.05	13.655
410.40	13.369
410.76	13.852
411.11	13.507
411.47	13.519
411.83	13.708
412.18	13.587
412.54	13.634
412.89	13.510
413.25	14.310
413.60	13.551
413.96	13.704
414.31	13.695
414.67	14.339
415.03	13.665
415.38	13.565
415.74	13.961
416.09	14.179
416.45	14.738
416.80	14.240
417.16	14.195
417.51	14.331
417.87	13.830
418.22	14.824
418.58	13.439
418.93	14.456
419.29	13.555
419.64	14.718
420.00	14.379
420.35	13.821
420.71	13.652
421.06	13.949
421.42	13.759
421.77	14.381
422.12	13.506
422.48	13.457
422.83	14.397
423.19	13.931
423.54	13.988
423.90	14.326
424.25	14.089
424.61	13.755
424.96	13.834
425.31	13.465
425.67	13.636
426.02	13.685
426.38	13.127
426.73	13.302
427.09	13.938
427.44	13.900
427.79	13.665
428.15	14.909
428.50	14.800
428.85	14.521
429.21	14.803
429.56	13.609
429.92	13.625
430.27	13.498
430.62	13.558
430.98	13.822
431.33	13.710
431.68	13.086
432.04	14.485
432.39	14.050
432.74	14.461
433.10	13.455
433.45	13.785
433.80	14.617
434.16	13.715
434.51	13.932
434.86	14.807
435.22	14.371
435.57	14.049
435.92	14.855
436.28	14.459
436.63	14.317
436.98	14.527
437.34	15.411
437.69	13.550
438.04	14.570
438.39	14.419
438.75	14.087
439.10	13.923
439.45	15.150
439.81	15.269
440.16	14.034
440.51	13.964
440.86	15.043
441.22	13.690
441.57	14.016
441.92	14.215
442.27	14.278
442.63	13.465
442.98	14.655
443.33	14.515
443.68	14.789
444.03	14.939
444.39	14.313
444.74	14.286
445.09	13.955
445.44	14.187
445.79	14.230
446.15	14.842
446.50	13.660
446.85	14.243
447.20	14.229
447.55	14.519
447.91	14.811
448.26	14.377
448.61	14.870
448.96	14.216
449.31	14.686
449.66	15.338
450.02	13.992
450.37	14.547
450.72	15.152
451.07	15.474
451.42	15.116
451.77	15.292
452.12	14.861
452.47	15.796
452.83	14.986
453.18	15.195
453.53	15.335
453.88	15.371
454.23	15.398
454.58	15.093
454.93	15.021
455.28	15.483
455.63	14.835
455.98	15.454
456.34	15.380
456.69	15.061
457.04	16.468
457.39	15.029
457.74	15.315
458.09	15.385
458.44	14.841
458.79	15.066
459.14	14.839
459.49	15.515
459.84	15.380
460.19	15.650
460.54	15.385
460.89	15.032
461.24	14.490
461.59	15.646
461.94	14.716
462.29	15.160
462.64	15.892
462.99	15.867
463.34	16.073
463.69	16.757
464.04	15.314
464.39	15.512
464.74	15.182
465.09	15.438
465.44	15.452
465.79	15.188
466.14	15.686
466.49	15.247
466.84	15.663
467.19	15.524
467.54	15.736
467.89	15.904
468.24	15.460
468.59	15.060
468.94	15.640
469.29	15.761
469.64	15.756
469.99	15.874
470.34	16.572
470.68	16.000
471.03	16.478
471.38	16.689
471.73	16.133
472.08	16.830
472.43	16.325
472.78	16.133
473.13	15.332
473.48	16.443
473.83	16.196
474.17	16.292
474.52	15.284
474.87	15.861
475.22	15.934
475.57	15.058
475.92	15.023
476.27	14.635
476.61	15.013
476.96	15.778
477.31	16.093
477.66	15.942
478.01	15.781
478.36	16.220
478.70	15.434
479.05	15.324
479.40	15.476
479.75	16.783
480.10	15.586
480.45	14.893
480.79	15.530
481.14	15.169
481.49	15.142
481.84	15.172
482.19	15.284
482.53	15.415
482.88	15.412
483.23	15.246
483.58	15.575
483.92	16.179
484.27	15.753
484.62	15.238
484.97	14.686
485.31	14.301
485.66	13.943
486.01	13.318
486.36	13.220
486.70	13.184
487.05	13.604
487.40	14.055
487.75	14.160
488.09	14.148
488.44	14.149
488.79	13.988
489.13	14.894
489.48	15.461
489.83	15.096
490.17	15.896
490.52	15.289
490.87	15.302
491.22	16.179
491.56	16.206
491.91	15.188
492.26	15.857
492.60	15.490
492.95	14.998
493.30	15.924
493.64	15.858
493.99	16.458
494.34	16.002
494.68	15.582
495.03	16.435
495.37	15.894
495.72	16.177
496.07	15.454
496.41	15.856
496.76	16.547
497.11	15.596
497.45	15.432
497.80	16.126
498.14	16.043
498.49	16.156
498.84	16.449
499.18	15.219
499.53	15.939
499.87	15.813
500.22	15.707
500.56	16.481
500.91	16.744
501.26	16.399
501.60	15.392
501.95	15.995
502.29	15.556
502.64	15.571
502.98	15.607
503.33	15.813
503.67	16.026
504.02	15.226
504.36	15.928
504.71	16.320
505.06	16.424
505.40	16.799
505.75	15.809
506.09	16.426
506.44	15.977
506.78	16.399
507.13	16.287
507.47	16.303
507.82	16.886
508.16	17.148
508.51	16.618
508.85	16.097
509.19	17.083
509.54	16.699
509.88	16.609
510.23	16.667
510.57	16.120
510.92	17.133
511.26	16.416
511.61	16.297
511.95	17.571
512.30	17.100
512.64	15.940
512.98	16.351
513.33	16.752
513.67	16.882
514.02	16.623
514.36	16.771
514.70	16.640
515.05	16.782
515.39	17.379
515.74	16.785
516.08	17.593
516.42	17.432
516.77	16.960
517.11	16.747
517.46	17.457
517.80	16.876
518.14	18.197
518.49	16.979
518.83	16.374
519.17	16.639
519.52	17.531
519.86	17.112
520.20	17.425
520.55	17.411
520.89	17.586
521.23	17.290
521.58	16.810
521.92	17.026
522.26	17.239
522.61	17.528
522.95	17.598
523.29	18.129
523.64	16.590
523.98	18.369
524.32	17.243
524.66	17.391
525.01	18.047
525.35	17.384
525.69	18.663
526.04	18.322
526.38	17.893
526.72	18.258
527.06	16.795
527.41	19.287
527.75	17.712
528.09	17.098
528.43	18.060
528.78	17.889
529.12	17.279
529.46	16.891
529.80	17.582
530.15	17.855
530.49	16.968
530.83	17.733
531.17	17.097
531.51	18.148
531.86	17.572
532.20	16.007
532.54	17.326
532.88	17.177
533.22	18.221
533.57	17.450
533.91	16.841
534.25	16.619
534.59	17.368
534.93	16.780
535.27	17.131
535.62	16.744
535.96	16.785
536.30	17.489
536.64	16.335
536.98	17.369
537.32	17.250
537.66	17.092
538.01	17.957
538.35	18.278
538.69	16.505
539.03	16.604
539.37	17.051
539.71	17.284
540.05	17.477
540.39	17.925
540.73	17.215
541.07	17.754
541.42	16.729
541.76	16.769
542.10	17.386
542.44	17.706
542.78	17.495
543.12	16.564
543.46	16.604
543.80	17.231
544.14	17.461
544.48	17.092
544.82	17.187
545.16	17.122
545.50	18.132
545.84	17.614
546.18	17.815
546.52	17.902
546.86	17.988
547.20	16.990
547.54	16.656
547.88	17.457
548.22	17.061
548.56	16.559
548.90	17.319
549.24	17.435
549.58	17.010
549.92	17.092
550.26	17.444
550.60	17.232
550.94	17.436
551.28	18.345
551.62	17.172
551.96	17.500
552.30	17.337
552.64	18.058
552.98	16.559
553.32	16.773
553.66	16.547
554.00	17.375
554.34	17.843
554.68	17.944
555.02	17.515
555.36	17.287
555.69	17.277
556.03	17.261
556.37	16.762
556.71	18.188
557.05	16.383
557.39	17.333
557.73	17.655
558.07	19.316
558.41	18.026
558.75	17.784
559.08	18.370
559.42	18.325
559.76	18.389
560.10	18.032
560.44	17.452
560.78	18.542
561.12	17.864
561.45	17.835
561.79	16.792
562.13	16.740
562.47	17.391
562.81	17.827
563.15	17.065
563.48	16.025
563.82	18.029
564.16	16.667
564.50	16.576
564.84	17.325
565.17	17.706
565.51	17.796
565.85	17.643
566.19	17.560
566.52	17.449
566.86	17.747
567.20	17.247
567.54	16.048
567.88	17.684
568.21	16.326
568.55	16.196
568.89	16.104
569.23	15.531
569.56	15.256
569.90	15.092
570.24	14.446
570.57	14.504
570.91	14.165
571.25	14.591
571.59	13.847
571.92	13.671
572.26	13.154
572.60	13.441
572.93	14.290
573.27	13.670
573.61	13.644
573.95	13.272
574.28	13.548
574.62	13.204
574.96	13.314
575.29	13.199
575.63	13.074
575.97	12.877
576.30	13.009
576.64	13.306
576.98	13.141
577.31	13.371
577.65	13.286
577.98	12.661
578.32	12.502
578.66	12.967
578.99	13.258
579.33	13.058
579.67	13.016
580.00	12.749
580.34	12.763
580.67	12.707
581.01	13.364
581.35	12.980
581.68	12.459
582.02	12.638
582.35	12.448
582.69	13.025
583.02	12.941
583.36	13.183
583.70	13.419
584.03	13.398
584.37	13.478
584.70	13.237
585.04	12.943
585.37	12.940
585.71	12.899
586.04	13.249
586.38	13.311
586.72	13.308
587.05	13.845
587.39	13.578
587.72	13.711
588.06	13.658
588.39	13.511
588.73	13.838
589.06	13.890
589.40	14.304
589.73	14.028
590.07	14.345
590.40	14.774
590.73	14.726
591.07	15.332
591.40	14.810
591.74	14.732
592.07	14.434
592.41	15.308
592.74	14.171
593.08	13.802
593.41	13.615
593.75	13.675
594.08	14.167
594.41	14.174
594.75	14.521
595.08	14.678
595.42	14.286
595.75	13.886
596.09	14.564
596.42	14.421
596.75	15.545
597.09	15.394
597.42	14.898
597.75	14.483
598.09	14.895
598.42	15.177
598.76	15.035
599.09	14.895
599.42	14.671
599.76	14.247
600.09	13.898
600.42	14.365
600.76	14.616
601.09	14.912
601.42	13.798
601.76	14.142
602.09	15.232
602.42	14.677
602.76	14.763
603.09	14.555
603.42	14.862
603.76	14.100
604.09	14.441
604.42	14.614
604.76	14.461
605.09	14.857
605.42	14.425
605.75	14.607
606.09	14.461
606.42	14.393
606.75	14.924
607.09	14.291
607.42	14.383
607.75	15.207
608.08	14.744
608.42	15.059
608.75	15.062
609.08	14.562
609.41	15.545
609.75	14.973
610.08	15.468
610.41	15.108
610.74	15.065
611.07	15.280
611.41	15.894
611.74	15.392
612.07	15.366
612.40	15.692
612.73	15.527
613.07	15.459
613.40	16.591
613.73	15.427
614.06	15.750
614.39	16.010
614.72	15.620
615.06	14.886
615.39	15.594
615.72	15.053
616.05	15.972
616.38	15.779
616.71	16.007
617.05	15.706
617.38	16.011
617.71	16.254
618.04	16.096
618.37	16.732
618.70	16.397
619.03	15.751
619.36	17.211
619.69	16.557
620.03	18.069
620.36	17.534
620.69	17.944
621.02	18.478
621.35	17.479
621.68	16.814
622.01	18.007
622.34	17.043
622.67	17.486
623.00	17.018
623.33	18.084
623.66	17.565
623.99	17.671
624.32	17.480
624.65	16.261
624.99	16.971
625.32	17.635
625.65	16.414
625.98	16.179
626.31	18.249
626.64	17.920
626.97	18.822
627.30	18.634
627.63	17.975
627.96	17.293
628.29	18.647
628.62	17.879
628.95	20.035
629.28	19.807
629.61	19.332
629.94	19.533
630.26	19.671
630.59	20.656
630.92	20.000
631.25	19.220
631.58	19.961
631.91	20.742
632.24	18.270
632.57	18.566
632.90	21.118
633.23	22.875
633.56	20.548
633.89	20.043
634.22	20.990
634.55	21.720
634.88	21.906
635.20	20.740
635.53	19.861
635.86	22.148
636.19	20.875
636.52	20.108
636.85	19.849
637.18	21.668
637.51	20.670
637.83	19.108
638.16	20.750
638.49	20.958
638.82	21.831
639.15	20.917
639.48	20.616
639.81	22.100
640.13	21.595
640.46	21.618
640.79	21.456
641.12	20.997
641.45	23.286
641.77	21.929
642.10	23.025
642.43	23.186
642.76	22.301
643.09	21.902
643.41	22.861
643.74	24.604
644.07	22.124
644.40	22.189
644.73	23.724
645.05	22.140
645.38	23.277
645.71	23.065
646.04	26.107
646.36	21.596
646.69	24.320
647.02	24.800
647.35	23.465
647.67	23.015
648.00	24.430
648.33	21.353
648.66	23.030
648.98	21.739
649.31	21.862
649.64	21.024
649.96	20.910
650.29	21.571
650.62	23.270
650.94	24.096
651.27	23.764
651.60	23.318
651.92	23.656
652.25	21.890
652.58	21.986
652.90	23.952
653.23	22.304
653.56	24.481
653.88	21.586
654.21	22.727
654.54	22.255
654.86	22.124
655.19	23.219
655.52	18.825
655.84	11.125
656.17	12.798
656.49	18.296
656.82	21.395
657.15	17.163
657.47	12.894
657.80	9.531
658.13	7.507
658.45	10.232
658.78	12.134
659.10	12.234
659.43	12.654
659.75	13.760
660.08	14.035
660.41	17.332
660.73	21.455
661.06	20.270
661.38	25.894
661.71	22.842
662.03	23.194
662.36	24.571
662.68	25.512
663.01	26.306
663.33	25.660
663.66	26.233
663.98	24.603
664.31	24.067
664.63	25.096
664.96	27.205
665.28	25.612
665.61	23.019
665.93	25.283
666.26	25.234
666.58	24.954
666.91	26.255
667.23	23.695
667.56	27.721
667.88	25.726
668.21	25.615
668.53	25.202
668.86	26.052
669.18	29.328
669.50	26.446
669.83	25.667
670.15	25.572
670.48	24.023
670.80	24.502
671.13	22.112
671.45	26.653
671.77	26.345
672.10	25.673
672.42	22.204
672.75	23.418
673.07	21.940
673.39	21.725
673.72	22.837
674.04	25.806
674.37	24.319
674.69	22.862
675.01	25.373
675.34	22.868
675.66	25.781
675.98	26.233
676.31	22.200
676.63	22.863
676.95	26.389
677.28	25.558
677.60	26.559
677.92	23.016
678.25	23.450
678.57	26.443
678.89	24.051
679.22	25.368
679.54	22.954
679.86	24.956
680.18	23.199
680.51	23.051
680.83	22.466
681.15	25.997
681.48	26.389
681.80	22.417
682.12	24.048
682.44	23.063
682.77	24.199
683.09	22.913
683.41	25.714
683.73	25.787
684.06	25.000
684.38	24.031
684.70	25.540
685.02	20.486
685.34	23.239
685.67	23.633
685.99	21.675
686.31	21.726
686.63	22.276
686.96	22.386
687.28	21.309
687.60	22.355
687.92	22.613
688.24	26.034
688.56	21.708
688.89	19.503
689.21	22.543
689.53	25.296
689.85	22.764
690.17	25.243
690.49	25.202
690.82	23.739
691.14	24.646
691.46	25.051
691.78	25.341
692.10	23.092
692.42	20.871
692.74	25.000
693.06	23.643
693.39	20.751
693.71	24.361
694.03	24.260
694.35	25.703
694.67	23.422
694.99	25.277
695.31	25.000
695.63	27.149
695.95	24.434
696.27	26.991
696.59	27.685
696.91	25.823
697.23	23.982
697.56	23.237
697.88	21.158
698.20	24.717
698.52	20.039
698.84	23.819
699.16	24.947
699.48	26.695
699.80	25.708
700.12	29.099
700.44	26.869
700.76	25.298
701.08	26.110
701.40	26.753
701.72	28.877
702.04	31.707
702.36	25.538
702.68	29.787
703.00	26.065
703.32	29.032
703.64	25.945
703.96	24.479
704.28	29.365
704.60	27.606
704.91	26.611
705.23	28.409
705.55	26.706
705.87	28.571
706.19	29.781
706.51	34.169
706.83	27.434
707.15	28.075
707.47	25.908
707.79	24.138
708.11	24.943
708.43	22.921
708.74	24.434
709.06	24.651
709.38	26.551
709.70	26.158
710.02	25.000
710.34	26.796
710.66	27.778
710.98	29.508
711.29	25.905
711.61	27.019
711.93	28.267
712.25	26.205
712.57	26.688
712.89	30.303
713.20	27.796
713.52	29.907
713.84	26.586
714.16	24.638
714.48	25.072
714.80	27.913
715.11	26.862
715.43	27.933
715.75	25.352
716.07	26.879
716.39	29.429
716.70	27.414
717.02	26.599
717.34	31.295
717.66	30.903
717.97	34.470
718.29	30.634
718.61	27.365
718.93	26.298
719.24	32.550
719.56	29.310
719.88	26.115
720.20	30.323
720.51	27.778
720.83	29.097
721.15	29.932
721.46	27.740
721.78	27.875
722.10	31.250
722.42	34.448
722.73	25.632
723.05	31.579
723.37	30.742
723.68	28.516
724.00	30.682
724.32	34.601
724.63	32.692
724.95	32.941
725.27	28.996
725.58	28.309
725.90	30.282
726.22	26.712
726.53	30.435
726.85	27.036
727.16	28.859
727.48	27.575
727.80	31.655
728.11	26.786
728.43	27.174
728.74	30.070
729.06	26.882
729.38	28.421
729.69	31.333
730.01	30.592
730.32	32.886
730.64	29.900
730.96	29.730
731.27	22.324
731.59	21.552
731.90	23.677
732.22	23.143
732.53	24.501
732.85	27.485
733.16	25.301
733.48	27.273
733.80	25.797
734.11	28.834
734.43	24.854
734.74	23.592
735.06	25.661
735.37	22.938
735.69	24.928
736.00	27.217
736.32	24.242
736.63	23.028
736.95	23.602
737.26	25.610
737.58	22.699
737.89	29.217
738.21	27.815
738.52	25.084
738.83	32.601
739.15	30.314
739.46	24.828
739.78	29.252
740.09	24.198
740.41	25.767
740.72	30.476
741.04	31.119
741.35	27.344
741.66	28.458
741.98	30.043
742.29	32.407
742.61	30.088
742.92	34.322
743.23	29.600
743.55	26.415
743.86	31.373
744.18	32.627
744.49	30.165
744.80	35.945
745.12	26.786
745.43	30.374
745.74	40.889
746.06	31.140
746.37	34.884
746.68	36.283
747.00	30.045
747.31	30.672
747.62	29.918
747.94	29.614
748.25	22.957
748.56	30.932
748.88	22.321
749.19	31.628
749.50	27.397
749.82	32.510
750.13	29.249
750.44	28.000
750.75	26.846
751.07	27.961
751.38	28.713
751.69	25.589
752.01	29.720
752.32	26.578
752.63	27.517
752.94	25.874
753.26	29.297
753.57	29.572
753.88	27.341
754.19	29.242
754.51	27.243
754.82	28.188
755.13	28.716
755.44	24.444
755.75	28.522
756.07	32.192
756.38	26.144
756.69	27.500
757.00	27.596
757.31	27.606
757.63	23.416
757.94	22.872
758.25	24.155
758.56	21.510
758.87	23.308
759.18	27.035
759.50	26.444
759.81	23.442
760.12	25.843
760.43	26.050
760.74	23.544
761.05	21.751
761.36	19.792
761.67	25.876
761.99	25.915
762.30	25.723
762.61	27.431
762.92	27.652
763.23	35.472
763.54	26.538
763.85	26.070
764.16	30.556
764.47	23.986
764.78	22.801
765.10	23.476
765.41	24.148
765.72	22.099
766.03	21.752
766.34	23.693
766.65	27.757
766.96	27.530
767.27	33.178
767.58	30.198
767.89	38.674
768.20	35.976
768.51	28.571
768.82	35.965
769.13	30.588
769.44	26.692
769.75	27.715
770.06	33.613
770.37	26.754
770.68	29.333
770.99	31.356
771.30	31.799
771.61	31.923
771.92	23.664
772.23	25.000
772.54	36.444
772.85	32.178
773.16	27.717
773.47	34.444
773.78	35.149
774.09	31.250
774.39	40.000
774.70	31.765
775.01	34.868
775.32	36.646
775.63	36.986
775.94	44.444
776.25	41.379
776.56	40.458
776.87	43.511
777.18	40.152
777.48	48.031
777.79	36.154
778.10	42.424
778.41	48.507
778.72	39.850
779.03	35.256
779.34	38.514
779.65	36.025
779.95	42.236
780.26	30.357
780.57	37.415
780.88	39.716
781.19	39.167
781.50	39.053
781.80	32.787
782.11	28.571
782.42	27.586
782.73	36.723
783.04	43.226
783.34	36.434
783.65	37.415
783.96	40.645
784.27	37.748
784.57	28.289
784.88	40.580
785.19	42.500
785.50	45.690
785.81	44.961
786.11	40.741
786.42	47.244
786.73	40.541
787.04	37.736
787.34	35.772
787.65	43.939
787.96	39.394
788.26	47.244
788.57	46.715
788.88	38.028
789.19	38.168
789.49	38.514
789.80	38.281
790.11	42.149
790.41	42.593
790.72	45.370
791.03	42.308
791.33	50.505
791.64	57.895
791.95	51.579
792.25	47.917
792.56	47.000
792.87	56.098
793.17	52.273
793.48	47.059
793.79	43.678
794.09	44.318
794.40	43.103
794.70	47.619
795.01	32.308
795.32	47.328
795.62	31.624
795.93	47.899
796.23	44.715
796.54	56.122
796.85	60.227
797.15	70.130
797.46	68.293
797.76	55.000
798.07	65.333
798.37	48.750
798.68	67.500
798.99	63.415
799.29	50.667
799.60	31.395
799.90	63.158
800.21	69.697
800.51	53.521
800.82	67.241
801.12	64.615
801.43	68.000
801.73	60.345
802.04	53.247
802.34	65.753
802.65	98.039
802.95	65.217
803.26	82.258
803.56	95.000
803.87	77.612
804.17	92.063
804.48	54.717
804.78	68.056
805.09	89.394
805.39	55.556
805.70	94.737
806.00	62.857
806.30	71.875
806.61	55.294
806.91	42.222
807.22	50.000
807.52	64.474
807.83	59.211
808.13	60.870
808.43	69.355
808.74	73.973
809.04	67.857
809.35	64.706
809.65	59.091
809.95	88.235
810.26	77.778
810.56	78.125
810.86	75.510
811.17	82.456
811.47	80.435
811.77	67.241
812.08	46.552
812.38	69.048
812.69	88.095
812.99	91.111
813.29	105.714
813.59	109.677
813.90	70.690
814.20	78.689
814.50	66.000
814.81	71.930
815.11	72.222
815.41	76.786
815.72	83.929
816.02	86.000
816.32	97.561
816.62	79.310
816.93	106.061
817.23	92.683
817.53	89.286
817.84	80.000
818.14	88.095
818.44	81.250
818.74	69.811
819.04	89.744
819.35	103.030
819.65	94.231
819.95	107.407
820.25	112.766
820.56	143.243
820.86	102.632
821.16	85.106
821.46	94.737
821.76	76.364
822.07	95.238
822.37	92.105
822.67	76.744
822.97	78.947
823.27	84.783
823.57	109.375
823.88	87.179
824.18	93.939
824.48	117.391
824.78	119.444
825.08	152.174
825.38	110.345
825.69	105.882
825.99	68.085
826.29	80.556
826.59	108.571
826.89	143.333
827.19	80.000
827.49	125.806
827.79	123.077
828.09	107.143
828.39	108.333
828.70	91.892
829.00	142.857
829.30	143.750
829.60	100.000
829.90	135.484
830.20	93.939
830.50	148.649
830.80	137.500
831.10	153.846
831.40	133.333
831.70	162.500
832.00	113.333
832.30	152.174
832.60	166.667
832.90	148.485
833.20	175.000
833.50	107.895
833.80	114.706
834.10	105.263
834.40	173.684
834.70	73.333
835.00	192.000
835.30	102.703
835.60	115.625
835.90	118.919
836.20	146.154
836.50	77.273
836.80	80.488
837.10	152.174
837.40	284.615
837.70	147.368
838.00	156.667
838.30	158.333
838.60	116.000
838.90	350.000
839.19	206.250
839.49	120.000
839.79	134.483
840.09	130.769
840.39	200.000
840.69	184.211
840.99	119.048
841.29	160.870
841.59	155.000
841.88	192.000
842.18	222.222
842.48	153.571
842.78	155.556
843.08	192.308
843.38	213.636
843.68	221.429
843.97	485.714
844.27	147.826
844.57	1400.000
844.87	271.429
845.17	216.667
845.47	157.143
845.76	175.000
846.06	457.143
846.36	211.765
846.66	284.615
846.96	187.500
847.25	261.538
847.55	200.000
847.85	205.556
848.15	580.000
848.44	345.455
848.74	119.048
849.04	133.333
849.34	152.941
849.63	237.500
849.93	256.250
850.23	833.333
850.53	350.000
850.82	281.818
851.12	141.176
851.42	158.333
851.71	218.750
852.01	0.000
852.31	217.647
852.61	440.000
852.90	162.500
853.20	311.111
853.50	-1700.000
853.79	132.000
854.09	162.500
854.39	89.655
854.68	148.276
854.98	190.476
855.28	116.129
855.57	264.286
855.87	166.667
856.17	100.000
856.46	142.105
856.76	90.323
857.05	188.235
857.35	300.000
857.65	230.769
857.94	130.000
858.24	366.667
858.53	257.143
858.83	600.000
859.13	143.478
859.42	344.444
859.72	437.500
860.01	233.333
860.31	825.000
860.60	340.000
860.90	462.500
861.20	269.231
861.49	514.286
861.79	-2800.000
862.08	471.429
862.38	400.000
862.67	264.286
862.97	350.000
863.26	116.667
863.56	950.000
863.85	315.385
864.15	217.647
864.44	177.778
864.74	283.333
865.03	245.455
865.33	312.500
865.62	226.667
865.92	550.000
866.21	800.000
866.51	420.000
866.80	138.889
867.10	933.333
867.39	2500.000
867.69	600.000
867.98	500.000
868.27	152.381
868.57	273.333
868.86	850.000
869.16	119.048
869.45	2000.000
869.75	-450.000
870.04	625.000
870.33	560.000
870.63	362.500
870.92	211.765
871.22	750.000
871.51	342.857
871.80	358.333
872.10	223.077
>>>>>End Processed Spectral Data<<<<<
