SpectraSuite Data File
++++++++++++++++++++++++++++++++++++
Date: Tue May 12 17:17:32 PDT 2015
User: schluterlab
Dark Spectrum Present: Yes
Reference Spectrum Present: Yes
Number of Sampled Component Spectra: 1
Spectrometers: USB2E3373
Integration Time (usec): 3000 (USB2E3373)
Spectra Averaged: 3 (USB2E3373)
Boxcar Smoothing: 0 (USB2E3373)
Correct for Electrical Dark: No (USB2E3373)
Strobe/Lamp Enabled: No (USB2E3373)
Correct for Detector Non-linearity: No (USB2E3373)
Correct for Stray Light: No (USB2E3373)
Number of Pixels in Processed Spectrum: 2048
>>>>>Begin Processed Spectral Data<<<<<
178.53	0.000
178.91	-208.333
179.29	-550.000
179.67	-3600.000
180.04	-146.667
180.42	875.000
180.80	1800.000
181.18	0.000
181.56	-225.000
181.94	0.000
182.31	1033.333
182.69	-3500.000
183.07	585.714
183.45	-3500.000
183.83	-1500.000
184.20	330.000
184.58	485.714
184.96	-184.615
185.34	-208.333
185.72	2100.000
186.09	-950.000
186.47	-3500.000
186.85	933.333
187.23	580.000
187.61	1350.000
187.98	387.500
188.36	278.571
188.74	366.667
189.12	366.667
189.49	850.000
189.87	0.000
190.25	462.500
190.63	2800.000
191.00	-183.333
191.38	-3300.000
191.76	-750.000
192.14	637.500
192.51	-3100.000
192.89	2000.000
193.27	1166.667
193.65	-866.667
194.02	-640.000
194.40	457.143
194.78	-228.571
195.15	266.667
195.53	-3400.000
195.91	-640.000
196.29	4300.000
196.66	243.750
197.04	875.000
197.42	-1500.000
197.79	950.000
198.17	266.667
198.55	0.000
198.92	442.857
199.30	1233.333
199.68	2100.000
200.05	750.000
200.43	-483.333
200.81	233.333
201.18	4200.000
201.56	233.333
201.94	-775.000
202.31	-300.000
202.69	-260.000
203.07	3100.000
203.44	-516.667
203.82	350.000
204.19	620.000
204.57	-800.000
204.95	-975.000
205.32	-560.000
205.70	533.333
206.08	925.000
206.45	-966.667
206.83	266.667
207.20	205.263
207.58	308.333
207.96	720.000
208.33	0.000
208.71	542.857
209.08	760.000
209.46	-3600.000
209.84	-700.000
210.21	880.000
210.59	-660.000
210.96	333.333
211.34	-925.000
211.71	372.727
212.09	725.000
212.46	1800.000
212.84	-533.333
213.22	366.667
213.59	-2900.000
213.97	300.000
214.34	900.000
214.72	966.667
215.09	1000.000
215.47	-2500.000
215.84	-390.000
216.22	-400.000
216.59	0.000
216.97	0.000
217.34	1450.000
217.72	-1600.000
218.09	1300.000
218.47	462.500
218.84	875.000
219.22	1233.333
219.59	1266.667
219.97	457.143
220.34	411.111
220.72	1600.000
221.09	4100.000
221.47	333.333
221.84	1100.000
222.22	350.000
222.59	266.667
222.97	257.143
223.34	268.750
223.72	-1800.000
224.09	1300.000
224.46	307.692
224.84	-725.000
225.21	433.333
225.59	293.333
225.96	1333.333
226.34	-560.000
226.71	-775.000
227.08	-540.000
227.46	0.000
227.83	-466.667
228.21	-1800.000
228.58	333.333
228.95	875.000
229.33	288.889
229.70	925.000
230.08	346.154
230.45	4100.000
230.82	-950.000
231.20	-666.667
231.57	-1266.667
231.95	720.000
232.32	275.000
232.69	516.667
233.07	325.000
233.44	-1500.000
233.81	260.000
234.19	170.370
234.56	262.500
234.93	247.059
235.31	225.000
235.68	250.000
236.05	157.143
236.43	148.148
236.80	271.429
237.17	141.379
237.55	96.875
237.92	115.000
238.29	169.697
238.67	156.250
239.04	119.512
239.41	87.500
239.79	95.000
240.16	100.000
240.53	80.328
240.91	78.261
241.28	93.220
241.65	78.788
242.02	85.915
242.40	101.429
242.77	61.538
243.14	65.823
243.51	73.737
243.89	54.206
244.26	64.486
244.63	68.317
245.00	68.807
245.38	55.932
245.75	55.303
246.12	65.185
246.49	60.284
246.87	56.557
247.24	61.333
247.61	50.000
247.98	59.864
248.36	52.121
248.73	51.531
249.10	51.786
249.47	51.500
249.84	48.259
250.22	48.108
250.59	51.500
250.96	48.945
251.33	54.419
251.70	48.214
252.08	47.899
252.45	43.426
252.82	47.909
253.19	46.245
253.56	45.385
253.94	43.478
254.31	49.225
254.68	47.387
255.05	46.207
255.42	45.620
255.79	45.277
256.16	46.441
256.54	43.831
256.91	43.791
257.28	45.485
257.65	41.379
258.02	41.003
258.39	44.699
258.76	42.899
259.14	40.286
259.51	43.149
259.88	46.505
260.25	35.989
260.62	42.740
260.99	40.220
261.36	42.340
261.73	43.351
262.10	41.623
262.47	40.250
262.85	42.933
263.22	40.617
263.59	43.990
263.96	43.358
264.33	38.519
264.70	45.700
265.07	39.268
265.44	41.972
265.81	39.623
266.18	39.359
266.55	41.844
266.92	41.611
267.29	37.939
267.66	40.359
268.03	38.117
268.40	41.438
268.77	40.969
269.14	39.046
269.51	39.866
269.88	41.224
270.25	37.149
270.62	36.910
270.99	39.959
271.36	42.073
271.73	37.945
272.10	39.798
272.47	37.103
272.84	34.731
273.21	40.083
273.58	39.069
273.95	38.604
274.32	40.272
274.69	39.961
275.06	38.069
275.43	36.207
275.80	40.189
276.17	40.993
276.54	39.065
276.91	42.537
277.28	37.409
277.65	37.638
278.02	36.581
278.39	36.331
278.76	38.793
279.13	37.900
279.50	38.545
279.87	35.754
280.23	37.385
280.60	39.781
280.97	37.414
281.34	37.294
281.71	36.174
282.08	38.803
282.45	36.824
282.82	37.291
283.19	35.453
283.56	36.529
283.92	35.016
284.29	34.775
284.66	35.462
285.03	35.987
285.40	36.198
285.77	34.259
286.14	35.294
286.51	35.583
286.87	32.278
287.24	32.883
287.61	36.170
287.98	34.627
288.35	33.926
288.72	33.687
289.08	32.132
289.45	34.299
289.82	33.906
290.19	32.357
290.56	33.479
290.93	33.525
291.29	33.149
291.66	32.627
292.03	33.520
292.40	32.520
292.77	30.084
293.13	30.956
293.50	30.229
293.87	31.030
294.24	31.608
294.60	32.032
294.97	30.909
295.34	29.880
295.71	30.355
296.08	31.200
296.44	30.241
296.81	29.901
297.18	27.250
297.55	30.049
297.91	29.187
298.28	30.556
298.65	29.448
299.02	29.554
299.38	28.417
299.75	29.268
300.12	29.358
300.48	28.923
300.85	28.129
301.22	27.674
301.59	27.712
301.95	27.538
302.32	27.823
302.69	27.602
303.05	28.620
303.42	26.906
303.79	28.277
304.15	28.493
304.52	27.167
304.89	26.652
305.25	28.921
305.62	27.719
305.99	27.826
306.35	27.053
306.72	27.367
307.09	25.466
307.45	26.716
307.82	26.955
308.19	27.629
308.55	26.700
308.92	28.852
309.29	28.797
309.65	29.633
310.02	27.890
310.38	27.119
310.75	27.772
311.12	27.395
311.48	28.958
311.85	28.053
312.22	28.462
312.58	29.349
312.95	29.320
313.31	28.839
313.68	28.424
314.05	29.029
314.41	28.585
314.78	30.114
315.14	30.332
315.51	30.180
315.87	29.927
316.24	30.532
316.61	30.439
316.97	30.000
317.34	30.997
317.70	30.465
318.07	31.762
318.43	31.195
318.80	31.524
319.16	31.818
319.53	31.504
319.89	31.989
320.26	33.426
320.62	33.516
320.99	33.556
321.35	32.560
321.72	33.397
322.08	33.887
322.45	33.606
322.81	33.852
323.18	33.925
323.54	35.366
323.91	35.993
324.27	35.632
324.64	34.256
325.00	36.293
325.37	35.497
325.73	36.088
326.10	37.531
326.46	36.416
326.83	34.800
327.19	35.502
327.56	36.422
327.92	37.459
328.29	37.971
328.65	38.014
329.01	37.211
329.38	37.563
329.74	38.002
330.11	38.228
330.47	38.022
330.84	36.842
331.20	38.663
331.56	38.515
331.93	38.238
332.29	38.350
332.66	37.925
333.02	36.770
333.38	38.831
333.75	38.365
334.11	37.752
334.48	38.632
334.84	37.753
335.20	38.494
335.57	36.776
335.93	37.595
336.29	37.645
336.66	39.022
337.02	37.810
337.38	37.661
337.75	38.429
338.11	39.156
338.47	37.765
338.84	37.426
339.20	37.403
339.56	38.604
339.93	37.793
340.29	36.050
340.65	37.720
341.02	39.099
341.38	38.834
341.74	38.206
342.11	37.813
342.47	37.408
342.83	37.982
343.20	39.208
343.56	36.219
343.92	38.563
344.28	38.038
344.65	38.060
345.01	37.540
345.37	36.458
345.73	36.905
346.10	37.052
346.46	37.161
346.82	36.420
347.19	37.481
347.55	35.988
347.91	36.707
348.27	36.793
348.63	37.500
349.00	38.157
349.36	38.288
349.72	37.844
350.08	37.578
350.45	37.243
350.81	38.303
351.17	37.365
351.53	36.721
351.89	37.296
352.26	37.717
352.62	38.009
352.98	37.577
353.34	36.749
353.70	36.697
354.07	37.000
354.43	38.018
354.79	36.143
355.15	37.672
355.51	36.556
355.87	37.123
356.24	37.490
356.60	36.301
356.96	36.846
357.32	36.247
357.68	37.739
358.04	36.550
358.40	36.357
358.77	37.866
359.13	37.012
359.49	37.732
359.85	36.932
360.21	36.181
360.57	36.496
360.93	38.167
361.29	36.869
361.66	37.658
362.02	35.369
362.38	37.013
362.74	36.306
363.10	38.079
363.46	35.014
363.82	37.447
364.18	36.842
364.54	38.555
364.90	37.416
365.26	37.196
365.62	36.948
365.98	36.958
366.35	36.828
366.71	36.086
367.07	36.860
367.43	37.273
367.79	36.037
368.15	37.246
368.51	37.147
368.87	34.851
369.23	36.729
369.59	36.413
369.95	37.483
370.31	36.413
370.67	36.225
371.03	37.815
371.39	37.188
371.75	35.799
372.11	36.166
372.47	38.151
372.83	35.554
373.19	37.971
373.55	37.045
373.91	35.014
374.27	35.516
374.63	36.271
374.99	36.119
375.35	36.828
375.71	36.807
376.07	36.870
376.42	35.486
376.78	37.187
377.14	36.370
377.50	36.267
377.86	35.490
378.22	36.137
378.58	36.804
378.94	36.089
379.30	36.931
379.66	37.267
380.02	36.833
380.38	34.895
380.74	36.505
381.09	35.981
381.45	36.763
381.81	36.407
382.17	35.897
382.53	36.653
382.89	36.546
383.25	36.234
383.61	35.735
383.97	35.393
384.32	36.046
384.68	37.136
385.04	35.580
385.40	35.172
385.76	34.991
386.12	35.993
386.48	35.805
386.83	35.636
387.19	36.867
387.55	36.396
387.91	36.259
388.27	36.704
388.62	36.033
388.98	35.802
389.34	35.872
389.70	35.613
390.06	35.549
390.42	35.719
390.77	35.934
391.13	35.848
391.49	35.814
391.85	34.831
392.20	36.174
392.56	34.648
392.92	35.935
393.28	34.585
393.64	34.518
393.99	34.558
394.35	34.314
394.71	34.318
395.07	35.219
395.42	35.363
395.78	35.349
396.14	34.819
396.50	35.138
396.85	34.207
397.21	34.838
397.57	34.071
397.92	33.795
398.28	32.929
398.64	34.671
399.00	32.817
399.35	33.763
399.71	33.940
400.07	34.989
400.42	34.388
400.78	34.721
401.14	33.940
401.49	33.295
401.85	33.835
402.21	32.162
402.57	34.111
402.92	33.636
403.28	32.458
403.63	32.078
403.99	33.957
404.35	33.236
404.70	34.200
405.06	33.464
405.42	33.513
405.77	33.076
406.13	32.646
406.49	32.121
406.84	32.431
407.20	33.447
407.55	32.923
407.91	34.461
408.27	32.626
408.62	33.235
408.98	32.584
409.34	32.788
409.69	33.043
410.05	32.618
410.40	31.684
410.76	31.998
411.11	32.109
411.47	31.605
411.83	30.697
412.18	31.522
412.54	32.012
412.89	32.448
413.25	32.440
413.60	30.900
413.96	33.154
414.31	32.763
414.67	32.092
415.03	31.928
415.38	32.050
415.74	32.596
416.09	31.855
416.45	32.321
416.80	32.200
417.16	31.318
417.51	32.484
417.87	30.914
418.22	31.531
418.58	31.465
418.93	30.577
419.29	31.238
419.64	31.617
420.00	32.339
420.35	31.417
420.71	32.439
421.06	30.724
421.42	30.225
421.77	31.205
422.12	31.312
422.48	30.611
422.83	30.525
423.19	30.130
423.54	31.377
423.90	31.314
424.25	30.820
424.61	30.992
424.96	30.717
425.31	30.706
425.67	31.145
426.02	30.735
426.38	29.813
426.73	31.174
427.09	30.486
427.44	29.769
427.79	30.589
428.15	31.880
428.50	31.200
428.85	31.099
429.21	31.064
429.56	30.010
429.92	30.532
430.27	29.898
430.62	30.005
430.98	30.289
431.33	29.738
431.68	28.988
432.04	29.747
432.39	30.461
432.74	30.445
433.10	30.122
433.45	30.213
433.80	30.612
434.16	29.900
434.51	30.031
434.86	30.376
435.22	30.092
435.57	30.231
435.92	31.588
436.28	30.760
436.63	30.146
436.98	31.250
437.34	29.623
437.69	29.451
438.04	29.785
438.39	30.123
438.75	30.457
439.10	29.843
439.45	29.960
439.81	30.827
440.16	29.114
440.51	29.167
440.86	29.459
441.22	31.223
441.57	29.659
441.92	29.269
442.27	29.175
442.63	28.506
442.98	29.634
443.33	29.620
443.68	29.728
444.03	29.359
444.39	30.179
444.74	28.623
445.09	29.700
445.44	28.799
445.79	29.825
446.15	29.842
446.50	29.325
446.85	29.582
447.20	27.960
447.55	30.016
447.91	29.728
448.26	30.085
448.61	30.072
448.96	29.466
449.31	29.483
449.66	29.900
450.02	28.525
450.37	28.928
450.72	30.358
451.07	29.145
451.42	29.698
451.77	29.381
452.12	29.836
452.47	29.344
452.83	29.915
453.18	29.850
453.53	29.959
453.88	30.114
454.23	29.576
454.58	29.487
454.93	29.614
455.28	30.171
455.63	29.551
455.98	29.272
456.34	30.456
456.69	29.207
457.04	29.535
457.39	28.686
457.74	29.448
458.09	28.860
458.44	28.916
458.79	29.390
459.14	29.842
459.49	29.728
459.84	28.859
460.19	29.153
460.54	29.003
460.89	29.371
461.24	28.236
461.59	29.478
461.94	29.374
462.29	29.005
462.64	28.580
462.99	29.047
463.34	29.553
463.69	29.220
464.04	29.534
464.39	29.365
464.74	27.608
465.09	28.323
465.44	28.564
465.79	27.926
466.14	28.723
466.49	28.649
466.84	28.205
467.19	28.705
467.54	28.649
467.89	28.873
468.24	29.010
468.59	29.107
468.94	29.106
469.29	29.016
469.64	29.389
469.99	29.242
470.34	29.728
470.68	28.000
471.03	28.886
471.38	29.735
471.73	28.805
472.08	28.506
472.43	28.678
472.78	28.553
473.13	28.160
473.48	28.973
473.83	28.269
474.17	28.511
474.52	28.140
474.87	27.743
475.22	28.270
475.57	28.017
475.92	27.031
476.27	27.748
476.61	27.239
476.96	28.265
477.31	28.226
477.66	28.932
478.01	28.210
478.36	28.012
478.70	27.444
479.05	27.981
479.40	27.976
479.75	27.954
480.10	27.590
480.45	27.311
480.79	27.604
481.14	27.770
481.49	26.853
481.84	26.825
482.19	27.642
482.53	26.834
482.88	26.792
483.23	26.703
483.58	27.110
483.92	27.788
484.27	26.969
484.62	27.080
484.97	26.062
485.31	26.230
485.66	25.514
486.01	25.167
486.36	24.825
486.70	24.347
487.05	25.340
487.40	24.929
487.75	26.219
488.09	25.540
488.44	26.131
488.79	25.859
489.13	26.801
489.48	26.169
489.83	27.023
490.17	26.383
490.52	25.797
490.87	26.983
491.22	26.817
491.56	26.702
491.91	26.568
492.26	26.459
492.60	27.472
492.95	26.371
493.30	26.661
493.64	26.730
493.99	27.013
494.34	26.087
494.68	27.136
495.03	26.762
495.37	26.745
495.72	26.340
496.07	26.280
496.41	26.542
496.76	26.087
497.11	26.221
497.45	26.260
497.80	26.784
498.14	26.630
498.49	26.045
498.84	26.542
499.18	25.640
499.53	26.321
499.87	25.786
500.22	26.439
500.56	26.973
500.91	27.458
501.26	26.367
501.60	26.230
501.95	25.672
502.29	26.000
502.64	25.629
502.98	25.656
503.33	25.880
503.67	26.049
504.02	25.661
504.36	26.290
504.71	26.206
505.06	26.373
505.40	25.690
505.75	25.819
506.09	26.412
506.44	26.504
506.78	26.276
507.13	25.788
507.47	26.152
507.82	26.326
508.16	26.899
508.51	26.039
508.85	25.736
509.19	26.285
509.54	25.879
509.88	26.504
510.23	25.539
510.57	25.917
510.92	26.074
511.26	27.058
511.61	25.652
511.95	26.282
512.30	26.100
512.64	24.974
512.98	25.884
513.33	26.691
513.67	26.049
514.02	26.701
514.36	25.234
514.70	25.760
515.05	26.372
515.39	26.700
515.74	26.845
516.08	26.416
516.42	26.776
516.77	26.560
517.11	26.400
517.46	26.024
517.80	25.560
518.14	26.535
518.49	25.358
518.83	25.604
519.17	26.567
519.52	26.379
519.86	25.286
520.20	26.301
520.55	25.551
520.89	25.115
521.23	27.745
521.58	25.932
521.92	25.481
522.26	25.770
522.61	27.510
522.95	26.727
523.29	26.901
523.64	25.549
523.98	26.467
524.32	25.606
524.66	26.377
525.01	26.095
525.35	26.635
525.69	26.189
526.04	26.889
526.38	25.309
526.72	24.821
527.06	25.429
527.41	26.119
527.75	26.354
528.09	25.707
528.43	25.686
528.78	26.118
529.12	26.851
529.46	26.184
529.80	26.343
530.15	25.810
530.49	25.090
530.83	25.594
531.17	25.707
531.51	25.506
531.86	25.423
532.20	25.958
532.54	25.424
532.88	25.859
533.22	25.229
533.57	25.930
533.91	25.117
534.25	24.639
534.59	25.848
534.93	25.199
535.27	24.075
535.62	24.854
535.96	24.882
536.30	25.838
536.64	24.472
536.98	25.865
537.32	25.625
537.66	25.446
538.01	24.954
538.35	25.827
538.69	24.757
539.03	24.813
539.37	25.121
539.71	25.123
540.05	25.169
540.39	25.535
540.73	25.000
541.07	24.718
541.42	24.440
541.76	24.538
542.10	24.784
542.44	24.439
542.78	25.173
543.12	24.908
543.46	24.937
543.80	25.125
544.14	25.263
544.48	25.000
544.82	25.321
545.16	23.558
545.50	23.848
545.84	25.442
546.18	25.033
546.52	25.115
546.86	25.596
547.20	24.806
547.54	25.206
547.88	24.696
548.22	23.922
548.56	23.748
548.90	24.318
549.24	25.963
549.58	24.356
549.92	24.296
550.26	24.746
550.60	24.418
550.94	25.237
551.28	24.897
551.62	26.000
551.96	24.865
552.30	23.533
552.64	24.272
552.98	24.162
553.32	24.200
553.66	24.235
554.00	24.517
554.34	24.301
554.68	24.462
555.02	25.594
555.36	23.936
555.69	24.607
556.03	24.268
556.37	23.582
556.71	24.055
557.05	23.263
557.39	24.000
557.73	24.191
558.07	25.017
558.41	25.154
558.75	24.213
559.08	24.946
559.42	24.266
559.76	24.091
560.10	23.331
560.44	24.021
560.78	24.425
561.12	24.412
561.45	23.279
561.79	23.720
562.13	23.310
562.47	23.686
562.81	25.179
563.15	24.111
563.48	23.230
563.82	23.893
564.16	24.129
564.50	23.870
564.84	23.951
565.17	23.292
565.51	23.707
565.85	24.429
566.19	23.929
566.52	23.285
566.86	23.643
567.20	22.809
567.54	23.308
567.88	23.579
568.21	22.716
568.55	22.665
568.89	22.765
569.23	22.519
569.56	22.764
569.90	21.775
570.24	21.942
570.57	21.544
570.91	21.466
571.25	21.145
571.59	20.953
571.92	20.506
572.26	20.647
572.60	20.578
572.93	21.162
573.27	20.879
573.61	21.034
573.95	20.493
574.28	21.110
574.62	20.750
574.96	20.231
575.29	20.127
575.63	20.071
575.97	20.521
576.30	20.830
576.64	20.822
576.98	20.571
577.31	21.142
577.65	20.054
577.98	20.319
578.32	19.711
578.66	20.257
578.99	20.348
579.33	20.207
579.67	20.286
580.00	20.133
580.34	20.183
580.67	20.045
581.01	20.430
581.35	20.553
581.68	19.837
582.02	19.857
582.35	19.826
582.69	20.024
583.02	19.679
583.36	20.439
583.70	20.452
584.03	21.129
584.37	20.899
584.70	20.453
585.04	20.390
585.37	19.995
585.71	20.494
586.04	20.326
586.38	20.230
586.72	20.154
587.05	20.921
587.39	20.202
587.72	20.688
588.06	20.288
588.39	20.317
588.73	20.676
589.06	20.543
589.40	21.158
589.73	21.141
590.07	20.796
590.40	21.951
590.73	21.924
591.07	21.935
591.40	20.958
591.74	21.347
592.07	20.549
592.41	21.303
592.74	20.322
593.08	20.540
593.41	19.270
593.75	20.322
594.08	20.604
594.41	20.560
594.75	20.342
595.08	20.885
595.42	20.244
595.75	20.467
596.09	20.577
596.42	20.211
596.75	21.074
597.09	21.296
597.42	20.939
597.75	20.487
598.09	19.984
598.42	20.726
598.76	20.933
599.09	21.295
599.42	20.346
599.76	20.217
600.09	20.203
600.42	21.202
600.76	20.394
601.09	20.884
601.42	20.908
601.76	19.799
602.09	20.787
602.42	19.963
602.76	20.645
603.09	20.965
603.42	21.394
603.76	20.354
604.09	20.376
604.42	20.000
604.76	19.992
605.09	21.020
605.42	20.033
605.75	20.292
606.09	21.155
606.42	20.782
606.75	20.210
607.09	20.174
607.42	20.651
607.75	19.467
608.08	19.903
608.42	20.176
608.75	20.197
609.08	20.590
609.41	21.000
609.75	21.886
610.08	20.773
610.41	20.817
610.74	20.000
611.07	20.828
611.41	21.316
611.74	20.650
612.07	19.942
612.40	19.981
612.73	20.519
613.07	20.882
613.40	20.952
613.73	21.218
614.06	20.400
614.39	20.606
614.72	20.593
615.06	20.326
615.39	21.485
615.72	20.813
616.05	21.497
616.38	21.258
616.71	20.456
617.05	20.428
617.38	21.180
617.71	22.047
618.04	21.256
618.37	20.345
618.70	20.785
619.03	20.818
619.36	21.608
619.69	21.966
620.03	22.766
620.36	21.002
620.69	21.903
621.02	21.060
621.35	21.991
621.68	22.271
622.01	22.804
622.34	20.757
622.67	22.051
623.00	21.988
623.33	21.457
623.66	21.557
623.99	21.644
624.32	20.799
624.65	21.264
624.99	22.312
625.32	21.510
625.65	21.724
625.98	20.851
626.31	21.365
626.64	21.792
626.97	21.117
627.30	22.205
627.63	22.214
627.96	21.987
628.29	22.360
628.62	21.129
628.95	22.784
629.28	23.225
629.61	22.056
629.94	22.299
630.26	22.444
630.59	23.493
630.92	21.256
631.25	23.663
631.58	23.144
631.91	23.597
632.24	21.769
632.57	22.200
632.90	22.774
633.23	25.184
633.56	23.393
633.89	22.830
634.22	23.251
634.55	23.978
634.88	23.330
635.20	22.085
635.53	24.274
635.86	24.161
636.19	23.232
636.52	22.162
636.85	20.820
637.18	23.402
637.51	22.346
637.83	22.998
638.16	22.978
638.49	22.754
638.82	24.296
639.15	21.974
639.48	24.882
639.81	23.321
640.13	24.049
640.46	22.756
640.79	23.407
641.12	22.178
641.45	24.062
641.77	23.514
642.10	23.963
642.43	24.324
642.76	23.864
643.09	24.496
643.41	23.282
643.74	25.468
644.07	24.189
644.40	24.704
644.73	24.775
645.05	27.340
645.38	24.349
645.71	23.672
646.04	23.206
646.36	24.413
646.69	24.000
647.02	26.400
647.35	25.512
647.67	24.959
648.00	22.964
648.33	25.263
648.66	23.636
648.98	23.188
649.31	22.132
649.64	22.407
649.96	22.333
650.29	22.857
650.62	23.122
650.94	26.054
651.27	24.721
651.60	24.413
651.92	25.499
652.25	22.992
652.58	23.121
652.90	24.102
653.23	24.225
653.56	25.519
653.88	23.054
654.21	22.727
654.54	24.158
654.86	24.041
655.19	22.296
655.52	18.910
655.84	16.950
656.17	19.851
656.49	28.199
656.82	31.936
657.15	25.180
657.47	19.062
657.80	14.429
658.13	11.553
658.45	15.698
658.78	18.903
659.10	19.305
659.43	19.754
659.75	20.289
660.08	20.301
660.41	22.505
660.73	23.839
661.06	24.174
661.38	25.383
661.71	23.022
662.03	24.144
662.36	23.810
662.68	23.836
663.01	25.766
663.33	23.208
663.66	26.036
663.98	25.000
664.31	27.985
664.63	26.820
664.96	26.642
665.28	23.540
665.61	22.075
665.93	24.717
666.26	24.486
666.58	26.055
666.91	22.780
667.23	24.096
667.56	27.926
667.88	26.763
668.21	22.746
668.53	26.008
668.86	27.054
669.18	26.477
669.50	25.620
669.83	27.515
670.15	22.661
670.48	24.219
670.80	26.096
671.13	28.088
671.45	24.248
671.77	24.861
672.10	24.417
672.42	24.507
672.75	22.627
673.07	22.734
673.39	24.441
673.72	23.875
674.04	25.090
674.37	23.412
674.69	24.535
675.01	24.440
675.34	22.481
675.66	26.563
675.98	25.641
676.31	24.800
676.63	23.062
676.95	24.405
677.28	27.383
677.60	25.755
677.92	24.603
678.25	23.256
678.57	26.443
678.89	26.763
679.22	21.691
679.54	26.868
679.86	23.560
680.18	23.550
680.51	23.217
680.83	22.635
681.15	24.957
681.48	24.306
681.80	22.067
682.12	25.606
682.44	23.063
682.77	25.979
683.09	24.660
683.41	26.122
683.73	24.016
684.06	24.206
684.38	25.000
684.70	23.201
685.02	22.569
685.34	24.648
685.67	24.598
685.99	23.317
686.31	23.112
686.63	23.577
686.96	22.876
687.28	20.470
687.60	23.379
687.92	23.451
688.24	26.034
688.56	21.174
688.89	22.180
689.21	24.277
689.53	24.704
689.85	26.220
690.17	21.942
690.49	25.000
690.82	24.370
691.14	25.859
691.46	24.435
691.78	25.341
692.10	23.855
692.42	24.138
692.74	23.450
693.06	25.969
693.39	23.715
693.71	21.218
694.03	23.471
694.35	25.703
694.67	23.625
694.99	25.942
695.31	26.351
695.63	25.339
695.95	22.624
696.27	26.549
696.59	25.298
696.91	24.810
697.23	24.661
697.56	25.104
697.88	21.357
698.20	23.774
698.52	22.957
698.84	22.382
699.16	23.881
699.48	25.000
699.80	27.887
700.12	25.173
700.44	27.336
700.76	28.162
701.08	25.326
701.40	26.494
701.72	30.481
702.04	27.642
702.36	27.957
702.68	29.255
703.00	23.810
703.32	25.062
703.64	25.693
703.96	26.823
704.28	25.926
704.60	27.887
704.91	28.852
705.23	27.841
705.55	28.190
705.87	25.079
706.19	27.273
706.51	27.900
706.83	28.614
707.15	26.203
707.47	23.971
707.79	27.356
708.11	21.995
708.43	23.146
708.74	21.267
709.06	23.953
709.38	29.032
709.70	24.523
710.02	25.815
710.34	25.138
710.66	27.778
710.98	28.962
711.29	23.955
711.61	27.298
711.93	28.875
712.25	28.012
712.57	27.331
712.89	29.394
713.20	27.796
713.52	27.414
713.84	30.514
714.16	23.478
714.48	22.767
714.80	26.558
715.11	22.340
715.43	25.419
715.75	24.225
716.07	28.613
716.39	27.714
716.70	23.053
717.02	30.303
717.34	29.496
717.66	26.389
717.97	31.061
718.29	28.521
718.61	22.297
718.93	28.028
719.24	28.859
719.56	27.241
719.88	25.159
720.20	29.355
720.51	25.817
720.83	32.107
721.15	28.912
721.46	27.055
721.78	27.178
722.10	32.639
722.42	31.104
722.73	29.242
723.05	31.579
723.37	28.622
723.68	28.906
724.00	34.848
724.32	26.996
724.63	30.000
724.95	32.157
725.27	29.740
725.58	26.838
725.90	27.113
726.22	27.055
726.53	26.421
726.85	26.384
727.16	28.188
727.48	24.252
727.80	27.338
728.11	26.429
728.43	25.725
728.74	29.720
729.06	22.939
729.38	31.228
729.69	28.000
730.01	33.224
730.32	26.510
730.64	27.907
730.96	30.030
731.27	21.713
731.59	23.276
731.90	24.513
732.22	26.857
732.53	23.077
732.85	28.655
733.16	26.205
733.48	26.332
733.80	27.536
734.11	31.902
734.43	24.561
734.74	22.520
735.06	28.042
735.37	24.485
735.69	24.348
736.00	30.275
736.32	23.939
736.63	23.975
736.95	23.292
737.26	27.744
737.58	25.153
737.89	28.012
738.21	24.503
738.52	24.080
738.83	27.839
739.15	29.268
739.46	32.414
739.78	25.850
740.09	26.822
740.41	27.607
740.72	29.206
741.04	29.021
741.35	28.125
741.66	28.854
741.98	30.901
742.29	32.407
742.61	25.221
742.92	30.085
743.23	32.400
743.55	29.811
743.86	26.275
744.18	30.085
744.49	29.339
744.80	33.180
745.12	27.679
745.43	33.645
745.74	35.556
746.06	28.070
746.37	33.023
746.68	30.088
747.00	31.839
747.31	28.992
747.62	25.000
747.94	30.901
748.25	26.459
748.56	34.322
748.88	27.232
749.19	26.512
749.50	29.680
749.82	29.630
750.13	26.877
750.44	29.667
750.75	30.872
751.07	27.632
751.38	27.723
751.69	27.946
752.01	26.573
752.32	25.914
752.63	30.872
752.94	28.671
753.26	31.641
753.57	32.296
753.88	30.337
754.19	28.159
754.51	26.246
754.82	24.497
755.13	26.014
755.44	28.519
755.75	30.928
756.07	27.055
756.38	27.451
756.69	24.375
757.00	28.487
757.31	28.451
757.63	25.069
757.94	24.202
758.25	25.604
758.56	26.773
758.87	27.318
759.18	27.326
759.50	22.188
759.81	27.893
760.12	24.438
760.43	24.090
760.74	27.342
761.05	24.668
761.36	26.042
761.67	27.224
761.99	24.789
762.30	26.045
762.61	26.042
762.92	29.167
763.23	30.566
763.54	31.538
763.85	23.735
764.16	29.514
764.47	27.365
764.78	27.362
765.10	26.829
765.41	25.852
765.72	23.757
766.03	25.378
766.34	22.300
766.65	26.616
766.96	32.794
767.27	35.047
767.58	32.673
767.89	35.359
768.20	30.488
768.51	29.082
768.82	30.702
769.13	28.235
769.44	27.444
769.75	22.472
770.06	29.412
770.37	28.947
770.68	28.000
770.99	30.508
771.30	33.473
771.61	30.769
771.92	29.008
772.23	27.419
772.54	31.111
772.85	37.624
773.16	32.065
773.47	28.889
773.78	32.673
774.09	30.114
774.39	30.303
774.70	28.824
775.01	28.289
775.32	36.646
775.63	39.726
775.94	44.444
776.25	36.552
776.56	35.115
776.87	36.641
777.18	37.879
777.48	45.669
777.79	46.154
778.10	42.424
778.41	34.328
778.72	32.331
779.03	42.949
779.34	33.784
779.65	37.888
779.95	38.509
780.26	34.524
780.57	36.735
780.88	38.298
781.19	41.667
781.50	39.053
781.80	40.984
782.11	32.804
782.42	33.908
782.73	40.113
783.04	34.839
783.34	33.333
783.65	28.571
783.96	40.000
784.27	37.086
784.57	32.237
784.88	36.232
785.19	35.833
785.50	44.828
785.81	46.512
786.11	42.963
786.42	40.945
786.73	41.441
787.04	49.057
787.34	39.024
787.65	47.727
787.96	33.333
788.26	36.220
788.57	45.255
788.88	35.915
789.19	36.641
789.49	41.216
789.80	36.719
790.11	45.455
790.41	45.370
790.72	37.963
791.03	52.885
791.33	51.515
791.64	54.737
791.95	53.684
792.25	39.583
792.56	50.000
792.87	53.659
793.17	47.727
793.48	55.294
793.79	58.621
794.09	52.273
794.40	52.586
794.70	41.270
795.01	36.154
795.32	41.221
795.62	29.915
795.93	45.378
796.23	41.463
796.54	47.959
796.85	57.955
797.15	67.532
797.46	60.976
797.76	52.500
798.07	57.333
798.37	62.500
798.68	61.250
798.99	59.756
799.29	60.000
799.60	51.163
799.90	52.632
800.21	57.576
800.51	69.014
800.82	46.552
801.12	61.538
801.43	65.333
801.73	48.276
802.04	74.026
802.34	60.274
802.65	80.392
802.95	73.913
803.26	79.032
803.56	66.667
803.87	86.567
804.17	73.016
804.48	64.151
804.78	59.722
805.09	68.182
805.39	63.492
805.70	73.684
806.00	68.571
806.30	65.625
806.61	57.647
806.91	52.222
807.22	41.304
807.52	42.105
807.83	61.842
808.13	52.174
808.43	66.129
808.74	47.945
809.04	67.857
809.35	75.000
809.65	75.758
809.95	86.275
810.26	107.407
810.56	81.250
810.86	87.755
811.17	66.667
811.47	60.870
811.77	65.517
812.08	62.069
812.38	78.571
812.69	97.619
812.99	68.889
813.29	100.000
813.59	77.419
813.90	56.897
814.20	77.049
814.50	48.000
814.81	64.912
815.11	85.185
815.41	71.429
815.72	96.429
816.02	82.000
816.32	60.976
816.62	89.655
816.93	106.061
817.23	85.366
817.53	82.143
817.84	88.889
818.14	88.095
818.44	83.333
818.74	101.887
819.04	97.436
819.35	100.000
819.65	101.923
819.95	120.370
820.25	91.489
820.56	105.405
820.86	94.737
821.16	68.085
821.46	113.158
821.76	87.273
822.07	76.190
822.37	123.684
822.67	123.256
822.97	92.105
823.27	97.826
823.57	106.250
823.88	92.308
824.18	78.788
824.48	143.478
824.78	94.444
825.08	126.087
825.38	165.517
825.69	120.588
825.99	85.106
826.29	97.222
826.59	102.857
826.89	103.333
827.19	94.286
827.49	109.677
827.79	119.231
828.09	76.190
828.39	105.556
828.70	75.676
829.00	153.571
829.30	168.750
829.60	105.556
829.90	119.355
830.20	81.818
830.50	113.514
830.80	154.167
831.10	142.308
831.40	176.190
831.70	166.667
832.00	126.667
832.30	165.217
832.60	191.667
832.90	154.545
833.20	160.000
833.50	123.684
833.80	97.059
834.10	131.579
834.40	157.895
834.70	123.333
835.00	164.000
835.30	105.405
835.60	140.625
835.90	124.324
836.20	146.154
836.50	113.636
836.80	107.317
837.10	139.130
837.40	261.538
837.70	147.368
838.00	160.000
838.30	154.167
838.60	148.000
838.90	330.000
839.19	200.000
839.49	116.667
839.79	124.138
840.09	184.615
840.39	153.333
840.69	152.632
840.99	142.857
841.29	130.435
841.59	160.000
841.88	176.000
842.18	344.444
842.48	150.000
842.78	140.741
843.08	192.308
843.38	227.273
843.68	207.143
843.97	371.429
844.27	108.696
844.57	1350.000
844.87	335.714
845.17	238.889
845.47	185.714
845.76	195.833
846.06	457.143
846.36	129.412
846.66	346.154
846.96	250.000
847.25	200.000
847.55	163.158
847.85	183.333
848.15	560.000
848.44	190.909
848.74	166.667
849.04	183.333
849.34	182.353
849.63	231.250
849.93	275.000
850.23	933.333
850.53	437.500
850.82	236.364
851.12	170.588
851.42	150.000
851.71	218.750
852.01	0.000
852.31	223.529
852.61	390.000
852.90	137.500
853.20	288.889
853.50	-1800.000
853.79	160.000
854.09	162.500
854.39	134.483
854.68	172.414
854.98	176.190
855.28	109.677
855.57	307.143
855.87	166.667
856.17	137.037
856.46	200.000
856.76	119.355
857.05	194.118
857.35	227.273
857.65	246.154
857.94	150.000
858.24	377.778
858.53	228.571
858.83	657.143
859.13	160.870
859.42	322.222
859.72	337.500
860.01	191.667
860.31	775.000
860.60	420.000
860.90	400.000
861.20	207.692
861.49	528.571
861.79	-3000.000
862.08	500.000
862.38	344.444
862.67	221.429
862.97	410.000
863.26	140.000
863.56	850.000
863.85	338.462
864.15	258.824
864.44	188.889
864.74	358.333
865.03	327.273
865.33	262.500
865.62	240.000
865.92	633.333
866.21	900.000
866.51	520.000
866.80	250.000
867.10	966.667
867.39	2900.000
867.69	780.000
867.98	1100.000
868.27	204.762
868.57	313.333
868.86	925.000
869.16	166.667
869.45	3600.000
869.75	-316.667
870.04	775.000
870.33	560.000
870.63	375.000
870.92	217.647
871.22	700.000
871.51	414.286
871.80	325.000
872.10	300.000
>>>>>End Processed Spectral Data<<<<<
