SpectraSuite Data File
++++++++++++++++++++++++++++++++++++
Date: Tue May 12 15:16:28 PDT 2015
User: schluterlab
Dark Spectrum Present: Yes
Reference Spectrum Present: Yes
Number of Sampled Component Spectra: 1
Spectrometers: USB2E3373
Integration Time (usec): 3000 (USB2E3373)
Spectra Averaged: 3 (USB2E3373)
Boxcar Smoothing: 0 (USB2E3373)
Correct for Electrical Dark: No (USB2E3373)
Strobe/Lamp Enabled: No (USB2E3373)
Correct for Detector Non-linearity: No (USB2E3373)
Correct for Stray Light: No (USB2E3373)
Number of Pixels in Processed Spectrum: 2048
>>>>>Begin Processed Spectral Data<<<<<
178.53	0.000
178.91	-191.667
179.29	-600.000
179.67	-3800.000
180.04	-113.333
180.42	650.000
180.80	1600.000
181.18	0.000
181.56	-262.500
181.94	0.000
182.31	933.333
182.69	-2100.000
183.07	514.286
183.45	-2700.000
183.83	-1500.000
184.20	320.000
184.58	371.429
184.96	-238.462
185.34	-266.667
185.72	1250.000
186.09	-600.000
186.47	-3000.000
186.85	833.333
187.23	740.000
187.61	1350.000
187.98	312.500
188.36	221.429
188.74	300.000
189.12	333.333
189.49	750.000
189.87	0.000
190.25	437.500
190.63	1400.000
191.00	-125.000
191.38	-3000.000
191.76	-900.000
192.14	462.500
192.51	-2000.000
192.89	1800.000
193.27	900.000
193.65	-966.667
194.02	-620.000
194.40	471.429
194.78	-150.000
195.15	206.667
195.53	-2200.000
195.91	-580.000
196.29	3200.000
196.66	262.500
197.04	475.000
197.42	-1150.000
197.79	650.000
198.17	258.333
198.55	0.000
198.92	385.714
199.30	966.667
199.68	1800.000
200.05	650.000
200.43	-316.667
200.81	183.333
201.18	2000.000
201.56	175.000
201.94	-525.000
202.31	-300.000
202.69	-360.000
203.07	1900.000
203.44	-400.000
203.82	275.000
204.19	280.000
204.57	-1250.000
204.95	-650.000
205.32	-520.000
205.70	400.000
206.08	750.000
206.45	-566.667
206.83	377.778
207.20	184.211
207.58	175.000
207.96	540.000
208.33	0.000
208.71	514.286
209.08	580.000
209.46	-2800.000
209.84	-900.000
210.21	840.000
210.59	-560.000
210.96	250.000
211.34	-700.000
211.71	327.273
212.09	850.000
212.46	1600.000
212.84	-283.333
213.22	344.444
213.59	-2900.000
213.97	350.000
214.34	1175.000
214.72	900.000
215.09	1033.333
215.47	-2800.000
215.84	-210.000
216.22	-387.500
216.59	0.000
216.97	0.000
217.34	1000.000
217.72	-1850.000
218.09	1000.000
218.47	400.000
218.84	1050.000
219.22	1133.333
219.59	666.667
219.97	328.571
220.34	411.111
220.72	1100.000
221.09	3900.000
221.47	216.667
221.84	600.000
222.22	290.000
222.59	211.111
222.97	192.857
223.34	181.250
223.72	-1000.000
224.09	1033.333
224.46	192.308
224.84	-600.000
225.21	322.222
225.59	266.667
225.96	1466.667
226.34	-580.000
226.71	-550.000
227.08	-540.000
227.46	0.000
227.83	-583.333
228.21	-1650.000
228.58	300.000
228.95	900.000
229.33	277.778
229.70	925.000
230.08	246.154
230.45	3300.000
230.82	-775.000
231.20	-633.333
231.57	-1133.333
231.95	340.000
232.32	208.333
232.69	516.667
233.07	266.667
233.44	-1350.000
233.81	206.667
234.19	140.741
234.56	150.000
234.93	105.882
235.31	195.000
235.68	212.500
236.05	107.143
236.43	111.111
236.80	192.857
237.17	89.655
237.55	100.000
237.92	90.000
238.29	127.273
238.67	93.750
239.04	87.805
239.41	64.583
239.79	75.000
240.16	54.167
240.53	36.066
240.91	55.072
241.28	62.712
241.65	48.485
242.02	54.930
242.40	67.143
242.77	43.956
243.14	39.241
243.51	40.404
243.89	48.598
244.26	35.514
244.63	39.604
245.00	32.110
245.38	33.898
245.75	33.333
246.12	37.037
246.49	35.461
246.87	19.672
247.24	27.333
247.61	28.750
247.98	24.490
248.36	25.455
248.73	27.551
249.10	29.167
249.47	24.000
249.84	22.886
250.22	23.243
250.59	23.000
250.96	24.473
251.33	23.721
251.70	25.893
252.08	23.109
252.45	25.498
252.82	21.673
253.19	21.344
253.56	19.615
253.94	21.014
254.31	20.543
254.68	19.164
255.05	23.103
255.42	16.058
255.79	20.195
256.16	18.983
256.54	21.753
256.91	15.359
257.28	21.070
257.65	14.107
258.02	18.289
258.39	18.911
258.76	19.130
259.14	17.429
259.51	20.991
259.88	18.237
260.25	17.308
260.62	21.644
260.99	15.152
261.36	16.713
261.73	19.681
262.10	16.754
262.47	18.000
262.85	20.000
263.22	19.023
263.59	16.880
263.96	20.802
264.33	15.309
264.70	21.130
265.07	17.317
265.44	17.661
265.81	18.868
266.18	18.535
266.55	15.130
266.92	14.765
267.29	16.667
267.66	16.143
268.03	15.695
268.40	16.490
268.77	18.502
269.14	15.618
269.51	14.922
269.88	16.531
270.25	14.039
270.62	13.948
270.99	19.067
271.36	16.667
271.73	15.933
272.10	13.939
272.47	15.079
272.84	15.569
273.21	15.496
273.58	15.789
273.95	14.579
274.32	16.732
274.69	16.732
275.06	14.390
275.43	14.559
275.80	13.585
276.17	15.441
276.54	15.888
276.91	17.537
277.28	15.328
277.65	15.498
278.02	16.176
278.39	13.849
278.76	15.000
279.13	14.769
279.50	15.091
279.87	13.780
280.23	14.180
280.60	16.058
280.97	15.000
281.34	15.512
281.71	15.130
282.08	14.188
282.45	15.372
282.82	16.555
283.19	15.898
283.56	13.719
283.92	14.821
284.29	13.478
284.66	13.782
285.03	16.252
285.40	12.231
285.77	14.043
286.14	15.635
286.51	14.417
286.87	12.658
287.24	13.964
287.61	14.438
287.98	15.373
288.35	15.259
288.72	13.202
289.08	15.315
289.45	14.024
289.82	13.906
290.19	13.470
290.56	16.157
290.93	14.245
291.29	15.193
291.66	14.407
292.03	13.464
292.40	14.092
292.77	13.788
293.13	13.695
293.50	12.955
293.87	12.466
294.24	14.406
294.60	13.997
294.97	14.825
295.34	14.741
295.71	13.403
296.08	14.933
296.44	14.994
296.81	14.268
297.18	13.561
297.55	13.793
297.91	13.177
298.28	13.164
298.65	14.233
299.02	13.631
299.38	14.748
299.75	12.927
300.12	15.367
300.48	14.637
300.85	14.541
301.22	13.837
301.59	14.151
301.95	14.119
302.32	14.435
302.69	13.009
303.05	15.039
303.42	14.126
303.79	15.276
304.15	14.631
304.52	14.693
304.89	15.032
305.25	13.348
305.62	14.606
305.99	11.739
306.35	14.000
306.72	14.776
307.09	13.768
307.45	14.572
307.82	13.889
308.19	14.948
308.55	13.600
308.92	14.917
309.29	16.174
309.65	14.470
310.02	15.619
310.38	14.556
310.75	13.983
311.12	13.697
311.48	15.927
311.85	13.931
312.22	15.950
312.58	14.577
312.95	14.563
313.31	15.730
313.68	14.071
314.05	15.201
314.41	14.898
314.78	15.625
315.14	16.019
315.51	15.989
315.87	15.602
316.24	13.632
316.61	15.398
316.97	14.312
317.34	15.633
317.70	15.364
318.07	14.769
318.43	15.817
318.80	14.974
319.16	15.647
319.53	15.664
319.89	14.964
320.26	16.387
320.62	15.476
320.99	15.825
321.35	16.048
321.72	16.603
322.08	14.497
322.45	15.895
322.81	15.371
323.18	17.052
323.54	16.115
323.91	17.316
324.27	15.650
324.64	14.879
325.00	15.517
325.37	16.020
325.73	16.610
326.10	16.073
326.46	16.268
326.83	15.920
327.19	15.422
327.56	15.735
327.92	15.902
328.29	17.185
328.65	16.610
329.01	15.312
329.38	16.159
329.74	15.542
330.11	15.986
330.47	17.391
330.84	15.272
331.20	15.567
331.56	16.839
331.93	16.339
332.29	15.816
332.66	15.986
333.02	15.893
333.38	15.445
333.75	16.180
334.11	15.352
334.48	15.897
334.84	16.216
335.20	16.339
335.57	15.449
335.93	15.307
336.29	15.008
336.66	15.695
337.02	15.825
337.38	15.133
337.75	15.456
338.11	16.456
338.47	16.257
338.84	15.834
339.20	14.978
339.56	15.559
339.93	15.050
340.29	15.882
340.65	15.507
341.02	15.527
341.38	15.025
341.74	15.698
342.11	15.609
342.47	14.520
342.83	15.669
343.20	15.683
343.56	15.091
343.92	14.203
344.28	15.470
344.65	15.566
345.01	14.921
345.37	14.343
345.73	14.841
346.10	14.343
346.46	15.072
346.82	13.503
347.19	15.533
347.55	15.301
347.91	15.030
348.27	14.485
348.63	14.557
349.00	14.395
349.36	14.630
349.72	14.067
350.08	14.441
350.45	14.851
350.81	15.138
351.17	14.407
351.53	13.395
351.89	14.530
352.26	14.664
352.62	13.952
352.98	14.801
353.34	15.100
353.70	13.914
354.07	14.923
354.43	13.902
354.79	14.427
355.15	13.783
355.51	14.048
355.87	15.136
356.24	14.088
356.60	13.470
356.96	13.343
357.32	14.619
357.68	13.289
358.04	13.982
358.40	15.142
358.77	14.876
359.13	14.264
359.49	13.640
359.85	13.924
360.21	12.704
360.57	14.599
360.93	13.997
361.29	14.358
361.66	13.945
362.02	13.849
362.38	13.276
362.74	14.579
363.10	13.815
363.46	13.536
363.82	13.464
364.18	13.798
364.54	14.020
364.90	14.592
365.26	13.949
365.62	14.434
365.98	14.040
366.35	13.034
366.71	14.226
367.07	14.403
367.43	14.036
367.79	13.630
368.15	13.026
368.51	13.301
368.87	13.043
369.23	13.167
369.59	14.093
369.95	13.007
370.31	13.689
370.67	13.255
371.03	14.216
371.39	13.643
371.75	13.608
372.11	13.052
372.47	14.041
372.83	14.072
373.19	14.805
373.55	13.333
373.91	12.983
374.27	13.558
374.63	12.746
374.99	13.410
375.35	13.105
375.71	12.929
376.07	13.594
376.42	12.852
376.78	13.616
377.14	13.303
377.50	12.297
377.86	12.620
378.22	13.528
378.58	13.983
378.94	12.794
379.30	13.341
379.66	13.064
380.02	13.607
380.38	12.588
380.74	14.475
381.09	13.201
381.45	12.775
381.81	12.116
382.17	12.393
382.53	12.418
382.89	13.069
383.25	11.782
383.61	12.622
383.97	12.478
384.32	12.899
384.68	13.547
385.04	12.837
385.40	12.218
385.76	12.405
386.12	12.740
386.48	12.827
386.83	12.469
387.19	12.780
387.55	12.603
387.91	12.587
388.27	12.849
388.62	12.265
388.98	12.128
389.34	12.195
389.70	12.441
390.06	12.439
390.42	12.030
390.77	12.162
391.13	12.492
391.49	12.644
391.85	12.862
392.20	12.813
392.56	12.246
392.92	11.454
393.28	11.323
393.64	11.869
393.99	12.389
394.35	12.125
394.71	11.942
395.07	11.740
395.42	12.939
395.78	12.647
396.14	12.831
396.50	12.214
396.85	12.012
397.21	12.635
397.57	12.014
397.92	11.727
398.28	11.307
398.64	11.576
399.00	11.758
399.35	11.863
399.71	12.252
400.07	12.158
400.42	11.284
400.78	12.258
401.14	11.509
401.49	11.578
401.85	11.587
402.21	11.072
402.57	11.430
402.92	11.818
403.28	10.800
403.63	10.889
403.99	11.158
404.35	11.723
404.70	11.518
405.06	10.893
405.42	11.909
405.77	11.301
406.13	11.009
406.49	10.745
406.84	10.660
407.20	11.815
407.55	10.954
407.91	12.380
408.27	11.037
408.62	11.059
408.98	11.473
409.34	11.163
409.69	10.890
410.05	10.614
410.40	10.777
410.76	11.048
411.11	11.671
411.47	10.185
411.83	10.896
412.18	10.568
412.54	10.871
412.89	10.914
413.25	11.288
413.60	11.390
413.96	10.952
414.31	10.449
414.67	11.670
415.03	10.345
415.38	11.609
415.74	10.486
416.09	11.243
416.45	11.248
416.80	11.802
417.16	10.376
417.51	10.955
417.87	10.576
418.22	10.632
418.58	10.764
418.93	11.362
419.29	11.275
419.64	11.448
420.00	11.158
420.35	11.266
420.71	10.443
421.06	10.477
421.42	10.535
421.77	11.383
422.12	10.970
422.48	10.991
422.83	11.830
423.19	10.259
423.54	11.081
423.90	11.608
424.25	11.062
424.61	11.376
424.96	10.841
425.31	10.564
425.67	11.336
426.02	11.497
426.38	11.027
426.73	11.047
427.09	11.329
427.44	11.536
427.79	10.863
428.15	11.491
428.50	11.886
428.85	11.817
429.21	11.615
429.56	11.316
429.92	11.437
430.27	11.224
430.62	11.160
430.98	10.978
431.33	10.887
431.68	10.370
432.04	10.760
432.39	11.910
432.74	11.593
433.10	11.019
433.45	11.660
433.80	11.693
434.16	11.456
434.51	11.507
434.86	11.214
435.22	11.183
435.57	12.092
435.92	11.952
436.28	12.039
436.63	11.453
436.98	11.824
437.34	11.530
437.69	12.206
438.04	11.344
438.39	11.559
438.75	12.082
439.10	11.549
439.45	11.532
439.81	12.030
440.16	11.447
440.51	12.162
440.86	12.137
441.22	11.310
441.57	11.654
441.92	11.402
442.27	11.289
442.63	11.331
442.98	11.800
443.33	12.105
443.68	12.173
444.03	11.734
444.39	12.147
444.74	12.008
445.09	12.112
445.44	11.371
445.79	11.598
446.15	11.526
446.50	11.709
446.85	12.052
447.20	10.995
447.55	12.017
447.91	12.893
448.26	12.460
448.61	11.609
448.96	11.819
449.31	12.266
449.66	12.569
450.02	11.507
450.37	11.827
450.72	12.231
451.07	12.216
451.42	12.152
451.77	12.314
452.12	12.195
452.47	12.515
452.83	12.507
453.18	12.673
453.53	12.137
453.88	11.943
454.23	13.074
454.58	12.646
454.93	11.772
455.28	12.729
455.63	11.998
455.98	11.844
456.34	12.948
456.69	11.829
457.04	12.172
457.39	12.229
457.74	13.119
458.09	12.802
458.44	12.705
458.79	12.202
459.14	11.784
459.49	12.741
459.84	12.391
460.19	12.599
460.54	13.162
460.89	12.420
461.24	12.199
461.59	12.868
461.94	11.879
462.29	12.414
462.64	12.626
462.99	12.860
463.34	12.443
463.69	13.551
464.04	13.184
464.39	12.879
464.74	12.544
465.09	12.304
465.44	12.622
465.79	11.704
466.14	11.553
466.49	12.859
466.84	12.430
467.19	12.595
467.54	12.492
467.89	12.735
468.24	12.334
468.59	12.381
468.94	12.681
469.29	12.767
469.64	13.698
469.99	13.560
470.34	12.777
470.68	12.552
471.03	13.342
471.38	13.510
471.73	13.129
472.08	13.112
472.43	13.097
472.78	13.380
473.13	12.766
473.48	13.203
473.83	12.839
474.17	13.070
474.52	12.678
474.87	11.768
475.22	12.164
475.57	13.116
475.92	12.366
476.27	12.187
476.61	13.083
476.96	12.539
477.31	11.979
477.66	12.775
478.01	12.635
478.36	12.616
478.70	11.762
479.05	12.448
479.40	12.450
479.75	12.562
480.10	12.536
480.45	11.951
480.79	12.581
481.14	11.460
481.49	12.763
481.84	11.829
482.19	12.664
482.53	12.297
482.88	12.231
483.23	12.449
483.58	12.208
483.92	12.386
484.27	12.029
484.62	12.139
484.97	11.804
485.31	11.615
485.66	11.307
486.01	10.547
486.36	10.362
486.70	10.077
487.05	10.599
487.40	10.897
487.75	10.996
488.09	11.080
488.44	11.058
488.79	11.316
489.13	12.393
489.48	12.026
489.83	11.802
490.17	12.139
490.52	12.059
490.87	12.543
491.22	12.500
491.56	12.648
491.91	12.186
492.26	12.027
492.60	12.437
492.95	12.370
493.30	12.602
493.64	12.983
493.99	12.746
494.34	12.371
494.68	12.483
495.03	12.708
495.37	12.607
495.72	12.774
496.07	12.534
496.41	12.120
496.76	12.410
497.11	12.939
497.45	12.582
497.80	12.651
498.14	12.668
498.49	12.628
498.84	13.037
499.18	12.569
499.53	12.127
499.87	13.073
500.22	12.713
500.56	12.581
500.91	12.523
501.26	12.448
501.60	12.158
501.95	11.514
502.29	11.956
502.64	12.439
502.98	12.139
503.33	12.339
503.67	12.583
504.02	11.912
504.36	12.624
504.71	12.535
505.06	12.201
505.40	12.401
505.75	11.740
506.09	12.599
506.44	12.453
506.78	13.091
507.13	12.506
507.47	12.518
507.82	13.236
508.16	13.572
508.51	12.754
508.85	12.583
509.19	12.580
509.54	12.207
509.88	12.979
510.23	12.696
510.57	11.969
510.92	13.137
511.26	12.701
511.61	12.802
511.95	12.743
512.30	12.800
512.64	12.357
512.98	12.660
513.33	12.705
513.67	13.102
514.02	12.364
514.36	12.305
514.70	13.227
515.05	12.840
515.39	12.610
515.74	13.723
516.08	12.527
516.42	13.716
516.77	12.960
517.11	12.800
517.46	13.308
517.80	13.108
518.14	12.676
518.49	13.837
518.83	12.088
519.17	12.923
519.52	12.835
519.86	12.916
520.20	13.973
520.55	12.549
520.89	13.276
521.23	13.960
521.58	13.196
521.92	12.245
522.26	13.211
522.61	13.607
522.95	13.514
523.29	14.152
523.64	12.197
523.98	12.969
524.32	12.976
524.66	13.449
525.01	13.373
525.35	13.435
525.69	13.967
526.04	13.266
526.38	13.479
526.72	12.530
527.06	13.838
527.41	13.301
527.75	13.512
528.09	13.064
528.43	14.643
528.78	13.238
529.12	13.787
529.46	13.092
529.80	12.383
530.15	13.082
530.49	13.057
530.83	12.736
531.17	13.100
531.51	13.918
531.86	12.862
532.20	13.659
532.54	12.680
532.88	12.804
533.22	13.711
533.57	13.423
533.91	12.821
534.25	12.637
534.59	13.041
534.93	13.197
535.27	12.863
535.62	13.302
535.96	12.293
536.30	12.980
536.64	12.671
536.98	13.405
537.32	13.875
537.66	13.138
538.01	13.375
538.35	13.350
538.69	12.318
539.03	13.060
539.37	12.318
539.71	13.025
540.05	12.677
540.39	13.270
540.73	13.861
541.07	12.986
541.42	12.500
541.76	13.009
542.10	12.947
542.44	12.968
542.78	13.027
543.12	12.086
543.46	12.719
543.80	12.469
544.14	12.755
544.48	12.287
544.82	13.089
545.16	12.508
545.50	13.030
545.84	14.268
546.18	12.939
546.52	13.049
546.86	13.282
547.20	13.307
547.54	13.173
547.88	12.713
548.22	11.840
548.56	13.023
548.90	12.693
549.24	13.392
549.58	12.887
549.92	13.163
550.26	13.455
550.60	12.176
550.94	12.687
551.28	13.379
551.62	14.276
551.96	12.230
552.30	12.657
552.64	12.492
552.98	12.758
553.32	12.548
553.66	12.313
554.00	13.578
554.34	13.316
554.68	12.903
555.02	13.035
555.36	13.098
555.69	13.154
556.03	12.930
556.37	13.257
556.71	13.494
557.05	12.582
557.39	13.600
557.73	13.208
558.07	13.213
558.41	13.023
558.75	14.501
559.08	13.295
559.42	13.601
559.76	13.542
560.10	12.526
560.44	12.873
560.78	12.980
561.12	13.541
561.45	12.703
561.79	12.172
562.13	12.129
562.47	12.589
562.81	12.687
563.15	13.316
563.48	12.484
563.82	13.225
564.16	12.624
564.50	12.538
564.84	12.401
565.17	12.597
565.51	13.300
565.85	12.647
566.19	13.393
566.52	12.395
566.86	13.193
567.20	12.978
567.54	11.681
567.88	12.937
568.21	11.433
568.55	12.695
568.89	11.679
569.23	10.958
569.56	11.821
569.90	10.816
570.24	10.903
570.57	10.740
570.91	10.172
571.25	10.320
571.59	10.237
571.92	10.065
572.26	9.730
572.60	9.497
572.93	10.265
573.27	9.736
573.61	9.881
573.95	9.661
574.28	9.792
574.62	9.525
574.96	9.200
575.29	9.192
575.63	9.352
575.97	9.494
576.30	9.643
576.64	9.730
576.98	9.334
577.31	9.518
577.65	9.454
577.98	9.332
578.32	9.048
578.66	9.137
578.99	9.524
579.33	9.562
579.67	9.070
580.00	9.356
580.34	9.410
580.67	9.329
581.01	9.831
581.35	9.282
581.68	8.861
582.02	8.986
582.35	8.800
582.69	8.846
583.02	9.296
583.36	9.281
583.70	9.846
584.03	9.868
584.37	9.944
584.70	9.654
585.04	9.565
585.37	9.265
585.71	9.371
586.04	9.631
586.38	9.241
586.72	9.858
587.05	9.779
587.39	9.886
587.72	9.734
588.06	9.610
588.39	9.877
588.73	9.589
589.06	10.330
589.40	10.516
589.73	10.554
590.07	10.089
590.40	10.801
590.73	11.054
591.07	11.537
591.40	10.579
591.74	10.795
592.07	10.483
592.41	10.831
592.74	10.399
593.08	9.961
593.41	9.904
593.75	9.839
594.08	10.225
594.41	10.199
594.75	9.863
595.08	10.597
595.42	10.895
595.75	10.563
596.09	10.358
596.42	10.306
596.75	10.657
597.09	10.730
597.42	10.612
597.75	10.913
598.09	10.341
598.42	10.730
598.76	10.678
599.09	10.445
599.42	10.000
599.76	10.753
600.09	9.695
600.42	10.463
600.76	10.061
601.09	10.321
601.42	10.278
601.76	10.383
602.09	10.449
602.42	10.499
602.76	10.436
603.09	10.370
603.42	10.752
603.76	10.701
604.09	10.351
604.42	10.094
604.76	10.944
605.09	10.408
605.42	11.093
605.75	10.580
606.09	10.329
606.42	10.560
606.75	10.455
607.09	10.028
607.42	10.325
607.75	10.987
608.08	10.073
608.42	10.738
608.75	10.184
609.08	10.559
609.41	11.136
609.75	10.943
610.08	11.286
610.41	11.023
610.74	10.952
611.07	11.278
611.41	11.168
611.74	11.138
612.07	10.983
612.40	11.014
612.73	10.734
613.07	11.353
613.40	12.080
613.73	11.233
614.06	10.450
614.39	11.364
614.72	11.552
615.06	11.474
615.39	11.238
615.72	11.133
616.05	10.799
616.38	11.010
616.71	11.015
617.05	10.928
617.38	10.562
617.71	11.530
618.04	11.273
618.37	11.340
618.70	11.432
619.03	11.783
619.36	12.500
619.69	12.665
620.03	12.851
620.36	12.267
620.69	12.708
621.02	11.957
621.35	12.106
621.68	12.316
622.01	13.506
622.34	11.872
622.67	13.132
623.00	13.410
623.33	12.551
623.66	12.442
623.99	12.945
624.32	12.466
624.65	12.113
624.99	12.103
625.32	12.291
625.65	11.379
625.98	11.855
626.31	12.611
626.64	12.680
626.97	13.007
627.30	11.879
627.63	13.736
627.96	12.989
628.29	12.376
628.62	13.003
628.95	13.298
629.28	13.760
629.61	13.445
629.94	13.397
630.26	13.951
630.59	13.387
630.92	12.197
631.25	15.322
631.58	14.272
631.91	13.606
632.24	14.383
632.57	13.654
632.90	14.389
633.23	15.635
633.56	13.593
633.89	14.148
634.22	14.424
634.55	14.516
634.88	14.677
635.20	15.247
635.53	14.983
635.86	16.331
636.19	14.815
636.52	13.838
636.85	13.484
637.18	15.926
637.51	14.749
637.83	14.989
638.16	15.709
638.49	15.569
638.82	16.432
639.15	13.631
639.48	14.692
639.81	15.385
640.13	15.583
640.46	15.297
640.79	16.125
641.12	14.567
641.45	16.300
641.77	14.795
642.10	17.671
642.43	16.927
642.76	15.483
643.09	16.427
643.41	16.971
643.74	16.978
644.07	15.782
644.40	16.420
644.73	15.766
645.05	17.533
645.38	16.692
645.71	18.665
646.04	18.015
646.36	17.527
646.69	15.840
647.02	17.920
647.35	17.638
647.67	16.856
648.00	16.287
648.33	16.541
648.66	15.909
648.98	15.507
649.31	14.710
649.64	14.385
649.96	12.945
650.29	15.286
650.62	17.378
650.94	17.169
651.27	16.427
651.60	16.588
651.92	17.665
652.25	17.008
652.58	16.738
652.90	16.168
653.23	14.623
653.56	16.766
653.88	15.712
654.21	15.543
654.54	16.691
654.86	14.454
655.19	14.248
655.52	12.862
655.84	7.756
656.17	8.529
656.49	12.050
656.82	13.757
657.15	11.165
657.47	8.356
657.80	6.306
658.13	5.268
658.45	7.199
658.78	8.907
659.10	8.833
659.43	9.277
659.75	9.597
660.08	11.404
660.41	11.887
660.73	16.437
661.06	16.967
661.38	18.228
661.71	17.266
662.03	16.160
662.36	18.095
662.68	16.760
663.01	17.477
663.33	18.491
663.66	17.751
663.98	17.262
664.31	20.522
664.63	19.349
664.96	17.448
665.28	15.631
665.61	17.547
665.93	18.113
666.26	17.570
666.58	17.982
666.91	19.884
667.23	16.064
667.56	21.971
667.88	18.880
668.21	16.598
668.53	19.960
668.86	19.840
669.18	20.163
669.50	17.355
669.83	21.150
670.15	17.048
670.48	16.992
670.80	18.725
671.13	17.331
671.45	19.038
671.77	18.738
672.10	17.056
672.42	13.816
672.75	16.456
673.07	15.580
673.39	17.093
673.72	17.820
674.04	17.204
674.37	17.060
674.69	16.729
675.01	16.791
675.34	14.922
675.66	20.117
675.98	19.527
676.31	17.000
676.63	14.712
676.95	16.270
677.28	16.430
677.60	18.712
677.92	15.873
678.25	17.054
678.57	16.387
678.89	18.626
679.22	19.669
679.54	16.726
679.86	16.754
680.18	15.466
680.51	13.599
680.83	15.372
681.15	15.598
681.48	17.361
681.80	15.587
682.12	16.609
682.44	15.135
682.77	19.395
683.09	19.417
683.41	17.755
683.73	19.685
684.06	18.056
684.38	15.116
684.70	14.928
685.02	14.757
685.34	17.254
685.67	16.238
685.99	14.122
686.31	15.408
686.63	14.472
686.96	16.176
687.28	15.940
687.60	13.993
687.92	17.420
688.24	16.379
688.56	16.548
688.89	14.340
689.21	16.763
689.53	17.391
689.85	16.057
690.17	17.670
690.49	18.750
690.82	17.647
691.14	17.576
691.46	19.507
691.78	16.569
692.10	15.649
692.42	17.604
692.74	16.667
693.06	18.992
693.39	15.415
693.71	16.503
694.03	19.132
694.35	18.675
694.67	17.923
694.99	19.069
695.31	18.694
695.63	19.457
695.95	17.873
696.27	19.469
696.59	19.093
696.91	16.456
697.23	20.588
697.56	16.390
697.88	13.573
698.20	15.094
698.52	14.202
698.84	18.686
699.16	21.322
699.48	18.008
699.80	18.519
700.12	19.169
700.44	19.860
700.76	17.900
701.08	19.582
701.40	17.922
701.72	22.995
702.04	19.512
702.36	20.430
702.68	22.872
703.00	20.050
703.32	22.084
703.64	22.166
703.96	20.052
704.28	22.751
704.60	21.127
704.91	17.647
705.23	19.886
705.55	23.739
705.87	20.317
706.19	24.138
706.51	24.138
706.83	22.124
707.15	20.856
707.47	17.676
707.79	19.540
708.11	16.553
708.43	18.202
708.74	17.421
709.06	16.512
709.38	19.603
709.70	18.256
710.02	17.935
710.34	21.547
710.66	21.667
710.98	21.585
711.29	16.992
711.61	22.563
711.93	18.237
712.25	21.084
712.57	21.543
712.89	20.303
713.20	22.684
713.52	19.315
713.84	22.054
714.16	17.101
714.48	14.986
714.80	17.886
715.11	17.819
715.43	15.922
715.75	17.746
716.07	18.208
716.39	18.286
716.70	21.807
717.02	21.212
717.34	19.784
717.66	20.486
717.97	23.106
718.29	21.479
718.61	18.581
718.93	21.453
719.24	21.812
719.56	17.586
719.88	18.790
720.20	21.290
720.51	21.895
720.83	20.067
721.15	21.769
721.46	22.603
721.78	21.951
722.10	20.486
722.42	25.084
722.73	21.300
723.05	26.667
723.37	27.208
723.68	20.313
724.00	21.212
724.32	23.194
724.63	18.846
724.95	20.784
725.27	22.305
725.58	24.632
725.90	21.479
726.22	21.918
726.53	20.736
726.85	20.847
727.16	22.819
727.48	22.591
727.80	19.424
728.11	26.786
728.43	20.652
728.74	22.378
729.06	16.846
729.38	22.105
729.69	24.667
730.01	21.382
730.32	21.812
730.64	22.259
730.96	19.520
731.27	18.349
731.59	17.816
731.90	19.499
732.22	19.714
732.53	17.664
732.85	20.760
733.16	17.470
733.48	18.182
733.80	19.420
734.11	22.393
734.43	19.006
734.74	16.086
735.06	15.079
735.37	20.103
735.69	17.391
736.00	17.737
736.32	12.727
736.63	17.035
736.95	16.460
737.26	20.732
737.58	20.245
737.89	18.072
738.21	17.881
738.52	18.729
738.83	24.908
739.15	21.603
739.46	18.621
739.78	20.068
740.09	21.866
740.41	20.552
740.72	21.587
741.04	20.629
741.35	19.141
741.66	20.553
741.98	26.609
742.29	24.074
742.61	22.566
742.92	23.305
743.23	20.000
743.55	23.774
743.86	21.961
744.18	23.305
744.49	25.620
744.80	20.276
745.12	22.768
745.43	19.626
745.74	24.444
746.06	21.053
746.37	19.535
746.68	26.106
747.00	22.870
747.31	28.151
747.62	21.721
747.94	20.172
748.25	22.179
748.56	26.695
748.88	23.214
749.19	26.047
749.50	23.744
749.82	24.691
750.13	22.925
750.44	21.000
750.75	17.785
751.07	20.395
751.38	19.142
751.69	22.896
752.01	18.182
752.32	21.262
752.63	22.483
752.94	20.629
753.26	19.531
753.57	22.179
753.88	20.974
754.19	23.466
754.51	20.266
754.82	17.450
755.13	21.622
755.44	21.481
755.75	22.680
756.07	20.890
756.38	18.301
756.69	15.938
757.00	21.068
757.31	20.282
757.63	14.050
757.94	17.819
758.25	16.908
758.56	14.645
758.87	17.794
759.18	22.384
759.50	19.757
759.81	19.881
760.12	15.449
760.43	16.246
760.74	17.975
761.05	18.037
761.36	17.969
761.67	16.442
761.99	20.000
762.30	16.399
762.61	21.875
762.92	20.455
763.23	20.755
763.54	19.231
763.85	16.342
764.16	24.306
764.47	19.932
764.78	20.195
765.10	17.378
765.41	17.898
765.72	17.127
766.03	15.106
766.34	19.512
766.65	20.152
766.96	25.911
767.27	24.299
767.58	23.267
767.89	25.414
768.20	29.268
768.51	19.388
768.82	25.877
769.13	24.314
769.44	21.053
769.75	19.476
770.06	21.429
770.37	15.789
770.68	20.889
770.99	24.153
771.30	22.594
771.61	23.077
771.92	18.702
772.23	21.774
772.54	26.222
772.85	30.693
773.16	19.565
773.47	27.222
773.78	26.238
774.09	24.432
774.39	24.242
774.70	20.588
775.01	25.658
775.32	26.708
775.63	29.452
775.94	34.568
776.25	28.276
776.56	32.061
776.87	30.534
777.18	29.545
777.48	44.882
777.79	40.769
778.10	30.303
778.41	37.313
778.72	30.827
779.03	23.718
779.34	34.459
779.65	21.739
779.95	30.435
780.26	27.381
780.57	36.735
780.88	34.043
781.19	34.167
781.50	30.178
781.80	31.148
782.11	29.101
782.42	28.161
782.73	29.379
783.04	28.387
783.34	21.705
783.65	25.170
783.96	27.097
784.27	23.841
784.57	25.000
784.88	36.232
785.19	31.667
785.50	37.931
785.81	45.736
786.11	32.593
786.42	28.346
786.73	36.937
787.04	34.906
787.34	31.707
787.65	41.667
787.96	26.515
788.26	33.071
788.57	32.847
788.88	33.803
789.19	32.061
789.49	33.784
789.80	32.031
790.11	38.017
790.41	43.519
790.72	39.815
791.03	37.500
791.33	39.394
791.64	34.737
791.95	31.579
792.25	41.667
792.56	30.000
792.87	45.122
793.17	37.500
793.48	43.529
793.79	36.782
794.09	46.591
794.40	36.207
794.70	33.333
795.01	28.462
795.32	30.534
795.62	28.205
795.93	31.933
796.23	30.081
796.54	41.837
796.85	40.909
797.15	46.753
797.46	53.659
797.76	25.000
798.07	48.000
798.37	55.000
798.68	57.500
798.99	48.780
799.29	57.333
799.60	38.372
799.90	42.105
800.21	46.970
800.51	50.704
800.82	63.793
801.12	46.154
801.43	62.667
801.73	43.103
802.04	50.649
802.34	50.685
802.65	54.902
802.95	60.870
803.26	53.226
803.56	56.667
803.87	67.164
804.17	49.206
804.48	39.623
804.78	51.389
805.09	57.576
805.39	68.254
805.70	68.421
806.00	34.286
806.30	53.125
806.61	47.059
806.91	36.667
807.22	48.913
807.52	47.368
807.83	68.421
808.13	57.971
808.43	62.903
808.74	49.315
809.04	62.500
809.35	55.882
809.65	51.515
809.95	62.745
810.26	64.815
810.56	64.063
810.86	63.265
811.17	70.175
811.47	67.391
811.77	79.310
812.08	39.655
812.38	64.286
812.69	73.810
812.99	77.778
813.29	97.143
813.59	93.548
813.90	46.552
814.20	70.492
814.50	78.000
814.81	45.614
815.11	75.926
815.41	51.786
815.72	67.857
816.02	84.000
816.32	70.732
816.62	68.966
816.93	96.970
817.23	90.244
817.53	76.786
817.84	55.556
818.14	64.286
818.44	83.333
818.74	77.358
819.04	61.538
819.35	96.970
819.65	94.231
819.95	85.185
820.25	72.340
820.56	108.108
820.86	94.737
821.16	48.936
821.46	65.789
821.76	65.455
822.07	40.476
822.37	55.263
822.67	100.000
822.97	55.263
823.27	84.783
823.57	75.000
823.88	100.000
824.18	93.939
824.48	78.261
824.78	116.667
825.08	134.783
825.38	137.931
825.69	100.000
825.99	63.830
826.29	44.444
826.59	85.714
826.89	116.667
827.19	82.857
827.49	109.677
827.79	111.538
828.09	85.714
828.39	63.889
828.70	45.946
829.00	114.286
829.30	150.000
829.60	83.333
829.90	74.194
830.20	81.818
830.50	89.189
830.80	150.000
831.10	150.000
831.40	95.238
831.70	141.667
832.00	96.667
832.30	134.783
832.60	116.667
832.90	124.242
833.20	135.000
833.50	81.579
833.80	67.647
834.10	121.053
834.40	147.368
834.70	96.667
835.00	108.000
835.30	83.784
835.60	118.750
835.90	94.595
836.20	157.692
836.50	109.091
836.80	107.317
837.10	182.609
837.40	184.615
837.70	89.474
838.00	120.000
838.30	133.333
838.60	148.000
838.90	340.000
839.19	131.250
839.49	143.333
839.79	89.655
840.09	142.308
840.39	140.000
840.69	205.263
840.99	109.524
841.29	143.478
841.59	200.000
841.88	160.000
842.18	244.444
842.48	117.857
842.78	144.444
843.08	169.231
843.38	154.545
843.68	200.000
843.97	328.571
844.27	126.087
844.57	1100.000
844.87	271.429
845.17	200.000
845.47	109.524
845.76	104.167
846.06	300.000
846.36	129.412
846.66	276.923
846.96	168.750
847.25	169.231
847.55	152.632
847.85	183.333
848.15	220.000
848.44	227.273
848.74	123.810
849.04	150.000
849.34	164.706
849.63	212.500
849.93	256.250
850.23	566.667
850.53	362.500
850.82	309.091
851.12	158.824
851.42	179.167
851.71	250.000
852.01	0.000
852.31	164.706
852.61	470.000
852.90	116.667
853.20	355.556
853.50	-1300.000
853.79	112.000
854.09	118.750
854.39	120.690
854.68	137.931
854.98	180.952
855.28	96.774
855.57	150.000
855.87	188.889
856.17	96.296
856.46	147.368
856.76	129.032
857.05	229.412
857.35	254.545
857.65	230.769
857.94	95.000
858.24	366.667
858.53	271.429
858.83	542.857
859.13	143.478
859.42	244.444
859.72	337.500
860.01	291.667
860.31	650.000
860.60	310.000
860.90	300.000
861.20	176.923
861.49	342.857
861.79	-2400.000
862.08	385.714
862.38	288.889
862.67	207.143
862.97	390.000
863.26	116.667
863.56	675.000
863.85	284.615
864.15	252.941
864.44	172.222
864.74	258.333
865.03	281.818
865.33	300.000
865.62	173.333
865.92	500.000
866.21	650.000
866.51	540.000
866.80	200.000
867.10	733.333
867.39	3300.000
867.69	460.000
867.98	675.000
868.27	147.619
868.57	226.667
868.86	850.000
869.16	119.048
869.45	3300.000
869.75	-383.333
870.04	600.000
870.33	560.000
870.63	412.500
870.92	176.471
871.22	775.000
871.51	357.143
871.80	300.000
872.10	353.846
>>>>>End Processed Spectral Data<<<<<
