SpectraSuite Data File
++++++++++++++++++++++++++++++++++++
Date: Tue May 12 16:29:57 PDT 2015
User: schluterlab
Dark Spectrum Present: Yes
Reference Spectrum Present: Yes
Number of Sampled Component Spectra: 1
Spectrometers: USB2E3373
Integration Time (usec): 3000 (USB2E3373)
Spectra Averaged: 3 (USB2E3373)
Boxcar Smoothing: 0 (USB2E3373)
Correct for Electrical Dark: No (USB2E3373)
Strobe/Lamp Enabled: No (USB2E3373)
Correct for Detector Non-linearity: No (USB2E3373)
Correct for Stray Light: No (USB2E3373)
Number of Pixels in Processed Spectrum: 2048
>>>>>Begin Processed Spectral Data<<<<<
178.53	0.000
178.91	-225.000
179.29	-650.000
179.67	-4400.000
180.04	-160.000
180.42	525.000
180.80	1450.000
181.18	0.000
181.56	-275.000
181.94	0.000
182.31	1400.000
182.69	-3100.000
183.07	614.286
183.45	-3200.000
183.83	-1300.000
184.20	360.000
184.58	571.429
184.96	-176.923
185.34	-233.333
185.72	2050.000
186.09	-950.000
186.47	-3100.000
186.85	866.667
187.23	580.000
187.61	1400.000
187.98	500.000
188.36	278.571
188.74	250.000
189.12	283.333
189.49	825.000
189.87	0.000
190.25	425.000
190.63	2700.000
191.00	-183.333
191.38	-4000.000
191.76	-850.000
192.14	425.000
192.51	-1900.000
192.89	1950.000
193.27	1200.000
193.65	-1300.000
194.02	-740.000
194.40	600.000
194.78	-235.714
195.15	213.333
195.53	-2200.000
195.91	-420.000
196.29	4100.000
196.66	231.250
197.04	900.000
197.42	-1250.000
197.79	525.000
198.17	258.333
198.55	0.000
198.92	285.714
199.30	900.000
199.68	2050.000
200.05	850.000
200.43	-466.667
200.81	216.667
201.18	3100.000
201.56	275.000
201.94	-625.000
202.31	-312.500
202.69	-460.000
203.07	3900.000
203.44	-483.333
203.82	408.333
204.19	380.000
204.57	-1100.000
204.95	-700.000
205.32	-720.000
205.70	633.333
206.08	775.000
206.45	-900.000
206.83	388.889
207.20	189.474
207.58	300.000
207.96	680.000
208.33	0.000
208.71	757.143
209.08	740.000
209.46	-3600.000
209.84	-725.000
210.21	1020.000
210.59	-440.000
210.96	275.000
211.34	-800.000
211.71	445.455
212.09	575.000
212.46	1650.000
212.84	-316.667
213.22	333.333
213.59	-4100.000
213.97	360.000
214.34	1000.000
214.72	1200.000
215.09	1200.000
215.47	-2500.000
215.84	-340.000
216.22	-475.000
216.59	0.000
216.97	0.000
217.34	1250.000
217.72	-1150.000
218.09	1100.000
218.47	437.500
218.84	800.000
219.22	1366.667
219.59	833.333
219.97	542.857
220.34	400.000
220.72	1250.000
221.09	3700.000
221.47	300.000
221.84	900.000
222.22	290.000
222.59	244.444
222.97	285.714
223.34	193.750
223.72	-1550.000
224.09	1100.000
224.46	207.692
224.84	-725.000
225.21	344.444
225.59	286.667
225.96	1200.000
226.34	-660.000
226.71	-775.000
227.08	-600.000
227.46	0.000
227.83	-533.333
228.21	-1650.000
228.58	416.667
228.95	1075.000
229.33	366.667
229.70	1150.000
230.08	307.692
230.45	3100.000
230.82	-700.000
231.20	-733.333
231.57	-1233.333
231.95	660.000
232.32	216.667
232.69	416.667
233.07	275.000
233.44	-1700.000
233.81	293.333
234.19	207.407
234.56	150.000
234.93	176.471
235.31	210.000
235.68	218.750
236.05	139.286
236.43	151.852
236.80	300.000
237.17	158.621
237.55	125.000
237.92	135.000
238.29	154.545
238.67	156.250
239.04	109.756
239.41	95.833
239.79	92.500
240.16	97.917
240.53	78.689
240.91	71.014
241.28	88.136
241.65	78.788
242.02	92.958
242.40	81.429
242.77	67.033
243.14	62.025
243.51	70.707
243.89	69.159
244.26	62.617
244.63	64.356
245.00	63.303
245.38	50.847
245.75	60.606
246.12	68.148
246.49	51.064
246.87	59.836
247.24	64.000
247.61	60.000
247.98	55.782
248.36	55.758
248.73	63.265
249.10	52.381
249.47	53.500
249.84	52.239
250.22	51.351
250.59	48.000
250.96	51.899
251.33	54.419
251.70	50.446
252.08	47.899
252.45	46.215
252.82	44.487
253.19	45.059
253.56	46.923
253.94	46.739
254.31	49.612
254.68	44.599
255.05	48.621
255.42	45.985
255.79	43.648
256.16	45.763
256.54	47.727
256.91	45.425
257.28	43.478
257.65	41.693
258.02	41.888
258.39	46.418
258.76	46.377
259.14	42.000
259.51	45.481
259.88	46.505
260.25	41.484
260.62	42.740
260.99	42.424
261.36	42.340
261.73	43.617
262.10	42.670
262.47	43.500
262.85	43.733
263.22	45.244
263.59	39.386
263.96	44.862
264.33	44.198
264.70	43.489
265.07	41.220
265.44	43.807
265.81	42.453
266.18	44.851
266.55	42.317
266.92	42.729
267.29	41.447
267.66	43.049
268.03	42.377
268.40	38.689
268.77	44.053
269.14	41.432
269.51	38.753
269.88	41.429
270.25	40.605
270.62	42.060
270.99	39.959
271.36	41.667
271.73	42.558
272.10	41.010
272.47	40.278
272.84	36.527
273.21	40.083
273.58	39.879
273.95	40.246
274.32	42.412
274.69	42.323
275.06	40.073
275.43	39.655
275.80	39.245
276.17	39.154
276.54	40.748
276.91	42.537
277.28	38.504
277.65	41.882
278.02	40.441
278.39	38.669
278.76	39.828
279.13	38.612
279.50	39.273
279.87	40.037
280.23	38.674
280.60	40.511
280.97	40.690
281.34	37.294
281.71	39.304
282.08	40.342
282.45	37.838
282.82	37.793
283.19	39.269
283.56	37.025
283.92	38.599
284.29	39.767
284.66	37.983
285.03	37.977
285.40	38.017
285.77	37.037
286.14	38.700
286.51	38.650
286.87	34.968
287.24	34.685
287.61	37.234
287.98	36.119
288.35	34.963
288.72	36.115
289.08	35.285
289.45	37.652
289.82	33.750
290.19	35.139
290.56	35.371
290.93	34.820
291.29	34.116
291.66	34.463
292.03	32.679
292.40	32.791
292.77	32.869
293.13	31.954
293.50	32.119
293.87	32.791
294.24	33.566
294.60	33.244
294.97	32.448
295.34	33.068
295.71	31.669
296.08	32.000
296.44	31.258
296.81	28.908
297.18	30.925
297.55	31.281
297.91	30.542
298.28	30.072
298.65	30.675
299.02	27.986
299.38	29.976
299.75	29.634
300.12	29.587
300.48	29.742
300.85	30.393
301.22	30.233
301.59	27.830
301.95	30.105
302.32	30.151
302.69	29.864
303.05	32.548
303.42	28.139
303.79	28.494
304.15	28.053
304.52	25.793
304.89	29.424
305.25	29.366
305.62	28.038
305.99	28.261
306.35	27.158
306.72	29.136
307.09	29.607
307.45	27.878
307.82	28.395
308.19	28.763
308.55	29.000
308.92	28.557
309.29	29.684
309.65	28.246
310.02	30.020
310.38	29.212
310.75	29.219
311.12	28.736
311.48	31.081
311.85	29.580
312.22	29.704
312.58	29.932
312.95	31.068
313.31	30.056
313.68	30.957
314.05	32.692
314.41	32.588
314.78	32.860
315.14	34.123
315.51	34.626
315.87	34.580
316.24	35.014
316.61	34.109
316.97	34.037
317.34	35.669
317.70	36.523
318.07	36.833
318.43	37.961
318.80	38.091
319.16	38.024
319.53	39.823
319.89	37.634
320.26	41.806
320.62	40.293
320.99	42.040
321.35	42.950
321.72	42.315
322.08	43.583
322.45	45.958
322.81	45.105
323.18	46.181
323.54	47.474
323.91	48.776
324.27	48.453
324.64	48.183
325.00	50.431
325.37	50.675
325.73	52.277
326.10	53.024
326.46	53.675
326.83	53.200
327.19	54.859
327.56	54.153
327.92	56.639
328.29	57.283
328.65	59.418
329.01	57.656
329.38	58.545
329.74	57.643
330.11	59.427
330.47	60.699
330.84	57.550
331.20	59.814
331.56	60.881
331.93	60.393
332.29	59.354
332.66	60.289
333.02	60.481
333.38	62.740
333.75	61.134
334.11	60.319
334.48	61.709
334.84	61.233
335.20	61.762
335.57	60.537
335.93	59.882
336.29	60.614
336.66	63.722
337.02	62.703
337.38	61.479
337.75	63.260
338.11	62.869
338.47	61.558
338.84	60.711
339.20	61.905
339.56	62.489
339.93	61.789
340.29	62.269
340.65	63.453
341.02	60.821
341.38	63.300
341.74	62.874
342.11	64.023
342.47	62.100
342.83	64.069
343.20	64.107
343.56	61.398
343.92	63.749
344.28	62.839
344.65	63.081
345.01	62.540
345.37	61.378
345.73	62.302
346.10	61.673
346.46	63.477
346.82	61.728
347.19	62.287
347.55	61.436
347.91	62.689
348.27	62.897
348.63	62.737
349.00	63.366
349.36	63.268
349.72	62.844
350.08	63.509
350.45	63.442
350.81	62.232
351.17	62.558
351.53	63.356
351.89	62.082
352.26	64.550
352.62	64.178
352.98	64.187
353.34	63.790
353.70	63.073
354.07	64.154
354.43	65.131
354.79	63.098
355.15	64.089
355.51	63.218
355.87	63.931
356.24	65.589
356.60	63.546
356.96	65.428
357.32	63.979
357.68	64.244
358.04	65.350
358.40	64.693
358.77	66.266
359.13	64.489
359.49	64.789
359.85	65.004
360.21	64.190
360.57	64.234
360.93	65.007
361.29	66.089
361.66	65.846
362.02	63.991
362.38	67.532
362.74	64.968
363.10	65.919
363.46	64.157
363.82	66.620
364.18	66.999
364.54	66.953
364.90	65.596
365.26	66.551
365.62	65.815
365.98	64.556
366.35	66.690
366.71	67.037
367.07	66.280
367.43	66.488
367.79	66.024
368.15	65.265
368.51	66.782
368.87	67.391
369.23	65.558
369.59	66.150
369.95	67.622
370.31	66.872
370.67	66.620
371.03	67.087
371.39	68.006
371.75	67.481
372.11	67.029
372.47	67.397
372.83	67.233
373.19	67.032
373.55	67.835
373.91	67.127
374.27	67.659
374.63	68.068
374.99	67.183
375.35	68.481
375.71	68.140
376.07	69.231
376.42	67.775
376.78	68.979
377.14	69.266
377.50	69.101
377.86	67.969
378.22	70.384
378.58	68.947
378.94	69.644
379.30	69.982
379.66	70.018
380.02	70.205
380.38	68.677
380.74	71.280
381.09	70.386
381.45	68.786
381.81	69.267
382.17	70.696
382.53	69.526
382.89	69.840
383.25	70.870
383.61	69.741
383.97	69.166
384.32	70.826
384.68	72.074
385.04	71.454
385.40	70.819
385.76	70.860
386.12	71.614
386.48	71.976
386.83	71.577
387.19	71.084
387.55	71.731
387.91	70.727
388.27	71.446
388.62	70.364
388.98	70.612
389.34	70.018
389.70	69.929
390.06	71.098
390.42	71.376
390.77	71.376
391.13	71.515
391.49	71.083
391.85	72.062
392.20	72.050
392.56	69.833
392.92	71.926
393.28	71.020
393.64	70.183
393.99	70.065
394.35	69.865
394.71	70.989
395.07	70.560
395.42	70.316
395.78	72.733
396.14	72.651
396.50	72.022
396.85	71.463
397.21	72.142
397.57	70.891
397.92	70.653
398.28	71.980
398.64	72.891
399.00	70.497
399.35	69.673
399.71	69.978
400.07	71.804
400.42	71.284
400.78	72.551
401.14	70.816
401.49	70.737
401.85	71.147
402.21	72.291
402.57	73.309
402.92	72.121
403.28	71.838
403.63	70.159
403.99	71.713
404.35	71.102
404.70	72.652
405.06	70.466
405.42	71.095
405.77	71.114
406.13	71.204
406.49	70.210
406.84	70.051
407.20	71.747
407.55	71.323
407.91	71.474
408.27	70.770
408.62	70.905
408.98	71.082
409.34	69.258
409.69	70.566
410.05	70.781
410.40	70.495
410.76	69.433
411.11	70.912
411.47	70.062
411.83	69.537
412.18	70.833
412.54	69.550
412.89	69.971
413.25	69.840
413.60	69.860
413.96	70.497
414.31	70.189
414.67	71.695
415.03	69.604
415.38	72.681
415.74	73.026
416.09	71.955
416.45	72.204
416.80	72.162
417.16	69.764
417.51	69.618
417.87	70.338
418.22	69.988
418.58	71.210
418.93	71.386
419.29	69.871
419.64	70.745
420.00	71.718
420.35	71.138
420.71	70.187
421.06	70.277
421.42	70.754
421.77	73.348
422.12	72.051
422.48	69.286
422.83	70.424
423.19	70.194
423.54	69.775
423.90	71.461
424.25	72.317
424.61	71.503
424.96	71.880
425.31	72.195
425.67	72.447
426.02	70.780
426.38	70.362
426.73	72.007
427.09	71.056
427.44	71.244
427.79	72.441
428.15	73.188
428.50	72.514
428.85	73.016
429.21	70.448
429.56	71.685
429.92	71.556
430.27	71.698
430.62	70.925
430.98	70.509
431.33	71.371
431.68	68.840
432.04	70.409
432.39	73.326
432.74	71.897
433.10	71.041
433.45	73.119
433.80	73.249
434.16	71.939
434.51	72.704
434.86	72.237
435.22	72.285
435.57	72.081
435.92	71.713
436.28	74.309
436.63	72.447
436.98	72.523
437.34	72.260
437.69	72.116
438.04	72.312
438.39	72.271
438.75	72.216
439.10	72.585
439.45	71.340
439.81	72.123
440.16	72.042
440.51	71.453
440.86	73.162
441.22	71.266
441.57	73.123
441.92	72.359
442.27	72.577
442.63	72.256
442.98	72.575
443.33	71.934
443.68	73.441
444.03	72.055
444.39	73.258
444.74	72.723
445.09	72.828
445.44	72.476
445.79	73.489
446.15	72.579
446.50	72.046
446.85	72.809
447.20	72.687
447.55	73.844
447.91	74.427
448.26	72.258
448.61	73.521
448.96	73.856
449.31	74.312
449.66	72.924
450.02	72.123
450.37	74.403
450.72	76.088
451.07	72.135
451.42	75.104
451.77	73.826
452.12	72.377
452.47	74.787
452.83	73.915
453.18	72.012
453.53	74.067
453.88	74.400
454.23	73.852
454.58	72.844
454.93	73.329
455.28	74.419
455.63	75.473
455.98	74.337
456.34	76.231
456.69	75.000
457.04	74.642
457.39	74.343
457.74	73.986
458.09	72.880
458.44	71.906
458.79	73.952
459.14	73.650
459.49	72.933
459.84	73.967
460.19	73.164
460.54	73.618
460.89	74.094
461.24	72.910
461.59	73.186
461.94	73.877
462.29	74.542
462.64	75.063
462.99	74.216
463.34	73.947
463.69	73.866
464.04	74.093
464.39	72.467
464.74	73.154
465.09	73.883
465.44	74.646
465.79	71.965
466.14	72.708
466.49	72.491
466.84	72.798
467.19	73.345
467.54	72.733
467.89	73.357
468.24	72.785
468.59	73.333
468.94	72.705
469.29	71.778
469.64	73.505
469.99	73.522
470.34	74.067
470.68	74.138
471.03	74.183
471.38	73.642
471.73	74.265
472.08	76.582
472.43	74.115
472.78	75.736
473.13	73.279
473.48	74.205
473.83	74.264
474.17	73.009
474.52	72.275
474.87	73.110
475.22	73.672
475.57	71.511
475.92	73.582
476.27	71.926
476.61	73.029
476.96	71.578
477.31	72.699
477.66	74.235
478.01	71.893
478.36	73.481
478.70	71.712
479.05	72.646
479.40	72.222
479.75	72.393
480.10	72.943
480.45	72.176
480.79	71.751
481.14	73.466
481.49	70.860
481.84	71.504
482.19	72.314
482.53	71.893
482.88	71.864
483.23	71.358
483.58	71.409
483.92	73.492
484.27	71.490
484.62	72.368
484.97	69.575
485.31	69.376
485.66	68.556
486.01	66.350
486.36	66.646
486.70	66.036
487.05	66.924
487.40	66.690
487.75	68.128
488.09	68.409
488.44	67.909
488.79	69.108
489.13	69.653
489.48	71.235
489.83	70.100
490.17	69.240
490.52	71.705
490.87	69.612
491.22	71.055
491.56	70.971
491.91	69.982
492.26	71.225
492.60	72.756
492.95	69.869
493.30	69.973
493.64	71.204
493.99	70.259
494.34	71.044
494.68	70.429
495.03	70.947
495.37	71.184
495.72	70.443
496.07	70.395
496.41	69.765
496.76	70.156
497.11	71.251
497.45	70.145
497.80	70.389
498.14	70.134
498.49	71.495
498.84	70.748
499.18	69.698
499.53	70.005
499.87	69.272
500.22	70.843
500.56	70.102
500.91	70.965
501.26	70.831
501.60	70.446
501.95	70.251
502.29	70.356
502.64	68.769
502.98	68.608
503.33	68.909
503.67	68.962
504.02	68.070
504.36	69.186
504.71	69.915
505.06	70.061
505.40	70.332
505.75	68.569
506.09	70.742
506.44	69.032
506.78	70.274
507.13	70.092
507.47	69.238
507.82	70.608
508.16	71.191
508.51	69.807
508.85	69.611
509.19	70.534
509.54	69.434
509.88	70.612
510.23	69.706
510.57	67.471
510.92	70.030
511.26	70.432
511.61	69.030
511.95	69.886
512.30	69.100
512.64	69.626
512.98	68.375
513.33	69.980
513.67	69.964
514.02	69.558
514.36	69.938
514.70	69.973
515.05	71.177
515.39	72.094
515.74	70.804
516.08	70.044
516.42	72.404
516.77	69.653
517.11	70.560
517.46	70.851
517.80	70.071
518.14	70.761
518.49	70.507
518.83	69.341
519.17	71.159
519.52	70.126
519.86	71.335
520.20	71.014
520.55	69.813
520.89	70.920
521.23	71.671
521.58	70.568
521.92	70.437
522.26	69.431
522.61	71.242
522.95	72.252
523.29	70.585
523.64	69.711
523.98	71.362
524.32	70.646
524.66	71.188
525.01	70.947
525.35	71.067
525.69	70.801
526.04	70.256
526.38	70.041
526.72	69.391
527.06	68.894
527.41	70.617
527.75	70.177
528.09	68.934
528.43	70.287
528.78	69.410
529.12	71.824
529.46	69.199
529.80	68.750
530.15	69.063
530.49	69.194
530.83	69.896
531.17	69.926
531.51	69.651
531.86	69.022
532.20	68.294
532.54	69.240
532.88	70.643
533.22	69.226
533.57	69.433
533.91	67.424
534.25	68.090
534.59	69.942
534.93	66.837
535.27	66.762
535.62	68.378
535.96	67.021
536.30	70.140
536.64	68.323
536.98	67.653
537.32	68.375
537.66	69.898
538.01	69.226
538.35	68.497
538.69	68.386
539.03	66.480
539.37	66.201
539.71	67.222
540.05	67.508
540.39	68.553
540.73	67.785
541.07	67.566
541.42	67.786
541.76	66.954
542.10	66.523
542.44	68.516
542.78	68.093
543.12	66.442
543.46	66.729
543.80	67.043
544.14	66.749
544.48	66.180
544.82	66.667
545.16	66.667
545.50	66.872
545.84	67.109
546.18	67.750
546.52	66.361
546.86	66.086
547.20	65.891
547.54	65.801
547.88	64.173
548.22	66.060
548.56	63.995
548.90	62.989
549.24	66.140
549.58	66.624
549.92	66.929
550.26	67.816
550.60	65.935
550.94	67.775
551.28	67.103
551.62	66.345
551.96	65.405
552.30	64.997
552.64	67.120
552.98	65.335
553.32	66.453
553.66	63.974
554.00	65.380
554.34	66.711
554.68	65.121
555.02	65.377
555.36	64.628
555.69	64.987
556.03	65.096
556.37	63.480
556.71	65.059
557.05	63.106
557.39	64.333
557.73	66.779
558.07	64.722
558.41	66.552
558.75	65.253
559.08	66.548
559.42	65.068
559.76	66.429
560.10	64.074
560.44	63.504
560.78	64.258
561.12	64.781
561.45	63.892
561.79	62.921
562.13	63.234
562.47	63.920
562.81	63.240
563.15	62.573
563.48	62.174
563.82	63.506
564.16	63.371
564.50	62.025
564.84	62.796
565.17	61.497
565.51	64.224
565.85	63.849
566.19	62.262
566.52	62.034
566.86	62.522
567.20	62.865
567.54	62.172
567.88	62.233
568.21	60.110
568.55	61.187
568.89	58.987
569.23	58.628
569.56	59.026
569.90	56.917
570.24	56.797
570.57	57.073
570.91	56.724
571.25	56.287
571.59	54.992
571.92	54.709
572.26	54.690
572.60	55.096
572.93	55.262
573.27	54.825
573.61	54.115
573.95	54.631
574.28	54.993
574.62	54.378
574.96	53.345
575.29	52.638
575.63	53.310
575.97	53.213
576.30	52.949
576.64	53.199
576.98	52.751
577.31	53.684
577.65	53.748
577.98	53.088
578.32	51.699
578.66	52.683
578.99	52.213
579.33	53.248
579.67	52.342
580.00	52.259
580.34	52.526
580.67	52.528
581.01	52.732
581.35	52.534
581.68	51.157
582.02	51.317
582.35	51.815
582.69	51.872
583.02	51.899
583.36	52.373
583.70	52.709
584.03	53.045
584.37	53.306
584.70	53.123
585.04	51.725
585.37	52.209
585.71	52.247
586.04	51.526
586.38	51.712
586.72	51.532
587.05	51.647
587.39	52.794
587.72	52.232
588.06	52.222
588.39	51.996
588.73	51.975
589.06	52.028
589.40	53.302
589.73	53.950
590.07	54.049
590.40	53.728
590.73	54.793
591.07	54.383
591.40	55.130
591.74	54.099
592.07	53.078
592.41	54.836
592.74	53.350
593.08	51.855
593.41	51.616
593.75	50.776
594.08	51.771
594.41	51.939
594.75	52.740
595.08	52.915
595.42	51.712
595.75	51.991
596.09	52.798
596.42	52.476
596.75	54.247
597.09	52.910
597.42	52.939
597.75	52.535
598.09	53.221
598.42	52.346
598.76	52.159
599.09	52.593
599.42	51.038
599.76	51.085
600.09	50.949
600.42	51.278
600.76	52.175
601.09	51.225
601.42	50.722
601.76	51.450
602.09	51.656
602.42	51.017
602.76	51.233
603.09	51.810
603.42	51.963
603.76	51.627
604.09	51.285
604.42	51.450
604.76	51.521
605.09	51.469
605.42	51.361
605.75	51.125
606.09	51.568
606.42	50.883
606.75	52.157
607.09	50.336
607.42	50.743
607.75	50.637
608.08	51.828
608.42	51.258
608.75	51.091
609.08	51.210
609.41	52.455
609.75	52.885
610.08	51.529
610.41	51.076
610.74	51.558
611.07	52.206
611.41	51.761
611.74	51.482
612.07	52.601
612.40	52.778
612.73	52.671
613.07	53.168
613.40	52.130
613.73	51.872
614.06	50.750
614.39	51.869
614.72	51.532
615.06	51.434
615.39	51.535
615.72	50.726
616.05	51.632
616.38	51.903
616.71	53.174
617.05	52.773
617.38	52.079
617.71	52.475
618.04	52.384
618.37	52.918
618.70	52.252
619.03	52.320
619.36	53.706
619.69	53.232
620.03	54.729
620.36	53.886
620.69	54.598
621.02	54.552
621.35	53.797
621.68	52.876
622.01	55.646
622.34	54.843
622.67	54.775
623.00	52.961
623.33	53.104
623.66	53.693
623.99	54.041
624.32	53.388
624.65	52.469
624.99	54.564
625.32	52.639
625.65	54.276
625.98	52.301
626.31	54.822
626.64	53.986
626.97	52.563
627.30	55.124
627.63	54.788
627.96	53.678
628.29	55.693
628.62	54.320
628.95	56.738
629.28	56.792
629.61	55.009
629.94	56.439
630.26	55.113
630.59	56.117
630.92	56.143
631.25	56.392
631.58	57.763
631.91	56.232
632.24	56.948
632.57	56.483
632.90	59.213
633.23	57.817
633.56	57.640
633.89	58.307
634.22	58.235
634.55	59.032
634.88	59.255
635.20	58.969
635.53	60.859
635.86	57.830
636.19	57.688
636.52	55.459
636.85	56.311
637.18	59.263
637.51	57.318
637.83	56.636
638.16	58.148
638.49	58.204
638.82	59.038
639.15	56.169
639.48	60.071
639.81	58.608
640.13	55.092
640.46	58.028
640.79	59.558
641.12	56.693
641.45	58.991
641.77	58.917
642.10	57.564
642.43	59.744
642.76	61.080
643.09	60.807
643.41	58.065
643.74	59.568
644.07	60.177
644.40	59.911
644.73	62.162
645.05	60.921
645.38	60.949
645.71	60.546
646.04	61.679
646.36	64.945
646.69	60.800
647.02	61.440
647.35	60.787
647.67	62.399
648.00	63.355
648.33	60.301
648.66	60.455
648.98	57.536
649.31	56.545
649.64	58.091
649.96	56.330
650.29	57.857
650.62	58.027
650.94	58.886
651.27	60.766
651.60	58.685
651.92	58.525
652.25	61.102
652.58	54.610
652.90	57.186
653.23	56.573
653.56	57.270
653.88	56.388
654.21	54.399
654.54	55.783
654.86	57.375
655.19	55.013
655.52	47.530
655.84	39.077
656.17	44.989
656.49	64.494
656.82	73.156
657.15	58.522
657.47	43.688
657.80	32.592
658.13	25.626
658.45	34.792
658.78	42.142
659.10	42.843
659.43	43.231
659.75	44.829
660.08	47.431
660.41	50.000
660.73	54.956
661.06	56.456
661.38	59.796
661.71	60.072
662.03	63.118
662.36	58.476
662.68	57.169
663.01	60.541
663.33	59.057
663.66	61.736
663.98	60.516
664.31	61.754
664.63	61.111
664.96	58.912
665.28	58.757
665.61	59.057
665.93	60.566
666.26	58.692
666.58	62.018
666.91	58.880
667.23	55.622
667.56	61.602
667.88	61.411
668.21	61.270
668.53	59.879
668.86	58.717
669.18	59.063
669.50	57.851
669.83	62.423
670.15	60.499
670.48	57.617
670.80	56.375
671.13	58.566
671.45	58.918
671.77	59.926
672.10	56.912
672.42	53.947
672.75	54.430
673.07	54.690
673.39	53.035
673.72	56.920
674.04	55.197
674.37	57.169
674.69	53.532
675.01	56.343
675.34	56.202
675.66	58.008
675.98	56.213
676.31	57.800
676.63	58.250
676.95	59.325
677.28	60.243
677.60	57.545
677.92	55.556
678.25	56.589
678.57	57.169
678.89	53.526
679.22	55.699
679.54	56.228
679.86	54.625
680.18	56.239
680.51	55.556
680.83	50.845
681.15	57.366
681.48	53.125
681.80	54.816
682.12	57.266
682.44	53.333
682.77	53.381
683.09	56.311
683.41	60.000
683.73	57.874
684.06	55.159
684.38	58.333
684.70	53.597
685.02	52.951
685.34	55.282
685.67	52.090
685.99	52.381
686.31	51.310
686.63	50.894
686.96	53.431
687.28	49.497
687.60	51.706
687.92	51.926
688.24	54.310
688.56	54.448
688.89	53.346
689.21	53.757
689.53	56.719
689.85	55.691
690.17	53.010
690.49	53.427
690.82	56.723
691.14	54.343
691.46	55.852
691.78	55.166
692.10	54.771
692.42	52.813
692.74	51.938
693.06	54.845
693.39	54.545
693.71	55.010
694.03	54.241
694.35	56.627
694.67	53.971
694.99	56.541
695.31	54.279
695.63	59.050
695.95	57.014
696.27	59.071
696.59	54.654
696.91	54.177
697.23	53.394
697.56	48.963
697.88	53.493
698.20	51.887
698.52	50.584
698.84	56.879
699.16	53.945
699.48	54.025
699.80	56.863
700.12	55.196
700.44	56.075
700.76	55.370
701.08	55.352
701.40	58.961
701.72	59.626
702.04	60.434
702.36	62.097
702.68	56.649
703.00	55.388
703.32	56.328
703.64	56.423
703.96	57.031
704.28	56.085
704.60	58.028
704.91	56.583
705.23	60.511
705.55	59.941
705.87	58.095
706.19	58.621
706.51	61.442
706.83	58.702
707.15	55.615
707.47	57.385
707.79	53.793
708.11	53.061
708.43	54.157
708.74	52.941
709.06	52.326
709.38	55.583
709.70	53.406
710.02	53.533
710.34	58.011
710.66	53.333
710.98	59.016
711.29	57.103
711.61	55.710
711.93	59.271
712.25	58.133
712.57	61.415
712.89	56.364
713.20	61.342
713.52	57.009
713.84	56.495
714.16	53.913
714.48	50.720
714.80	58.266
715.11	55.319
715.43	54.469
715.75	55.493
716.07	56.936
716.39	54.000
716.70	55.452
717.02	59.259
717.34	61.511
717.66	62.153
717.97	63.636
718.29	56.338
718.61	53.716
718.93	56.055
719.24	60.403
719.56	57.241
719.88	51.911
720.20	61.290
720.51	52.288
720.83	59.532
721.15	59.524
721.46	59.247
721.78	56.446
722.10	60.417
722.42	57.191
722.73	55.957
723.05	61.754
723.37	59.011
723.68	56.641
724.00	56.818
724.32	52.852
724.63	59.231
724.95	61.961
725.27	56.506
725.58	54.412
725.90	53.873
726.22	53.082
726.53	54.181
726.85	53.094
727.16	56.711
727.48	51.827
727.80	56.835
728.11	58.571
728.43	54.348
728.74	55.594
729.06	51.971
729.38	58.246
729.69	57.000
730.01	56.579
730.32	53.691
730.64	58.472
730.96	51.952
731.27	46.483
731.59	48.276
731.90	50.418
732.22	48.857
732.53	48.433
732.85	52.632
733.16	49.699
733.48	51.097
733.80	52.464
734.11	53.374
734.43	48.538
734.74	49.330
735.06	51.058
735.37	48.711
735.69	50.145
736.00	51.988
736.32	48.182
736.63	49.842
736.95	50.932
737.26	53.963
737.58	53.067
737.89	50.602
738.21	54.305
738.52	49.498
738.83	58.242
739.15	59.233
739.46	52.069
739.78	54.762
740.09	49.563
740.41	50.000
740.72	52.698
741.04	54.895
741.35	51.562
741.66	50.988
741.98	60.515
742.29	63.426
742.61	50.442
742.92	52.119
743.23	54.000
743.55	51.698
743.86	53.725
744.18	60.169
744.49	59.504
744.80	64.977
745.12	64.732
745.43	64.486
745.74	56.444
746.06	54.386
746.37	65.116
746.68	61.504
747.00	60.538
747.31	54.622
747.62	56.967
747.94	55.794
748.25	53.307
748.56	52.542
748.88	58.482
749.19	54.419
749.50	57.991
749.82	56.379
750.13	55.336
750.44	51.667
750.75	56.040
751.07	47.039
751.38	53.465
751.69	51.515
752.01	55.944
752.32	49.502
752.63	51.007
752.94	50.699
753.26	55.859
753.57	57.198
753.88	53.558
754.19	52.708
754.51	51.163
754.82	51.007
755.13	51.351
755.44	50.741
755.75	57.045
756.07	50.342
756.38	45.752
756.69	50.625
757.00	48.665
757.31	47.324
757.63	46.556
757.94	44.149
758.25	41.304
758.56	42.792
758.87	45.363
759.18	48.256
759.50	49.240
759.81	52.819
760.12	48.596
760.43	47.339
760.74	48.608
761.05	46.684
761.36	43.229
761.67	48.787
761.99	47.606
762.30	50.482
762.61	50.694
762.92	51.136
763.23	50.943
763.54	49.231
763.85	51.362
764.16	52.778
764.47	50.338
764.78	48.534
765.10	42.683
765.41	44.602
765.72	45.856
766.03	46.526
766.34	44.948
766.65	48.669
766.96	49.798
767.27	59.346
767.58	56.931
767.89	64.088
768.20	61.585
768.51	57.143
768.82	50.439
769.13	53.333
769.44	52.256
769.75	47.566
770.06	55.462
770.37	50.439
770.68	48.889
770.99	57.627
771.30	55.649
771.61	52.308
771.92	51.908
772.23	52.016
772.54	54.667
772.85	53.465
773.16	57.609
773.47	50.556
773.78	54.455
774.09	63.636
774.39	60.606
774.70	50.000
775.01	61.842
775.32	64.596
775.63	73.973
775.94	61.728
776.25	64.828
776.56	60.305
776.87	69.466
777.18	56.818
777.48	70.079
777.79	74.615
778.10	68.939
778.41	72.388
778.72	64.662
779.03	65.385
779.34	60.135
779.65	52.795
779.95	57.764
780.26	54.762
780.57	61.905
780.88	62.411
781.19	77.500
781.50	64.497
781.80	55.738
782.11	59.788
782.42	48.276
782.73	53.107
783.04	61.935
783.34	54.264
783.65	55.102
783.96	49.032
784.27	58.278
784.57	55.263
784.88	63.043
785.19	66.667
785.50	63.793
785.81	70.543
786.11	60.741
786.42	62.205
786.73	66.667
787.04	63.208
787.34	57.724
787.65	62.879
787.96	68.939
788.26	59.843
788.57	71.533
788.88	60.563
789.19	62.595
789.49	64.865
789.80	69.531
790.11	58.678
790.41	73.148
790.72	62.037
791.03	68.269
791.33	71.717
791.64	76.842
791.95	67.368
792.25	60.417
792.56	76.000
792.87	84.146
793.17	81.818
793.48	67.059
793.79	75.862
794.09	70.455
794.40	70.690
794.70	61.905
795.01	55.385
795.32	58.015
795.62	61.538
795.93	69.748
796.23	65.041
796.54	85.714
796.85	81.818
797.15	84.416
797.46	86.585
797.76	83.750
798.07	89.333
798.37	81.250
798.68	83.750
798.99	97.561
799.29	56.000
799.60	62.791
799.90	75.000
800.21	95.455
800.51	80.282
800.82	94.828
801.12	90.769
801.43	80.000
801.73	79.310
802.04	85.714
802.34	90.411
802.65	96.078
802.95	91.304
803.26	95.161
803.56	103.333
803.87	101.493
804.17	103.175
804.48	98.113
804.78	94.444
805.09	83.333
805.39	93.651
805.70	103.509
806.00	71.429
806.30	81.250
806.61	75.294
806.91	74.444
807.22	71.739
807.52	81.579
807.83	86.842
808.13	73.913
808.43	96.774
808.74	90.411
809.04	103.571
809.35	88.235
809.65	75.758
809.95	94.118
810.26	100.000
810.56	103.125
810.86	97.959
811.17	103.509
811.47	117.391
811.77	89.655
812.08	87.931
812.38	104.762
812.69	128.571
812.99	95.556
813.29	117.143
813.59	148.387
813.90	84.483
814.20	93.443
814.50	104.000
814.81	94.737
815.11	111.111
815.41	103.571
815.72	96.429
816.02	104.000
816.32	143.902
816.62	103.448
816.93	121.212
817.23	139.024
817.53	107.143
817.84	82.222
818.14	128.571
818.44	104.167
818.74	103.774
819.04	92.308
819.35	133.333
819.65	105.769
819.95	101.852
820.25	119.149
820.56	143.243
820.86	126.316
821.16	93.617
821.46	126.316
821.76	112.727
822.07	102.381
822.37	100.000
822.67	116.279
822.97	113.158
823.27	117.391
823.57	131.250
823.88	112.821
824.18	103.030
824.48	130.435
824.78	122.222
825.08	182.609
825.38	162.069
825.69	123.529
825.99	89.362
826.29	127.778
826.59	142.857
826.89	146.667
827.19	68.571
827.49	132.258
827.79	150.000
828.09	123.810
828.39	108.333
828.70	105.405
829.00	150.000
829.30	250.000
829.60	113.889
829.90	148.387
830.20	109.091
830.50	151.351
830.80	191.667
831.10	161.538
831.40	180.952
831.70	183.333
832.00	126.667
832.30	156.522
832.60	200.000
832.90	160.606
833.20	150.000
833.50	139.474
833.80	138.235
834.10	100.000
834.40	157.895
834.70	106.667
835.00	200.000
835.30	86.486
835.60	143.750
835.90	116.216
836.20	146.154
836.50	204.545
836.80	104.878
837.10	182.609
837.40	369.231
837.70	136.842
838.00	156.667
838.30	183.333
838.60	152.000
838.90	400.000
839.19	206.250
839.49	140.000
839.79	144.828
840.09	146.154
840.39	206.667
840.69	205.263
840.99	128.571
841.29	195.652
841.59	225.000
841.88	192.000
842.18	322.222
842.48	135.714
842.78	166.667
843.08	300.000
843.38	177.273
843.68	192.857
843.97	428.571
844.27	126.087
844.57	1450.000
844.87	321.429
845.17	200.000
845.47	138.095
845.76	212.500
846.06	485.714
846.36	194.118
846.66	261.538
846.96	218.750
847.25	253.846
847.55	126.316
847.85	166.667
848.15	640.000
848.44	263.636
848.74	161.905
849.04	200.000
849.34	135.294
849.63	231.250
849.93	268.750
850.23	1100.000
850.53	412.500
850.82	381.818
851.12	188.235
851.42	183.333
851.71	293.750
852.01	0.000
852.31	223.529
852.61	410.000
852.90	191.667
853.20	411.111
853.50	-2400.000
853.79	160.000
854.09	153.125
854.39	148.276
854.68	165.517
854.98	219.048
855.28	138.710
855.57	271.429
855.87	183.333
856.17	133.333
856.46	184.211
856.76	164.516
857.05	252.941
857.35	200.000
857.65	269.231
857.94	175.000
858.24	366.667
858.53	278.571
858.83	614.286
859.13	178.261
859.42	322.222
859.72	475.000
860.01	283.333
860.31	900.000
860.60	400.000
860.90	450.000
861.20	276.923
861.49	585.714
861.79	-2800.000
862.08	371.429
862.38	388.889
862.67	164.286
862.97	460.000
863.26	146.667
863.56	750.000
863.85	307.692
864.15	247.059
864.44	216.667
864.74	308.333
865.03	336.364
865.33	387.500
865.62	293.333
865.92	550.000
866.21	800.000
866.51	700.000
866.80	211.111
867.10	1000.000
867.39	3900.000
867.69	620.000
867.98	700.000
868.27	152.381
868.57	220.000
868.86	1000.000
869.16	176.190
869.45	2700.000
869.75	-416.667
870.04	650.000
870.33	500.000
870.63	375.000
870.92	194.118
871.22	625.000
871.51	400.000
871.80	366.667
872.10	307.692
>>>>>End Processed Spectral Data<<<<<
