SpectraSuite Data File
++++++++++++++++++++++++++++++++++++
Date: Tue May 12 16:35:39 PDT 2015
User: schluterlab
Dark Spectrum Present: Yes
Reference Spectrum Present: Yes
Number of Sampled Component Spectra: 1
Spectrometers: USB2E3373
Integration Time (usec): 3000 (USB2E3373)
Spectra Averaged: 3 (USB2E3373)
Boxcar Smoothing: 0 (USB2E3373)
Correct for Electrical Dark: No (USB2E3373)
Strobe/Lamp Enabled: No (USB2E3373)
Correct for Detector Non-linearity: No (USB2E3373)
Correct for Stray Light: No (USB2E3373)
Number of Pixels in Processed Spectrum: 2048
>>>>>Begin Processed Spectral Data<<<<<
178.53	0.000
178.91	-133.333
179.29	-575.000
179.67	-3400.000
180.04	-106.667
180.42	700.000
180.80	1750.000
181.18	0.000
181.56	-325.000
181.94	0.000
182.31	1400.000
182.69	-3000.000
183.07	500.000
183.45	-3400.000
183.83	-1550.000
184.20	320.000
184.58	557.143
184.96	-253.846
185.34	-133.333
185.72	1700.000
186.09	-625.000
186.47	-2700.000
186.85	1133.333
187.23	700.000
187.61	1350.000
187.98	400.000
188.36	242.857
188.74	333.333
189.12	391.667
189.49	800.000
189.87	0.000
190.25	450.000
190.63	2500.000
191.00	-191.667
191.38	-3400.000
191.76	-875.000
192.14	475.000
192.51	-2200.000
192.89	1850.000
193.27	866.667
193.65	-966.667
194.02	-700.000
194.40	528.571
194.78	-185.714
195.15	226.667
195.53	-2400.000
195.91	-540.000
196.29	4100.000
196.66	237.500
197.04	925.000
197.42	-1150.000
197.79	500.000
198.17	341.667
198.55	0.000
198.92	557.143
199.30	933.333
199.68	1550.000
200.05	666.667
200.43	-416.667
200.81	200.000
201.18	3000.000
201.56	283.333
201.94	-750.000
202.31	-325.000
202.69	-500.000
203.07	3200.000
203.44	-500.000
203.82	366.667
204.19	560.000
204.57	-2000.000
204.95	-800.000
205.32	-660.000
205.70	533.333
206.08	875.000
206.45	-666.667
206.83	300.000
207.20	168.421
207.58	333.333
207.96	620.000
208.33	0.000
208.71	357.143
209.08	700.000
209.46	-2500.000
209.84	-650.000
210.21	900.000
210.59	-440.000
210.96	266.667
211.34	-850.000
211.71	418.182
212.09	800.000
212.46	1700.000
212.84	-466.667
213.22	422.222
213.59	-1900.000
213.97	270.000
214.34	850.000
214.72	933.333
215.09	933.333
215.47	-3400.000
215.84	-250.000
216.22	-375.000
216.59	0.000
216.97	0.000
217.34	1250.000
217.72	-1350.000
218.09	1300.000
218.47	462.500
218.84	850.000
219.22	1200.000
219.59	1333.333
219.97	371.429
220.34	333.333
220.72	1400.000
221.09	3000.000
221.47	241.667
221.84	1100.000
222.22	240.000
222.59	244.444
222.97	228.571
223.34	212.500
223.72	-1800.000
224.09	1333.333
224.46	223.077
224.84	-700.000
225.21	366.667
225.59	220.000
225.96	1366.667
226.34	-440.000
226.71	-650.000
227.08	-580.000
227.46	0.000
227.83	-616.667
228.21	-1600.000
228.58	266.667
228.95	875.000
229.33	355.556
229.70	1175.000
230.08	307.692
230.45	2600.000
230.82	-750.000
231.20	-900.000
231.57	-733.333
231.95	500.000
232.32	366.667
232.69	483.333
233.07	241.667
233.44	-1650.000
233.81	200.000
234.19	125.926
234.56	237.500
234.93	229.412
235.31	190.000
235.68	193.750
236.05	121.429
236.43	129.630
236.80	264.286
237.17	158.621
237.55	90.625
237.92	105.000
238.29	130.303
238.67	103.125
239.04	112.195
239.41	64.583
239.79	92.500
240.16	77.083
240.53	68.852
240.91	84.058
241.28	54.237
241.65	63.636
242.02	64.789
242.40	60.000
242.77	51.648
243.14	59.494
243.51	62.626
243.89	51.402
244.26	40.187
244.63	58.416
245.00	45.872
245.38	38.983
245.75	46.212
246.12	60.741
246.49	44.681
246.87	41.803
247.24	38.000
247.61	43.125
247.98	42.177
248.36	30.303
248.73	38.776
249.10	34.524
249.47	35.500
249.84	39.303
250.22	35.676
250.59	36.500
250.96	38.819
251.33	32.093
251.70	36.607
252.08	34.454
252.45	35.458
252.82	28.517
253.19	33.597
253.56	35.769
253.94	31.884
254.31	28.295
254.68	31.359
255.05	35.172
255.42	31.387
255.79	28.013
256.16	32.542
256.54	32.468
256.91	28.758
257.28	30.435
257.65	26.646
258.02	30.088
258.39	29.799
258.76	32.174
259.14	29.429
259.51	30.029
259.88	28.267
260.25	27.198
260.62	28.767
260.99	24.518
261.36	28.969
261.73	27.660
262.10	28.534
262.47	25.500
262.85	25.067
263.22	28.792
263.59	27.110
263.96	28.321
264.33	26.667
264.70	28.993
265.07	26.585
265.44	27.294
265.81	25.472
266.18	23.799
266.55	25.296
266.92	26.622
267.29	25.439
267.66	25.336
268.03	25.561
268.40	24.524
268.77	27.753
269.14	25.597
269.51	23.831
269.88	26.735
270.25	23.974
270.62	25.107
270.99	26.775
271.36	26.829
271.73	21.803
272.10	26.061
272.47	24.008
272.84	23.353
273.21	25.620
273.58	25.101
273.95	27.105
274.32	26.070
274.69	26.181
275.06	26.958
275.43	25.096
275.80	23.774
276.17	22.978
276.54	26.355
276.91	25.560
277.28	23.905
277.65	23.801
278.02	23.162
278.39	23.022
278.76	23.966
279.13	23.310
279.50	23.636
279.87	20.112
280.23	22.099
280.60	24.453
280.97	22.931
281.34	24.257
281.71	24.174
282.08	26.496
282.45	22.635
282.82	22.910
283.19	25.437
283.56	22.645
283.92	23.127
284.29	22.463
284.66	23.866
285.03	23.217
285.40	22.975
285.77	20.833
286.14	24.458
286.51	20.552
286.87	19.620
287.24	21.471
287.61	22.948
287.98	21.940
288.35	21.926
288.72	20.789
289.08	22.372
289.45	22.561
289.82	22.813
290.19	21.230
290.56	23.581
290.93	20.719
291.29	19.337
291.66	20.339
292.03	21.178
292.40	21.680
292.77	20.752
293.13	19.971
293.50	19.568
293.87	19.783
294.24	19.161
294.60	21.400
294.97	21.119
295.34	20.053
295.71	19.580
296.08	19.867
296.44	18.933
296.81	19.851
297.18	17.237
297.55	18.719
297.91	17.611
298.28	19.324
298.65	19.141
299.02	16.285
299.38	17.866
299.75	18.780
300.12	18.578
300.48	18.735
300.85	17.163
301.22	16.512
301.59	18.632
301.95	17.036
302.32	19.441
302.69	18.326
303.05	18.855
303.42	16.143
303.79	16.576
304.15	17.822
304.52	17.970
304.89	17.058
305.25	16.685
305.62	18.230
305.99	16.196
306.35	17.158
306.72	16.961
307.09	17.909
307.45	17.107
307.82	16.049
308.19	15.773
308.55	16.000
308.92	16.389
309.29	17.160
309.65	16.452
310.02	17.039
310.38	16.451
310.75	15.140
311.12	15.613
311.48	17.085
311.85	16.508
312.22	16.810
312.58	15.841
312.95	16.311
313.31	16.292
313.68	15.572
314.05	17.766
314.41	15.084
314.78	15.341
315.14	14.502
315.51	16.651
315.87	16.058
316.24	15.686
316.61	15.398
316.97	15.046
317.34	16.262
317.70	16.067
318.07	16.459
318.43	16.169
318.80	15.587
319.16	15.559
319.53	15.752
319.89	14.875
320.26	16.760
320.62	16.117
320.99	15.539
321.35	16.141
321.72	17.457
322.08	15.697
322.45	16.712
322.81	16.560
323.18	15.542
323.54	17.160
323.91	17.316
324.27	16.269
324.64	15.052
325.00	17.241
325.37	15.514
325.73	15.430
326.10	16.156
326.46	15.937
326.83	15.120
327.19	16.145
327.56	15.974
327.92	16.393
328.29	17.349
328.65	16.695
329.01	16.339
329.38	16.413
329.74	15.457
330.11	16.334
330.47	16.454
330.84	15.186
331.20	15.990
331.56	17.962
331.93	15.997
332.29	15.391
332.66	15.816
333.02	16.065
333.38	16.143
333.75	15.513
334.11	14.849
334.48	15.556
334.84	16.807
335.20	16.595
335.57	15.365
335.93	15.728
336.29	15.257
336.66	15.609
337.02	14.628
337.38	15.047
337.75	15.794
338.11	15.696
338.47	14.818
338.84	16.257
339.20	14.719
339.56	15.307
339.93	15.301
340.29	14.958
340.65	15.507
341.02	16.251
341.38	15.271
341.74	15.116
342.11	15.359
342.47	14.438
342.83	16.407
343.20	14.632
343.56	13.979
343.92	15.029
344.28	14.992
344.65	14.914
345.01	14.841
345.37	14.423
345.73	14.762
346.10	14.104
346.46	15.231
346.82	14.429
347.19	14.451
347.55	14.286
347.91	14.048
348.27	13.091
348.63	14.873
349.00	14.623
349.36	14.630
349.72	15.520
350.08	15.528
350.45	15.385
350.81	15.902
351.17	13.251
351.53	14.550
351.89	14.297
352.26	14.059
352.62	14.404
352.98	15.414
353.34	15.716
353.70	13.609
354.07	14.385
354.43	14.209
354.79	14.503
355.15	14.548
355.51	14.577
355.87	14.458
356.24	14.242
356.60	14.460
356.96	13.647
357.32	13.791
357.68	14.905
358.04	14.362
358.40	14.243
358.77	15.402
359.13	13.739
359.49	13.417
359.85	13.626
360.21	12.853
360.57	14.161
360.93	14.141
361.29	13.492
361.66	14.169
362.02	13.494
362.38	13.853
362.74	14.791
363.10	13.885
363.46	13.812
363.82	14.025
364.18	14.154
364.54	14.092
364.90	13.655
365.26	14.087
365.62	13.467
365.98	13.765
366.35	13.241
366.71	14.018
367.07	13.993
367.43	12.827
367.79	14.229
368.15	13.501
368.51	14.266
368.87	13.383
369.23	13.375
369.59	14.430
369.95	14.196
370.31	12.936
370.67	12.908
371.03	14.426
371.39	13.158
371.75	13.538
372.11	13.800
372.47	14.178
372.83	13.596
373.19	15.353
373.55	13.746
373.91	12.155
374.27	13.426
374.63	13.898
374.99	13.342
375.35	14.113
375.71	14.182
376.07	14.125
376.42	13.107
376.78	14.066
377.14	13.827
377.50	13.421
377.86	13.261
378.22	13.894
378.58	13.620
378.94	13.699
379.30	12.856
379.66	13.125
380.02	14.897
380.38	13.349
380.74	13.899
381.09	12.909
381.45	13.295
381.81	12.707
382.17	13.797
382.53	13.497
382.89	13.956
383.25	12.729
383.61	14.236
383.97	13.737
384.32	13.140
384.68	14.201
385.04	12.837
385.40	13.701
385.76	12.990
386.12	13.667
386.48	13.678
386.83	13.447
387.19	12.544
387.55	13.428
387.91	13.857
388.27	13.980
388.62	13.087
388.98	12.653
389.34	13.206
389.70	12.795
390.06	13.476
390.42	13.880
390.77	14.066
391.13	13.337
391.49	13.975
391.85	13.723
392.20	13.588
392.56	13.859
392.92	12.690
393.28	13.509
393.64	13.188
393.99	13.159
394.35	13.243
394.71	12.726
395.07	13.382
395.42	14.110
395.78	13.880
396.14	14.036
396.50	12.756
396.85	13.415
397.21	13.538
397.57	13.329
397.92	13.056
398.28	12.852
398.64	13.205
399.00	13.255
399.35	12.829
399.71	12.804
400.07	13.470
400.42	12.597
400.78	13.548
401.14	12.977
401.49	12.788
401.85	13.210
402.21	12.830
402.57	13.764
402.92	12.970
403.28	12.828
403.63	13.420
403.99	13.148
404.35	13.892
404.70	13.349
405.06	13.476
405.42	13.465
405.77	13.120
406.13	13.069
406.49	13.360
406.84	12.860
407.20	13.927
407.55	12.985
407.91	13.784
408.27	13.523
408.62	13.365
408.98	13.424
409.34	13.793
409.69	13.503
410.05	13.119
410.40	13.015
410.76	12.536
411.11	13.685
411.47	12.160
411.83	12.419
412.18	12.681
412.54	13.814
412.89	12.625
413.25	13.683
413.60	13.493
413.96	12.328
414.31	13.282
414.67	13.408
415.03	13.218
415.38	12.997
415.74	13.519
416.09	14.428
416.45	14.156
416.80	13.855
417.16	13.558
417.51	13.185
417.87	13.267
418.22	13.670
418.58	13.567
418.93	12.909
419.29	12.138
419.64	12.841
420.00	13.544
420.35	12.602
420.71	12.835
421.06	12.301
421.42	12.205
421.77	13.048
422.12	12.679
422.48	12.738
422.83	12.946
423.19	12.473
423.54	12.726
423.90	13.137
424.25	12.603
424.61	13.639
424.96	12.422
425.31	12.425
425.67	12.682
426.02	12.507
426.38	12.194
426.73	13.071
427.09	12.930
427.44	12.943
427.79	13.093
428.15	13.377
428.50	13.086
428.85	12.757
429.21	12.372
429.56	13.011
429.92	12.481
430.27	12.627
430.62	11.650
430.98	12.824
431.33	12.399
431.68	12.543
432.04	12.830
432.39	13.447
432.74	13.407
433.10	13.068
433.45	12.751
433.80	12.907
434.16	13.295
434.51	13.364
434.86	13.500
435.22	12.264
435.57	12.922
435.92	13.147
436.28	13.537
436.63	13.398
436.98	13.345
437.34	14.669
437.69	12.766
438.04	13.280
438.39	12.901
438.75	13.697
439.10	13.438
439.45	12.945
439.81	12.898
440.16	13.043
440.51	12.894
440.86	13.675
441.22	12.662
441.57	12.808
441.92	12.586
442.27	12.887
442.63	12.398
442.98	12.338
443.33	13.176
443.68	12.726
444.03	13.101
444.39	12.524
444.74	12.629
445.09	13.586
445.44	13.549
445.79	12.281
446.15	12.842
446.50	12.816
446.85	12.649
447.20	12.537
447.55	12.833
447.91	13.106
448.26	13.206
448.61	13.378
448.96	13.181
449.31	12.981
449.66	13.289
450.02	13.128
450.37	13.548
450.72	12.837
451.07	13.147
451.42	13.397
451.77	12.772
452.12	13.330
452.47	13.305
452.83	13.127
453.18	12.973
453.53	14.269
453.88	13.143
454.23	13.306
454.58	13.403
454.93	13.489
455.28	13.219
455.63	14.480
455.98	13.029
456.34	13.678
456.69	12.988
457.04	13.484
457.39	13.714
457.74	13.908
458.09	13.195
458.44	13.308
458.79	13.687
459.14	12.930
459.49	13.930
459.84	13.696
460.19	12.373
460.54	13.618
460.89	13.166
461.24	13.173
461.59	12.982
461.94	13.239
462.29	13.215
462.64	14.447
462.99	12.924
463.34	13.869
463.69	14.519
464.04	13.299
464.39	13.681
464.74	12.544
465.09	13.291
465.44	12.514
465.79	13.010
466.14	13.672
466.49	12.263
466.84	13.657
467.19	14.353
467.54	13.033
467.89	13.380
468.24	12.855
468.59	12.381
468.94	14.010
469.29	14.233
469.64	13.569
469.99	14.075
470.34	13.536
470.68	13.310
471.03	13.476
471.38	13.444
471.73	12.933
472.08	14.416
472.43	13.532
472.78	14.149
473.13	13.204
473.48	14.303
473.83	13.133
474.17	12.584
474.52	13.744
474.87	12.621
475.22	14.335
475.57	13.326
475.92	13.337
476.27	13.166
476.61	12.761
476.96	13.009
477.31	12.956
477.66	13.419
478.01	13.409
478.36	13.028
478.70	13.052
479.05	12.866
479.40	13.492
479.75	13.208
480.10	13.553
480.45	13.025
480.79	12.488
481.14	12.458
481.49	12.900
481.84	12.885
482.19	13.100
482.53	13.175
482.88	12.814
483.23	12.269
483.58	12.792
483.92	13.757
484.27	12.842
484.62	13.455
484.97	13.128
485.31	12.696
485.66	12.151
486.01	11.440
486.36	11.558
486.70	11.343
487.05	12.305
487.40	11.847
487.75	11.826
488.09	12.102
488.44	12.428
488.79	12.044
489.13	12.691
489.48	12.825
489.83	12.802
490.17	13.047
490.52	12.834
490.87	12.888
491.22	13.697
491.56	13.702
491.91	13.082
492.26	13.051
492.60	12.938
492.95	12.551
493.30	12.875
493.64	13.118
493.99	13.193
494.34	12.550
494.68	12.793
495.03	13.471
495.37	13.507
495.72	14.079
496.07	13.432
496.41	13.510
496.76	13.423
497.11	13.582
497.45	13.327
497.80	13.392
498.14	13.592
498.49	13.138
498.84	14.065
499.18	13.117
499.53	13.689
499.87	13.073
500.22	13.634
500.56	13.045
500.91	14.007
501.26	13.597
501.60	13.115
501.95	12.903
502.29	13.422
502.64	13.189
502.98	12.850
503.33	13.051
503.67	13.377
504.02	13.166
504.36	12.896
504.71	13.340
505.06	13.656
505.40	13.149
505.75	13.190
506.09	13.766
506.44	13.816
506.78	13.374
507.13	13.330
507.47	12.809
507.82	13.382
508.16	14.307
508.51	13.623
508.85	13.628
509.19	13.265
509.54	13.086
509.88	13.476
510.23	12.892
510.57	12.645
510.92	14.036
511.26	14.157
511.61	13.491
511.95	13.937
512.30	13.950
512.64	12.565
512.98	13.173
513.33	13.678
513.67	14.034
514.02	13.610
514.36	13.499
514.70	12.960
515.05	13.159
515.39	13.487
515.74	14.161
516.08	14.488
516.42	14.863
516.77	13.173
517.11	14.187
517.46	14.009
517.80	12.889
518.14	13.577
518.49	13.837
518.83	13.956
519.17	13.866
519.52	14.255
519.86	13.842
520.20	14.301
520.55	13.567
520.89	14.138
521.23	12.792
521.58	13.597
521.92	13.411
522.26	13.685
522.61	13.904
522.95	14.054
523.29	14.035
523.64	13.179
523.98	13.674
524.32	13.899
524.66	14.145
525.01	13.077
525.35	14.025
525.69	13.907
526.04	14.634
526.38	14.067
526.72	13.365
527.06	13.720
527.41	14.571
527.75	14.607
528.09	13.847
528.43	14.216
528.78	14.490
529.12	13.907
529.46	14.319
529.80	13.376
530.15	14.496
530.49	13.598
530.83	14.869
531.17	13.776
531.51	14.040
531.86	14.553
532.20	13.782
532.54	13.622
532.88	13.741
533.22	14.442
533.57	14.277
533.91	13.345
534.25	13.445
534.59	14.269
534.93	13.823
535.27	13.375
535.62	13.361
535.96	13.712
536.30	13.955
536.64	14.969
536.98	13.782
537.32	14.500
537.66	12.691
538.01	14.180
538.35	13.537
538.69	13.714
539.03	13.557
539.37	13.714
539.71	13.827
540.05	13.108
540.39	13.396
540.73	13.797
541.07	13.112
541.42	13.806
541.76	13.502
542.10	13.317
542.44	14.401
542.78	14.160
543.12	13.436
543.46	13.471
543.80	13.784
544.14	13.808
544.48	13.382
544.82	13.761
545.16	12.811
545.50	13.891
545.84	14.331
546.18	13.459
546.52	14.557
546.86	14.184
547.20	12.791
547.54	14.440
547.88	13.017
548.22	13.236
548.56	13.200
548.90	13.760
549.24	13.519
549.58	13.402
549.92	13.556
550.26	13.523
550.60	13.972
550.94	14.179
551.28	14.759
551.62	14.897
551.96	13.649
552.30	13.514
552.64	14.304
552.98	13.660
553.32	13.060
553.66	13.550
554.00	13.771
554.34	14.780
554.68	14.180
555.02	14.528
555.36	13.763
555.69	13.940
556.03	14.459
556.37	13.639
556.71	14.733
557.05	13.303
557.39	14.267
557.73	13.477
558.07	13.749
558.41	13.502
558.75	14.227
559.08	14.653
559.42	13.529
559.76	14.612
560.10	14.040
560.44	14.333
560.78	14.706
561.12	14.304
561.45	13.767
561.79	14.357
562.13	13.266
562.47	13.692
562.81	13.728
563.15	13.704
563.48	13.602
563.82	14.036
564.16	13.868
564.50	13.803
564.84	14.103
565.17	13.012
565.51	13.855
565.85	13.387
566.19	13.512
566.52	13.538
566.86	14.127
567.20	13.876
567.54	12.500
567.88	13.406
568.21	12.581
568.55	13.084
568.89	13.184
569.23	12.813
569.56	12.340
569.90	12.469
570.24	12.504
570.57	12.427
570.91	11.919
571.25	11.803
571.59	11.393
571.92	11.410
572.26	11.213
572.60	11.913
572.93	11.673
573.27	11.746
573.61	11.640
573.95	11.628
574.28	12.070
574.62	11.528
574.96	11.709
575.29	11.388
575.63	11.355
575.97	11.344
576.30	10.985
576.64	11.554
576.98	11.795
577.31	11.086
577.65	11.620
577.98	11.026
578.32	11.170
578.66	11.256
578.99	11.391
579.33	11.096
579.67	11.216
580.00	11.030
580.34	11.377
580.67	11.007
581.01	11.762
581.35	11.370
581.68	10.832
582.02	11.404
582.35	11.159
582.69	11.405
583.02	11.033
583.36	11.453
583.70	11.782
584.03	11.857
584.37	11.535
584.70	11.719
585.04	11.182
585.37	10.978
585.71	11.730
586.04	11.124
586.38	11.396
586.72	11.583
587.05	11.760
587.39	11.656
587.72	11.588
588.06	11.746
588.39	11.847
588.73	11.768
589.06	11.760
589.40	11.800
589.73	11.439
590.07	11.977
590.40	12.544
590.73	12.339
591.07	12.865
591.40	12.255
591.74	12.419
592.07	11.980
592.41	12.910
592.74	11.534
593.08	11.426
593.41	11.370
593.75	11.654
594.08	12.011
594.41	11.372
594.75	12.055
595.08	11.831
595.42	12.113
595.75	11.945
596.09	12.444
596.42	11.653
596.75	12.380
597.09	12.175
597.42	12.041
597.75	12.089
598.09	11.407
598.42	11.873
598.76	11.719
599.09	12.026
599.42	11.765
599.76	11.737
600.09	11.831
600.42	12.293
600.76	11.863
601.09	12.047
601.42	11.968
601.76	11.958
602.09	12.472
602.42	12.052
602.76	12.524
603.09	12.104
603.42	12.367
603.76	11.894
604.09	11.618
604.42	11.940
604.76	12.248
605.09	12.082
605.42	12.109
605.75	11.923
606.09	12.050
606.42	12.138
606.75	12.398
607.09	12.278
607.42	12.455
607.75	12.142
608.08	11.860
608.42	13.087
608.75	12.110
609.08	11.923
609.41	12.091
609.75	12.179
610.08	12.185
610.41	12.209
610.74	12.944
611.07	12.506
611.41	12.651
611.74	12.333
612.07	12.428
612.40	12.524
612.73	12.132
613.07	12.418
613.40	12.431
613.73	12.381
614.06	12.050
614.39	13.081
614.72	12.557
615.06	11.968
615.39	12.129
615.72	12.343
616.05	12.607
616.38	12.481
616.71	12.425
617.05	12.136
617.38	12.416
617.71	12.598
618.04	12.900
618.37	12.840
618.70	12.125
619.03	12.637
619.36	13.756
619.69	13.522
620.03	13.503
620.36	13.487
620.69	14.112
621.02	12.840
621.35	12.679
621.68	12.242
622.01	14.539
622.34	12.454
622.67	13.272
623.00	13.274
623.33	13.158
623.66	13.573
623.99	12.603
624.32	13.415
624.65	13.430
624.99	12.982
625.32	13.427
625.65	12.690
625.98	13.668
626.31	12.760
626.64	13.364
626.97	13.236
627.30	14.053
627.63	13.501
627.96	13.380
628.29	14.026
628.62	12.917
628.95	14.805
629.28	15.688
629.61	13.796
629.94	12.878
630.26	14.645
630.59	14.894
630.92	13.991
631.25	15.775
631.58	16.104
631.91	13.130
632.24	14.772
632.57	13.360
632.90	14.182
633.23	15.530
633.56	14.015
633.89	14.684
634.22	14.855
634.55	13.871
634.88	16.210
635.20	15.247
635.53	16.144
635.86	16.219
636.19	16.162
636.52	14.486
636.85	12.945
637.18	15.493
637.51	14.637
637.83	15.789
638.16	17.233
638.49	15.090
638.82	15.493
639.15	13.984
639.48	16.706
639.81	14.774
640.13	15.337
640.46	16.308
640.79	14.434
641.12	14.961
641.45	16.818
641.77	14.795
642.10	14.726
642.43	18.208
642.76	14.205
643.09	14.697
643.41	16.550
643.74	16.115
644.07	17.699
644.40	16.864
644.73	16.667
645.05	16.939
645.38	16.080
645.71	16.388
646.04	17.710
646.36	15.649
646.69	16.640
647.02	16.640
647.35	15.433
647.67	17.018
648.00	18.078
648.33	17.293
648.66	16.667
648.98	14.638
649.31	15.924
649.64	14.385
649.96	15.647
650.29	14.857
650.62	16.642
650.94	17.922
651.27	17.703
651.60	17.997
651.92	18.280
652.25	17.638
652.58	17.447
652.90	17.814
653.23	16.839
653.56	17.062
653.88	15.712
654.21	16.422
654.54	15.373
654.86	15.044
655.19	15.963
655.52	13.543
655.84	9.844
656.17	11.024
656.49	16.276
656.82	18.620
657.15	15.093
657.47	11.189
657.80	8.275
658.13	6.489
658.45	8.820
658.78	10.808
659.10	11.182
659.43	11.202
659.75	11.525
660.08	11.654
660.41	13.612
660.73	15.558
661.06	15.465
661.38	15.503
661.71	17.806
662.03	15.970
662.36	16.952
662.68	16.201
663.01	17.477
663.33	17.736
663.66	18.146
663.98	18.254
664.31	17.724
664.63	18.582
664.96	17.636
665.28	17.514
665.61	17.925
665.93	19.434
666.26	17.196
666.58	17.798
666.91	16.409
667.23	15.863
667.56	19.097
667.88	19.087
668.21	17.213
668.53	16.935
668.86	17.635
669.18	19.348
669.50	18.595
669.83	18.686
670.15	17.672
670.48	14.453
670.80	17.928
671.13	16.932
671.45	19.639
671.77	18.367
672.10	15.978
672.42	16.612
672.75	17.563
673.07	15.421
673.39	15.335
673.72	15.398
674.04	15.950
674.37	18.512
674.69	17.472
675.01	16.604
675.34	15.891
675.66	17.188
675.98	19.724
676.31	17.600
676.63	17.097
676.95	17.262
677.28	17.039
677.60	18.511
677.92	19.246
678.25	16.860
678.57	18.622
678.89	18.445
679.22	17.279
679.54	16.370
679.86	17.103
680.18	16.872
680.51	16.915
680.83	17.230
681.15	16.811
681.48	17.882
681.80	17.338
682.12	18.858
682.44	14.054
682.77	17.794
683.09	17.476
683.41	18.367
683.73	19.685
684.06	16.667
684.38	16.667
684.70	15.827
685.02	14.063
685.34	18.486
685.67	16.399
685.99	16.092
686.31	14.176
686.63	14.797
686.96	16.013
687.28	16.779
687.60	15.358
687.92	17.588
688.24	18.103
688.56	18.149
688.89	16.635
689.21	20.809
689.53	18.182
689.85	18.089
690.17	16.893
690.49	16.129
690.82	16.387
691.14	16.768
691.46	17.864
691.78	20.663
692.10	16.794
692.42	16.878
692.74	17.829
693.06	15.891
693.39	14.822
693.71	16.306
694.03	18.343
694.35	18.273
694.67	17.515
694.99	20.621
695.31	21.847
695.63	19.457
695.95	16.742
696.27	17.257
696.59	18.377
696.91	18.481
697.23	20.362
697.56	14.315
697.88	13.373
698.20	17.736
698.52	17.121
698.84	18.275
699.16	19.190
699.48	16.525
699.80	19.172
700.12	21.247
700.44	19.393
700.76	18.854
701.08	18.538
701.40	19.221
701.72	22.727
702.04	20.867
702.36	19.892
702.68	22.340
703.00	21.053
703.32	18.362
703.64	22.166
703.96	18.229
704.28	19.312
704.60	18.873
704.91	19.328
705.23	23.864
705.55	20.178
705.87	20.317
706.19	20.063
706.51	25.392
706.83	22.714
707.15	22.995
707.47	18.886
707.79	15.632
708.11	17.914
708.43	18.202
708.74	16.968
709.06	17.442
709.38	21.340
709.70	16.076
710.02	21.739
710.34	18.508
710.66	22.222
710.98	18.579
711.29	16.156
711.61	19.777
711.93	20.061
712.25	15.361
712.57	21.865
712.89	20.909
713.20	21.086
713.52	19.626
713.84	23.263
714.16	14.783
714.48	18.156
714.80	18.699
715.11	17.553
715.43	18.156
715.75	16.901
716.07	19.364
716.39	19.714
716.70	16.822
717.02	23.232
717.34	21.583
717.66	24.306
717.97	26.515
718.29	25.352
718.61	23.311
718.93	19.723
719.24	24.497
719.56	22.414
719.88	17.834
720.20	23.871
720.51	17.647
720.83	21.739
721.15	22.789
721.46	21.918
721.78	24.042
722.10	26.389
722.42	25.418
722.73	19.134
723.05	21.053
723.37	21.908
723.68	20.313
724.00	22.348
724.32	26.236
724.63	21.154
724.95	25.098
725.27	23.792
725.58	21.691
725.90	16.549
726.22	22.603
726.53	20.736
726.85	23.779
727.16	24.832
727.48	21.927
727.80	24.460
728.11	21.429
728.43	21.377
728.74	20.979
729.06	18.638
729.38	25.614
729.69	26.667
730.01	24.342
730.32	22.148
730.64	21.927
730.96	21.622
731.27	17.431
731.59	17.241
731.90	20.056
732.22	17.714
732.53	19.373
732.85	22.807
733.16	17.470
733.48	22.571
733.80	22.029
734.11	22.393
734.43	18.713
734.74	19.571
735.06	24.074
735.37	19.330
735.69	17.681
736.00	22.630
736.32	18.485
736.63	18.927
736.95	16.770
737.26	21.646
737.58	18.712
737.89	17.470
738.21	17.219
738.52	20.736
738.83	23.810
739.15	22.300
739.46	20.345
739.78	22.449
740.09	23.615
740.41	21.472
740.72	22.540
741.04	23.776
741.35	19.922
741.66	32.806
741.98	23.176
742.29	22.222
742.61	24.336
742.92	25.424
743.23	26.000
743.55	21.887
743.86	25.490
744.18	22.881
744.49	22.314
744.80	26.267
745.12	29.018
745.43	26.636
745.74	24.444
746.06	21.053
746.37	27.442
746.68	21.239
747.00	25.112
747.31	22.689
747.62	21.311
747.94	24.893
748.25	23.346
748.56	27.119
748.88	26.339
749.19	23.721
749.50	21.461
749.82	26.337
750.13	26.087
750.44	22.667
750.75	22.148
751.07	23.355
751.38	22.772
751.69	18.182
752.01	21.329
752.32	21.262
752.63	21.141
752.94	22.378
753.26	22.656
753.57	24.125
753.88	23.221
754.19	25.632
754.51	23.588
754.82	19.463
755.13	20.946
755.44	22.963
755.75	27.491
756.07	22.603
756.38	19.608
756.69	19.688
757.00	22.849
757.31	22.535
757.63	18.733
757.94	19.681
758.25	21.256
758.56	19.680
758.87	20.301
759.18	20.058
759.50	21.277
759.81	22.849
760.12	19.663
760.43	20.168
760.74	22.025
761.05	20.424
761.36	16.667
761.67	19.946
761.99	24.225
762.30	17.685
762.61	19.097
762.92	20.455
763.23	20.755
763.54	25.000
763.85	17.510
764.16	22.222
764.47	21.622
764.78	23.127
765.10	19.207
765.41	21.307
765.72	21.823
766.03	18.127
766.34	17.422
766.65	24.335
766.96	25.101
767.27	25.701
767.58	28.713
767.89	28.729
768.20	29.268
768.51	21.429
768.82	22.807
769.13	18.824
769.44	27.068
769.75	20.974
770.06	26.050
770.37	25.877
770.68	19.111
770.99	24.153
771.30	26.360
771.61	29.615
771.92	24.046
772.23	22.984
772.54	28.889
772.85	29.208
773.16	26.087
773.47	28.889
773.78	31.188
774.09	30.682
774.39	29.091
774.70	25.882
775.01	22.368
775.32	29.814
775.63	36.301
775.94	34.568
776.25	31.724
776.56	29.771
776.87	35.878
777.18	28.788
777.48	42.520
777.79	32.308
778.10	40.152
778.41	29.104
778.72	37.594
779.03	26.923
779.34	31.081
779.65	34.783
779.95	30.435
780.26	26.190
780.57	41.497
780.88	31.206
781.19	37.500
781.50	32.544
781.80	30.601
782.11	30.688
782.42	24.138
782.73	32.203
783.04	27.097
783.34	25.581
783.65	33.333
783.96	30.968
784.27	29.139
784.57	31.579
784.88	39.130
785.19	35.833
785.50	37.069
785.81	39.535
786.11	35.556
786.42	29.134
786.73	33.333
787.04	40.566
787.34	27.642
787.65	43.939
787.96	29.545
788.26	38.583
788.57	45.985
788.88	35.211
789.19	28.244
789.49	38.514
789.80	34.375
790.11	30.579
790.41	41.667
790.72	38.889
791.03	41.346
791.33	50.505
791.64	44.211
791.95	42.105
792.25	33.333
792.56	52.000
792.87	54.878
793.17	47.727
793.48	47.059
793.79	39.080
794.09	46.591
794.40	44.828
794.70	30.952
795.01	33.846
795.32	27.481
795.62	29.060
795.93	34.454
796.23	33.333
796.54	46.939
796.85	52.273
797.15	55.844
797.46	48.780
797.76	35.000
798.07	46.667
798.37	56.250
798.68	46.250
798.99	63.415
799.29	37.333
799.60	46.512
799.90	42.105
800.21	51.515
800.51	56.338
800.82	51.724
801.12	64.615
801.43	68.000
801.73	63.793
802.04	54.545
802.34	56.164
802.65	72.549
802.95	56.522
803.26	67.742
803.56	73.333
803.87	74.627
804.17	66.667
804.48	71.698
804.78	50.000
805.09	66.667
805.39	66.667
805.70	57.895
806.00	47.143
806.30	53.125
806.61	48.235
806.91	44.444
807.22	47.826
807.52	57.895
807.83	59.211
808.13	50.725
808.43	62.903
808.74	58.904
809.04	67.857
809.35	66.176
809.65	60.606
809.95	78.431
810.26	66.667
810.56	82.813
810.86	69.388
811.17	75.439
811.47	84.783
811.77	53.448
812.08	68.966
812.38	73.810
812.69	66.667
812.99	68.889
813.29	117.143
813.59	106.452
813.90	51.724
814.20	80.328
814.50	68.000
814.81	47.368
815.11	77.778
815.41	71.429
815.72	85.714
816.02	88.000
816.32	95.122
816.62	68.966
816.93	90.909
817.23	80.488
817.53	73.214
817.84	75.556
818.14	85.714
818.44	66.667
818.74	83.019
819.04	84.615
819.35	87.879
819.65	75.000
819.95	96.296
820.25	87.234
820.56	97.297
820.86	92.105
821.16	59.574
821.46	73.684
821.76	76.364
822.07	52.381
822.37	107.895
822.67	83.721
822.97	63.158
823.27	84.783
823.57	106.250
823.88	71.795
824.18	78.788
824.48	169.565
824.78	75.000
825.08	117.391
825.38	103.448
825.69	91.176
825.99	70.213
826.29	72.222
826.59	128.571
826.89	116.667
827.19	60.000
827.49	132.258
827.79	134.615
828.09	64.286
828.39	66.667
828.70	89.189
829.00	125.000
829.30	187.500
829.60	80.556
829.90	109.677
830.20	133.333
830.50	105.405
830.80	133.333
831.10	134.615
831.40	166.667
831.70	141.667
832.00	123.333
832.30	178.261
832.60	141.667
832.90	121.212
833.20	190.000
833.50	92.105
833.80	100.000
834.10	94.737
834.40	115.789
834.70	90.000
835.00	148.000
835.30	75.676
835.60	121.875
835.90	132.432
836.20	130.769
836.50	118.182
836.80	85.366
837.10	117.391
837.40	223.077
837.70	126.316
838.00	146.667
838.30	150.000
838.60	136.000
838.90	300.000
839.19	168.750
839.49	116.667
839.79	117.241
840.09	111.538
840.39	160.000
840.69	226.316
840.99	133.333
841.29	156.522
841.59	205.000
841.88	176.000
842.18	144.444
842.48	178.571
842.78	137.037
843.08	200.000
843.38	163.636
843.68	278.571
843.97	428.571
844.27	173.913
844.57	1650.000
844.87	207.143
845.17	250.000
845.47	166.667
845.76	183.333
846.06	385.714
846.36	135.294
846.66	223.077
846.96	225.000
847.25	215.385
847.55	226.316
847.85	150.000
848.15	380.000
848.44	209.091
848.74	157.143
849.04	129.167
849.34	211.765
849.63	243.750
849.93	175.000
850.23	933.333
850.53	412.500
850.82	263.636
851.12	188.235
851.42	150.000
851.71	212.500
852.01	0.000
852.31	129.412
852.61	410.000
852.90	162.500
853.20	333.333
853.50	-1700.000
853.79	148.000
854.09	131.250
854.39	131.034
854.68	137.931
854.98	185.714
855.28	141.935
855.57	264.286
855.87	194.444
856.17	114.815
856.46	184.211
856.76	151.613
857.05	211.765
857.35	236.364
857.65	292.308
857.94	145.000
858.24	266.667
858.53	285.714
858.83	485.714
859.13	169.565
859.42	266.667
859.72	262.500
860.01	233.333
860.31	850.000
860.60	300.000
860.90	350.000
861.20	261.538
861.49	457.143
861.79	-1900.000
862.08	571.429
862.38	333.333
862.67	178.571
862.97	410.000
863.26	143.333
863.56	575.000
863.85	376.923
864.15	241.176
864.44	155.556
864.74	383.333
865.03	272.727
865.33	312.500
865.62	206.667
865.92	516.667
866.21	850.000
866.51	680.000
866.80	233.333
867.10	866.667
867.39	2400.000
867.69	580.000
867.98	850.000
868.27	171.429
868.57	220.000
868.86	975.000
869.16	195.238
869.45	3800.000
869.75	-400.000
870.04	525.000
870.33	460.000
870.63	375.000
870.92	200.000
871.22	725.000
871.51	357.143
871.80	408.333
872.10	330.769
>>>>>End Processed Spectral Data<<<<<
