SpectraSuite Data File
++++++++++++++++++++++++++++++++++++
Date: Wed May 13 21:45:41 PDT 2015
User: schluterlab
Dark Spectrum Present: Yes
Reference Spectrum Present: Yes
Number of Sampled Component Spectra: 1
Spectrometers: USB2E3373
Integration Time (usec): 3000 (USB2E3373)
Spectra Averaged: 3 (USB2E3373)
Boxcar Smoothing: 0 (USB2E3373)
Correct for Electrical Dark: No (USB2E3373)
Strobe/Lamp Enabled: No (USB2E3373)
Correct for Detector Non-linearity: No (USB2E3373)
Correct for Stray Light: No (USB2E3373)
Number of Pixels in Processed Spectrum: 2048
>>>>>Begin Processed Spectral Data<<<<<
178.53	0.000
178.91	750.000
179.29	225.000
179.67	-450.000
180.04	-133.333
180.42	140.000
180.80	1700.000
181.18	166.667
181.56	-400.000
181.94	-250.000
182.31	9.091
182.69	138.462
183.07	-200.000
183.45	333.333
183.83	133.333
184.20	185.714
184.58	-33.333
184.96	300.000
185.34	157.143
185.72	0.000
186.09	-100.000
186.47	-140.000
186.85	320.000
187.23	-300.000
187.61	250.000
187.98	600.000
188.36	-100.000
188.74	0.000
189.12	-27.273
189.49	20.000
189.87	66.667
190.25	280.000
190.63	-300.000
191.00	-180.000
191.38	120.000
191.76	475.000
192.14	141.667
192.51	-36.842
192.89	433.333
193.27	300.000
193.65	-140.000
194.02	163.636
194.40	170.000
194.78	-600.000
195.15	-60.000
195.53	-140.000
195.91	-75.000
196.29	266.667
196.66	0.000
197.04	500.000
197.42	80.000
197.79	-20.000
198.17	-150.000
198.55	-500.000
198.92	150.000
199.30	-300.000
199.68	-40.000
200.05	200.000
200.43	66.667
200.81	-2100.000
201.18	-120.000
201.56	-216.667
201.94	575.000
202.31	-13.043
202.69	-85.714
203.07	-600.000
203.44	-60.000
203.82	166.667
204.19	0.000
204.57	0.000
204.95	-116.667
205.32	0.000
205.70	-50.000
206.08	-150.000
206.45	-116.667
206.83	350.000
207.20	-33.333
207.58	50.000
207.96	-1100.000
208.33	-114.286
208.71	-1300.000
209.08	87.500
209.46	350.000
209.84	0.000
210.21	20.000
210.59	1500.000
210.96	180.000
211.34	600.000
211.71	-250.000
212.09	-150.000
212.46	-190.000
212.84	-66.667
213.22	-75.000
213.59	-1000.000
213.97	-650.000
214.34	-500.000
214.72	-23.077
215.09	237.500
215.47	133.333
215.84	50.000
216.22	-112.500
216.59	50.000
216.97	633.333
217.34	166.667
217.72	0.000
218.09	333.333
218.47	-100.000
218.84	157.143
219.22	-162.500
219.59	-366.667
219.97	-250.000
220.34	-187.500
220.72	-140.000
221.09	0.000
221.47	-216.667
221.84	-100.000
222.22	0.000
222.59	400.000
222.97	0.000
223.34	-50.000
223.72	-700.000
224.09	-300.000
224.46	-36.364
224.84	0.000
225.21	-157.143
225.59	-150.000
225.96	-33.333
226.34	-80.000
226.71	-157.143
227.08	400.000
227.46	-150.000
227.83	-500.000
228.21	-50.000
228.58	-225.000
228.95	-23.529
229.33	18.750
229.70	0.000
230.08	7.692
230.45	-50.000
230.82	-91.667
231.20	85.714
231.57	-100.000
231.95	600.000
232.32	50.000
232.69	-35.294
233.07	-700.000
233.44	-47.826
233.81	-450.000
234.19	50.000
234.56	-126.667
234.93	-33.333
235.31	5.263
235.68	-84.615
236.05	-38.462
236.43	-50.000
236.80	15.152
237.17	53.333
237.55	-23.529
237.92	-27.586
238.29	-40.741
238.67	-13.889
239.04	6.452
239.41	-17.021
239.79	14.894
240.16	-4.651
240.53	25.000
240.91	19.643
241.28	14.286
241.65	12.903
242.02	10.526
242.40	13.043
242.77	-4.348
243.14	11.538
243.51	15.957
243.89	19.231
244.26	13.208
244.63	15.385
245.00	26.042
245.38	12.605
245.75	12.295
246.12	12.030
246.49	6.504
246.87	14.286
247.24	18.919
247.61	15.232
247.98	14.744
248.36	14.793
248.73	10.112
249.10	12.121
249.47	12.903
249.84	14.211
250.22	19.900
250.59	19.626
250.96	18.182
251.33	14.833
251.70	16.318
252.08	19.247
252.45	18.519
252.82	20.152
253.19	16.732
253.56	15.108
253.94	21.352
254.31	17.254
254.68	18.792
255.05	20.462
255.42	14.336
255.79	18.405
256.16	21.767
256.54	19.365
256.91	14.557
257.28	19.182
257.65	14.650
258.02	16.129
258.39	18.421
258.76	16.860
259.14	17.330
259.51	19.382
259.88	19.783
260.25	18.333
260.62	14.607
260.99	20.690
261.36	18.653
261.73	16.296
262.10	16.794
262.47	16.543
262.85	18.408
263.22	19.744
263.59	17.662
263.96	18.248
264.33	19.231
264.70	17.209
265.07	18.750
265.44	20.690
265.81	18.535
266.18	17.995
266.55	15.721
266.92	17.161
267.29	18.930
267.66	18.471
268.03	18.724
268.40	15.042
268.77	18.802
269.14	16.122
269.51	22.177
269.88	19.348
270.25	20.127
270.62	17.828
270.99	16.732
271.36	18.056
271.73	19.076
272.10	17.333
272.47	18.810
272.84	18.504
273.21	17.221
273.58	20.697
273.95	17.170
274.32	19.590
274.69	18.033
275.06	18.375
275.43	20.527
275.80	18.085
276.17	17.495
276.54	19.005
276.91	17.770
277.28	15.884
277.65	18.357
278.02	19.107
278.39	16.874
278.76	19.398
279.13	18.010
279.50	18.103
279.87	18.478
280.23	18.919
280.60	17.474
280.97	16.883
281.34	18.612
281.71	17.561
282.08	18.462
282.45	18.525
282.82	19.489
283.19	19.207
283.56	19.063
283.92	17.890
284.29	19.033
284.66	17.792
285.03	18.078
285.40	15.257
285.77	19.820
286.14	17.933
286.51	20.990
286.87	17.538
287.24	18.584
287.61	18.223
287.98	19.706
288.35	18.778
288.72	19.082
289.08	20.085
289.45	17.474
289.82	21.785
290.19	19.776
290.56	17.614
290.93	16.575
291.29	17.784
291.66	17.213
292.03	19.210
292.40	18.304
292.77	20.482
293.13	19.665
293.50	19.346
293.87	19.867
294.24	19.974
294.60	18.205
294.97	20.503
295.34	18.470
295.71	17.871
296.08	19.372
296.44	19.005
296.81	19.001
297.18	19.750
297.55	20.165
297.91	20.745
298.28	20.944
298.65	20.690
299.02	20.513
299.38	21.104
299.75	19.712
300.12	19.651
300.48	21.053
300.85	21.132
301.22	21.719
301.59	20.775
301.95	20.441
302.32	21.587
302.69	21.808
303.05	22.702
303.42	20.568
303.79	21.451
304.15	22.125
304.52	22.043
304.89	22.481
305.25	21.186
305.62	21.909
305.99	23.613
306.35	21.735
306.72	22.686
307.09	23.253
307.45	22.045
307.82	22.316
308.19	22.153
308.55	21.904
308.92	24.558
309.29	24.625
309.65	22.777
310.02	24.254
310.38	24.898
310.75	23.471
311.12	23.810
311.48	23.838
311.85	25.886
312.22	26.306
312.58	24.058
312.95	26.269
313.31	25.344
313.68	25.763
314.05	25.520
314.41	26.609
314.78	27.135
315.14	27.222
315.51	28.354
315.87	27.618
316.24	27.548
316.61	27.945
316.97	27.963
317.34	27.807
317.70	27.921
318.07	28.571
318.43	29.720
318.80	27.923
319.16	29.089
319.53	29.301
319.89	29.810
320.26	29.852
320.62	30.584
320.99	31.395
321.35	30.776
321.72	31.761
322.08	30.996
322.45	32.562
322.81	32.810
323.18	34.347
323.54	32.942
323.91	33.785
324.27	35.194
324.64	33.275
325.00	34.646
325.37	36.604
325.73	36.364
326.10	36.165
326.46	37.375
326.83	37.540
327.19	36.829
327.56	37.550
327.92	38.938
328.29	39.482
328.65	41.367
329.01	40.018
329.38	41.913
329.74	39.571
330.11	42.200
330.47	40.365
330.84	41.606
331.20	41.759
331.56	43.297
331.93	41.516
332.29	42.919
332.66	41.525
333.02	42.137
333.38	42.544
333.75	44.113
334.11	43.142
334.48	42.895
334.84	42.314
335.20	41.424
335.57	42.472
335.93	42.096
336.29	41.769
336.66	41.111
337.02	41.739
337.38	42.646
337.75	41.947
338.11	40.905
338.47	41.267
338.84	41.409
339.20	42.328
339.56	42.918
339.93	42.437
340.29	41.588
340.65	44.311
341.02	42.679
341.38	42.483
341.74	41.008
342.11	40.462
342.47	40.335
342.83	42.075
343.20	42.047
343.56	42.437
343.92	41.836
344.28	41.477
344.65	42.367
345.01	41.889
345.37	43.750
345.73	41.422
346.10	41.493
346.46	41.382
346.82	40.530
347.19	41.297
347.55	41.519
347.91	40.530
348.27	41.325
348.63	40.946
349.00	41.431
349.36	41.130
349.72	41.222
350.08	42.590
350.45	40.720
350.81	40.610
351.17	42.417
351.53	40.063
351.89	40.747
352.26	40.077
352.62	42.093
352.98	41.374
353.34	42.190
353.70	39.330
354.07	41.176
354.43	39.969
354.79	41.106
355.15	41.382
355.51	40.926
355.87	41.595
356.24	40.209
356.60	39.484
356.96	40.522
357.32	41.254
357.68	40.642
358.04	40.807
358.40	40.775
358.77	41.055
359.13	40.623
359.49	40.878
359.85	41.092
360.21	40.632
360.57	41.217
360.93	39.985
361.29	40.785
361.66	40.774
362.02	41.586
362.38	40.177
362.74	40.537
363.10	40.564
363.46	39.769
363.82	40.946
364.18	40.174
364.54	40.481
364.90	39.930
365.26	40.694
365.62	40.838
365.98	40.783
366.35	39.574
366.71	40.014
367.07	40.255
367.43	40.488
367.79	40.028
368.15	39.662
368.51	40.014
368.87	39.986
369.23	40.071
369.59	40.451
369.95	39.913
370.31	39.749
370.67	40.478
371.03	40.089
371.39	40.454
371.75	40.857
372.11	40.385
372.47	40.880
372.83	40.361
373.19	40.504
373.55	39.740
373.91	39.463
374.27	39.696
374.63	40.398
374.99	39.415
375.35	40.205
375.71	39.606
376.07	40.302
376.42	39.238
376.78	40.951
377.14	40.610
377.50	40.156
377.86	39.575
378.22	40.455
378.58	40.984
378.94	40.875
379.30	39.538
379.66	40.444
380.02	39.277
380.38	39.880
380.74	40.705
381.09	40.893
381.45	40.206
381.81	40.173
382.17	40.076
382.53	39.877
382.89	39.807
383.25	39.630
383.61	40.194
383.97	38.312
384.32	39.572
384.68	39.420
385.04	39.096
385.40	40.785
385.76	39.477
386.12	39.703
386.48	38.871
386.83	39.299
387.19	39.543
387.55	40.343
387.91	39.668
388.27	37.731
388.62	39.326
388.98	39.362
389.34	38.596
389.70	38.156
390.06	38.125
390.42	39.369
390.77	38.565
391.13	38.699
391.49	38.267
391.85	36.997
392.20	39.098
392.56	39.937
392.92	38.209
393.28	38.234
393.64	38.532
393.99	38.250
394.35	38.642
394.71	39.295
395.07	37.358
395.42	38.208
395.78	38.288
396.14	38.744
396.50	38.364
396.85	40.344
397.21	37.953
397.57	38.447
397.92	37.725
398.28	38.184
398.64	37.705
399.00	39.062
399.35	37.741
399.71	38.090
400.07	38.373
400.42	37.367
400.78	37.523
401.14	38.136
401.49	37.687
401.85	37.346
402.21	38.390
402.57	37.768
402.92	37.985
403.28	38.274
403.63	37.756
403.99	37.236
404.35	37.157
404.70	36.254
405.06	37.522
405.42	36.746
405.77	37.154
406.13	37.371
406.49	37.328
406.84	36.813
407.20	36.530
407.55	37.208
407.91	37.194
408.27	35.870
408.62	37.139
408.98	37.115
409.34	36.510
409.69	36.452
410.05	36.381
410.40	36.275
410.76	35.800
411.11	35.883
411.47	37.624
411.83	36.556
412.18	35.516
412.54	36.905
412.89	36.238
413.25	35.752
413.60	36.301
413.96	35.955
414.31	36.560
414.67	36.571
415.03	37.415
415.38	36.394
415.74	35.543
416.09	38.070
416.45	36.159
416.80	37.114
417.16	37.179
417.51	36.437
417.87	36.310
418.22	36.393
418.58	35.742
418.93	35.656
419.29	36.304
419.64	36.641
420.00	37.016
420.35	35.326
420.71	36.380
421.06	36.224
421.42	37.956
421.77	36.590
422.12	36.447
422.48	36.150
422.83	35.972
423.19	36.573
423.54	37.279
423.90	36.461
424.25	36.800
424.61	37.030
424.96	36.310
425.31	36.063
425.67	37.743
426.02	37.279
426.38	37.749
426.73	36.286
427.09	37.774
427.44	37.170
427.79	36.401
428.15	37.187
428.50	36.012
428.85	36.839
429.21	35.959
429.56	37.035
429.92	37.897
430.27	36.759
430.62	37.198
430.98	37.599
431.33	36.701
431.68	36.901
432.04	37.803
432.39	36.201
432.74	36.481
433.10	37.885
433.45	36.864
433.80	37.011
434.16	36.756
434.51	37.283
434.86	37.279
435.22	37.521
435.57	35.811
435.92	36.429
436.28	36.396
436.63	36.663
436.98	36.604
437.34	38.095
437.69	36.659
438.04	36.672
438.39	36.426
438.75	37.247
439.10	38.346
439.45	37.470
439.81	36.884
440.16	38.029
440.51	36.445
440.86	37.404
441.22	37.063
441.57	37.148
441.92	37.688
442.27	37.662
442.63	36.975
442.98	36.111
443.33	37.415
443.68	37.480
444.03	37.556
444.39	36.837
444.74	37.824
445.09	36.619
445.44	38.704
445.79	37.068
446.15	38.214
446.50	36.949
446.85	37.146
447.20	38.160
447.55	37.437
447.91	37.360
448.26	36.364
448.61	37.917
448.96	37.813
449.31	38.093
449.66	37.594
450.02	37.862
450.37	38.308
450.72	37.830
451.07	38.307
451.42	37.679
451.77	37.797
452.12	37.314
452.47	38.347
452.83	37.323
453.18	37.365
453.53	37.957
453.88	37.651
454.23	38.133
454.58	37.745
454.93	37.652
455.28	37.251
455.63	36.556
455.98	38.101
456.34	36.427
456.69	37.891
457.04	37.709
457.39	37.643
457.74	37.403
458.09	38.329
458.44	38.484
458.79	37.013
459.14	37.135
459.49	37.866
459.84	37.091
460.19	37.515
460.54	38.017
460.89	38.007
461.24	38.409
461.59	37.560
461.94	37.421
462.29	37.623
462.64	37.401
462.99	38.162
463.34	37.845
463.69	38.402
464.04	36.555
464.39	37.645
464.74	37.592
465.09	36.826
465.44	37.205
465.79	37.550
466.14	37.400
466.49	36.950
466.84	37.119
467.19	36.306
467.54	37.006
467.89	38.592
468.24	37.431
468.59	36.839
468.94	37.229
469.29	37.211
469.64	37.029
469.99	37.241
470.34	37.154
470.68	37.026
471.03	37.800
471.38	37.413
471.73	37.791
472.08	36.907
472.43	36.741
472.78	36.782
473.13	36.478
473.48	35.877
473.83	35.907
474.17	37.109
474.52	37.605
474.87	34.439
475.22	36.836
475.57	36.085
475.92	36.532
476.27	36.830
476.61	35.787
476.96	36.779
477.31	37.540
477.66	36.497
478.01	35.385
478.36	35.749
478.70	35.929
479.05	36.016
479.40	36.505
479.75	36.185
480.10	35.951
480.45	35.360
480.79	36.386
481.14	36.879
481.49	36.260
481.84	35.627
482.19	35.618
482.53	35.857
482.88	36.337
483.23	34.793
483.58	35.681
483.92	36.041
484.27	36.139
484.62	35.464
484.97	35.711
485.31	36.068
485.66	34.707
486.01	34.323
486.36	35.127
486.70	35.492
487.05	35.622
487.40	35.313
487.75	35.228
488.09	34.032
488.44	35.612
488.79	35.503
489.13	34.115
489.48	35.870
489.83	35.150
490.17	35.134
490.52	36.325
490.87	35.373
491.22	35.563
491.56	36.176
491.91	35.286
492.26	35.880
492.60	34.728
492.95	35.374
493.30	34.641
493.64	34.388
493.99	35.314
494.34	34.297
494.68	35.609
495.03	35.425
495.37	35.718
495.72	34.536
496.07	35.314
496.41	34.956
496.76	34.918
497.11	34.742
497.45	35.700
497.80	35.487
498.14	34.912
498.49	34.997
498.84	34.160
499.18	34.644
499.53	34.810
499.87	33.479
500.22	34.495
500.56	34.704
500.91	35.111
501.26	35.074
501.60	33.676
501.95	34.787
502.29	34.612
502.64	34.667
502.98	34.152
503.33	34.793
503.67	34.615
504.02	34.069
504.36	33.977
504.71	34.451
505.06	34.080
505.40	34.330
505.75	33.723
506.09	33.827
506.44	33.317
506.78	33.164
507.13	34.771
507.47	33.033
507.82	32.653
508.16	33.826
508.51	34.246
508.85	34.163
509.19	33.757
509.54	34.155
509.88	34.194
510.23	33.211
510.57	33.739
510.92	33.028
511.26	34.103
511.61	33.974
511.95	33.903
512.30	33.703
512.64	33.371
512.98	32.853
513.33	34.254
513.67	33.220
514.02	34.379
514.36	32.921
514.70	33.141
515.05	33.294
515.39	33.196
515.74	33.393
516.08	32.802
516.42	34.159
516.77	33.158
517.11	32.804
517.46	33.914
517.80	34.080
518.14	32.517
518.49	32.911
518.83	33.174
519.17	33.133
519.52	32.750
519.86	32.483
520.20	32.080
520.55	33.333
520.89	33.207
521.23	34.679
521.58	33.249
521.92	32.181
522.26	32.206
522.61	32.838
522.95	32.124
523.29	32.063
523.64	32.295
523.98	32.211
524.32	31.821
524.66	31.494
525.01	32.307
525.35	32.916
525.69	33.068
526.04	31.987
526.38	32.951
526.72	32.281
527.06	31.077
527.41	31.635
527.75	31.709
528.09	32.471
528.43	32.022
528.78	31.460
529.12	31.953
529.46	31.862
529.80	31.521
530.15	30.373
530.49	31.873
530.83	31.280
531.17	32.329
531.51	31.018
531.86	30.827
532.20	31.427
532.54	31.310
532.88	31.586
533.22	31.650
533.57	31.457
533.91	31.613
534.25	31.380
534.59	30.373
534.93	31.378
535.27	31.338
535.62	31.118
535.96	30.449
536.30	31.782
536.64	30.417
536.98	30.904
537.32	30.961
537.66	30.889
538.01	30.583
538.35	30.110
538.69	30.569
539.03	31.275
539.37	29.242
539.71	30.150
540.05	30.499
540.39	30.282
540.73	30.307
541.07	29.660
541.42	30.168
541.76	30.447
542.10	29.926
542.44	30.007
542.78	30.881
543.12	30.054
543.46	28.956
543.80	30.075
544.14	30.282
544.48	29.330
544.82	29.792
545.16	29.412
545.50	30.790
545.84	29.032
546.18	28.471
546.52	30.134
546.86	29.117
547.20	29.307
547.54	29.307
547.88	29.622
548.22	29.186
548.56	29.153
548.90	29.364
549.24	30.000
549.58	29.253
549.92	30.521
550.26	30.627
550.60	29.805
550.94	28.358
551.28	28.539
551.62	29.098
551.96	29.502
552.30	27.656
552.64	28.390
552.98	29.545
553.32	28.839
553.66	29.640
554.00	28.870
554.34	27.766
554.68	29.978
555.02	28.593
555.36	29.728
555.69	27.749
556.03	28.949
556.37	27.596
556.71	27.821
557.05	28.561
557.39	28.410
557.73	28.971
558.07	28.561
558.41	29.220
558.75	28.637
559.08	28.067
559.42	28.560
559.76	28.058
560.10	28.901
560.44	28.961
560.78	28.273
561.12	27.610
561.45	28.299
561.79	27.923
562.13	27.848
562.47	28.143
562.81	27.633
563.15	27.904
563.48	27.667
563.82	27.223
564.16	27.962
564.50	27.137
564.84	27.297
565.17	28.543
565.51	27.807
565.85	27.315
566.19	27.550
566.52	27.785
566.86	26.802
567.20	27.734
567.54	28.094
567.88	26.484
568.21	26.507
568.55	26.761
568.89	25.474
569.23	26.719
569.56	26.074
569.90	26.764
570.24	25.235
570.57	26.237
570.91	26.631
571.25	26.083
571.59	25.737
571.92	26.371
572.26	26.730
572.60	26.024
572.93	25.992
573.27	26.207
573.61	26.404
573.95	26.150
574.28	25.496
574.62	25.771
574.96	25.492
575.29	25.602
575.63	25.764
575.97	25.516
576.30	25.303
576.64	25.701
576.98	25.807
577.31	25.832
577.65	25.359
577.98	25.553
578.32	25.828
578.66	25.652
578.99	26.080
579.33	25.812
579.67	25.662
580.00	25.068
580.34	25.303
580.67	25.429
581.01	25.910
581.35	25.444
581.68	25.327
582.02	25.712
582.35	25.634
582.69	25.662
583.02	24.826
583.36	25.206
583.70	24.994
584.03	25.667
584.37	25.273
584.70	24.953
585.04	25.084
585.37	25.298
585.71	25.181
586.04	25.489
586.38	24.494
586.72	25.176
587.05	25.578
587.39	25.414
587.72	25.585
588.06	25.034
588.39	24.881
588.73	24.699
589.06	25.477
589.40	24.802
589.73	25.009
590.07	25.884
590.40	25.861
590.73	25.567
591.07	25.031
591.40	25.000
591.74	24.900
592.07	25.559
592.41	25.440
592.74	26.119
593.08	24.991
593.41	25.209
593.75	25.323
594.08	25.112
594.41	25.667
594.75	24.775
595.08	25.467
595.42	25.376
595.75	25.307
596.09	25.520
596.42	25.327
596.75	24.528
597.09	25.432
597.42	24.899
597.75	24.978
598.09	25.137
598.42	25.861
598.76	25.105
599.09	25.250
599.42	25.264
599.76	25.235
600.09	25.602
600.42	25.160
600.76	25.166
601.09	25.800
601.42	25.049
601.76	24.479
602.09	24.443
602.42	25.382
602.76	24.622
603.09	25.216
603.42	24.310
603.76	24.708
604.09	24.941
604.42	23.817
604.76	25.360
605.09	25.102
605.42	25.641
605.75	24.540
606.09	24.959
606.42	24.730
606.75	23.074
607.09	24.734
607.42	24.781
607.75	24.376
608.08	24.166
608.42	24.414
608.75	24.749
609.08	24.204
609.41	24.988
609.75	24.256
610.08	25.296
610.41	24.879
610.74	24.158
611.07	24.800
611.41	25.896
611.74	24.638
612.07	24.075
612.40	24.865
612.73	25.357
613.07	24.667
613.40	25.000
613.73	24.594
614.06	23.438
614.39	24.792
614.72	25.819
615.06	25.056
615.39	25.331
615.72	23.596
616.05	24.662
616.38	25.200
616.71	23.515
617.05	25.369
617.38	24.769
617.71	25.184
618.04	25.046
618.37	24.479
618.70	24.191
619.03	23.918
619.36	24.911
619.69	24.927
620.03	24.028
620.36	24.287
620.69	24.268
621.02	24.231
621.35	23.058
621.68	24.042
622.01	24.595
622.34	23.394
622.67	24.276
623.00	25.532
623.33	23.635
623.66	23.717
623.99	24.156
624.32	23.918
624.65	24.258
624.99	23.439
625.32	24.496
625.65	23.411
625.98	24.092
626.31	25.388
626.64	24.678
626.97	23.875
627.30	24.893
627.63	24.481
627.96	23.030
628.29	25.302
628.62	26.402
628.95	23.848
629.28	24.433
629.61	25.263
629.94	25.338
630.26	24.433
630.59	25.075
630.92	23.394
631.25	24.614
631.58	24.732
631.91	23.012
632.24	22.832
632.57	23.444
632.90	24.504
633.23	22.902
633.56	24.940
633.89	24.282
634.22	26.620
634.55	25.944
634.88	23.529
635.20	23.500
635.53	22.610
635.86	23.333
636.19	25.186
636.52	24.390
636.85	23.884
637.18	23.264
637.51	23.845
637.83	24.282
638.16	22.400
638.49	22.296
638.82	23.791
639.15	24.601
639.48	23.262
639.81	23.056
640.13	25.211
640.46	24.576
640.79	24.748
641.12	23.077
641.45	22.125
641.77	23.564
642.10	25.416
642.43	23.899
642.76	22.397
643.09	22.045
643.41	24.083
643.74	22.617
644.07	22.006
644.40	24.544
644.73	24.237
645.05	21.466
645.38	22.425
645.71	21.429
646.04	24.411
646.36	22.222
646.69	22.378
647.02	24.954
647.35	23.766
647.67	24.030
648.00	23.007
648.33	23.898
648.66	24.207
648.98	22.205
649.31	23.466
649.64	22.692
649.96	23.697
650.29	21.732
650.62	22.076
650.94	22.586
651.27	22.615
651.60	23.951
651.92	23.656
652.25	25.293
652.58	24.422
652.90	22.896
653.23	22.071
653.56	23.636
653.88	20.137
654.21	22.526
654.54	22.924
654.86	21.626
655.19	22.549
655.52	23.791
655.84	22.516
656.17	27.250
656.49	35.931
656.82	35.413
657.15	25.997
657.47	19.193
657.80	14.240
658.13	14.941
658.45	22.291
658.78	21.665
659.10	21.384
659.43	22.177
659.75	21.663
660.08	21.172
660.41	21.400
660.73	20.799
661.06	21.599
661.38	20.349
661.71	22.746
662.03	24.947
662.36	20.575
662.68	23.871
663.01	21.822
663.33	22.678
663.66	19.956
663.98	24.494
664.31	21.538
664.63	20.045
664.96	24.070
665.28	23.176
665.61	19.222
665.93	22.484
666.26	21.941
666.58	21.199
666.91	23.318
667.23	23.041
667.56	21.149
667.88	19.159
668.21	23.661
668.53	22.529
668.86	24.940
669.18	22.695
669.50	23.272
669.83	20.048
670.15	25.000
670.48	20.690
670.80	22.976
671.13	21.968
671.45	23.288
671.77	21.121
672.10	21.442
672.42	21.756
672.75	20.536
673.07	20.000
673.39	22.388
673.72	21.956
674.04	22.746
674.37	24.593
674.69	23.251
675.01	20.085
675.34	22.976
675.66	23.094
675.98	21.903
676.31	22.851
676.63	23.129
676.95	21.176
677.28	19.954
677.60	20.588
677.92	23.060
678.25	20.824
678.57	23.014
678.89	20.682
679.22	19.876
679.54	21.224
679.86	21.094
680.18	18.462
680.51	20.192
680.83	18.129
681.15	22.790
681.48	21.042
681.80	21.268
682.12	18.333
682.44	19.718
682.77	18.316
683.09	20.982
683.41	19.070
683.73	18.973
684.06	19.469
684.38	20.299
684.70	19.348
685.02	21.281
685.34	22.505
685.67	21.201
685.99	19.217
686.31	19.655
686.63	22.059
686.96	22.449
687.28	20.359
687.60	22.873
687.92	19.844
688.24	20.000
688.56	22.368
688.89	18.486
689.21	20.179
689.53	18.468
689.85	21.798
690.17	20.659
690.49	19.807
690.82	17.900
691.14	18.599
691.46	19.258
691.78	21.319
692.10	21.868
692.42	20.000
692.74	21.304
693.06	20.225
693.39	18.267
693.71	22.000
694.03	19.545
694.35	22.748
694.67	19.500
694.99	22.423
695.31	20.155
695.63	21.463
695.95	19.847
696.27	17.534
696.59	20.430
696.91	19.274
697.23	21.320
697.56	19.424
697.88	23.493
698.20	20.302
698.52	17.991
698.84	19.617
699.16	19.385
699.48	20.494
699.80	22.997
700.12	20.643
700.44	21.408
700.76	17.978
701.08	22.961
701.40	19.162
701.72	21.231
702.04	15.723
702.36	17.988
702.68	19.817
703.00	21.637
703.32	19.499
703.64	19.880
703.96	18.768
704.28	18.072
704.60	17.378
704.91	21.003
705.23	23.734
705.55	21.034
705.87	17.254
706.19	17.582
706.51	17.958
706.83	16.242
707.15	17.073
707.47	20.661
707.79	18.020
708.11	17.995
708.43	21.320
708.74	19.947
709.06	19.786
709.38	21.037
709.70	23.123
710.02	19.626
710.34	18.667
710.66	19.218
710.98	18.885
711.29	21.104
711.61	18.065
711.93	20.323
712.25	19.231
712.57	19.298
712.89	17.949
713.20	17.376
713.52	20.438
713.84	17.097
714.16	16.505
714.48	18.354
714.80	14.377
715.11	20.930
715.43	17.081
715.75	19.876
716.07	20.181
716.39	22.222
716.70	18.345
717.02	12.549
717.34	20.455
717.66	19.828
717.97	13.889
718.29	18.898
718.61	20.601
718.93	13.953
719.24	18.450
719.56	15.356
719.88	14.552
720.20	17.391
720.51	19.922
720.83	24.125
721.15	11.789
721.46	15.649
721.78	16.335
722.10	12.749
722.42	13.306
722.73	16.216
723.05	22.449
723.37	25.210
723.68	14.000
724.00	16.170
724.32	12.134
724.63	20.576
724.95	15.385
725.27	17.300
725.58	20.988
725.90	19.665
726.22	14.130
726.53	15.294
726.85	18.248
727.16	15.185
727.48	22.222
727.80	19.531
728.11	18.443
728.43	17.188
728.74	17.063
729.06	17.200
729.38	18.972
729.69	18.149
730.01	11.896
730.32	21.033
730.64	19.697
730.96	22.028
731.27	17.057
731.59	16.825
731.90	18.123
732.22	17.628
732.53	15.878
732.85	18.792
733.16	18.482
733.48	18.243
733.80	15.878
734.11	25.000
734.43	16.409
734.74	17.417
735.06	18.444
735.37	20.669
735.69	16.181
736.00	18.482
736.32	17.376
736.63	16.897
736.95	19.178
737.26	17.586
737.58	14.236
737.89	18.557
738.21	17.438
738.52	20.532
738.83	16.735
739.15	22.785
739.46	17.510
739.78	20.775
740.09	17.808
740.41	14.643
740.72	17.376
741.04	14.800
741.35	19.737
741.66	19.111
741.98	14.904
742.29	23.762
742.61	17.561
742.92	19.298
743.23	16.038
743.55	16.216
743.86	14.350
744.18	21.569
744.49	19.797
744.80	13.265
745.12	21.028
745.43	18.483
745.74	15.766
746.06	16.355
746.37	15.596
746.68	21.635
747.00	16.268
747.31	15.865
747.62	16.972
747.94	21.397
748.25	19.266
748.56	17.778
748.88	19.249
749.19	19.048
749.50	13.107
749.82	17.840
750.13	12.500
750.44	15.385
750.75	15.867
751.07	22.420
751.38	22.340
751.69	17.375
752.01	18.750
752.32	19.231
752.63	19.030
752.94	15.600
753.26	18.410
753.57	16.667
753.88	20.243
754.19	13.546
754.51	17.669
754.82	13.187
755.13	14.783
755.44	20.325
755.75	13.600
756.07	15.867
756.38	20.504
756.69	20.819
757.00	18.692
757.31	17.799
757.63	14.198
757.94	19.774
758.25	16.667
758.56	16.576
758.87	20.238
759.18	17.666
759.50	16.498
759.81	17.057
760.12	18.154
760.43	13.988
760.74	20.056
761.05	16.575
761.36	18.052
761.67	19.033
761.99	16.151
762.30	14.599
762.61	15.638
762.92	23.077
763.23	20.082
763.54	18.182
763.85	16.735
764.16	14.228
764.47	21.200
764.78	16.071
765.10	18.361
765.41	18.237
765.72	15.528
766.03	13.861
766.34	18.077
766.65	14.226
766.96	15.023
767.27	15.842
767.58	10.674
767.89	22.840
768.20	16.022
768.51	23.116
768.82	16.346
769.13	19.469
769.44	17.155
769.75	13.675
770.06	17.489
770.37	12.745
770.68	21.359
770.99	12.136
771.30	20.168
771.61	15.918
771.92	18.672
772.23	18.018
772.54	13.260
772.85	9.884
773.16	19.577
773.47	14.793
773.78	20.690
774.09	15.625
774.39	21.739
774.70	23.129
775.01	13.103
775.32	16.429
775.63	12.782
775.94	12.782
776.25	6.400
776.56	20.661
776.87	15.079
777.18	8.108
777.48	16.216
777.79	16.535
778.10	12.844
778.41	7.895
778.72	5.042
779.03	8.451
779.34	14.189
779.65	10.563
779.95	10.596
780.26	2.878
780.57	11.511
780.88	11.268
781.19	11.765
781.50	12.081
781.80	18.129
782.11	6.977
782.42	13.836
782.73	17.647
783.04	14.483
783.34	12.977
783.65	8.054
783.96	12.308
784.27	15.000
784.57	6.383
784.88	2.885
785.19	26.364
785.50	20.909
785.81	14.286
786.11	8.403
786.42	15.929
786.73	6.604
787.04	2.752
787.34	8.911
787.65	26.667
787.96	12.397
788.26	15.217
788.57	11.111
788.88	5.691
789.19	20.800
789.49	5.344
789.80	15.152
790.11	2.830
790.41	21.782
790.72	11.702
791.03	15.217
791.33	10.588
791.64	4.938
791.95	11.957
792.25	11.364
792.56	23.077
792.87	8.974
793.17	-7.692
793.48	5.952
793.79	20.000
794.09	25.000
794.40	15.625
794.70	11.712
795.01	7.813
795.32	9.565
795.62	-8.696
795.93	11.321
796.23	18.182
796.54	8.537
796.85	9.524
797.15	13.636
797.46	8.696
797.76	9.211
798.07	13.636
798.37	3.659
798.68	3.226
798.99	2.703
799.29	15.663
799.60	24.359
799.90	3.077
800.21	15.152
800.51	9.333
800.82	10.667
801.12	-31.250
801.43	-21.667
801.73	5.405
802.04	20.000
802.34	3.279
802.65	17.910
802.95	-3.636
803.26	-12.069
803.56	13.846
803.87	3.774
804.17	-1.613
804.48	7.353
804.78	-26.829
805.09	8.696
805.39	10.294
805.70	-17.021
806.00	12.281
806.30	10.256
806.61	3.947
806.91	12.162
807.22	19.737
807.52	18.182
807.83	-8.475
808.13	-15.152
808.43	26.667
808.74	-10.345
809.04	-1.587
809.35	-12.245
809.65	-1.667
809.95	-34.694
810.26	25.352
810.56	-4.167
810.86	-4.082
811.17	0.000
811.47	-8.511
811.77	8.333
812.08	3.774
812.38	-25.000
812.69	1.818
812.99	19.512
813.29	0.000
813.59	-8.108
813.90	5.455
814.20	9.091
814.50	0.000
814.81	20.000
815.11	19.298
815.41	11.628
815.72	-17.500
816.02	-20.000
816.32	-13.514
816.62	-6.250
816.93	-15.556
817.23	-26.667
817.53	-47.222
817.84	-13.514
818.14	7.317
818.44	20.000
818.74	12.245
819.04	17.073
819.35	-11.111
819.65	-6.818
819.95	-77.778
820.25	-3.030
820.56	-2.381
820.86	-25.000
821.16	-29.545
821.46	-28.261
821.76	-10.345
822.07	28.261
822.37	-18.182
822.67	21.951
822.97	10.811
823.27	-57.143
823.57	-3.448
823.88	-17.647
824.18	-5.556
824.48	25.714
824.78	-9.524
825.08	35.714
825.38	22.222
825.69	-29.032
825.99	-9.756
826.29	-18.519
826.59	-3.125
826.89	-9.677
827.19	-43.478
827.49	-5.556
827.79	-65.217
828.09	0.000
828.39	6.250
828.70	-6.250
829.00	-20.690
829.30	16.216
829.60	-16.667
829.90	0.000
830.20	-6.250
830.50	-9.091
830.80	-105.882
831.10	-9.091
831.40	-20.588
831.70	-3.846
832.00	12.121
832.30	-2.941
832.60	18.919
832.90	600.000
833.20	14.286
833.50	-50.000
833.80	15.789
834.10	-20.833
834.40	-68.182
834.70	-100.000
835.00	-130.000
835.30	-16.667
835.60	-42.857
835.90	-28.571
836.20	20.000
836.50	41.667
836.80	-63.158
837.10	16.216
837.40	40.000
837.70	-43.478
838.00	12.500
838.30	5.263
838.60	-140.000
838.90	-160.000
839.19	-91.667
839.49	-46.154
839.79	15.789
840.09	-266.667
840.39	-120.000
840.69	-22.727
840.99	-38.095
841.29	-8.333
841.59	-84.615
841.88	-93.333
842.18	-71.429
842.48	26.667
842.78	-242.857
843.08	-50.000
843.38	-87.500
843.68	-100.000
843.97	85.714
844.27	-100.000
844.57	-81.818
844.87	-40.000
845.17	-36.364
845.47	400.000
845.76	-33.333
846.06	-125.000
846.36	-1000.000
846.66	-36.842
846.96	-27.273
847.25	-83.333
847.55	-133.333
847.85	-4.762
848.15	-7.692
848.44	-266.667
848.74	-58.333
849.04	-69.231
849.34	-450.000
849.63	-54.545
849.93	-128.571
850.23	20.000
850.53	-212.500
850.82	-16.667
851.12	-60.000
851.42	-47.059
851.71	-87.500
852.01	-17.647
852.31	46.154
852.61	250.000
852.90	29.412
853.20	-20.000
853.50	-18.750
853.79	-100.000
854.09	-275.000
854.39	-65.000
854.68	2.500
854.98	-28.571
855.28	4.000
855.57	16.667
855.87	4.167
856.17	-8.000
856.46	9.375
856.76	-20.000
857.05	16.000
857.35	-108.333
857.65	-41.176
857.94	-83.333
858.24	8.333
858.53	-20.000
858.83	-81.818
859.13	8.000
859.42	-50.000
859.72	-150.000
860.01	12.500
860.31	-137.500
860.60	-43.750
860.90	-133.333
861.20	-50.000
861.49	0.000
861.79	-43.750
862.08	350.000
862.38	-58.333
862.67	257.143
862.97	525.000
863.26	-63.636
863.56	18.182
863.85	26.316
864.15	35.294
864.44	-280.000
864.74	-60.000
865.03	-66.667
865.33	7.143
865.62	192.857
865.92	0.000
866.21	-55.556
866.51	54.545
866.80	0.000
867.10	-137.500
867.39	75.000
867.69	-80.000
867.98	-60.000
868.27	-23.529
868.57	0.000
868.86	900.000
869.16	-275.000
869.45	-171.429
869.75	-0.000
870.04	10.000
870.33	-600.000
870.63	-21.053
870.92	-75.000
871.22	-1000.000
871.51	-128.571
871.80	-144.444
872.10	-350.000
>>>>>End Processed Spectral Data<<<<<
