SpectraSuite Data File
++++++++++++++++++++++++++++++++++++
Date: Wed May 13 21:42:30 PDT 2015
User: schluterlab
Dark Spectrum Present: Yes
Reference Spectrum Present: Yes
Number of Sampled Component Spectra: 1
Spectrometers: USB2E3373
Integration Time (usec): 3000 (USB2E3373)
Spectra Averaged: 3 (USB2E3373)
Boxcar Smoothing: 0 (USB2E3373)
Correct for Electrical Dark: No (USB2E3373)
Strobe/Lamp Enabled: No (USB2E3373)
Correct for Detector Non-linearity: No (USB2E3373)
Correct for Stray Light: No (USB2E3373)
Number of Pixels in Processed Spectrum: 2048
>>>>>Begin Processed Spectral Data<<<<<
178.53	0.000
178.91	550.000
179.29	150.000
179.67	-550.000
180.04	-300.000
180.42	40.000
180.80	2000.000
181.18	216.667
181.56	-300.000
181.94	-425.000
182.31	27.273
182.69	107.692
183.07	-100.000
183.45	133.333
183.83	188.889
184.20	42.857
184.58	166.667
184.96	466.667
185.34	285.714
185.72	0.000
186.09	-1200.000
186.47	-140.000
186.85	160.000
187.23	-500.000
187.61	200.000
187.98	800.000
188.36	37.500
188.74	0.000
189.12	-9.091
189.49	-110.000
189.87	58.333
190.25	460.000
190.63	1800.000
191.00	-220.000
191.38	320.000
191.76	325.000
192.14	150.000
192.51	-15.789
192.89	433.333
193.27	450.000
193.65	-240.000
194.02	163.636
194.40	40.000
194.78	0.000
195.15	200.000
195.53	-80.000
195.91	87.500
196.29	-200.000
196.66	0.000
197.04	200.000
197.42	-80.000
197.79	-40.000
198.17	-137.500
198.55	-333.333
198.92	125.000
199.30	-600.000
199.68	-60.000
200.05	550.000
200.43	200.000
200.81	-1000.000
201.18	-120.000
201.56	-283.333
201.94	600.000
202.31	13.043
202.69	-200.000
203.07	-400.000
203.44	-20.000
203.82	-266.667
204.19	40.000
204.57	0.000
204.95	-100.000
205.32	0.000
205.70	-300.000
206.08	-25.000
206.45	-150.000
206.83	200.000
207.20	-400.000
207.58	-50.000
207.96	-1400.000
208.33	-157.143
208.71	-1100.000
209.08	300.000
209.46	375.000
209.84	0.000
210.21	170.000
210.59	1500.000
210.96	160.000
211.34	1300.000
211.71	-750.000
212.09	-200.000
212.46	-140.000
212.84	-66.667
213.22	100.000
213.59	-1400.000
213.97	-250.000
214.34	-500.000
214.72	-15.385
215.09	150.000
215.47	88.889
215.84	300.000
216.22	-150.000
216.59	-550.000
216.97	700.000
217.34	55.556
217.72	0.000
218.09	533.333
218.47	-1300.000
218.84	-100.000
219.22	-37.500
219.59	-333.333
219.97	-75.000
220.34	37.500
220.72	-80.000
221.09	0.000
221.47	-100.000
221.84	-400.000
222.22	0.000
222.59	1600.000
222.97	-566.667
223.34	-66.667
223.72	-1900.000
224.09	-700.000
224.46	-54.545
224.84	0.000
225.21	-242.857
225.59	-300.000
225.96	-150.000
226.34	-70.000
226.71	-171.429
227.08	1100.000
227.46	-50.000
227.83	200.000
228.21	0.000
228.58	-425.000
228.95	11.765
229.33	-18.750
229.70	-25.000
230.08	92.308
230.45	-212.500
230.82	-41.667
231.20	114.286
231.57	-275.000
231.95	1800.000
232.32	33.333
232.69	11.765
233.07	-700.000
233.44	-30.435
233.81	-400.000
234.19	16.667
234.56	-6.667
234.93	-40.000
235.31	36.842
235.68	-69.231
236.05	69.231
236.43	-16.667
236.80	39.394
237.17	-46.667
237.55	11.765
237.92	0.000
238.29	-18.519
238.67	25.000
239.04	19.355
239.41	19.149
239.79	27.660
240.16	23.256
240.53	17.857
240.91	33.929
241.28	32.143
241.65	29.032
242.02	32.895
242.40	44.928
242.77	23.188
243.14	25.641
243.51	29.787
243.89	34.615
244.26	41.509
244.63	29.808
245.00	41.667
245.38	30.252
245.75	34.426
246.12	36.090
246.49	35.772
246.87	31.092
247.24	39.189
247.61	27.815
247.98	39.744
248.36	32.544
248.73	37.079
249.10	37.879
249.47	38.172
249.84	41.053
250.22	43.781
250.59	39.252
250.96	40.909
251.33	42.584
251.70	46.862
252.08	42.259
252.45	41.975
252.82	38.403
253.19	42.802
253.56	41.367
253.94	44.484
254.31	36.972
254.68	43.624
255.05	44.224
255.42	43.706
255.79	40.491
256.16	40.694
256.54	42.540
256.91	38.608
257.28	38.365
257.65	37.898
258.02	41.349
258.39	42.690
258.76	38.081
259.14	42.045
259.51	40.169
259.88	39.837
260.25	43.056
260.62	41.011
260.99	42.971
261.36	40.674
261.73	37.778
262.10	40.712
262.47	37.284
262.85	40.796
263.22	41.795
263.59	36.623
263.96	39.903
264.33	42.067
264.70	40.930
265.07	41.435
265.44	42.989
265.81	39.817
266.18	40.547
266.55	38.865
266.92	39.195
267.29	38.889
267.66	42.038
268.03	41.975
268.40	41.314
268.77	40.909
269.14	44.490
269.51	42.505
269.88	39.511
270.25	41.949
270.62	39.139
270.99	42.520
271.36	38.492
271.73	44.578
272.10	40.000
272.47	42.035
272.84	41.339
273.21	38.552
273.58	41.598
273.95	39.057
274.32	40.858
274.69	37.158
275.06	41.166
275.43	41.243
275.80	39.007
276.17	41.436
276.54	36.412
276.91	38.502
277.28	40.794
277.65	38.636
278.02	41.429
278.39	40.320
278.76	39.799
279.13	37.907
279.50	38.276
279.87	40.761
280.23	40.360
280.60	37.370
280.97	39.773
281.34	40.694
281.71	34.959
282.08	39.316
282.45	40.656
282.82	38.498
283.19	39.939
283.56	38.125
283.92	38.838
284.29	37.910
284.66	37.232
285.03	37.622
285.40	37.311
285.77	40.541
286.14	37.082
286.51	41.229
286.87	38.000
287.24	39.233
287.61	38.404
287.98	36.324
288.35	36.960
288.72	37.016
289.08	36.895
289.45	38.179
289.82	38.729
290.19	35.764
290.56	37.642
290.93	34.807
291.29	35.841
291.66	34.563
292.03	37.602
292.40	34.993
292.77	36.948
293.13	35.286
293.50	34.379
293.87	35.467
294.24	33.466
294.60	34.850
294.97	35.317
295.34	32.718
295.71	32.589
296.08	33.115
296.44	34.311
296.81	32.400
297.18	32.875
297.55	31.958
297.91	32.919
298.28	33.414
298.65	33.498
299.02	34.676
299.38	33.620
299.75	34.375
300.12	31.047
300.48	32.749
300.85	32.679
301.22	31.243
301.59	31.690
301.95	31.359
302.32	31.622
302.69	31.864
303.05	32.780
303.42	32.500
303.79	32.387
304.15	32.640
304.52	33.118
304.89	31.561
305.25	29.748
305.62	30.043
305.99	30.686
306.35	32.602
306.72	30.417
307.09	32.847
307.45	32.268
307.82	32.105
308.19	31.139
308.55	31.730
308.92	33.301
309.29	32.332
309.65	32.468
310.02	31.213
310.38	33.333
310.75	32.544
311.12	33.236
311.48	33.037
311.85	32.776
312.22	34.429
312.58	33.623
312.95	34.129
313.31	32.966
313.68	33.683
314.05	34.499
314.41	36.215
314.78	35.958
315.14	34.815
315.51	35.395
315.87	38.091
316.24	36.915
316.61	37.443
316.97	38.426
317.34	37.433
317.70	39.161
318.07	38.243
318.43	39.566
318.80	37.609
319.16	40.053
319.53	39.606
319.89	38.844
320.26	41.220
320.62	41.520
320.99	42.442
321.35	40.225
321.72	41.963
322.08	43.358
322.45	45.143
322.81	46.118
323.18	45.081
323.54	47.022
323.91	44.986
324.27	47.615
324.64	46.167
325.00	47.857
325.37	49.829
325.73	47.391
326.10	48.024
326.46	48.662
326.83	49.919
327.19	50.244
327.56	50.927
327.92	51.488
328.29	52.755
328.65	52.936
329.01	52.507
329.38	53.478
329.74	51.502
330.11	55.365
330.47	51.910
330.84	55.054
331.20	52.178
331.56	56.341
331.93	54.780
332.29	53.866
332.66	53.983
333.02	54.387
333.38	57.018
333.75	55.802
334.11	57.378
334.48	57.105
334.84	55.035
335.20	56.003
335.57	56.136
335.93	55.155
336.29	55.342
336.66	56.496
337.02	55.391
337.38	55.091
337.75	55.125
338.11	56.020
338.47	54.709
338.84	55.155
339.20	55.908
339.56	54.437
339.93	57.217
340.29	56.704
340.65	56.886
341.02	55.408
341.38	56.081
341.74	56.303
342.11	56.730
342.47	56.234
342.83	54.493
343.20	57.783
343.56	56.010
343.92	53.696
344.28	55.682
344.65	57.306
345.01	55.529
345.37	57.155
345.73	56.944
346.10	56.501
346.46	57.398
346.82	57.624
347.19	55.301
347.55	59.370
347.91	57.521
348.27	57.256
348.63	57.692
349.00	56.604
349.36	56.593
349.72	56.999
350.08	56.162
350.45	58.340
350.81	57.042
351.17	55.889
351.53	56.167
351.89	55.917
352.26	55.985
352.62	56.512
352.98	58.067
353.34	57.649
353.70	58.022
354.07	57.647
354.43	57.932
354.79	59.295
355.15	58.929
355.51	57.859
355.87	57.389
356.24	58.989
356.60	55.981
356.96	57.483
357.32	57.585
357.68	57.601
358.04	58.340
358.40	57.364
358.77	57.187
359.13	58.288
359.49	58.062
359.85	58.150
360.21	59.136
360.57	58.783
360.93	59.484
361.29	58.993
361.66	58.087
362.02	58.340
362.38	58.272
362.74	58.086
363.10	58.785
363.46	57.565
363.82	58.684
364.18	57.796
364.54	59.373
364.90	57.840
365.26	58.386
365.62	59.304
365.98	58.577
366.35	58.369
366.71	59.058
367.07	57.264
367.43	58.815
367.79	58.930
368.15	58.861
368.51	56.751
368.87	58.130
369.23	58.221
369.59	58.703
369.95	58.418
370.31	58.298
370.67	59.015
371.03	60.876
371.39	60.397
371.75	59.357
372.11	59.473
372.47	59.625
372.83	59.501
373.19	60.360
373.55	60.405
373.91	58.628
374.27	59.336
374.63	59.602
374.99	59.610
375.35	59.315
375.71	58.832
376.07	59.424
376.42	58.824
376.78	60.898
377.14	61.831
377.50	60.104
377.86	59.761
378.22	59.671
378.58	59.773
378.94	60.125
379.30	60.400
379.66	60.296
380.02	59.926
380.38	60.663
380.74	62.403
381.09	59.047
381.45	61.064
381.81	60.752
382.17	59.105
382.53	60.554
382.89	60.253
383.25	60.432
383.61	60.714
383.97	60.125
384.32	60.807
384.68	60.457
385.04	59.805
385.40	60.710
385.76	60.523
386.12	61.072
386.48	59.937
386.83	60.388
387.19	59.963
387.55	60.822
387.91	62.362
388.27	59.433
388.62	61.049
388.98	62.954
389.34	58.960
389.70	60.134
390.06	59.313
390.42	61.276
390.77	60.346
391.13	60.606
391.49	58.887
391.85	59.872
392.20	60.276
392.56	61.079
392.92	61.147
393.28	60.721
393.64	60.550
393.99	59.119
394.35	60.123
394.71	59.808
395.07	57.987
395.42	60.451
395.78	60.232
396.14	61.002
396.50	59.353
396.85	61.058
397.21	59.925
397.57	58.882
397.92	58.623
398.28	60.124
398.64	58.591
399.00	59.821
399.35	59.591
399.71	60.338
400.07	60.000
400.42	59.687
400.78	59.033
401.14	58.308
401.49	59.137
401.85	60.319
402.21	60.372
402.57	59.841
402.92	60.138
403.28	58.036
403.63	57.781
403.99	59.629
404.35	60.162
404.70	58.066
405.06	57.957
405.42	58.543
405.77	58.583
406.13	58.629
406.49	59.137
406.84	59.829
407.20	57.963
407.55	59.481
407.91	59.232
408.27	58.266
408.62	58.809
408.98	58.693
409.34	58.787
409.69	59.974
410.05	58.831
410.40	58.369
410.76	59.266
411.11	58.333
411.47	59.323
411.83	58.203
412.18	58.879
412.54	59.336
412.89	58.433
413.25	57.404
413.60	59.373
413.96	57.553
414.31	58.200
414.67	58.349
415.03	58.728
415.38	59.115
415.74	59.194
416.09	58.625
416.45	58.442
416.80	58.859
417.16	58.907
417.51	58.942
417.87	59.193
418.22	59.729
418.58	58.147
418.93	58.694
419.29	60.264
419.64	58.015
420.00	60.063
420.35	58.279
420.71	59.963
421.06	60.455
421.42	61.253
421.77	60.462
422.12	59.370
422.48	58.833
422.83	60.780
423.19	61.587
423.54	61.366
423.90	60.629
424.25	60.427
424.61	60.382
424.96	60.260
425.31	59.170
425.67	61.317
426.02	62.426
426.38	62.189
426.73	61.820
427.09	61.038
427.44	61.773
427.79	61.045
428.15	61.590
428.50	61.752
428.85	61.501
429.21	61.002
429.56	62.646
429.92	62.207
430.27	62.219
430.62	62.382
430.98	63.511
431.33	62.762
431.68	64.430
432.04	63.099
432.39	62.702
432.74	61.987
433.10	63.684
433.45	62.426
433.80	63.506
434.16	62.206
434.51	63.370
434.86	63.133
435.22	64.007
435.57	64.742
435.92	63.752
436.28	63.003
436.63	64.145
436.98	64.277
437.34	64.164
437.69	63.046
438.04	62.988
438.39	65.691
438.75	64.482
439.10	66.512
439.45	64.165
439.81	64.778
440.16	64.754
440.51	64.031
440.86	65.382
441.22	65.175
441.57	64.371
441.92	63.764
442.27	63.745
442.63	63.832
442.98	65.278
443.33	65.801
443.68	64.681
444.03	64.481
444.39	65.543
444.74	65.544
445.09	64.813
445.44	66.197
445.79	65.256
446.15	65.336
446.50	65.419
446.85	65.954
447.20	67.120
447.55	65.641
447.91	66.292
448.26	66.095
448.61	66.226
448.96	66.059
449.31	67.162
449.66	66.512
450.02	66.515
450.37	66.863
450.72	66.188
451.07	66.395
451.42	65.627
451.77	67.255
452.12	66.191
452.47	66.365
452.83	65.861
453.18	67.091
453.53	67.591
453.88	66.627
454.23	66.564
454.58	66.728
454.93	66.966
455.28	66.346
455.63	66.126
455.98	66.525
456.34	65.798
456.69	68.882
457.04	65.139
457.39	67.348
457.74	66.906
458.09	64.810
458.44	67.039
458.79	64.360
459.14	65.225
459.49	66.890
459.84	66.009
460.19	64.526
460.54	66.058
460.89	67.286
461.24	66.646
461.59	67.150
461.94	67.952
462.29	68.137
462.64	66.557
462.99	66.868
463.34	66.989
463.69	66.946
464.04	65.966
464.39	66.809
464.74	67.015
465.09	65.654
465.44	65.544
465.79	68.315
466.14	66.249
466.49	67.507
466.84	67.005
467.19	67.771
467.54	68.568
467.89	67.002
468.24	68.224
468.59	67.495
468.94	67.625
469.29	68.011
469.64	68.061
469.99	69.379
470.34	68.038
470.68	67.212
471.03	68.759
471.38	68.428
471.73	67.421
472.08	69.072
472.43	67.876
472.78	68.154
473.13	64.974
473.48	66.536
473.83	66.729
474.17	67.708
474.52	68.350
474.87	66.285
475.22	67.572
475.57	65.923
475.92	67.884
476.27	66.783
476.61	67.271
476.96	68.247
477.31	66.343
477.66	67.119
478.01	66.703
478.36	66.812
478.70	67.293
479.05	66.704
479.40	65.575
479.75	67.853
480.10	65.477
480.45	66.062
480.79	66.252
481.14	67.072
481.49	68.032
481.84	66.305
482.19	67.392
482.53	68.095
482.88	66.779
483.23	67.132
483.58	67.580
483.92	66.829
484.27	66.514
484.62	66.534
484.97	66.985
485.31	65.929
485.66	62.277
486.01	62.914
486.36	62.883
486.70	65.062
487.05	66.376
487.40	66.658
487.75	68.533
488.09	68.126
488.44	69.331
488.79	68.887
489.13	67.356
489.48	67.550
489.83	67.664
490.17	68.543
490.52	68.724
490.87	67.223
491.22	66.792
491.56	68.088
491.91	66.251
492.26	68.085
492.60	67.003
492.95	67.201
493.30	66.667
493.64	66.523
493.99	67.391
494.34	67.486
494.68	67.351
495.03	68.676
495.37	67.202
495.72	68.020
496.07	68.534
496.41	67.244
496.76	66.408
497.11	67.136
497.45	67.656
497.80	68.703
498.14	68.463
498.49	66.616
498.84	68.421
499.18	67.496
499.53	67.356
499.87	66.084
500.22	68.044
500.56	67.252
500.91	67.153
501.26	65.714
501.60	66.225
501.95	67.034
502.29	67.330
502.64	67.888
502.98	66.763
503.33	67.737
503.67	68.452
504.02	67.941
504.36	67.657
504.71	66.921
505.06	67.855
505.40	69.175
505.75	68.311
506.09	67.808
506.44	66.230
506.78	66.227
507.13	67.827
507.47	67.922
507.82	67.347
508.16	67.388
508.51	67.820
508.85	66.926
509.19	66.667
509.54	68.472
509.88	66.774
510.23	66.053
510.57	68.591
510.92	67.457
511.26	68.537
511.61	68.551
511.95	68.137
512.30	68.406
512.64	70.034
512.98	67.535
513.33	68.901
513.67	67.689
514.02	68.586
514.36	67.809
514.70	69.457
515.05	70.099
515.39	69.222
515.74	69.509
516.08	68.319
516.42	67.224
516.77	68.717
517.11	68.724
517.46	69.268
517.80	68.826
518.14	69.014
518.49	68.415
518.83	68.198
519.17	68.012
519.52	69.964
519.86	70.856
520.20	68.951
520.55	68.159
520.89	69.007
521.23	69.487
521.58	69.595
521.92	67.693
522.26	68.055
522.61	68.455
522.95	67.811
523.29	67.619
523.64	68.150
523.98	69.123
524.32	67.927
524.66	69.351
525.01	70.380
525.35	69.124
525.69	68.456
526.04	68.208
526.38	68.451
526.72	68.245
527.06	67.634
527.41	68.762
527.75	67.824
528.09	69.639
528.43	69.403
528.78	67.248
529.12	68.499
529.46	67.882
529.80	69.838
530.15	67.181
530.49	69.137
530.83	67.976
531.17	70.000
531.51	67.903
531.86	67.412
532.20	69.125
532.54	68.759
532.88	68.074
533.22	69.024
533.57	68.278
533.91	67.677
534.25	68.620
534.59	67.246
534.93	67.347
535.27	68.153
535.62	68.750
535.96	67.794
536.30	67.021
536.64	67.874
536.98	68.255
537.32	69.181
537.66	68.265
538.01	67.476
538.35	67.058
538.69	67.224
539.03	65.839
539.37	68.343
539.71	68.076
540.05	66.937
540.39	66.965
540.73	67.318
541.07	67.143
541.42	66.801
541.76	67.524
542.10	65.877
542.44	68.053
542.78	66.620
543.12	66.779
543.46	66.413
543.80	66.056
544.14	68.066
544.48	65.163
544.82	66.644
545.16	66.667
545.50	67.454
545.84	65.077
546.18	66.550
546.52	67.184
546.86	65.795
547.20	67.405
547.54	67.334
547.88	67.476
548.22	67.752
548.56	67.578
548.90	68.200
549.24	68.681
549.58	66.975
549.92	70.506
550.26	69.151
550.60	69.069
550.94	68.955
551.28	69.266
551.62	68.421
551.96	67.496
552.30	66.885
552.64	66.808
552.98	67.116
553.32	70.079
553.66	68.232
554.00	67.747
554.34	68.791
554.68	69.724
555.02	68.189
555.36	71.104
555.69	69.701
556.03	67.262
556.37	67.639
556.71	68.465
557.05	68.635
557.39	69.179
557.73	70.424
558.07	69.254
558.41	69.341
558.75	69.977
559.08	69.928
559.42	69.788
559.76	68.272
560.10	70.254
560.44	69.860
560.78	68.129
561.12	69.657
561.45	66.327
561.79	68.294
562.13	69.620
562.47	68.643
562.81	68.470
563.15	67.918
563.48	68.548
563.82	69.699
564.16	67.637
564.50	67.843
564.84	68.041
565.17	67.748
565.51	67.848
565.85	66.356
566.19	68.013
566.52	67.759
566.86	65.740
567.20	67.013
567.54	65.170
567.88	64.782
568.21	64.150
568.55	65.050
568.89	64.357
569.23	63.841
569.56	63.538
569.90	62.845
570.24	62.094
570.57	62.811
570.91	62.084
571.25	62.389
571.59	62.718
571.92	62.892
572.26	63.766
572.60	63.967
572.93	63.449
573.27	63.498
573.61	62.943
573.95	63.247
574.28	63.315
574.62	62.454
574.96	63.583
575.29	63.490
575.63	64.384
575.97	64.973
576.30	64.180
576.64	63.977
576.98	63.370
577.31	62.279
577.65	62.116
577.98	63.066
578.32	62.996
578.66	63.117
578.99	64.695
579.33	64.093
579.67	64.537
580.00	63.950
580.34	63.815
580.67	63.278
581.01	63.619
581.35	63.390
581.68	62.351
582.02	63.153
582.35	63.102
582.69	63.440
583.02	63.299
583.36	64.405
583.70	65.332
584.03	65.408
584.37	65.574
584.70	65.087
585.04	64.703
585.37	65.055
585.71	64.255
586.04	64.862
586.38	64.483
586.72	65.215
587.05	64.975
587.39	65.246
587.72	64.441
588.06	65.007
588.39	65.127
588.73	65.072
589.06	67.184
589.40	65.944
589.73	66.152
590.07	65.549
590.40	66.073
590.73	66.856
591.07	67.739
591.40	66.609
591.74	68.030
592.07	67.366
592.41	66.881
592.74	65.008
593.08	64.957
593.41	66.249
593.75	65.407
594.08	66.943
594.41	67.569
594.75	66.492
595.08	66.542
595.42	66.034
595.75	66.667
596.09	67.129
596.42	67.320
596.75	67.793
597.09	67.971
597.42	68.730
597.75	66.844
598.09	68.898
598.42	70.604
598.76	67.674
599.09	68.908
599.42	67.523
599.76	68.269
600.09	67.620
600.42	68.550
600.76	67.664
601.09	68.324
601.42	68.601
601.76	66.641
602.09	67.612
602.42	68.262
602.76	68.163
603.09	68.049
603.42	66.973
603.76	66.758
604.09	67.194
604.42	67.811
604.76	68.878
605.09	69.778
605.42	69.096
605.75	67.623
606.09	67.260
606.42	67.997
606.75	68.918
607.09	69.105
607.42	68.739
607.75	68.534
608.08	69.477
608.42	69.353
608.75	68.849
609.08	70.211
609.41	69.151
609.75	69.945
610.08	69.970
610.41	69.582
610.74	69.201
611.07	69.188
611.41	68.833
611.74	69.772
612.07	67.952
612.40	68.865
612.73	69.484
613.07	69.124
613.40	69.714
613.73	69.393
614.06	70.370
614.39	69.817
614.72	70.350
615.06	70.444
615.39	71.026
615.72	70.626
616.05	71.002
616.38	69.072
616.71	70.186
617.05	71.314
617.38	71.103
617.71	67.708
618.04	69.104
618.37	70.852
618.70	70.699
619.03	69.622
619.36	71.886
619.69	70.833
620.03	70.601
620.36	70.424
620.69	68.594
621.02	71.077
621.35	70.237
621.68	71.638
622.01	72.006
622.34	71.451
622.67	73.218
623.00	71.429
623.33	71.204
623.66	71.450
623.99	72.843
624.32	70.433
624.65	72.552
624.99	72.006
625.32	71.322
625.65	71.395
625.98	73.302
626.31	72.245
626.64	74.291
626.97	71.972
627.30	73.482
627.63	74.827
627.96	71.429
628.29	73.209
628.62	73.501
628.95	75.150
629.28	75.764
629.61	72.153
629.94	73.404
630.26	73.990
630.59	71.628
630.92	73.594
631.25	73.635
631.58	75.696
631.91	74.337
632.24	73.655
632.57	73.556
632.90	74.679
633.23	74.101
633.56	74.700
633.89	75.000
634.22	75.618
634.55	75.396
634.88	74.387
635.20	74.875
635.53	73.385
635.86	76.795
636.19	73.821
636.52	71.341
636.85	73.221
637.18	73.447
637.51	75.655
637.83	77.415
638.16	75.067
638.49	72.230
638.82	75.033
639.15	75.798
639.48	76.070
639.81	75.000
640.13	77.746
640.46	73.729
640.79	74.245
641.12	76.036
641.45	74.090
641.77	73.638
642.10	72.163
642.43	75.629
642.76	74.606
643.09	76.837
643.41	75.439
643.74	74.637
644.07	74.595
644.40	74.793
644.73	75.593
645.05	77.661
645.38	73.256
645.71	75.340
646.04	70.707
646.36	75.000
646.69	73.077
647.02	79.235
647.35	73.492
647.67	74.677
648.00	77.536
648.33	73.898
648.66	75.292
648.98	71.429
649.31	75.000
649.64	73.709
649.96	76.145
650.29	73.529
650.62	72.652
650.94	76.379
651.27	76.678
651.60	76.399
651.92	77.957
652.25	75.544
652.58	74.422
652.90	72.559
653.23	77.250
653.56	74.050
653.88	74.744
654.21	74.232
654.54	72.591
654.86	74.959
655.19	71.289
655.52	69.375
655.84	62.393
656.17	74.305
656.49	97.635
656.82	98.987
657.15	77.933
657.47	58.504
657.80	44.956
658.13	48.099
658.45	73.028
658.78	73.438
659.10	73.908
659.43	75.756
659.75	74.328
660.08	75.172
660.41	74.037
660.73	75.482
661.06	76.701
661.38	78.295
661.71	78.689
662.03	79.070
662.36	78.761
662.68	76.559
663.01	79.661
663.33	77.754
663.66	73.614
663.98	78.652
664.31	76.923
664.63	74.775
664.96	79.212
665.28	78.755
665.61	75.594
665.93	77.088
666.26	79.536
666.58	75.803
666.91	78.700
667.23	78.341
667.56	78.621
667.88	78.037
668.21	72.098
668.53	75.632
668.86	80.096
669.18	75.887
669.50	77.189
669.83	82.578
670.15	77.143
670.48	75.172
670.80	75.930
671.13	75.515
671.45	76.941
671.77	76.940
672.10	71.540
672.42	72.710
672.75	73.393
673.07	72.545
673.39	72.948
673.72	77.445
674.04	73.770
674.37	73.780
674.69	73.045
675.01	73.504
675.34	78.775
675.66	76.688
675.98	75.664
676.31	75.792
676.63	77.324
676.95	77.647
677.28	73.624
677.60	79.657
677.92	74.279
678.25	74.620
678.57	76.171
678.89	75.267
679.22	75.362
679.54	73.469
679.86	74.609
680.18	72.500
680.51	75.769
680.83	70.760
681.15	73.870
681.48	74.549
681.80	72.597
682.12	75.417
682.44	71.630
682.77	71.789
683.09	72.545
683.41	71.860
683.73	72.545
684.06	75.664
684.38	72.222
684.70	70.672
685.02	75.620
685.34	73.581
685.67	75.797
685.99	68.683
686.31	72.069
686.63	74.816
686.96	73.655
687.28	73.453
687.60	72.968
687.92	69.650
688.24	72.200
688.56	80.921
688.89	69.710
689.21	71.749
689.53	69.369
689.85	71.685
690.17	71.209
690.49	73.188
690.82	72.792
691.14	74.879
691.46	71.230
691.78	71.209
692.10	71.125
692.42	71.209
692.74	70.217
693.06	74.607
693.39	70.960
693.71	71.111
694.03	75.227
694.35	67.342
694.67	75.750
694.99	74.742
695.31	71.835
695.63	71.707
695.95	72.774
696.27	70.959
696.59	72.043
696.91	70.950
697.23	70.558
697.56	72.422
697.88	68.191
698.20	71.706
698.52	71.262
698.84	74.880
699.16	72.104
699.48	72.346
699.80	72.351
700.12	75.335
700.44	71.268
700.76	71.629
701.08	70.393
701.40	70.060
701.72	73.538
702.04	71.069
702.36	68.902
702.68	71.341
703.00	70.175
703.32	67.688
703.64	73.795
703.96	72.141
704.28	70.783
704.60	68.293
704.91	68.339
705.23	66.772
705.55	68.621
705.87	71.831
706.19	71.795
706.51	69.014
706.83	70.064
707.15	69.512
707.47	74.380
707.79	66.497
708.11	69.152
708.43	69.797
708.74	68.883
709.06	68.984
709.38	74.928
709.70	70.571
710.02	70.405
710.34	72.333
710.66	65.472
710.98	69.969
711.29	72.727
711.61	63.871
711.93	63.226
712.25	66.783
712.57	62.105
712.89	71.429
713.20	66.667
713.52	69.708
713.84	67.419
714.16	73.463
714.48	69.304
714.80	71.885
715.11	66.279
715.43	68.634
715.75	68.323
716.07	62.349
716.39	68.687
716.70	68.705
717.02	71.765
717.34	64.015
717.66	73.276
717.97	68.651
718.29	64.961
718.61	74.249
718.93	68.217
719.24	61.624
719.56	65.169
719.88	66.418
720.20	70.356
720.51	69.531
720.83	69.261
721.15	70.325
721.46	62.595
721.78	63.347
722.10	68.127
722.42	64.919
722.73	67.568
723.05	66.531
723.37	71.008
723.68	62.800
724.00	60.851
724.32	63.598
724.63	66.667
724.95	64.103
725.27	70.464
725.58	69.547
725.90	73.222
726.22	67.391
726.53	61.569
726.85	64.234
727.16	66.667
727.48	66.284
727.80	66.016
728.11	61.885
728.43	66.016
728.74	65.476
729.06	68.400
729.38	66.008
729.69	62.989
730.01	60.595
730.32	68.266
730.64	65.530
730.96	68.531
731.27	59.532
731.59	60.952
731.90	64.401
732.22	60.577
732.53	58.108
732.85	62.752
733.16	61.056
733.48	61.824
733.80	62.838
734.11	69.595
734.43	63.777
734.74	59.459
735.06	58.501
735.37	61.094
735.69	64.401
736.00	64.026
736.32	66.312
736.63	62.414
736.95	62.671
737.26	59.655
737.58	63.194
737.89	64.605
738.21	56.940
738.52	59.316
738.83	63.265
739.15	62.869
739.46	61.089
739.78	57.042
740.09	60.274
740.41	63.214
740.72	58.511
741.04	60.800
741.35	58.772
741.66	65.333
741.98	62.019
742.29	64.356
742.61	59.024
742.92	58.333
743.23	59.434
743.55	57.207
743.86	52.915
744.18	59.804
744.49	63.959
744.80	66.327
745.12	56.075
745.43	61.137
745.74	63.063
746.06	57.944
746.37	57.339
746.68	57.212
747.00	61.722
747.31	54.327
747.62	58.257
747.94	64.629
748.25	63.303
748.56	61.778
748.88	58.685
749.19	63.333
749.50	57.767
749.82	56.338
750.13	60.833
750.44	60.000
750.75	55.351
751.07	56.584
751.38	58.156
751.69	59.073
752.01	54.688
752.32	61.154
752.63	60.821
752.94	55.600
753.26	59.833
753.57	54.167
753.88	59.514
754.19	57.769
754.51	60.902
754.82	54.579
755.13	58.261
755.44	57.317
755.75	57.200
756.07	53.875
756.38	54.317
756.69	57.338
757.00	58.567
757.31	56.958
757.63	58.951
757.94	59.605
758.25	59.524
758.56	56.522
758.87	60.119
759.18	53.312
759.50	59.596
759.81	59.866
760.12	53.231
760.43	56.845
760.74	52.260
761.05	58.840
761.36	53.009
761.67	55.589
761.99	60.137
762.30	52.190
762.61	56.790
762.92	55.556
763.23	54.918
763.54	64.502
763.85	58.776
764.16	57.724
764.47	56.800
764.78	57.143
765.10	51.475
765.41	59.271
765.72	56.211
766.03	56.106
766.34	53.462
766.65	57.322
766.96	52.582
767.27	56.931
767.58	52.809
767.89	54.321
768.20	50.276
768.51	53.266
768.82	59.135
769.13	57.965
769.44	59.414
769.75	50.855
770.06	52.915
770.37	51.471
770.68	52.427
770.99	57.767
771.30	55.882
771.61	52.245
771.92	59.336
772.23	53.604
772.54	51.381
772.85	59.302
773.16	50.794
773.47	55.030
773.78	47.701
774.09	58.750
774.39	54.658
774.70	55.782
775.01	50.345
775.32	59.286
775.63	51.880
775.94	45.113
776.25	52.800
776.56	52.893
776.87	59.524
777.18	53.153
777.48	54.054
777.79	43.307
778.10	61.468
778.41	49.123
778.72	50.420
779.03	50.000
779.34	58.108
779.65	45.070
779.95	58.940
780.26	51.799
780.57	49.640
780.88	47.183
781.19	52.101
781.50	58.389
781.80	43.860
782.11	41.860
782.42	54.088
782.73	54.248
783.04	42.069
783.34	51.908
783.65	53.020
783.96	51.538
784.27	52.857
784.57	51.064
784.88	50.000
785.19	56.364
785.50	51.818
785.81	48.571
786.11	44.538
786.42	47.788
786.73	51.887
787.04	41.284
787.34	47.525
787.65	57.500
787.96	50.413
788.26	44.203
788.57	50.000
788.88	55.285
789.19	47.200
789.49	45.038
789.80	56.818
790.11	50.000
790.41	51.485
790.72	59.574
791.03	44.565
791.33	34.118
791.64	51.852
791.95	43.478
792.25	62.500
792.56	62.821
792.87	47.436
793.17	35.897
793.48	50.000
793.79	40.000
794.09	52.885
794.40	65.625
794.70	57.658
795.01	50.781
795.32	49.565
795.62	47.826
795.93	47.170
796.23	55.556
796.54	40.244
796.85	52.381
797.15	39.394
797.46	56.522
797.76	28.947
798.07	52.273
798.37	30.488
798.68	53.226
798.99	44.595
799.29	49.398
799.60	41.026
799.90	47.692
800.21	54.545
800.51	40.000
800.82	38.667
801.12	14.583
801.43	33.333
801.73	16.216
802.04	57.143
802.34	54.098
802.65	43.284
802.95	41.818
803.26	25.862
803.56	58.462
803.87	43.396
804.17	32.258
804.48	36.765
804.78	34.146
805.09	28.986
805.39	35.294
805.70	38.298
806.00	21.053
806.30	39.744
806.61	44.737
806.91	44.595
807.22	50.000
807.52	35.227
807.83	23.729
808.13	25.758
808.43	36.667
808.74	6.897
809.04	31.746
809.35	36.735
809.65	31.667
809.95	38.776
810.26	42.254
810.56	25.000
810.86	30.612
811.17	50.000
811.47	38.298
811.77	29.167
812.08	37.736
812.38	6.250
812.69	27.273
812.99	21.951
813.29	27.027
813.59	16.216
813.90	41.818
814.20	40.000
814.50	48.333
814.81	18.182
815.11	45.614
815.41	48.837
815.72	35.000
816.02	25.714
816.32	16.216
816.62	41.667
816.93	20.000
817.23	6.667
817.53	16.667
817.84	32.432
818.14	34.146
818.44	44.000
818.74	44.898
819.04	26.829
819.35	13.889
819.65	22.727
819.95	22.222
820.25	42.424
820.56	11.905
820.86	27.778
821.16	20.455
821.46	21.739
821.76	22.414
822.07	28.261
822.37	45.455
822.67	41.463
822.97	54.054
823.27	-28.571
823.57	48.276
823.88	8.824
824.18	36.111
824.48	42.857
824.78	23.810
825.08	10.714
825.38	3.704
825.69	22.581
825.99	14.634
826.29	44.444
826.59	18.750
826.89	29.032
827.19	69.565
827.49	-2.778
827.79	21.739
828.09	12.903
828.39	39.583
828.70	9.375
829.00	27.586
829.30	29.730
829.60	-16.667
829.90	59.259
830.20	31.250
830.50	45.455
830.80	-29.412
831.10	-9.091
831.40	-8.824
831.70	26.923
832.00	33.333
832.30	32.353
832.60	32.432
832.90	700.000
833.20	25.000
833.50	20.000
833.80	26.316
834.10	-33.333
834.40	-9.091
834.70	-26.667
835.00	30.000
835.30	-12.500
835.60	-14.286
835.90	38.095
836.20	4.000
836.50	12.500
836.80	-36.842
837.10	10.811
837.40	53.333
837.70	4.348
838.00	45.833
838.30	-5.263
838.60	-130.000
838.90	-160.000
839.19	16.667
839.49	-7.692
839.79	-5.263
840.09	-33.333
840.39	-30.000
840.69	-40.909
840.99	28.571
841.29	0.000
841.59	-53.846
841.88	-53.333
842.18	35.714
842.48	3.333
842.78	-185.714
843.08	-35.714
843.38	-87.500
843.68	-18.750
843.97	50.000
844.27	-111.111
844.57	-100.000
844.87	-80.000
845.17	4.545
845.47	400.000
845.76	-6.667
846.06	-133.333
846.36	-800.000
846.66	-21.053
846.96	-22.727
847.25	-33.333
847.55	-155.556
847.85	-23.810
848.15	46.154
848.44	-50.000
848.74	100.000
849.04	-46.154
849.34	-75.000
849.63	-54.545
849.93	-64.286
850.23	20.000
850.53	-200.000
850.82	-50.000
851.12	-13.333
851.42	11.765
851.71	12.500
852.01	-35.294
852.31	23.077
852.61	250.000
852.90	-23.529
853.20	26.667
853.50	37.500
853.79	-107.143
854.09	-150.000
854.39	-25.000
854.68	27.500
854.98	9.524
855.28	36.000
855.57	45.833
855.87	0.000
856.17	0.000
856.46	34.375
856.76	-5.000
857.05	-12.000
857.35	-33.333
857.65	-17.647
857.94	-66.667
858.24	0.000
858.53	40.000
858.83	27.273
859.13	16.000
859.42	-50.000
859.72	-75.000
860.01	0.000
860.31	-50.000
860.60	31.250
860.90	-33.333
861.20	-66.667
861.49	-6.667
861.79	-12.500
862.08	200.000
862.38	-33.333
862.67	285.714
862.97	50.000
863.26	-90.909
863.56	18.182
863.85	31.579
864.15	-23.529
864.44	-480.000
864.74	-20.000
865.03	-22.222
865.33	-50.000
865.62	142.857
865.92	31.579
866.21	-16.667
866.51	-109.091
866.80	-55.556
867.10	-287.500
867.39	-62.500
867.69	-73.333
867.98	10.000
868.27	-5.882
868.57	0.000
868.86	600.000
869.16	-300.000
869.45	-257.143
869.75	350.000
870.04	-70.000
870.33	-1000.000
870.63	0.000
870.92	-50.000
871.22	-700.000
871.51	-142.857
871.80	-166.667
872.10	-300.000
>>>>>End Processed Spectral Data<<<<<
