SpectraSuite Data File
++++++++++++++++++++++++++++++++++++
Date: Tue May 12 16:05:56 PDT 2015
User: schluterlab
Dark Spectrum Present: Yes
Reference Spectrum Present: Yes
Number of Sampled Component Spectra: 1
Spectrometers: USB2E3373
Integration Time (usec): 3000 (USB2E3373)
Spectra Averaged: 3 (USB2E3373)
Boxcar Smoothing: 0 (USB2E3373)
Correct for Electrical Dark: No (USB2E3373)
Strobe/Lamp Enabled: No (USB2E3373)
Correct for Detector Non-linearity: No (USB2E3373)
Correct for Stray Light: No (USB2E3373)
Number of Pixels in Processed Spectrum: 2048
>>>>>Begin Processed Spectral Data<<<<<
178.53	0.000
178.91	-216.667
179.29	-775.000
179.67	-4300.000
180.04	-166.667
180.42	575.000
180.80	2000.000
181.18	0.000
181.56	-337.500
181.94	0.000
182.31	1200.000
182.69	-4300.000
183.07	571.429
183.45	-3500.000
183.83	-1700.000
184.20	360.000
184.58	442.857
184.96	-338.462
185.34	-300.000
185.72	1850.000
186.09	-800.000
186.47	-3300.000
186.85	1000.000
187.23	640.000
187.61	1800.000
187.98	500.000
188.36	271.429
188.74	266.667
189.12	316.667
189.49	1000.000
189.87	0.000
190.25	612.500
190.63	3700.000
191.00	-183.333
191.38	-4700.000
191.76	-675.000
192.14	625.000
192.51	-2500.000
192.89	1850.000
193.27	1233.333
193.65	-1000.000
194.02	-520.000
194.40	528.571
194.78	-271.429
195.15	240.000
195.53	-2200.000
195.91	-660.000
196.29	3900.000
196.66	281.250
197.04	725.000
197.42	-1900.000
197.79	750.000
198.17	383.333
198.55	0.000
198.92	528.571
199.30	1433.333
199.68	1900.000
200.05	750.000
200.43	-516.667
200.81	194.444
201.18	3300.000
201.56	225.000
201.94	-875.000
202.31	-412.500
202.69	-560.000
203.07	3900.000
203.44	-550.000
203.82	316.667
204.19	800.000
204.57	-1150.000
204.95	-1050.000
205.32	-660.000
205.70	633.333
206.08	1025.000
206.45	-900.000
206.83	344.444
207.20	221.053
207.58	333.333
207.96	700.000
208.33	0.000
208.71	614.286
209.08	680.000
209.46	-3400.000
209.84	-775.000
210.21	1000.000
210.59	-720.000
210.96	366.667
211.34	-1025.000
211.71	400.000
212.09	825.000
212.46	1650.000
212.84	-400.000
213.22	455.556
213.59	-2200.000
213.97	420.000
214.34	1100.000
214.72	1566.667
215.09	1266.667
215.47	-2500.000
215.84	-400.000
216.22	-500.000
216.59	0.000
216.97	0.000
217.34	1650.000
217.72	-1850.000
218.09	1666.667
218.47	562.500
218.84	925.000
219.22	1133.333
219.59	1266.667
219.97	600.000
220.34	488.889
220.72	1500.000
221.09	2900.000
221.47	266.667
221.84	1133.333
222.22	320.000
222.59	277.778
222.97	300.000
223.34	275.000
223.72	-2100.000
224.09	1266.667
224.46	392.308
224.84	-975.000
225.21	411.111
225.59	280.000
225.96	1333.333
226.34	-560.000
226.71	-725.000
227.08	-660.000
227.46	0.000
227.83	-450.000
228.21	-1500.000
228.58	400.000
228.95	950.000
229.33	466.667
229.70	1100.000
230.08	376.923
230.45	4100.000
230.82	-750.000
231.20	-800.000
231.57	-866.667
231.95	680.000
232.32	308.333
232.69	633.333
233.07	316.667
233.44	-1600.000
233.81	306.667
234.19	188.889
234.56	256.250
234.93	205.882
235.31	235.000
235.68	268.750
236.05	228.571
236.43	148.148
236.80	257.143
237.17	189.655
237.55	125.000
237.92	130.000
238.29	121.212
238.67	181.250
239.04	100.000
239.41	70.833
239.79	117.500
240.16	81.250
240.53	78.689
240.91	76.812
241.28	81.356
241.65	71.212
242.02	81.690
242.40	64.286
242.77	70.330
243.14	51.899
243.51	64.646
243.89	55.140
244.26	53.271
244.63	56.436
245.00	56.881
245.38	43.220
245.75	53.030
246.12	48.889
246.49	48.936
246.87	36.066
247.24	44.000
247.61	44.375
247.98	41.497
248.36	35.152
248.73	42.347
249.10	36.905
249.47	39.000
249.84	38.806
250.22	36.757
250.59	33.000
250.96	34.599
251.33	35.349
251.70	35.714
252.08	33.613
252.45	32.271
252.82	31.939
253.19	29.249
253.56	30.385
253.94	31.159
254.31	32.558
254.68	33.101
255.05	34.138
255.42	33.942
255.79	35.505
256.16	29.492
256.54	31.494
256.91	30.719
257.28	29.097
257.65	26.019
258.02	28.024
258.39	32.092
258.76	30.435
259.14	28.000
259.51	31.487
259.88	25.836
260.25	25.549
260.62	27.123
260.99	23.140
261.36	28.691
261.73	30.053
262.10	27.487
262.47	26.000
262.85	26.667
263.22	27.249
263.59	27.366
263.96	26.566
264.33	24.938
264.70	31.204
265.07	29.024
265.44	26.376
265.81	28.538
266.18	29.291
266.55	28.369
266.92	25.280
267.29	27.851
267.66	27.354
268.03	25.112
268.40	26.004
268.77	24.449
269.14	25.380
269.51	26.058
269.88	25.918
270.25	24.406
270.62	26.609
270.99	25.355
271.36	28.862
271.73	26.415
272.10	24.040
272.47	26.984
272.84	24.351
273.21	25.000
273.58	25.304
273.95	24.641
274.32	26.459
274.69	27.559
275.06	24.954
275.43	24.138
275.80	24.340
276.17	24.449
276.54	27.290
276.91	26.119
277.28	24.088
277.65	27.122
278.02	24.081
278.39	24.460
278.76	24.655
279.13	22.954
279.50	25.091
279.87	24.209
280.23	24.494
280.60	25.365
280.97	25.345
281.34	23.927
281.71	23.130
282.08	22.222
282.45	22.973
282.82	24.582
283.19	22.734
283.56	22.975
283.92	24.104
284.29	22.795
284.66	23.697
285.03	22.554
285.40	23.140
285.77	23.611
286.14	26.471
286.51	22.393
286.87	18.987
287.24	21.321
287.61	21.429
287.98	22.836
288.35	21.185
288.72	22.155
289.08	21.772
289.45	21.189
289.82	20.781
290.19	21.083
290.56	23.872
290.93	22.446
291.29	21.547
291.66	20.339
292.03	21.038
292.40	20.867
292.77	19.638
293.13	22.397
293.50	19.973
293.87	19.783
294.24	21.119
294.60	19.785
294.97	23.357
295.34	20.850
295.71	20.237
296.08	23.200
296.44	19.568
296.81	18.859
297.18	20.025
297.55	21.182
297.91	19.704
298.28	19.686
298.65	19.387
299.02	20.265
299.38	19.185
299.75	21.098
300.12	19.725
300.48	20.375
300.85	19.785
301.22	20.349
301.59	18.750
301.95	19.253
302.32	20.256
302.69	20.928
303.05	22.110
303.42	20.291
303.79	20.802
304.15	20.132
304.52	20.190
304.89	20.256
305.25	21.135
305.62	21.002
305.99	19.891
306.35	20.421
306.72	19.667
307.09	20.186
307.45	18.902
307.82	20.782
308.19	19.381
308.55	20.700
308.92	22.179
309.29	22.288
309.65	21.209
310.02	21.805
310.38	20.239
310.75	20.829
311.12	21.360
311.48	22.297
311.85	22.615
312.22	22.254
312.58	22.935
312.95	23.010
313.31	23.127
313.68	22.795
314.05	24.084
314.41	23.743
314.78	23.769
315.14	23.886
315.51	26.017
315.87	24.818
316.24	25.023
316.61	25.067
316.97	25.229
317.34	25.786
317.70	26.339
318.07	27.135
318.43	27.504
318.80	27.145
319.16	27.098
319.53	28.053
319.89	26.523
320.26	29.330
320.62	28.755
320.99	28.789
321.35	30.241
321.72	31.025
322.08	29.363
322.45	31.971
322.81	31.565
323.18	32.416
323.54	33.188
323.91	33.364
324.27	32.714
324.64	33.824
325.00	34.397
325.37	34.654
325.73	35.076
326.10	35.460
326.46	36.829
326.83	36.640
327.19	36.546
327.56	38.339
327.92	38.443
328.29	39.280
328.65	40.753
329.01	40.034
329.38	40.186
329.74	39.368
330.11	40.487
330.47	41.176
330.84	39.172
331.20	40.948
331.56	43.523
331.93	40.120
332.29	40.221
332.66	43.622
333.02	42.268
333.38	42.321
333.75	40.867
334.11	41.191
334.48	41.624
334.84	41.301
335.20	41.831
335.57	42.653
335.93	41.043
336.29	40.796
336.66	44.683
337.02	42.601
337.38	41.874
337.75	43.159
338.11	43.460
338.47	42.422
338.84	41.575
339.20	42.251
339.56	42.809
339.93	41.137
340.29	41.513
340.65	42.917
341.02	41.995
341.38	41.544
341.74	42.691
342.11	40.985
342.47	42.986
342.83	42.002
343.20	43.169
343.56	40.429
343.92	42.527
344.28	43.062
344.65	43.195
345.01	41.746
345.37	41.907
345.73	41.429
346.10	41.275
346.46	43.142
346.82	40.046
347.19	41.499
347.55	41.764
347.91	40.710
348.27	40.589
348.63	41.772
349.00	41.889
349.36	42.023
349.72	41.820
350.08	42.624
350.45	41.736
350.81	41.667
351.17	40.216
351.53	41.186
351.89	40.948
352.26	41.572
352.62	42.911
352.98	42.715
353.34	42.296
353.70	41.437
354.07	41.846
354.43	42.396
354.79	41.002
355.15	42.343
355.51	40.634
355.87	41.114
356.24	42.263
356.60	40.868
356.96	41.319
357.32	42.200
357.68	41.483
358.04	42.629
358.40	40.705
358.77	41.022
359.13	40.841
359.49	41.364
359.85	42.293
360.21	41.382
360.57	41.971
360.93	41.414
361.29	41.486
361.66	42.729
362.02	40.270
362.38	41.053
362.74	41.047
363.10	42.286
363.46	41.851
363.82	40.954
364.18	41.536
364.54	40.701
364.90	42.236
365.26	41.568
365.62	41.022
365.98	40.468
366.35	41.379
366.71	41.083
367.07	40.887
367.43	40.363
367.79	40.359
368.15	40.706
368.51	41.764
368.87	40.082
369.23	40.610
369.59	41.065
369.95	39.860
370.31	40.110
370.67	40.874
371.03	41.457
371.39	41.066
371.75	40.963
372.11	40.857
372.47	41.233
372.83	40.449
373.19	42.152
373.55	41.787
373.91	39.848
374.27	40.741
374.63	41.220
374.99	40.903
375.35	40.659
375.71	40.633
376.07	41.048
376.42	39.514
376.78	41.554
377.14	41.350
377.50	40.200
377.86	39.654
378.22	39.854
378.58	42.191
378.94	39.831
379.30	39.842
379.66	41.421
380.02	41.290
380.38	40.281
380.74	41.869
381.09	40.771
381.45	40.405
381.81	39.835
382.17	40.171
382.53	39.772
382.89	41.396
383.25	40.557
383.61	40.058
383.97	40.312
384.32	40.989
384.68	40.285
385.04	40.211
385.40	40.154
385.76	40.199
386.12	40.816
386.48	39.757
386.83	40.770
387.19	40.400
387.55	40.577
387.91	40.358
388.27	40.393
388.62	39.847
388.98	39.242
389.34	40.512
389.70	40.684
390.06	40.000
390.42	40.469
390.77	40.663
391.13	40.133
391.49	39.988
391.85	40.738
392.20	39.988
392.56	39.964
392.92	40.483
393.28	40.135
393.64	38.704
393.99	40.486
394.35	39.670
394.71	38.359
395.07	39.477
395.42	40.105
395.78	40.777
396.14	41.145
396.50	40.132
396.85	39.939
397.21	39.170
397.57	39.928
397.92	38.821
398.28	39.603
398.64	40.140
399.00	38.429
399.35	37.950
399.71	38.852
400.07	38.927
400.42	39.522
400.78	40.059
401.14	39.577
401.49	39.343
401.85	39.629
402.21	39.309
402.57	39.737
402.92	40.303
403.28	38.067
403.63	39.788
403.99	39.445
404.35	38.921
404.70	40.638
405.06	38.069
405.42	38.659
405.77	38.203
406.13	38.449
406.49	39.738
406.84	39.143
407.20	38.128
407.55	40.123
407.91	38.864
408.27	38.993
408.62	39.030
408.98	39.326
409.34	37.405
409.69	39.328
410.05	38.342
410.40	38.869
410.76	38.237
411.11	37.796
411.47	39.136
411.83	38.254
412.18	37.983
412.54	38.799
412.89	37.994
413.25	38.826
413.60	39.077
413.96	39.198
414.31	37.898
414.67	40.099
415.03	39.847
415.38	39.054
415.74	39.356
416.09	38.976
416.45	40.271
416.80	40.026
417.16	38.129
417.51	39.745
417.87	39.862
418.22	39.125
418.58	39.236
418.93	39.262
419.29	37.646
419.64	39.491
420.00	39.141
420.35	39.779
420.71	38.565
421.06	39.023
421.42	39.148
421.77	39.700
422.12	39.967
422.48	39.137
422.83	39.453
423.19	40.119
423.54	38.673
423.90	40.374
424.25	41.222
424.61	40.743
424.96	38.905
425.31	39.464
425.67	39.731
426.02	39.989
426.38	40.198
426.73	40.775
427.09	40.036
427.44	39.280
427.79	40.595
428.15	41.956
428.50	40.171
428.85	40.388
429.21	40.519
429.56	40.728
429.92	40.577
430.27	40.252
430.62	39.697
430.98	39.421
431.33	39.516
431.68	39.556
432.04	40.041
432.39	40.505
432.74	41.803
433.10	40.532
433.45	40.379
433.80	41.092
434.16	40.462
434.51	40.712
434.86	41.208
435.22	41.869
435.57	41.434
435.92	42.345
436.28	41.417
436.63	41.869
436.98	41.329
437.34	41.324
437.69	40.426
438.04	41.075
438.39	42.207
438.75	41.425
439.10	41.824
439.45	41.436
439.81	41.874
440.16	42.267
440.51	41.273
440.86	41.652
441.22	41.342
441.57	41.522
441.92	42.103
442.27	41.237
442.63	41.972
442.98	40.787
443.33	42.314
443.68	41.549
444.03	41.188
444.39	41.620
444.74	41.149
445.09	42.654
445.44	41.339
445.79	42.251
446.15	42.105
446.50	41.983
446.85	42.281
447.20	41.692
447.55	41.871
447.91	41.662
448.26	42.279
448.61	43.118
448.96	42.974
449.31	42.904
449.66	43.688
450.02	42.410
450.37	43.087
450.72	41.653
451.07	41.710
451.42	42.027
451.77	42.612
452.12	42.995
452.47	43.439
452.83	44.113
453.18	43.724
453.53	43.458
453.88	44.057
454.23	43.173
454.58	43.998
454.93	42.918
455.28	44.247
455.63	43.972
455.98	42.865
456.34	43.708
456.69	44.268
457.04	44.093
457.39	42.571
457.74	44.032
458.09	42.617
458.44	43.154
458.79	42.653
459.14	43.972
459.49	43.488
459.84	43.804
460.19	43.220
460.54	43.875
460.89	43.390
461.24	43.013
461.59	43.707
461.94	43.676
462.29	43.535
462.64	44.347
462.99	44.082
463.34	43.163
463.69	43.920
464.04	43.351
464.39	43.389
464.74	42.673
465.09	43.529
465.44	43.145
465.79	43.440
466.14	42.819
466.49	43.570
466.84	42.809
467.19	43.175
467.54	43.544
467.89	43.955
468.24	43.833
468.59	42.738
468.94	43.418
469.29	43.128
469.64	43.859
469.99	44.473
470.34	44.402
470.68	45.241
471.03	44.897
471.38	44.901
471.73	43.893
472.08	45.466
472.43	45.686
472.78	44.302
473.13	43.367
473.48	43.949
473.83	44.464
474.17	45.106
474.52	44.076
474.87	43.832
475.22	45.003
475.57	43.284
475.92	43.127
476.27	42.927
476.61	44.129
476.96	44.775
477.31	44.062
477.66	44.230
478.01	43.940
478.36	43.924
478.70	44.020
479.05	44.090
479.40	44.395
479.75	44.687
480.10	44.579
480.45	43.651
480.79	43.594
481.14	43.890
481.49	43.916
481.84	42.304
482.19	44.410
482.53	43.654
482.88	43.728
483.23	44.204
483.58	43.223
483.92	44.561
484.27	44.178
484.62	43.336
484.97	42.384
485.31	42.414
485.66	41.434
486.01	39.751
486.36	38.807
486.70	38.369
487.05	39.208
487.40	40.337
487.75	40.871
488.09	40.937
488.44	42.001
488.79	42.173
489.13	43.449
489.48	43.548
489.83	43.078
490.17	43.064
490.52	43.411
490.87	44.353
491.22	44.326
491.56	44.576
491.91	44.131
492.26	44.232
492.60	44.374
492.95	44.631
493.30	43.676
493.64	44.834
493.99	44.499
494.34	44.240
494.68	44.799
495.03	44.320
495.37	44.259
495.72	44.709
496.07	45.013
496.41	43.527
496.76	43.520
497.11	43.787
497.45	43.753
497.80	44.903
498.14	43.967
498.49	44.150
498.84	44.439
499.18	43.693
499.53	44.189
499.87	43.935
500.22	44.542
500.56	44.197
500.91	45.269
501.26	45.384
501.60	44.217
501.95	43.504
502.29	44.133
502.64	42.479
502.98	43.086
503.33	44.143
503.67	42.781
504.02	43.439
504.36	43.846
504.71	44.418
505.06	43.548
505.40	43.706
505.75	43.966
506.09	43.537
506.44	43.750
506.78	44.660
507.13	44.498
507.47	43.668
507.82	44.428
508.16	45.125
508.51	44.541
508.85	44.207
509.19	44.395
509.54	45.117
509.88	44.853
510.23	44.804
510.57	43.195
510.92	45.405
511.26	45.080
511.61	43.575
511.95	44.848
512.30	44.550
512.64	44.393
512.98	44.900
513.33	44.160
513.67	45.262
514.02	45.091
514.36	44.548
514.70	44.213
515.05	45.072
515.39	46.327
515.74	46.364
516.08	45.316
516.42	46.339
516.77	45.280
517.11	44.800
517.46	44.774
517.80	44.566
518.14	46.761
518.49	45.810
518.83	44.670
519.17	45.535
519.52	45.931
519.86	45.559
520.20	44.384
520.55	45.676
520.89	46.437
521.23	45.911
521.58	44.980
521.92	45.423
522.26	46.327
522.61	46.762
522.95	47.267
523.29	46.316
523.64	45.202
523.98	45.481
524.32	44.867
524.66	45.797
525.01	45.148
525.35	45.256
525.69	46.237
526.04	45.509
526.38	45.792
526.72	44.093
527.06	45.713
527.41	45.647
527.75	46.683
528.09	46.237
528.43	45.760
528.78	45.379
529.12	46.478
529.46	44.126
529.80	43.984
530.15	45.315
530.49	44.103
530.83	44.973
531.17	45.264
531.51	45.861
531.86	44.384
532.20	44.190
532.54	45.386
532.88	45.284
533.22	44.180
533.57	44.539
533.91	44.056
534.25	42.585
534.59	44.152
534.93	43.174
535.27	42.060
535.62	44.399
535.96	43.794
536.30	45.094
536.64	44.099
536.98	43.172
537.32	44.000
537.66	43.240
538.01	43.529
538.35	44.230
538.69	43.083
539.03	43.408
539.37	43.083
539.71	43.457
540.05	42.708
540.39	44.465
540.73	43.924
541.07	42.535
541.42	43.595
541.76	44.575
542.10	43.280
542.44	43.392
542.78	43.612
543.12	43.804
543.46	42.356
543.80	44.799
544.14	43.282
544.48	43.735
544.82	42.813
545.16	42.987
545.50	42.840
545.84	43.497
546.18	44.343
546.52	43.738
546.86	43.649
547.20	43.798
547.54	42.115
547.88	41.971
548.22	42.441
548.56	42.251
548.90	41.993
549.24	42.388
549.58	42.075
549.92	42.829
550.26	43.611
550.60	43.313
550.94	43.148
551.28	43.241
551.62	43.517
551.96	42.905
552.30	42.386
552.64	42.654
552.98	42.655
553.32	41.741
553.66	42.085
554.00	41.956
554.34	42.477
554.68	42.944
555.02	42.566
555.36	41.622
555.69	41.819
556.03	41.592
556.37	41.300
556.71	42.438
557.05	40.236
557.39	41.733
557.73	42.251
558.07	42.455
558.41	42.700
558.75	43.365
559.08	43.603
559.42	42.878
559.76	43.336
560.10	41.432
560.44	39.814
560.78	42.455
561.12	41.004
561.45	40.300
561.79	40.762
562.13	40.303
562.47	41.337
562.81	42.095
563.15	41.564
563.48	39.193
563.82	41.984
564.16	40.858
564.50	40.386
564.84	40.851
565.17	39.513
565.51	41.318
565.85	41.518
566.19	39.464
566.52	39.952
566.86	40.397
567.20	40.337
567.54	39.410
567.88	39.280
568.21	37.693
568.55	38.424
568.89	37.226
569.23	36.756
569.56	36.382
569.90	34.926
570.24	35.980
570.57	34.653
570.91	34.384
571.25	33.660
571.59	32.854
571.92	33.315
572.26	32.857
572.60	33.324
572.93	33.439
573.27	33.285
573.61	33.162
573.95	33.267
574.28	32.841
574.62	32.115
574.96	31.623
575.29	31.560
575.63	32.179
575.97	32.011
576.30	32.118
576.64	32.474
576.98	31.994
577.31	32.139
577.65	31.154
577.98	31.307
578.32	31.406
578.66	30.813
578.99	31.257
579.33	31.732
579.67	30.879
580.00	31.071
580.34	31.225
580.67	30.850
581.01	31.227
581.35	31.366
581.68	29.982
582.02	30.127
582.35	30.333
582.69	30.176
583.02	30.979
583.36	31.069
583.70	31.543
584.03	32.488
584.37	32.534
584.70	31.550
585.04	30.954
585.37	30.613
585.71	31.461
586.04	30.251
586.38	31.219
586.72	31.686
587.05	31.112
587.39	31.277
587.72	31.081
588.06	30.767
588.39	31.192
588.73	30.891
589.06	31.514
589.40	32.457
589.73	32.088
590.07	32.944
590.40	33.101
590.73	33.235
591.07	33.131
591.40	33.373
591.74	33.442
592.07	32.321
592.41	33.653
592.74	32.625
593.08	31.608
593.41	30.880
593.75	30.249
594.08	31.352
594.41	31.020
594.75	31.712
595.08	32.373
595.42	31.534
595.75	31.589
596.09	31.978
596.42	31.974
596.75	33.574
597.09	32.811
597.42	32.204
597.75	32.495
598.09	32.458
598.42	32.762
598.76	31.920
599.09	31.776
599.42	30.692
599.76	31.716
600.09	31.119
600.42	31.388
600.76	31.645
601.09	31.515
601.42	30.905
601.76	30.970
602.09	31.457
602.42	30.869
602.76	31.423
603.09	31.674
603.42	31.633
603.76	31.526
604.09	31.089
604.42	30.923
604.76	30.976
605.09	31.837
605.42	32.426
605.75	31.188
606.09	31.293
606.42	31.003
606.75	31.286
607.09	31.228
607.42	31.217
607.75	30.693
608.08	31.844
608.42	32.466
608.75	32.349
609.08	31.280
609.41	31.500
609.75	32.509
610.08	32.014
610.41	31.401
610.74	31.255
611.07	32.196
611.41	31.650
611.74	32.839
612.07	32.803
612.40	32.359
612.73	33.749
613.07	32.894
613.40	32.832
613.73	32.551
614.06	31.400
614.39	32.424
614.72	31.542
615.06	31.800
615.39	31.386
615.72	31.075
616.05	32.245
616.38	30.543
616.71	31.687
617.05	32.894
617.38	32.978
617.71	32.846
618.04	32.922
618.37	33.185
618.70	32.159
619.03	33.028
619.36	34.485
619.69	33.707
620.03	34.247
620.36	33.847
620.69	34.355
621.02	35.394
621.35	35.244
621.68	34.366
622.01	35.720
622.34	34.232
622.67	35.183
623.00	33.901
623.33	33.671
623.66	33.733
623.99	34.589
624.32	34.417
624.65	32.653
624.99	33.807
625.32	33.133
625.65	32.828
625.98	34.100
626.31	36.053
626.64	34.320
626.97	34.507
627.30	34.938
627.63	36.342
627.96	35.446
628.29	35.974
628.62	36.441
628.95	36.348
629.28	38.563
629.61	35.764
629.94	35.177
630.26	36.135
630.59	37.589
630.92	35.785
631.25	37.715
631.58	39.537
631.91	37.488
632.24	36.638
632.57	37.525
632.90	39.855
633.23	37.356
633.56	38.356
633.89	38.156
634.22	37.675
634.55	38.172
634.88	38.554
635.20	39.462
635.53	38.792
635.86	39.709
636.19	38.945
636.52	35.784
636.85	37.217
637.18	38.028
637.51	37.989
637.83	35.698
638.16	38.570
638.49	40.719
638.82	39.437
639.15	36.663
639.48	38.981
639.81	39.194
640.13	39.632
640.46	38.306
640.79	39.922
641.12	39.370
641.45	41.397
641.77	41.215
642.10	40.428
642.43	40.967
642.76	39.631
643.09	39.914
643.41	40.533
643.74	40.719
644.07	40.265
644.40	40.237
644.73	43.243
645.05	42.942
645.38	40.582
645.71	41.730
646.04	41.221
646.36	41.941
646.69	42.720
647.02	44.160
647.35	42.047
647.67	43.922
648.00	43.485
648.33	40.000
648.66	38.939
648.98	38.696
649.31	38.192
649.64	37.759
649.96	40.398
650.29	37.286
650.62	42.415
650.94	40.663
651.27	42.584
651.60	42.254
651.92	41.628
652.25	42.362
652.58	39.716
652.90	40.868
653.23	40.473
653.56	38.576
653.88	37.739
654.21	40.323
654.54	38.067
654.86	39.528
655.19	36.807
655.52	30.324
655.84	21.127
656.17	24.204
656.49	34.572
656.82	39.608
657.15	31.662
657.47	24.101
657.80	17.943
658.13	14.530
658.45	20.115
658.78	24.327
659.10	25.520
659.43	26.822
659.75	28.352
660.08	30.639
660.41	33.303
660.73	39.147
661.06	39.790
661.38	39.012
661.71	40.827
662.03	43.156
662.36	41.333
662.68	40.037
663.01	41.802
663.33	38.491
663.66	43.195
663.98	44.643
664.31	41.791
664.63	44.253
664.96	41.839
665.28	40.866
665.61	42.075
665.93	39.245
666.26	42.617
666.58	41.468
666.91	44.981
667.23	42.169
667.56	42.916
667.88	45.643
668.21	43.033
668.53	43.347
668.86	44.489
669.18	41.752
669.50	41.736
669.83	45.380
670.15	41.996
670.48	40.820
670.80	42.629
671.13	41.633
671.45	41.283
671.77	41.744
672.10	38.779
672.42	36.513
672.75	38.608
673.07	37.838
673.39	39.776
673.72	39.965
674.04	38.351
674.37	38.838
674.69	38.476
675.01	39.552
675.34	40.310
675.66	40.430
675.98	44.181
676.31	41.000
676.63	38.966
676.95	40.476
677.28	40.974
677.60	42.052
677.92	39.683
678.25	39.922
678.57	38.920
678.89	40.506
679.22	39.338
679.54	39.146
679.86	38.045
680.18	38.313
680.51	35.821
680.83	34.628
681.15	37.088
681.48	36.632
681.80	38.529
682.12	38.408
682.44	37.658
682.77	35.231
683.09	39.612
683.41	41.429
683.73	37.402
684.06	40.278
684.38	41.279
684.70	38.669
685.02	36.979
685.34	36.092
685.67	36.656
685.99	36.617
686.31	34.823
686.63	34.797
686.96	37.582
687.28	35.570
687.60	36.177
687.92	38.023
688.24	38.276
688.56	36.655
688.89	36.520
689.21	39.884
689.53	37.352
689.85	38.618
690.17	39.612
690.49	38.306
690.82	37.605
691.14	38.182
691.46	39.425
691.78	39.181
692.10	38.931
692.42	35.209
692.74	39.147
693.06	39.729
693.39	37.154
693.71	36.739
694.03	39.842
694.35	39.157
694.67	36.864
694.99	39.911
695.31	40.090
695.63	38.914
695.95	39.367
696.27	42.920
696.59	36.754
696.91	39.494
697.23	38.688
697.56	35.892
697.88	35.729
698.20	37.170
698.52	37.160
698.84	35.729
699.16	38.380
699.48	37.924
699.80	40.523
700.12	40.647
700.44	40.421
700.76	39.379
701.08	39.426
701.40	42.597
701.72	43.048
702.04	43.089
702.36	40.860
702.68	41.223
703.00	38.596
703.32	41.191
703.64	41.310
703.96	40.625
704.28	43.122
704.60	43.099
704.91	40.056
705.23	41.193
705.55	41.246
705.87	42.857
706.19	44.201
706.51	46.395
706.83	43.068
707.15	41.979
707.47	39.467
707.79	39.540
708.11	35.601
708.43	36.404
708.74	35.068
709.06	34.884
709.38	40.447
709.70	37.330
710.02	39.402
710.34	41.989
710.66	38.333
710.98	41.530
711.29	40.390
711.61	40.947
711.93	42.249
712.25	41.265
712.57	40.193
712.89	43.030
713.20	42.173
713.52	42.679
713.84	42.598
714.16	37.101
714.48	38.329
714.80	37.127
715.11	38.298
715.43	39.385
715.75	41.408
716.07	40.173
716.39	39.143
716.70	38.318
717.02	42.761
717.34	48.921
717.66	43.750
717.97	44.318
718.29	45.423
718.61	40.203
718.93	38.754
719.24	46.309
719.56	41.724
719.88	37.898
720.20	39.355
720.51	44.444
720.83	42.475
721.15	43.537
721.46	41.781
721.78	36.585
722.10	45.139
722.42	44.482
722.73	44.404
723.05	43.158
723.37	44.523
723.68	41.797
724.00	44.697
724.32	43.726
724.63	42.692
724.95	48.627
725.27	40.892
725.58	42.279
725.90	40.845
726.22	41.438
726.53	40.134
726.85	38.111
727.16	41.611
727.48	42.525
727.80	42.086
728.11	41.071
728.43	42.029
728.74	39.860
729.06	39.427
729.38	45.614
729.69	42.000
730.01	41.776
730.32	39.262
730.64	43.189
730.96	35.135
731.27	33.639
731.59	33.046
731.90	37.047
732.22	37.143
732.53	32.764
732.85	40.351
733.16	34.639
733.48	35.737
733.80	36.812
734.11	40.184
734.43	35.088
734.74	34.048
735.06	36.508
735.37	32.474
735.69	37.971
736.00	37.309
736.32	34.848
736.63	33.123
736.95	37.267
737.26	35.976
737.58	35.890
737.89	37.048
738.21	37.748
738.52	36.789
738.83	43.223
739.15	39.373
739.46	38.966
739.78	39.456
740.09	37.026
740.41	35.890
740.72	38.730
741.04	42.308
741.35	41.016
741.66	41.107
741.98	42.489
742.29	46.759
742.61	40.708
742.92	40.254
743.23	40.800
743.55	40.755
743.86	43.529
744.18	42.797
744.49	43.802
744.80	47.926
745.12	47.768
745.43	48.598
745.74	39.556
746.06	39.474
746.37	42.326
746.68	47.345
747.00	46.188
747.31	46.218
747.62	40.984
747.94	43.777
748.25	39.300
748.56	50.847
748.88	42.411
749.19	45.581
749.50	43.836
749.82	36.214
750.13	44.269
750.44	36.667
750.75	39.597
751.07	42.105
751.38	34.983
751.69	36.700
752.01	36.713
752.32	37.874
752.63	38.591
752.94	36.713
753.26	44.531
753.57	42.802
753.88	38.577
754.19	41.155
754.51	38.538
754.82	34.899
755.13	37.500
755.44	41.111
755.75	38.144
756.07	36.301
756.38	30.719
756.69	37.813
757.00	35.905
757.31	35.211
757.63	32.507
757.94	31.649
758.25	35.024
758.56	31.350
758.87	33.835
759.18	33.140
759.50	32.219
759.81	35.312
760.12	33.427
760.43	33.613
760.74	32.658
761.05	31.034
761.36	30.208
761.67	36.388
761.99	33.521
762.30	36.334
762.61	32.639
762.92	37.121
763.23	38.113
763.54	39.615
763.85	35.798
764.16	36.458
764.47	35.473
764.78	36.156
765.10	33.841
765.41	31.250
765.72	32.873
766.03	35.952
766.34	33.449
766.65	39.163
766.96	44.130
767.27	44.393
767.58	43.564
767.89	51.934
768.20	57.317
768.51	45.918
768.82	39.035
769.13	34.510
769.44	41.353
769.75	35.581
770.06	40.336
770.37	35.526
770.68	40.000
770.99	36.441
771.30	45.607
771.61	41.154
771.92	36.641
772.23	38.710
772.54	44.444
772.85	45.050
773.16	44.565
773.47	43.333
773.78	43.564
774.09	49.432
774.39	44.848
774.70	43.529
775.01	47.368
775.32	47.826
775.63	53.425
775.94	48.148
776.25	49.655
776.56	56.489
776.87	51.145
777.18	47.727
777.48	63.780
777.79	50.769
778.10	48.485
778.41	58.955
778.72	51.128
779.03	44.872
779.34	45.270
779.65	47.826
779.95	44.720
780.26	51.786
780.57	57.143
780.88	54.610
781.19	60.833
781.50	49.112
781.80	49.727
782.11	47.619
782.42	40.230
782.73	43.503
783.04	45.806
783.34	46.512
783.65	40.816
783.96	47.097
784.27	49.669
784.57	46.053
784.88	47.826
785.19	50.833
785.50	51.724
785.81	55.814
786.11	48.148
786.42	52.756
786.73	54.955
787.04	57.547
787.34	47.154
787.65	54.545
787.96	58.333
788.26	53.543
788.57	53.285
788.88	49.296
789.19	42.748
789.49	50.000
789.80	50.781
790.11	51.240
790.41	62.037
790.72	47.222
791.03	66.346
791.33	59.596
791.64	58.947
791.95	68.421
792.25	50.000
792.56	62.000
792.87	67.073
793.17	64.773
793.48	68.235
793.79	71.264
794.09	57.955
794.40	62.931
794.70	57.937
795.01	49.231
795.32	54.198
795.62	42.735
795.93	57.143
796.23	56.911
796.54	67.347
796.85	57.955
797.15	71.429
797.46	76.829
797.76	72.500
798.07	64.000
798.37	72.500
798.68	81.250
798.99	76.829
799.29	74.667
799.60	59.302
799.90	72.368
800.21	78.788
800.51	83.099
800.82	75.862
801.12	90.769
801.43	77.333
801.73	70.690
802.04	74.026
802.34	78.082
802.65	105.882
802.95	78.261
803.26	98.387
803.56	98.333
803.87	71.642
804.17	90.476
804.48	71.698
804.78	63.889
805.09	84.848
805.39	74.603
805.70	84.211
806.00	71.429
806.30	93.750
806.61	63.529
806.91	70.000
807.22	56.522
807.52	69.737
807.83	82.895
808.13	76.812
808.43	88.710
808.74	68.493
809.04	96.429
809.35	95.588
809.65	83.333
809.95	117.647
810.26	109.259
810.56	93.750
810.86	91.837
811.17	105.263
811.47	121.739
811.77	84.483
812.08	74.138
812.38	114.286
812.69	123.810
812.99	84.444
813.29	114.286
813.59	125.806
813.90	81.034
814.20	88.525
814.50	96.000
814.81	84.211
815.11	92.593
815.41	94.643
815.72	110.714
816.02	98.000
816.32	114.634
816.62	101.724
816.93	136.364
817.23	131.707
817.53	89.286
817.84	102.222
818.14	130.952
818.44	120.833
818.74	103.774
819.04	92.308
819.35	127.273
819.65	123.077
819.95	116.667
820.25	110.638
820.56	143.243
820.86	128.947
821.16	87.234
821.46	113.158
821.76	100.000
822.07	95.238
822.37	107.895
822.67	132.558
822.97	107.895
823.27	104.348
823.57	156.250
823.88	112.821
824.18	118.182
824.48	147.826
824.78	102.778
825.08	117.391
825.38	148.276
825.69	135.294
825.99	117.021
826.29	86.111
826.59	128.571
826.89	123.333
827.19	137.143
827.49	180.645
827.79	169.231
828.09	107.143
828.39	119.444
828.70	97.297
829.00	167.857
829.30	181.250
829.60	125.000
829.90	145.161
830.20	121.212
830.50	129.730
830.80	183.333
831.10	192.308
831.40	190.476
831.70	225.000
832.00	140.000
832.30	173.913
832.60	191.667
832.90	172.727
833.20	185.000
833.50	123.684
833.80	129.412
834.10	107.895
834.40	200.000
834.70	126.667
835.00	200.000
835.30	113.514
835.60	165.625
835.90	121.622
836.20	184.615
836.50	150.000
836.80	126.829
837.10	186.957
837.40	361.538
837.70	168.421
838.00	150.000
838.30	175.000
838.60	160.000
838.90	370.000
839.19	206.250
839.49	146.667
839.79	110.345
840.09	161.538
840.39	226.667
840.69	200.000
840.99	142.857
841.29	221.739
841.59	230.000
841.88	228.000
842.18	466.667
842.48	146.429
842.78	192.593
843.08	269.231
843.38	177.273
843.68	264.286
843.97	614.286
844.27	178.261
844.57	1450.000
844.87	364.286
845.17	244.444
845.47	185.714
845.76	191.667
846.06	685.714
846.36	170.588
846.66	300.000
846.96	306.250
847.25	238.462
847.55	200.000
847.85	222.222
848.15	840.000
848.44	345.455
848.74	185.714
849.04	204.167
849.34	217.647
849.63	318.750
849.93	256.250
850.23	1433.333
850.53	500.000
850.82	372.727
851.12	217.647
851.42	191.667
851.71	300.000
852.01	0.000
852.31	235.294
852.61	460.000
852.90	191.667
853.20	411.111
853.50	-2500.000
853.79	188.000
854.09	156.250
854.39	124.138
854.68	144.828
854.98	190.476
855.28	119.355
855.57	328.571
855.87	266.667
856.17	192.593
856.46	184.211
856.76	167.742
857.05	258.824
857.35	327.273
857.65	223.077
857.94	175.000
858.24	422.222
858.53	292.857
858.83	528.571
859.13	195.652
859.42	344.444
859.72	412.500
860.01	375.000
860.31	1050.000
860.60	300.000
860.90	500.000
861.20	261.538
861.49	600.000
861.79	-3400.000
862.08	585.714
862.38	444.444
862.67	207.143
862.97	350.000
863.26	153.333
863.56	900.000
863.85	292.308
864.15	276.471
864.44	205.556
864.74	325.000
865.03	354.545
865.33	437.500
865.62	286.667
865.92	533.333
866.21	1175.000
866.51	780.000
866.80	250.000
867.10	1033.333
867.39	2800.000
867.69	600.000
867.98	975.000
868.27	190.476
868.57	280.000
868.86	1100.000
869.16	161.905
869.45	3500.000
869.75	-533.333
870.04	1000.000
870.33	800.000
870.63	437.500
870.92	247.059
871.22	850.000
871.51	471.429
871.80	325.000
872.10	307.692
>>>>>End Processed Spectral Data<<<<<
