SpectraSuite Data File
++++++++++++++++++++++++++++++++++++
Date: Wed May 13 21:44:04 PDT 2015
User: schluterlab
Dark Spectrum Present: Yes
Reference Spectrum Present: Yes
Number of Sampled Component Spectra: 1
Spectrometers: USB2E3373
Integration Time (usec): 3000 (USB2E3373)
Spectra Averaged: 3 (USB2E3373)
Boxcar Smoothing: 0 (USB2E3373)
Correct for Electrical Dark: No (USB2E3373)
Strobe/Lamp Enabled: No (USB2E3373)
Correct for Detector Non-linearity: No (USB2E3373)
Correct for Stray Light: No (USB2E3373)
Number of Pixels in Processed Spectrum: 2048
>>>>>Begin Processed Spectral Data<<<<<
178.53	0.000
178.91	300.000
179.29	141.667
179.67	-650.000
180.04	-233.333
180.42	140.000
180.80	1200.000
181.18	300.000
181.56	-300.000
181.94	-250.000
182.31	81.818
182.69	76.923
183.07	-320.000
183.45	166.667
183.83	122.222
184.20	128.571
184.58	0.000
184.96	233.333
185.34	228.571
185.72	0.000
186.09	-900.000
186.47	-260.000
186.85	100.000
187.23	-350.000
187.61	400.000
187.98	1100.000
188.36	25.000
188.74	0.000
189.12	-109.091
189.49	60.000
189.87	91.667
190.25	220.000
190.63	900.000
191.00	100.000
191.38	100.000
191.76	250.000
192.14	133.333
192.51	21.053
192.89	533.333
193.27	250.000
193.65	-120.000
194.02	109.091
194.40	150.000
194.78	-300.000
195.15	280.000
195.53	-20.000
195.91	-12.500
196.29	-33.333
196.66	0.000
197.04	550.000
197.42	-60.000
197.79	-10.000
198.17	-87.500
198.55	-133.333
198.92	325.000
199.30	-233.333
199.68	40.000
200.05	-0.000
200.43	166.667
200.81	-400.000
201.18	-160.000
201.56	-166.667
201.94	750.000
202.31	-30.435
202.69	-128.571
203.07	-766.667
203.44	-160.000
203.82	-133.333
204.19	-70.000
204.57	0.000
204.95	-16.667
205.32	0.000
205.70	-300.000
206.08	-325.000
206.45	-183.333
206.83	325.000
207.20	-300.000
207.58	-70.000
207.96	-800.000
208.33	14.286
208.71	-1300.000
209.08	200.000
209.46	600.000
209.84	0.000
210.21	140.000
210.59	1900.000
210.96	140.000
211.34	1600.000
211.71	-300.000
212.09	-216.667
212.46	-140.000
212.84	-100.000
213.22	-175.000
213.59	-1100.000
213.97	-150.000
214.34	-650.000
214.72	-23.077
215.09	125.000
215.47	111.111
215.84	400.000
216.22	-100.000
216.59	-350.000
216.97	433.333
217.34	111.111
217.72	0.000
218.09	300.000
218.47	300.000
218.84	28.571
219.22	-75.000
219.59	-200.000
219.97	-75.000
220.34	25.000
220.72	-120.000
221.09	0.000
221.47	-233.333
221.84	-200.000
222.22	0.000
222.59	800.000
222.97	-233.333
223.34	-25.000
223.72	-1100.000
224.09	-350.000
224.46	9.091
224.84	62.500
225.21	-142.857
225.59	-375.000
225.96	-133.333
226.34	30.000
226.71	-157.143
227.08	750.000
227.46	-112.500
227.83	-200.000
228.21	25.000
228.58	-375.000
228.95	0.000
229.33	18.750
229.70	25.000
230.08	30.769
230.45	-187.500
230.82	-83.333
231.20	200.000
231.57	-125.000
231.95	1400.000
232.32	58.333
232.69	-52.941
233.07	-500.000
233.44	0.000
233.81	-400.000
234.19	0.000
234.56	13.333
234.93	-6.667
235.31	26.316
235.68	7.692
236.05	15.385
236.43	38.889
236.80	21.212
237.17	-33.333
237.55	5.882
237.92	-6.897
238.29	22.222
238.67	38.889
239.04	6.452
239.41	14.894
239.79	29.787
240.16	20.930
240.53	53.571
240.91	42.857
241.28	58.929
241.65	35.484
242.02	47.368
242.40	50.725
242.77	55.072
243.14	37.179
243.51	38.298
243.89	47.115
244.26	57.547
244.63	37.500
245.00	60.417
245.38	51.261
245.75	51.639
246.12	39.850
246.49	34.959
246.87	45.378
247.24	41.216
247.61	42.384
247.98	42.308
248.36	47.337
248.73	45.506
249.10	44.444
249.47	48.387
249.84	56.316
250.22	51.741
250.59	49.065
250.96	50.455
251.33	48.804
251.70	52.720
252.08	48.536
252.45	50.617
252.82	52.471
253.19	51.362
253.56	46.043
253.94	51.246
254.31	47.535
254.68	50.671
255.05	46.205
255.42	50.699
255.79	47.853
256.16	52.997
256.54	50.794
256.91	43.354
257.28	53.459
257.65	48.089
258.02	50.147
258.39	48.538
258.76	46.802
259.14	48.580
259.51	48.876
259.88	51.220
260.25	50.556
260.62	54.775
260.99	50.663
261.36	50.259
261.73	46.667
262.10	48.601
262.47	49.630
262.85	45.771
263.22	52.308
263.59	48.831
263.96	47.202
264.33	49.279
264.70	50.465
265.07	47.685
265.44	49.655
265.81	50.801
266.18	51.708
266.55	48.472
266.92	51.907
267.29	51.235
267.66	50.318
268.03	49.588
268.40	48.093
268.77	51.033
269.14	48.980
269.51	48.049
269.88	47.862
270.25	51.059
270.62	48.566
270.99	47.638
271.36	48.413
271.73	52.410
272.10	48.381
272.47	48.944
272.84	48.228
273.21	47.358
273.58	50.820
273.95	48.868
274.32	49.627
274.69	48.087
275.06	50.177
275.43	47.646
275.80	48.404
276.17	48.066
276.54	46.359
276.91	45.993
277.28	48.195
277.65	48.951
278.02	49.464
278.39	49.556
278.76	48.495
279.13	47.513
279.50	47.241
279.87	46.920
280.23	49.189
280.60	46.713
280.97	46.266
281.34	48.896
281.71	46.992
282.08	48.034
282.45	47.049
282.82	47.604
283.19	46.037
283.56	46.250
283.92	48.930
284.29	44.930
284.66	46.293
285.03	46.254
285.40	44.411
285.77	46.997
286.14	48.632
286.51	46.477
286.87	43.538
287.24	45.133
287.61	47.892
287.98	46.029
288.35	45.306
288.72	43.329
289.08	45.157
289.45	41.997
289.82	46.899
290.19	44.741
290.56	41.761
290.93	43.094
291.29	42.134
291.66	43.033
292.03	42.916
292.40	42.665
292.77	42.570
293.13	43.794
293.50	40.784
293.87	41.200
294.24	42.328
294.60	42.003
294.97	42.593
295.34	40.106
295.71	39.685
296.08	39.791
296.44	39.031
296.81	41.169
297.18	39.625
297.55	38.208
297.91	38.634
298.28	38.499
298.65	38.547
299.02	40.171
299.38	40.982
299.75	38.341
300.12	36.512
300.48	38.480
300.85	39.376
301.22	38.211
301.59	36.972
301.95	37.398
302.32	37.573
302.69	37.288
303.05	37.874
303.42	39.205
303.79	39.537
304.15	37.568
304.52	40.538
304.89	38.760
305.25	36.663
305.62	38.937
305.99	37.541
306.35	40.334
306.72	38.352
307.09	39.833
307.45	39.936
307.82	39.158
308.19	38.454
308.55	38.588
308.92	39.686
309.29	40.741
309.65	39.760
310.02	39.364
310.38	40.549
310.75	40.039
311.12	40.428
311.48	40.158
311.85	40.551
312.22	41.683
312.58	41.256
312.95	41.891
313.31	39.945
313.68	42.176
314.05	43.478
314.41	43.516
314.78	44.118
315.14	42.500
315.51	43.102
315.87	43.281
316.24	43.343
316.61	45.297
316.97	45.463
317.34	45.900
317.70	47.458
318.07	46.406
318.43	47.606
318.80	46.597
319.16	47.569
319.53	49.194
319.89	48.329
320.26	47.967
320.62	48.193
320.99	48.450
321.35	49.486
321.72	51.299
322.08	52.306
322.45	53.654
322.81	54.898
323.18	52.683
323.54	55.325
323.91	53.930
324.27	54.815
324.64	55.836
325.00	55.031
325.37	56.655
325.73	55.135
326.10	55.341
326.46	55.769
326.83	56.634
327.19	57.805
327.56	58.582
327.92	58.246
328.29	59.599
328.65	60.298
329.01	59.103
329.38	60.435
329.74	60.858
330.11	62.759
330.47	60.243
330.84	61.733
331.20	61.742
331.56	63.768
331.93	61.757
332.29	62.207
332.66	60.932
333.02	60.904
333.38	62.456
333.75	62.116
334.11	62.847
334.48	63.819
334.84	63.339
335.20	62.436
335.57	63.359
335.93	62.543
336.29	61.384
336.66	62.991
337.02	62.261
337.38	62.228
337.75	62.102
338.11	62.596
338.47	61.301
338.84	63.402
339.20	64.109
339.56	62.287
339.93	62.921
340.29	62.767
340.65	64.927
341.02	62.396
341.38	63.260
341.74	61.176
342.11	64.079
342.47	61.925
342.83	62.173
343.20	63.283
343.56	64.350
343.92	62.470
344.28	62.662
344.65	62.776
345.01	62.793
345.37	63.816
345.73	63.480
346.10	62.279
346.46	61.626
346.82	63.082
347.19	60.839
347.55	64.782
347.91	62.510
348.27	62.697
348.63	62.580
349.00	61.478
349.36	63.030
349.72	63.186
350.08	64.119
350.45	63.508
350.81	63.224
351.17	63.664
351.53	62.137
351.89	62.907
352.26	63.707
352.62	63.566
352.98	64.217
353.34	63.849
353.70	62.227
354.07	63.843
354.43	62.986
354.79	63.782
355.15	62.888
355.51	60.896
355.87	62.705
356.24	65.570
356.60	62.627
356.96	63.085
357.32	64.164
357.68	63.789
358.04	64.391
358.40	63.488
358.77	63.150
359.13	64.436
359.49	61.923
359.85	64.367
360.21	62.375
360.57	63.650
360.93	63.961
361.29	63.583
361.66	64.009
362.02	63.751
362.38	64.993
362.74	63.524
363.10	63.051
363.46	64.049
363.82	63.784
364.18	64.177
364.54	63.676
364.90	63.206
365.26	62.703
365.62	64.986
365.98	64.840
366.35	63.617
366.71	63.053
367.07	64.210
367.43	62.857
367.79	63.238
368.15	62.588
368.51	61.885
368.87	65.038
369.23	63.843
369.59	62.579
369.95	63.716
370.31	62.204
370.67	65.098
371.03	63.994
371.39	62.669
371.75	63.929
372.11	64.174
372.47	64.239
372.83	63.107
373.19	62.734
373.55	63.078
373.91	62.730
374.27	62.517
374.63	65.292
374.99	63.510
375.35	64.384
375.71	62.636
376.07	64.496
376.42	64.572
376.78	64.729
377.14	65.288
377.50	63.299
377.86	64.276
378.22	64.286
378.58	64.628
378.94	63.938
379.30	63.460
379.66	62.885
380.02	64.400
380.38	64.217
380.74	63.240
381.09	62.847
381.45	62.394
381.81	62.970
382.17	63.831
382.53	62.462
382.89	61.942
383.25	63.951
383.61	63.620
383.97	62.625
384.32	62.823
384.68	63.233
385.04	62.004
385.40	62.889
385.76	62.409
386.12	63.396
386.48	62.571
386.83	63.579
387.19	63.418
387.55	61.741
387.91	63.530
388.27	63.070
388.62	63.233
388.98	63.329
389.34	62.281
389.70	61.722
390.06	61.375
390.42	61.791
390.77	61.883
391.13	62.437
391.49	60.278
391.85	60.958
392.20	60.526
392.56	62.667
392.92	61.849
393.28	60.953
393.64	63.303
393.99	59.731
394.35	60.864
394.71	61.282
395.07	59.811
395.42	62.157
395.78	60.360
396.14	61.065
396.50	61.319
396.85	61.568
397.21	59.488
397.57	59.255
397.92	60.479
398.28	59.955
398.64	60.170
399.00	59.431
399.35	61.010
399.71	59.988
400.07	60.301
400.42	60.063
400.78	58.550
401.14	59.473
401.49	58.718
401.85	60.135
402.21	60.310
402.57	58.185
402.92	58.573
403.28	59.225
403.63	58.834
403.99	59.373
404.35	58.354
404.70	58.187
405.06	58.485
405.42	58.982
405.77	56.912
406.13	57.600
406.49	58.119
406.84	58.181
407.20	57.608
407.55	58.896
407.91	55.261
408.27	55.895
408.62	59.362
408.98	58.076
409.34	57.426
409.69	58.155
410.05	56.779
410.40	54.839
410.76	56.619
411.11	56.405
411.47	57.532
411.83	54.959
412.18	56.234
412.54	58.145
412.89	56.803
413.25	55.634
413.60	58.307
413.96	56.242
414.31	56.535
414.67	54.794
415.03	56.225
415.38	56.737
415.74	55.296
416.09	56.709
416.45	55.981
416.80	56.309
417.16	55.803
417.51	57.803
417.87	55.754
418.22	56.432
418.58	55.453
418.93	57.753
419.29	56.766
419.64	55.852
420.00	57.143
420.35	55.529
420.71	56.185
421.06	56.888
421.42	56.752
421.77	57.630
422.12	57.364
422.48	56.216
422.83	57.472
423.19	56.642
423.54	56.890
423.90	57.126
424.25	57.539
424.61	57.856
424.96	56.712
425.31	56.702
425.67	57.848
426.02	58.127
426.38	59.017
426.73	58.338
427.09	58.224
427.44	57.780
427.79	56.591
428.15	58.777
428.50	57.583
428.85	59.348
429.21	57.907
429.56	58.874
429.92	58.043
430.27	58.078
430.62	58.185
430.98	59.439
431.33	59.699
431.68	60.064
432.04	60.169
432.39	58.487
432.74	57.756
433.10	59.617
433.45	58.817
433.80	58.908
434.16	58.711
434.51	60.707
434.86	59.953
435.22	59.140
435.57	59.029
435.92	59.469
436.28	58.498
436.63	60.162
436.98	59.753
437.34	60.134
437.69	58.678
438.04	57.895
438.39	60.523
438.75	60.250
439.10	61.943
439.45	60.351
439.81	59.236
440.16	60.000
440.51	59.096
440.86	60.877
441.22	58.692
441.57	60.249
441.92	59.927
442.27	59.957
442.63	58.665
442.98	60.706
443.33	60.722
443.68	59.884
444.03	61.699
444.39	60.882
444.74	60.243
445.09	59.747
445.44	61.803
445.79	60.661
446.15	60.954
446.50	59.967
446.85	61.251
447.20	61.056
447.55	61.668
447.91	60.899
448.26	61.407
448.61	60.414
448.96	60.251
449.31	61.565
449.66	61.076
450.02	60.091
450.37	59.988
450.72	61.424
451.07	60.063
451.42	60.075
451.77	60.986
452.12	60.190
452.47	61.007
452.83	59.788
453.18	61.744
453.53	61.286
453.88	61.084
454.23	60.507
454.58	59.436
454.93	60.808
455.28	61.593
455.63	59.576
455.98	61.229
456.34	60.712
456.69	60.192
457.04	60.186
457.39	60.493
457.74	61.640
458.09	59.953
458.44	60.870
458.79	60.077
459.14	59.101
459.49	61.098
459.84	59.865
460.19	59.544
460.54	60.706
460.89	61.599
461.24	61.036
461.59	61.353
461.94	62.326
462.29	61.091
462.64	61.214
462.99	61.368
463.34	60.290
463.69	61.469
464.04	59.184
464.39	60.281
464.74	60.504
465.09	61.128
465.44	59.933
465.79	61.012
466.14	59.578
466.49	61.701
466.84	61.148
467.19	60.573
467.54	62.476
467.89	61.219
468.24	61.278
468.59	59.911
468.94	60.920
469.29	60.145
469.64	60.739
469.99	60.276
470.34	60.351
470.68	59.926
471.03	60.790
471.38	60.014
471.73	60.562
472.08	60.206
472.43	60.752
472.78	60.649
473.13	58.311
473.48	59.361
473.83	60.452
474.17	60.807
474.52	60.194
474.87	59.952
475.22	60.085
475.57	59.732
475.92	60.796
476.27	60.373
476.61	59.626
476.96	60.594
477.31	60.464
477.66	60.565
478.01	60.165
478.36	59.837
478.70	59.398
479.05	60.377
479.40	58.970
479.75	60.361
480.10	59.052
480.45	59.000
480.79	60.926
481.14	60.334
481.49	60.631
481.84	58.106
482.19	59.935
482.53	60.571
482.88	60.259
483.23	59.817
483.58	59.783
483.92	59.971
484.27	59.378
484.62	59.299
484.97	60.307
485.31	60.471
485.66	57.401
486.01	58.835
486.36	59.230
486.70	59.712
487.05	61.277
487.40	61.377
487.75	62.130
488.09	62.903
488.44	62.461
488.79	61.317
489.13	60.915
489.48	59.684
489.83	60.429
490.17	59.646
490.52	61.244
490.87	59.110
491.22	60.669
491.56	59.943
491.91	60.202
492.26	61.122
492.60	58.490
492.95	59.378
493.30	58.866
493.64	58.417
493.99	58.986
494.34	59.634
494.68	60.239
495.03	59.437
495.37	59.903
495.72	59.799
496.07	60.789
496.41	58.774
496.76	59.781
497.11	59.906
497.45	61.089
497.80	61.282
498.14	60.000
498.49	59.909
498.84	59.818
499.18	59.283
499.53	58.493
499.87	57.739
500.22	59.532
500.56	59.228
500.91	60.060
501.26	59.557
501.60	58.578
501.95	58.888
502.29	58.058
502.64	59.499
502.98	57.948
503.33	59.903
503.67	59.640
504.02	59.608
504.36	58.940
504.71	59.197
505.06	59.246
505.40	58.918
505.75	59.919
506.09	59.172
506.44	58.720
506.78	58.507
507.13	58.992
507.47	58.537
507.82	58.451
508.16	59.367
508.51	58.523
508.85	59.305
509.19	59.365
509.54	59.196
509.88	59.032
510.23	58.789
510.57	58.898
510.92	59.429
511.26	60.946
511.61	60.373
511.95	59.702
512.30	58.856
512.64	60.045
512.98	58.227
513.33	60.169
513.67	58.376
514.02	60.034
514.36	59.382
514.70	58.891
515.05	59.743
515.39	59.257
515.74	59.207
516.08	58.407
516.42	57.719
516.77	59.402
517.11	58.907
517.46	60.564
517.80	59.867
518.14	58.481
518.49	59.855
518.83	57.637
519.17	58.795
519.52	60.012
519.86	59.259
520.20	57.671
520.55	58.955
520.89	59.836
521.23	60.256
521.58	59.229
521.92	58.831
522.26	58.230
522.61	57.789
522.95	58.420
523.29	59.175
523.64	58.042
523.98	58.196
524.32	58.097
524.66	58.571
525.01	60.550
525.35	60.698
525.69	58.847
526.04	59.023
526.38	58.891
526.72	58.514
527.06	58.221
527.41	59.365
527.75	57.944
528.09	59.292
528.43	59.498
528.78	57.494
529.12	58.862
529.46	58.285
529.80	57.799
530.15	57.529
530.49	58.895
530.83	58.091
531.17	59.589
531.51	58.867
531.86	58.198
532.20	59.269
532.54	56.897
532.88	58.816
533.22	58.519
533.57	58.543
533.91	59.548
534.25	59.180
534.59	58.172
534.93	58.227
535.27	57.834
535.62	59.803
535.96	58.100
536.30	59.375
536.64	57.348
536.98	58.584
537.32	60.214
537.66	59.168
538.01	57.559
538.35	59.116
538.69	57.324
539.03	58.322
539.37	57.478
539.71	57.162
540.05	56.883
540.39	58.224
540.73	57.751
541.07	57.483
541.42	56.970
541.76	58.322
542.10	57.684
542.44	59.252
542.78	58.085
543.12	58.019
543.46	57.913
543.80	57.773
544.14	60.427
544.48	57.598
544.82	58.642
545.16	58.012
545.50	58.542
545.84	57.924
546.18	57.994
546.52	58.786
546.86	57.527
547.20	57.613
547.54	58.542
547.88	58.570
548.22	57.915
548.56	59.239
548.90	59.066
549.24	60.278
549.58	58.078
549.92	59.721
550.26	59.336
550.60	59.910
550.94	60.224
551.28	58.365
551.62	58.947
551.96	57.467
552.30	58.879
552.64	59.110
552.98	59.517
553.32	59.769
553.66	58.474
554.00	58.027
554.34	58.242
554.68	58.538
555.02	60.254
555.36	59.380
555.69	59.286
556.03	59.114
556.37	59.673
556.71	57.323
557.05	58.598
557.39	58.704
557.73	60.061
558.07	59.382
558.41	59.500
558.75	59.507
559.08	59.824
559.42	60.897
559.76	59.021
560.10	60.261
560.44	58.438
560.78	59.712
561.12	59.636
561.45	58.095
561.79	59.147
562.13	59.986
562.47	60.714
562.81	59.307
563.15	58.499
563.48	57.811
563.82	58.892
564.16	59.242
564.50	59.769
564.84	59.392
565.17	58.146
565.51	61.297
565.85	58.095
566.19	59.735
566.52	59.961
566.86	57.775
567.20	58.522
567.54	58.089
567.88	58.399
568.21	59.044
568.55	59.833
568.89	58.475
569.23	58.249
569.56	58.323
569.90	57.554
570.24	57.545
570.57	57.625
570.91	58.422
571.25	58.535
571.59	58.388
571.92	58.610
572.26	59.519
572.60	59.532
572.93	59.888
573.27	58.397
573.61	59.113
573.95	59.360
574.28	59.010
574.62	58.578
574.96	59.350
575.29	59.478
575.63	60.379
575.97	59.864
576.30	59.939
576.64	59.916
576.98	59.485
577.31	59.377
577.65	59.156
577.98	59.590
578.32	59.522
578.66	60.228
578.99	60.681
579.33	61.144
579.67	60.743
580.00	60.224
580.34	59.985
580.67	60.020
581.01	59.865
581.35	59.612
581.68	59.512
582.02	59.946
582.35	61.117
582.69	60.657
583.02	60.114
583.36	62.097
583.70	60.842
584.03	61.688
584.37	61.175
584.70	61.092
585.04	60.818
585.37	60.851
585.71	61.433
586.04	61.003
586.38	61.510
586.72	60.860
587.05	62.014
587.39	61.607
587.72	61.356
588.06	61.833
588.39	61.377
588.73	62.154
589.06	61.591
589.40	63.192
589.73	62.091
590.07	61.502
590.40	61.984
590.73	62.885
591.07	62.307
591.40	61.478
591.74	63.584
592.07	62.346
592.41	62.677
592.74	61.574
593.08	61.197
593.41	61.914
593.75	61.499
594.08	62.798
594.41	62.888
594.75	62.819
595.08	62.957
595.42	61.954
595.75	62.256
596.09	63.433
596.42	61.969
596.75	62.703
597.09	64.650
597.42	64.379
597.75	63.422
598.09	62.887
598.42	64.027
598.76	62.385
599.09	63.665
599.42	62.727
599.76	62.786
600.09	62.989
600.42	62.900
600.76	63.230
601.09	63.578
601.42	63.426
601.76	62.587
602.09	63.073
602.42	63.145
602.76	62.668
603.09	64.066
603.42	62.775
603.76	62.588
604.09	62.609
604.42	63.458
604.76	63.990
605.09	63.389
605.42	64.013
605.75	63.212
606.09	62.583
606.42	62.884
606.75	62.987
607.09	63.697
607.42	63.354
607.75	62.932
608.08	64.833
608.42	63.121
608.75	65.026
609.08	64.037
609.41	63.686
609.75	65.003
610.08	63.856
610.41	62.828
610.74	63.426
611.07	64.178
611.41	65.046
611.74	62.578
612.07	63.210
612.40	64.432
612.73	64.874
613.07	63.747
613.40	64.978
613.73	64.193
614.06	64.290
614.39	64.703
614.72	63.909
615.06	63.889
615.39	64.680
615.72	64.039
616.05	63.908
616.38	64.433
616.71	63.527
617.05	64.742
617.38	65.065
617.71	63.542
618.04	63.742
618.37	64.921
618.70	63.195
619.03	64.880
619.36	64.555
619.69	64.766
620.03	63.039
620.36	63.466
620.69	63.383
621.02	64.308
621.35	65.249
621.68	62.266
622.01	64.078
622.34	63.125
622.67	65.231
623.00	64.286
623.33	64.248
623.66	63.866
623.99	65.416
624.32	63.023
624.65	65.801
624.99	65.687
625.32	64.899
625.65	63.953
625.98	64.455
626.31	64.898
626.64	65.606
626.97	65.830
627.30	63.815
627.63	64.446
627.96	63.290
628.29	65.767
628.62	64.023
628.95	66.032
629.28	64.433
629.61	63.445
629.94	65.280
630.26	63.941
630.59	64.835
630.92	64.558
631.25	63.852
631.58	65.096
631.91	62.778
632.24	64.325
632.57	63.111
632.90	66.044
633.23	64.269
633.56	66.067
633.89	65.191
634.22	63.840
634.55	64.555
634.88	62.868
635.20	64.000
635.53	63.437
635.86	66.538
636.19	64.392
636.52	62.073
636.85	62.967
637.18	61.023
637.51	63.920
637.83	65.405
638.16	63.867
638.49	62.884
638.82	63.660
639.15	64.761
639.48	64.973
639.81	64.306
640.13	65.211
640.46	67.232
640.79	64.173
641.12	62.574
641.45	65.066
641.77	63.623
642.10	65.204
642.43	64.623
642.76	65.300
643.09	63.898
643.41	62.998
643.74	63.974
644.07	63.916
644.40	64.013
644.73	66.271
645.05	61.082
645.38	62.625
645.71	63.435
646.04	60.101
646.36	67.014
646.69	61.538
647.02	64.299
647.35	63.620
647.67	62.847
648.00	63.768
648.33	64.407
648.66	63.272
648.98	63.043
649.31	64.264
649.64	65.258
649.96	64.613
650.29	63.235
650.62	63.097
650.94	62.931
651.27	63.781
651.60	65.035
651.92	65.771
652.25	68.007
652.58	65.677
652.90	61.616
653.23	63.158
653.56	62.975
653.88	65.188
654.21	64.505
654.54	63.953
654.86	64.715
655.19	61.765
655.52	64.152
655.84	61.151
656.17	72.707
656.49	97.252
656.82	98.204
657.15	77.593
657.47	58.402
657.80	44.658
658.13	47.852
658.45	71.554
658.78	71.642
659.10	72.518
659.43	73.432
659.75	71.296
660.08	71.862
660.41	70.183
660.73	66.116
661.06	67.517
661.38	65.310
661.71	64.549
662.03	67.442
662.36	63.717
662.68	65.806
663.01	64.195
663.33	64.579
663.66	61.641
663.98	64.719
664.31	64.615
664.63	61.937
664.96	64.551
665.28	65.880
665.61	64.363
665.93	66.167
666.26	65.190
666.58	62.313
666.91	68.834
667.23	68.433
667.56	65.977
667.88	62.150
668.21	61.830
668.53	64.138
668.86	63.549
669.18	63.830
669.50	62.442
669.83	65.155
670.15	62.619
670.48	61.149
670.80	62.801
671.13	64.302
671.45	68.037
671.77	61.207
672.10	60.624
672.42	63.740
672.75	65.357
673.07	62.909
673.39	65.672
673.72	63.273
674.04	65.164
674.37	65.041
674.69	62.140
675.01	61.111
675.34	64.333
675.66	65.795
675.98	64.602
676.31	64.932
676.63	63.039
676.95	63.059
677.28	63.073
677.60	69.118
677.92	64.745
678.25	65.944
678.57	65.988
678.89	63.753
679.22	62.733
679.54	64.898
679.86	63.672
680.18	64.808
680.51	64.615
680.83	61.988
681.15	64.244
681.48	64.128
681.80	62.781
682.12	64.583
682.44	63.179
682.77	63.579
683.09	59.821
683.41	62.558
683.73	60.714
684.06	63.274
684.38	64.744
684.70	63.544
685.02	69.628
685.34	66.732
685.67	64.540
685.99	63.701
686.31	65.345
686.63	64.890
686.96	65.121
687.28	64.671
687.60	67.297
687.92	64.786
688.24	64.800
688.56	67.105
688.89	61.470
689.21	62.780
689.53	62.162
689.85	62.022
690.17	63.956
690.49	63.768
690.82	60.382
691.14	68.116
691.46	62.181
691.78	60.879
692.10	64.756
692.42	61.978
692.74	65.000
693.06	61.348
693.39	63.232
693.71	61.333
694.03	61.591
694.35	63.964
694.67	65.750
694.99	65.464
695.31	60.982
695.63	61.951
695.95	64.122
696.27	59.178
696.59	61.828
696.91	63.128
697.23	60.152
697.56	64.029
697.88	61.954
698.20	63.715
698.52	65.187
698.84	63.158
699.16	60.520
699.48	63.951
699.80	63.824
700.12	64.611
700.44	64.507
700.76	57.303
701.08	64.653
701.40	61.677
701.72	60.308
702.04	60.692
702.36	60.366
702.68	62.500
703.00	63.743
703.32	59.053
703.64	60.843
703.96	63.050
704.28	64.157
704.60	61.890
704.91	59.561
705.23	59.494
705.55	61.379
705.87	61.268
706.19	66.300
706.51	62.324
706.83	59.873
707.15	62.500
707.47	65.565
707.79	61.168
708.11	60.411
708.43	63.706
708.74	62.500
709.06	59.893
709.38	61.960
709.70	60.661
710.02	63.551
710.34	60.000
710.66	62.541
710.98	60.062
711.29	64.286
711.61	57.097
711.93	58.710
712.25	56.993
712.57	57.544
712.89	65.934
713.20	59.220
713.52	58.394
713.84	60.323
714.16	64.078
714.48	60.759
714.80	62.300
715.11	58.721
715.43	58.696
715.75	59.627
716.07	61.145
716.39	64.310
716.70	65.827
717.02	57.255
717.34	57.576
717.66	58.621
717.97	56.746
718.29	63.386
718.61	64.807
718.93	60.465
719.24	61.624
719.56	58.052
719.88	57.090
720.20	59.289
720.51	57.031
720.83	65.370
721.15	56.098
721.46	54.198
721.78	62.550
722.10	56.574
722.42	59.677
722.73	57.143
723.05	55.510
723.37	60.924
723.68	52.400
724.00	53.617
724.32	57.322
724.63	55.967
724.95	57.265
725.27	62.025
725.58	59.671
725.90	60.669
726.22	57.246
726.53	57.255
726.85	58.029
727.16	60.370
727.48	62.069
727.80	64.844
728.11	61.066
728.43	54.688
728.74	60.714
729.06	56.400
729.38	60.079
729.69	61.566
730.01	59.108
730.32	58.672
730.64	56.439
730.96	63.636
731.27	51.171
731.59	57.460
731.90	57.282
732.22	58.654
732.53	54.054
732.85	57.383
733.16	54.125
733.48	58.446
733.80	53.716
734.11	61.149
734.43	60.062
734.74	63.964
735.06	57.061
735.37	59.574
735.69	58.252
736.00	59.076
736.32	63.475
736.63	58.276
736.95	62.329
737.26	55.517
737.58	60.069
737.89	57.045
738.21	57.651
738.52	53.232
738.83	62.857
739.15	59.072
739.46	58.755
739.78	58.451
740.09	59.589
740.41	57.857
740.72	53.191
741.04	60.800
741.35	54.386
741.66	63.111
741.98	62.981
742.29	63.366
742.61	53.659
742.92	55.702
743.23	61.321
743.55	60.360
743.86	56.054
744.18	53.922
744.49	53.807
744.80	53.061
745.12	57.944
745.43	58.768
745.74	53.604
746.06	55.607
746.37	57.798
746.68	48.558
747.00	55.502
747.31	53.846
747.62	50.459
747.94	57.642
748.25	59.174
748.56	55.111
748.88	56.808
749.19	57.143
749.50	58.738
749.82	52.113
750.13	54.167
750.44	51.923
750.75	52.768
751.07	56.584
751.38	56.383
751.69	52.124
752.01	59.375
752.32	53.462
752.63	60.448
752.94	54.000
753.26	54.393
753.57	55.833
753.88	59.109
754.19	56.574
754.51	59.774
754.82	51.282
755.13	53.043
755.44	58.130
755.75	54.800
756.07	56.089
756.38	56.475
756.69	53.242
757.00	53.271
757.31	52.104
757.63	53.704
757.94	55.650
758.25	56.614
758.56	58.967
758.87	56.845
759.18	55.836
759.50	57.576
759.81	57.525
760.12	58.462
760.43	51.190
760.74	52.260
761.05	53.591
761.36	54.441
761.67	53.172
761.99	57.388
762.30	52.920
762.61	57.202
762.92	56.410
763.23	56.557
763.54	51.082
763.85	50.612
764.16	54.065
764.47	55.600
764.78	51.786
765.10	55.738
765.41	54.103
765.72	54.969
766.03	54.785
766.34	56.154
766.65	56.485
766.96	53.521
767.27	55.446
767.58	41.011
767.89	54.321
768.20	48.066
768.51	50.251
768.82	56.250
769.13	57.522
769.44	52.720
769.75	53.846
770.06	52.915
770.37	49.510
770.68	57.282
770.99	57.282
771.30	52.521
771.61	46.939
771.92	54.772
772.23	53.153
772.54	50.829
772.85	54.070
773.16	57.672
773.47	48.521
773.78	51.149
774.09	48.750
774.39	52.795
774.70	60.544
775.01	45.517
775.32	45.714
775.63	52.632
775.94	47.368
776.25	44.800
776.56	54.545
776.87	53.175
777.18	52.252
777.48	45.946
777.79	50.394
778.10	50.459
778.41	42.982
778.72	48.739
779.03	45.070
779.34	55.405
779.65	47.887
779.95	52.980
780.26	46.763
780.57	52.518
780.88	43.662
781.19	42.017
781.50	48.322
781.80	49.708
782.11	37.791
782.42	41.509
782.73	55.556
783.04	47.586
783.34	45.802
783.65	49.664
783.96	43.077
784.27	55.714
784.57	48.227
784.88	36.538
785.19	50.909
785.50	48.182
785.81	43.810
786.11	52.101
786.42	50.442
786.73	51.887
787.04	44.954
787.34	33.663
787.65	57.500
787.96	50.413
788.26	47.101
788.57	38.095
788.88	45.528
789.19	42.400
789.49	41.985
789.80	50.758
790.11	49.057
790.41	41.584
790.72	53.191
791.03	34.783
791.33	38.824
791.64	46.914
791.95	40.217
792.25	43.182
792.56	60.256
792.87	33.333
793.17	30.769
793.48	40.476
793.79	46.250
794.09	58.654
794.40	73.958
794.70	57.658
795.01	45.313
795.32	43.478
795.62	31.522
795.93	50.943
796.23	48.485
796.54	46.341
796.85	44.048
797.15	39.394
797.46	30.435
797.76	47.368
798.07	45.455
798.37	43.902
798.68	35.484
798.99	45.946
799.29	48.193
799.60	47.436
799.90	43.077
800.21	36.364
800.51	30.667
800.82	50.667
801.12	37.500
801.43	11.667
801.73	32.432
802.04	41.429
802.34	31.148
802.65	37.313
802.95	25.455
803.26	48.276
803.56	47.692
803.87	35.849
804.17	37.097
804.48	29.412
804.78	21.951
805.09	36.232
805.39	22.059
805.70	27.660
806.00	12.281
806.30	37.179
806.61	47.368
806.91	54.054
807.22	31.579
807.52	35.227
807.83	38.983
808.13	27.273
808.43	36.667
808.74	18.966
809.04	38.095
809.35	8.163
809.65	30.000
809.95	16.327
810.26	40.845
810.56	41.667
810.86	14.286
811.17	44.231
811.47	21.277
811.77	33.333
812.08	43.396
812.38	28.125
812.69	38.182
812.99	53.659
813.29	24.324
813.59	5.405
813.90	36.364
814.20	25.455
814.50	36.667
814.81	41.818
815.11	24.561
815.41	67.442
815.72	42.500
816.02	48.571
816.32	16.216
816.62	20.833
816.93	33.333
817.23	33.333
817.53	2.778
817.84	27.027
818.14	34.146
818.44	46.000
818.74	6.122
819.04	17.073
819.35	41.667
819.65	43.182
819.95	-22.222
820.25	6.061
820.56	19.048
820.86	41.667
821.16	11.364
821.46	32.609
821.76	24.138
822.07	36.957
822.37	51.515
822.67	24.390
822.97	45.946
823.27	22.857
823.57	55.172
823.88	14.706
824.18	22.222
824.48	25.714
824.78	4.762
825.08	-17.857
825.38	25.926
825.69	48.387
825.99	19.512
826.29	18.519
826.59	21.875
826.89	35.484
827.19	13.043
827.49	0.000
827.79	-17.391
828.09	6.452
828.39	10.417
828.70	12.500
829.00	20.690
829.30	18.919
829.60	0.000
829.90	18.519
830.20	3.125
830.50	9.091
830.80	-52.941
831.10	-40.909
831.40	2.941
831.70	38.462
832.00	48.485
832.30	47.059
832.60	24.324
832.90	200.000
833.20	21.429
833.50	0.000
833.80	21.053
834.10	-12.500
834.40	-13.636
834.70	-40.000
835.00	-40.000
835.30	-25.000
835.60	-14.286
835.90	38.095
836.20	-36.000
836.50	16.667
836.80	21.053
837.10	29.730
837.40	60.000
837.70	4.348
838.00	29.167
838.30	15.789
838.60	-130.000
838.90	-120.000
839.19	-8.333
839.49	-46.154
839.79	-52.632
840.09	-150.000
840.39	-30.000
840.69	-18.182
840.99	28.571
841.29	12.500
841.59	15.385
841.88	-80.000
842.18	-21.429
842.48	26.667
842.78	-185.714
843.08	-14.286
843.38	-162.500
843.68	-12.500
843.97	85.714
844.27	-44.444
844.57	-18.182
844.87	-80.000
845.17	40.909
845.47	533.333
845.76	53.333
846.06	-108.333
846.36	-950.000
846.66	-10.526
846.96	13.636
847.25	-55.556
847.55	-88.889
847.85	-52.381
848.15	38.462
848.44	-150.000
848.74	-41.667
849.04	-23.077
849.34	-250.000
849.63	9.091
849.93	-128.571
850.23	15.000
850.53	-87.500
850.82	-5.556
851.12	-26.667
851.42	-35.294
851.71	12.500
852.01	41.176
852.31	-7.692
852.61	250.000
852.90	5.882
853.20	-26.667
853.50	12.500
853.79	-85.714
854.09	-325.000
854.39	20.000
854.68	25.000
854.98	0.000
855.28	24.000
855.57	33.333
855.87	8.333
856.17	4.000
856.46	25.000
856.76	5.000
857.05	24.000
857.35	-16.667
857.65	-11.765
857.94	-58.333
858.24	-41.667
858.53	30.000
858.83	-54.545
859.13	-20.000
859.42	28.571
859.72	-75.000
860.01	-20.833
860.31	-75.000
860.60	-6.250
860.90	-116.667
861.20	16.667
861.49	-33.333
861.79	-87.500
862.08	425.000
862.38	-16.667
862.67	271.429
862.97	75.000
863.26	-36.364
863.56	0.000
863.85	-78.947
864.15	-64.706
864.44	-180.000
864.74	-70.000
865.03	22.222
865.33	-7.143
865.62	150.000
865.92	31.579
866.21	-16.667
866.51	-18.182
866.80	0.000
867.10	-200.000
867.39	68.750
867.69	-33.333
867.98	-20.000
868.27	11.765
868.57	0.000
868.86	600.000
869.16	-125.000
869.45	-157.143
869.75	500.000
870.04	-50.000
870.33	-700.000
870.63	-42.105
870.92	-83.333
871.22	-800.000
871.51	-285.714
871.80	-211.111
872.10	-250.000
>>>>>End Processed Spectral Data<<<<<
