SpectraSuite Data File
++++++++++++++++++++++++++++++++++++
Date: Tue May 12 16:31:41 PDT 2015
User: schluterlab
Dark Spectrum Present: Yes
Reference Spectrum Present: Yes
Number of Sampled Component Spectra: 1
Spectrometers: USB2E3373
Integration Time (usec): 3000 (USB2E3373)
Spectra Averaged: 3 (USB2E3373)
Boxcar Smoothing: 0 (USB2E3373)
Correct for Electrical Dark: No (USB2E3373)
Strobe/Lamp Enabled: No (USB2E3373)
Correct for Detector Non-linearity: No (USB2E3373)
Correct for Stray Light: No (USB2E3373)
Number of Pixels in Processed Spectrum: 2048
>>>>>Begin Processed Spectral Data<<<<<
178.53	0.000
178.91	-241.667
179.29	-675.000
179.67	-3200.000
180.04	-106.667
180.42	575.000
180.80	1250.000
181.18	0.000
181.56	-300.000
181.94	0.000
182.31	900.000
182.69	-1800.000
183.07	585.714
183.45	-3500.000
183.83	-1650.000
184.20	410.000
184.58	442.857
184.96	-223.077
185.34	-266.667
185.72	1650.000
186.09	-850.000
186.47	-3000.000
186.85	966.667
187.23	720.000
187.61	1250.000
187.98	475.000
188.36	250.000
188.74	341.667
189.12	458.333
189.49	900.000
189.87	0.000
190.25	500.000
190.63	2000.000
191.00	-200.000
191.38	-3400.000
191.76	-750.000
192.14	400.000
192.51	-2300.000
192.89	1600.000
193.27	1133.333
193.65	-1000.000
194.02	-900.000
194.40	471.429
194.78	-221.429
195.15	213.333
195.53	-1800.000
195.91	-520.000
196.29	3800.000
196.66	237.500
197.04	900.000
197.42	-1700.000
197.79	675.000
198.17	375.000
198.55	0.000
198.92	400.000
199.30	900.000
199.68	2150.000
200.05	683.333
200.43	-450.000
200.81	227.778
201.18	3000.000
201.56	283.333
201.94	-550.000
202.31	-312.500
202.69	-400.000
203.07	2600.000
203.44	-483.333
203.82	308.333
204.19	640.000
204.57	-1600.000
204.95	-825.000
205.32	-660.000
205.70	650.000
206.08	750.000
206.45	-900.000
206.83	333.333
207.20	200.000
207.58	308.333
207.96	940.000
208.33	0.000
208.71	500.000
209.08	580.000
209.46	-3200.000
209.84	-1000.000
210.21	900.000
210.59	-600.000
210.96	358.333
211.34	-1100.000
211.71	345.455
212.09	900.000
212.46	1500.000
212.84	-366.667
213.22	455.556
213.59	-2300.000
213.97	240.000
214.34	750.000
214.72	1000.000
215.09	1200.000
215.47	-2800.000
215.84	-310.000
216.22	-412.500
216.59	0.000
216.97	0.000
217.34	1100.000
217.72	-1350.000
218.09	1233.333
218.47	387.500
218.84	725.000
219.22	1100.000
219.59	866.667
219.97	471.429
220.34	333.333
220.72	1700.000
221.09	2300.000
221.47	291.667
221.84	966.667
222.22	350.000
222.59	266.667
222.97	192.857
223.34	225.000
223.72	-1550.000
224.09	1100.000
224.46	207.692
224.84	-725.000
225.21	377.778
225.59	240.000
225.96	1266.667
226.34	-640.000
226.71	-1050.000
227.08	-480.000
227.46	0.000
227.83	-600.000
228.21	-1600.000
228.58	308.333
228.95	900.000
229.33	433.333
229.70	1000.000
230.08	284.615
230.45	3400.000
230.82	-1050.000
231.20	-933.333
231.57	-966.667
231.95	520.000
232.32	216.667
232.69	533.333
233.07	341.667
233.44	-1350.000
233.81	293.333
234.19	174.074
234.56	225.000
234.93	194.118
235.31	185.000
235.68	200.000
236.05	132.143
236.43	137.037
236.80	257.143
237.17	168.966
237.55	140.625
237.92	130.000
238.29	93.939
238.67	137.500
239.04	68.293
239.41	85.417
239.79	105.000
240.16	95.833
240.53	73.770
240.91	75.362
241.28	74.576
241.65	68.182
242.02	67.606
242.40	68.571
242.77	51.648
243.14	62.025
243.51	48.485
243.89	49.533
244.26	35.514
244.63	53.465
245.00	50.459
245.38	44.068
245.75	45.455
246.12	39.259
246.49	36.879
246.87	35.246
247.24	45.333
247.61	41.250
247.98	36.735
248.36	32.727
248.73	35.714
249.10	32.143
249.47	34.000
249.84	26.866
250.22	28.649
250.59	31.000
250.96	30.802
251.33	30.233
251.70	32.143
252.08	31.513
252.45	32.271
252.82	29.278
253.19	32.016
253.56	28.462
253.94	30.435
254.31	29.070
254.68	32.056
255.05	34.138
255.42	30.292
255.79	27.362
256.16	29.492
256.54	29.545
256.91	25.817
257.28	25.418
257.65	25.078
258.02	28.614
258.39	26.934
258.76	26.957
259.14	25.143
259.51	27.114
259.88	31.915
260.25	25.824
260.62	27.123
260.99	25.344
261.36	23.120
261.73	27.394
262.10	26.963
262.47	25.000
262.85	24.800
263.22	25.964
263.59	24.552
263.96	26.817
264.33	25.926
264.70	25.799
265.07	23.659
265.44	22.477
265.81	27.830
266.18	24.485
266.55	24.586
266.92	23.490
267.29	23.684
267.66	22.197
268.03	23.991
268.40	24.736
268.77	24.009
269.14	21.475
269.51	23.831
269.88	25.510
270.25	20.734
270.62	24.249
270.99	25.963
271.36	24.187
271.73	22.642
272.10	23.434
272.47	22.024
272.84	21.357
273.21	22.934
273.58	24.291
273.95	23.819
274.32	23.735
274.69	22.441
275.06	22.769
275.43	22.222
275.80	20.755
276.17	22.059
276.54	21.682
276.91	24.067
277.28	21.533
277.65	24.723
278.02	22.978
278.39	23.561
278.76	22.586
279.13	22.420
279.50	22.545
279.87	22.346
280.23	21.915
280.60	20.073
280.97	21.034
281.34	23.432
281.71	21.043
282.08	23.590
282.45	21.791
282.82	21.070
283.19	21.940
283.56	22.149
283.92	23.779
284.29	23.461
284.66	19.664
285.03	21.725
285.40	21.157
285.77	20.833
286.14	21.981
286.51	22.086
286.87	20.886
287.24	20.871
287.61	19.605
287.98	21.194
288.35	19.259
288.72	19.727
289.08	21.021
289.45	20.274
289.82	20.000
290.19	20.937
290.56	20.233
290.93	18.993
291.29	19.751
291.66	17.938
292.03	19.916
292.40	18.835
292.77	16.713
293.13	19.686
293.50	19.433
293.87	18.293
294.24	18.462
294.60	18.708
294.97	19.441
295.34	18.194
295.71	17.740
296.08	18.000
296.44	17.662
296.81	16.998
297.18	18.124
297.55	17.611
297.91	15.887
298.28	17.754
298.65	16.564
299.02	17.612
299.38	16.067
299.75	17.439
300.12	15.252
300.48	17.564
300.85	17.402
301.22	16.512
301.59	15.684
301.95	17.036
302.32	16.647
302.69	16.290
303.05	18.406
303.42	14.910
303.79	17.443
304.15	16.172
304.52	16.913
304.89	15.352
305.25	15.684
305.62	15.245
305.99	14.130
306.35	15.895
306.72	16.129
307.09	16.356
307.45	15.523
307.82	15.638
308.19	15.567
308.55	15.900
308.92	17.468
309.29	16.864
309.65	15.758
310.02	16.329
310.38	14.357
310.75	15.333
311.12	15.996
311.48	17.085
311.85	16.317
312.22	16.332
312.58	15.841
312.95	16.602
313.31	15.543
313.68	15.291
314.05	16.850
314.41	16.387
314.78	16.383
315.14	17.536
315.51	15.705
315.87	17.062
316.24	17.087
316.61	17.278
316.97	17.064
317.34	18.149
317.70	18.349
318.07	18.950
318.43	19.947
318.80	20.140
319.16	20.542
319.53	19.469
319.89	19.176
320.26	22.253
320.62	21.429
320.99	21.354
321.35	22.263
321.72	24.288
322.08	21.791
322.45	23.070
322.81	23.788
323.18	25.488
323.54	26.742
323.91	26.927
324.27	26.348
324.64	27.336
325.00	28.966
325.37	28.668
325.73	29.933
326.10	30.820
326.46	29.397
326.83	31.200
327.19	32.530
327.56	32.668
327.92	33.033
328.29	34.452
328.65	35.873
329.01	35.329
329.38	36.717
329.74	35.611
330.11	36.751
330.47	38.107
330.84	37.877
331.20	37.986
331.56	38.946
331.93	39.949
332.29	38.520
332.66	39.286
333.02	39.347
333.38	40.140
333.75	40.867
334.11	39.178
334.48	41.111
334.84	41.132
335.20	41.317
335.57	40.890
335.93	40.118
336.29	40.630
336.66	42.796
337.02	42.173
337.38	41.874
337.75	41.892
338.11	42.532
338.47	42.845
338.84	42.676
339.20	43.117
339.56	41.884
339.93	42.140
340.29	42.437
340.65	43.420
341.02	43.846
341.38	41.544
341.74	44.601
342.11	42.988
342.47	43.888
342.83	44.627
343.20	44.058
343.56	43.129
343.92	43.765
344.28	43.620
344.65	44.254
345.01	43.810
345.37	43.670
345.73	43.175
346.10	43.665
346.46	44.418
346.82	43.056
347.19	45.440
347.55	45.043
347.91	43.882
348.27	44.229
348.63	46.123
349.00	45.849
349.36	46.304
349.72	45.183
350.08	46.429
350.45	46.154
350.81	45.795
351.17	44.838
351.53	45.881
351.89	45.610
352.26	44.520
352.62	45.324
352.98	45.552
353.34	46.225
353.70	44.878
354.07	47.000
354.43	45.853
354.79	45.634
355.15	47.090
355.51	46.375
355.87	45.934
356.24	46.189
356.60	45.738
356.96	46.171
357.32	45.667
357.68	46.256
358.04	47.644
358.40	45.727
358.77	46.807
359.13	46.096
359.49	46.405
359.85	48.995
360.21	46.285
360.57	46.569
360.93	46.970
361.29	47.258
361.66	49.068
362.02	47.301
362.38	48.773
362.74	49.469
363.10	48.948
363.46	48.273
363.82	48.107
364.18	49.218
364.54	49.070
364.90	49.264
365.26	49.133
365.62	48.688
365.98	48.176
366.35	48.897
366.71	48.647
367.07	48.328
367.43	48.825
367.79	48.271
368.15	48.507
368.51	50.655
368.87	49.253
369.23	50.104
369.59	48.550
369.95	49.790
370.31	48.939
370.67	48.855
371.03	50.980
371.39	51.177
371.75	51.151
372.11	49.150
372.47	50.959
372.83	50.374
373.19	50.583
373.55	50.241
373.91	50.829
374.27	50.132
374.63	50.373
374.99	51.550
375.35	51.680
375.71	50.396
376.07	51.459
376.42	50.767
376.78	50.739
377.14	50.852
377.50	50.624
377.86	50.609
378.22	52.041
378.58	52.058
378.94	51.901
379.30	51.183
379.66	52.559
380.02	51.437
380.38	50.703
380.74	52.422
381.09	51.752
381.45	51.098
381.81	51.359
382.17	50.061
382.53	51.590
382.89	52.218
383.25	50.918
383.61	49.971
383.97	52.070
384.32	52.019
384.68	52.763
385.04	51.700
385.40	50.949
385.76	51.785
386.12	52.690
386.48	51.733
386.83	52.139
387.19	52.002
387.55	52.238
387.91	51.848
388.27	52.112
388.62	50.763
388.98	51.545
389.34	50.089
389.70	50.354
390.06	51.585
390.42	51.450
390.77	51.106
391.13	50.875
391.49	49.970
391.85	52.123
392.20	50.954
392.56	50.836
392.92	50.084
393.28	50.897
393.64	50.516
393.99	50.504
394.35	50.265
394.71	49.216
395.07	49.818
395.42	51.112
395.78	51.820
396.14	50.663
396.50	51.504
396.85	50.549
397.21	50.903
397.57	51.464
397.92	48.354
398.28	50.303
398.64	49.913
399.00	49.599
399.35	49.919
399.71	49.338
400.07	49.429
400.42	50.388
400.78	50.557
401.14	48.914
401.49	48.560
401.85	48.320
402.21	49.151
402.57	49.611
402.92	49.394
403.28	48.329
403.63	48.381
403.99	49.759
404.35	49.121
404.70	49.616
405.06	49.467
405.42	48.594
405.77	48.401
406.13	47.993
406.49	49.233
406.84	47.941
407.20	49.087
407.55	49.600
407.91	49.138
408.27	49.121
408.62	46.895
408.98	47.605
409.34	47.224
409.69	47.978
410.05	46.989
410.40	47.173
410.76	47.338
411.11	47.453
411.47	46.852
411.83	46.924
412.18	47.645
412.54	47.808
412.89	46.844
413.25	47.149
413.60	47.605
413.96	48.235
414.31	47.934
414.67	47.610
415.03	46.679
415.38	48.707
415.74	47.631
416.09	47.720
416.45	48.481
416.80	49.519
417.16	46.913
417.51	48.535
417.87	47.497
418.22	48.481
418.58	48.408
418.93	48.007
419.29	48.614
419.64	48.758
420.00	48.508
420.35	48.955
420.71	48.133
421.06	47.911
421.42	48.129
421.77	48.862
422.12	49.173
422.48	48.793
422.83	49.665
423.19	49.136
423.54	48.382
423.90	49.264
424.25	50.413
424.61	51.074
424.96	49.915
425.31	50.192
425.67	50.898
426.02	50.533
426.38	50.525
426.73	52.111
427.09	51.957
427.44	49.747
427.79	51.572
428.15	52.976
428.50	53.086
428.85	51.382
429.21	52.458
429.56	51.894
429.92	51.666
430.27	52.056
430.62	51.150
430.98	52.844
431.33	51.966
431.68	51.358
432.04	52.923
432.39	52.689
432.74	54.098
433.10	53.045
433.45	54.337
433.80	54.937
434.16	53.389
434.51	54.438
434.86	55.634
435.22	55.429
435.57	54.594
435.92	55.037
436.28	55.933
436.63	55.429
436.98	55.912
437.34	56.678
437.69	55.711
438.04	55.323
438.39	56.509
438.75	55.624
439.10	56.557
439.45	56.246
439.81	56.160
440.16	57.017
440.51	56.194
440.86	57.550
441.22	56.494
441.57	56.483
441.92	57.256
442.27	57.165
442.63	58.333
442.98	57.812
443.33	57.633
443.68	56.891
444.03	56.692
444.39	58.804
444.74	58.023
445.09	57.557
445.44	57.651
445.79	58.041
446.15	58.263
446.50	59.230
446.85	58.765
447.20	57.910
447.55	59.217
447.91	60.362
448.26	58.466
448.61	60.641
448.96	59.804
449.31	59.901
449.66	59.025
450.02	58.563
450.37	60.911
450.72	61.543
451.07	60.326
451.42	60.107
451.77	60.481
452.12	60.011
452.47	61.300
452.83	61.183
453.18	61.201
453.53	62.522
453.88	60.629
454.23	60.023
454.58	60.490
454.93	60.270
455.28	61.873
455.63	61.111
455.98	59.616
456.34	60.365
456.69	61.280
457.04	62.053
457.39	61.143
457.74	60.642
458.09	60.135
458.44	61.720
458.79	61.804
459.14	61.429
459.49	60.759
459.84	61.902
460.19	61.356
460.54	60.456
460.89	61.034
461.24	59.908
461.59	62.245
461.94	60.225
462.29	61.213
462.64	62.437
462.99	61.932
463.34	62.346
463.69	61.827
464.04	61.485
464.39	60.790
464.74	60.785
465.09	61.637
465.44	61.317
465.79	60.806
466.14	60.413
466.49	62.018
466.84	61.204
467.19	61.687
467.54	61.802
467.89	61.385
468.24	62.420
468.59	63.095
468.94	62.742
469.29	62.370
469.64	62.958
469.99	61.247
470.34	63.251
470.68	63.310
471.03	62.308
471.38	63.576
471.73	62.965
472.08	65.623
472.43	63.811
472.78	63.188
473.13	62.578
473.48	62.408
473.83	63.251
474.17	63.891
474.52	61.671
474.87	60.659
475.22	63.906
475.57	61.910
475.92	62.085
476.27	59.848
476.61	62.359
476.96	62.382
477.31	63.033
477.66	63.822
478.01	62.403
478.36	62.770
478.70	61.787
479.05	62.657
479.40	62.302
479.75	62.314
480.10	63.650
480.45	62.605
480.79	61.705
481.14	62.054
481.49	61.162
481.84	62.225
482.19	62.009
482.53	61.001
482.88	62.186
483.23	63.194
483.58	62.208
483.92	63.117
484.27	61.515
484.62	62.691
484.97	61.200
485.31	60.481
485.66	60.121
486.01	59.431
486.36	58.024
486.70	58.885
487.05	59.289
487.40	59.449
487.75	59.466
488.09	60.227
488.44	61.185
488.79	61.125
489.13	62.075
489.48	63.843
489.83	62.886
490.17	61.932
490.52	63.307
490.87	62.672
491.22	63.298
491.56	63.285
491.91	62.455
492.26	62.984
492.60	64.191
492.95	62.256
493.30	62.784
493.64	64.196
493.99	63.283
494.34	62.976
494.68	63.435
495.03	63.179
495.37	64.205
495.72	63.776
496.07	63.657
496.41	62.598
496.76	62.896
497.11	61.097
497.45	63.525
497.80	65.060
498.14	62.644
498.49	63.278
498.84	64.393
499.18	63.483
499.53	63.803
499.87	63.073
500.22	64.993
500.56	63.788
500.91	65.028
501.26	64.263
501.60	64.481
501.95	64.247
502.29	62.978
502.64	63.344
502.98	62.383
503.33	64.365
503.67	62.958
504.02	64.219
504.36	63.258
504.71	64.664
505.06	64.289
505.40	65.512
505.75	63.845
506.09	63.602
506.44	65.179
506.78	64.603
507.13	65.342
507.47	64.968
507.82	65.353
508.16	65.703
508.51	65.362
508.85	64.910
509.19	65.492
509.54	64.258
509.88	65.738
510.23	65.196
510.57	64.237
510.92	66.084
511.26	67.219
511.61	64.549
511.95	65.107
512.30	64.500
512.64	66.719
512.98	66.222
513.33	65.676
513.67	65.821
514.02	66.390
514.36	66.044
514.70	66.240
515.05	66.755
515.39	67.050
515.74	67.141
516.08	65.741
516.42	67.814
516.77	66.453
517.11	67.040
517.46	66.649
517.80	66.357
518.14	68.394
518.49	66.152
518.83	66.154
519.17	67.665
519.52	67.832
519.86	67.956
520.20	65.808
520.55	68.231
520.89	66.897
521.23	67.874
521.58	67.871
521.92	67.522
522.26	67.417
522.61	69.103
522.95	69.249
523.29	68.655
523.64	66.647
523.98	67.606
524.32	67.416
524.66	67.478
525.01	68.580
525.35	68.120
525.69	68.332
526.04	67.638
526.38	67.216
526.72	67.840
527.06	67.416
527.41	69.166
527.75	68.107
528.09	67.911
528.43	68.151
528.78	67.561
529.12	69.536
529.46	68.030
529.80	67.991
530.15	67.649
530.49	67.870
530.83	67.946
531.17	68.696
531.51	68.976
531.86	67.089
532.20	66.316
532.54	69.115
532.88	68.020
533.22	67.154
533.57	68.334
533.91	65.851
534.25	65.551
534.59	68.363
534.93	65.700
535.27	64.997
535.62	65.111
535.96	67.435
536.30	68.982
536.64	67.205
536.98	67.841
537.32	68.125
537.66	66.645
538.01	66.997
538.35	68.559
538.69	67.476
539.03	66.107
539.37	67.172
539.71	67.531
540.05	66.154
540.39	68.491
540.73	67.785
541.07	66.248
541.42	67.910
541.76	67.448
542.10	66.954
542.44	68.953
542.78	68.974
543.12	67.117
543.46	66.479
543.80	68.233
544.14	67.307
544.48	66.727
544.82	67.523
545.16	65.331
545.50	67.425
545.84	68.687
546.18	69.051
546.52	68.197
546.86	69.181
547.20	66.731
547.54	66.751
547.88	68.187
548.22	68.245
548.56	67.177
548.90	65.362
549.24	68.857
549.58	68.170
549.92	69.679
550.26	69.236
550.60	68.130
550.94	70.421
551.28	71.586
551.62	71.241
551.96	70.878
552.30	68.820
552.64	70.485
552.98	69.845
553.32	67.222
553.66	69.577
554.00	70.463
554.34	71.305
554.68	69.355
555.02	70.401
555.36	69.747
555.69	69.764
556.03	68.662
556.37	68.897
556.71	71.186
557.05	69.004
557.39	69.333
557.73	69.609
558.07	69.886
558.41	71.556
558.75	70.588
559.08	73.338
559.42	72.011
559.76	72.416
560.10	71.851
560.44	71.002
560.78	70.332
561.12	70.312
561.45	71.464
561.79	71.411
562.13	70.120
562.47	70.344
562.81	70.072
563.15	71.493
563.48	68.944
563.82	71.553
564.16	71.517
564.50	69.319
564.84	70.334
565.17	69.697
565.51	72.475
565.85	70.944
566.19	70.179
566.52	70.939
566.86	71.045
567.20	70.000
567.54	69.596
567.88	71.101
568.21	67.149
568.55	67.704
568.89	66.150
569.23	67.515
569.56	66.613
569.90	65.505
570.24	65.656
570.57	64.925
570.91	64.618
571.25	63.493
571.59	63.367
571.92	62.809
572.26	62.480
572.60	62.983
572.93	63.600
573.27	64.216
573.61	62.805
573.95	63.621
574.28	63.282
574.62	62.739
574.96	61.890
575.29	61.852
575.63	61.413
575.97	61.271
576.30	61.453
576.64	62.199
576.98	62.201
577.31	62.912
577.65	62.182
577.98	61.555
578.32	61.573
578.66	62.111
578.99	61.716
579.33	62.810
579.67	61.920
580.00	62.646
580.34	61.958
580.67	62.550
581.01	63.331
581.35	62.532
581.68	62.025
582.02	61.621
582.35	62.306
582.69	62.615
583.02	62.875
583.36	63.700
583.70	64.330
584.03	64.778
584.37	64.791
584.70	64.344
585.04	64.121
585.37	63.999
585.71	64.989
586.04	64.323
586.38	64.879
586.72	65.174
587.05	65.697
587.39	65.714
587.72	65.894
588.06	65.433
588.39	66.479
588.73	66.031
589.06	67.406
589.40	67.105
589.73	67.191
590.07	69.526
590.40	69.268
590.73	69.849
591.07	69.677
591.40	69.820
591.74	69.683
592.07	69.343
592.41	69.265
592.74	68.912
593.08	68.815
593.41	67.744
593.75	66.676
594.08	68.648
594.41	68.557
594.75	69.007
595.08	69.102
595.42	68.334
595.75	68.937
596.09	69.343
596.42	69.701
596.75	71.114
597.09	72.348
597.42	70.122
597.75	70.020
598.09	69.758
598.42	69.237
598.76	68.967
599.09	69.180
599.42	69.308
599.76	68.996
600.09	68.847
600.42	68.646
600.76	69.069
601.09	69.796
601.42	69.307
601.76	70.354
602.09	70.272
602.42	69.834
602.76	70.247
603.09	70.965
603.42	70.055
603.76	70.427
604.09	70.829
604.42	70.094
604.76	70.644
605.09	71.633
605.42	70.825
605.75	69.483
606.09	71.347
606.42	70.688
606.75	71.162
607.09	70.549
607.42	71.957
607.75	70.820
608.08	71.243
608.42	71.435
608.75	71.930
609.08	71.755
609.41	73.409
609.75	74.359
610.08	73.112
610.41	72.156
610.74	71.905
611.07	72.578
611.41	73.170
611.74	73.805
612.07	72.592
612.40	73.928
612.73	75.037
613.07	73.543
613.40	73.784
613.73	75.587
614.06	73.350
614.39	74.747
614.72	73.330
615.06	72.107
615.39	73.020
615.72	72.265
616.05	74.636
616.38	73.719
616.71	74.932
617.05	74.025
617.38	75.337
617.71	75.928
618.04	75.659
618.37	75.598
618.70	75.635
619.03	77.534
619.36	77.827
619.69	78.562
620.03	79.452
620.36	77.585
620.69	79.821
621.02	79.959
621.35	78.725
621.68	78.687
622.01	81.033
622.34	79.971
622.67	79.354
623.00	78.761
623.33	78.812
623.66	78.177
623.99	79.863
624.32	78.049
624.65	77.551
624.99	79.784
625.32	78.758
625.65	78.207
625.98	78.452
626.31	81.454
626.64	78.360
626.97	80.796
627.30	81.211
627.63	82.496
627.96	81.221
628.29	82.096
628.62	81.352
628.95	84.309
629.28	82.209
629.61	82.250
629.94	82.541
630.26	83.882
630.59	84.220
630.92	82.960
631.25	85.403
631.58	87.175
631.91	85.728
632.24	83.868
632.57	86.444
632.90	87.267
633.23	86.464
633.56	86.934
633.89	87.674
634.22	89.774
634.55	87.527
634.88	88.609
635.20	89.462
635.53	89.779
635.86	88.143
636.19	87.991
636.52	87.135
636.85	85.868
637.18	87.974
637.51	86.034
637.83	87.414
638.16	89.683
638.49	89.581
638.82	89.906
639.15	87.309
639.48	90.521
639.81	89.255
640.13	88.098
640.46	89.760
640.79	90.377
641.12	91.470
641.45	92.755
641.77	90.489
642.10	90.094
642.43	96.444
642.76	92.188
643.09	93.516
643.41	90.884
643.74	93.669
644.07	95.428
644.40	94.379
644.73	95.946
645.05	93.759
645.38	92.956
645.71	94.234
646.04	93.588
646.36	93.584
646.69	97.600
647.02	95.680
647.35	92.598
647.67	94.003
648.00	96.254
648.33	92.782
648.66	92.576
648.98	91.739
649.31	85.965
649.64	89.073
649.96	89.047
650.29	88.429
650.62	91.163
650.94	92.018
651.27	94.737
651.60	92.801
651.92	93.241
652.25	97.008
652.58	88.369
652.90	92.216
653.23	91.876
653.56	90.950
653.88	91.630
654.21	88.710
654.54	90.337
654.86	90.265
655.19	88.391
655.52	78.450
655.84	64.678
656.17	73.878
656.49	100.000
656.82	100.000
657.15	100.000
657.47	81.464
657.80	53.904
658.13	42.921
658.45	59.016
658.78	71.021
659.10	71.495
659.43	72.294
659.75	77.038
660.08	79.887
660.41	82.940
660.73	91.343
661.06	90.090
661.38	94.378
661.71	97.122
662.03	96.388
662.36	95.810
662.68	92.365
663.01	94.414
663.33	95.283
663.66	98.225
663.98	98.611
664.31	98.321
664.63	95.785
664.96	94.934
665.28	92.467
665.61	94.906
665.93	95.472
666.26	96.636
666.58	94.679
666.91	97.104
667.23	97.390
667.56	102.875
667.88	100.830
668.21	96.107
668.53	99.395
668.86	96.794
669.18	96.741
669.50	96.281
669.83	98.357
670.15	99.792
670.48	94.727
670.80	94.422
671.13	95.817
671.45	99.599
671.77	93.321
672.10	92.998
672.42	90.625
672.75	91.614
673.07	90.143
673.39	86.422
673.72	94.983
674.04	94.086
674.37	92.740
674.69	95.911
675.01	90.672
675.34	94.380
675.66	95.898
675.98	95.069
676.31	97.000
676.63	95.427
676.95	96.032
677.28	94.320
677.60	93.964
677.92	90.278
678.25	94.961
678.57	95.903
678.89	96.745
679.22	93.199
679.54	90.747
679.86	94.241
680.18	92.443
680.51	87.728
680.83	89.020
681.15	92.201
681.48	92.708
681.80	89.842
682.12	88.235
682.44	91.351
682.77	90.036
683.09	97.087
683.41	96.122
683.73	94.094
684.06	94.048
684.38	94.186
684.70	89.029
685.02	86.979
685.34	89.965
685.67	86.495
685.99	86.864
686.31	86.749
686.63	85.854
686.96	86.928
687.28	88.591
687.60	89.078
687.92	87.940
688.24	88.621
688.56	90.214
688.89	89.866
689.21	89.595
689.53	96.047
689.85	93.089
690.17	85.631
690.49	92.742
690.82	93.697
691.14	91.111
691.46	93.018
691.78	91.423
692.10	92.557
692.42	86.570
692.74	93.605
693.06	93.798
693.39	94.071
693.71	89.587
694.03	90.730
694.35	93.373
694.67	90.020
694.99	93.126
695.31	95.495
695.63	95.928
695.95	98.190
696.27	92.478
696.59	96.181
696.91	99.241
697.23	89.819
697.56	89.627
697.88	89.621
698.20	88.302
698.52	84.825
698.84	89.322
699.16	91.045
699.48	90.254
699.80	92.375
700.12	93.995
700.44	90.421
700.76	93.795
701.08	96.345
701.40	95.325
701.72	98.128
702.04	100.271
702.36	97.581
702.68	95.213
703.00	93.734
703.32	93.300
703.64	93.955
703.96	95.573
704.28	98.942
704.60	97.465
704.91	94.958
705.23	96.591
705.55	98.220
705.87	103.492
706.19	104.075
706.51	102.194
706.83	97.640
707.15	92.246
707.47	93.462
707.79	90.805
708.11	88.435
708.43	89.438
708.74	84.842
709.06	89.070
709.38	93.797
709.70	97.003
710.02	92.391
710.34	96.961
710.66	98.333
710.98	96.175
711.29	94.708
711.61	92.758
711.93	102.736
712.25	95.181
712.57	100.000
712.89	93.939
713.20	97.764
713.52	96.262
713.84	93.958
714.16	94.783
714.48	93.084
714.80	88.347
715.11	88.032
715.43	92.458
715.75	92.394
716.07	92.486
716.39	89.143
716.70	90.343
717.02	99.663
717.34	95.324
717.66	98.958
717.97	103.409
718.29	99.296
718.61	95.608
718.93	90.657
719.24	98.658
719.56	95.517
719.88	91.720
720.20	96.129
720.51	93.464
720.83	91.973
721.15	94.218
721.46	97.603
721.78	98.258
722.10	100.694
722.42	89.298
722.73	93.141
723.05	95.088
723.37	99.293
723.68	100.000
724.00	101.136
724.32	100.380
724.63	101.923
724.95	96.863
725.27	93.309
725.58	94.485
725.90	89.437
726.22	91.781
726.53	97.659
726.85	90.228
727.16	92.282
727.48	94.020
727.80	96.763
728.11	89.643
728.43	93.841
728.74	92.308
729.06	89.247
729.38	96.491
729.69	95.667
730.01	90.461
730.32	92.282
730.64	95.349
730.96	85.586
731.27	84.709
731.59	84.770
731.90	85.794
732.22	88.000
732.53	82.906
732.85	82.749
733.16	84.337
733.48	84.639
733.80	86.087
734.11	90.491
734.43	85.088
734.74	79.088
735.06	86.772
735.37	82.216
735.69	88.116
736.00	87.156
736.32	83.030
736.63	83.281
736.95	89.441
737.26	86.890
737.58	87.423
737.89	84.036
738.21	89.073
738.52	83.612
738.83	97.802
739.15	88.502
739.46	87.241
739.78	87.415
740.09	83.965
740.41	85.890
740.72	85.397
741.04	94.406
741.35	93.359
741.66	89.723
741.98	93.133
742.29	100.926
742.61	95.575
742.92	94.915
743.23	90.800
743.55	85.660
743.86	92.941
744.18	96.610
744.49	91.322
744.80	96.313
745.12	96.875
745.43	98.598
745.74	98.667
746.06	91.228
746.37	99.535
746.68	99.558
747.00	94.619
747.31	92.017
747.62	91.803
747.94	90.129
748.25	87.549
748.56	97.034
748.88	94.643
749.19	93.023
749.50	98.630
749.82	95.473
750.13	94.466
750.44	81.667
750.75	84.899
751.07	88.487
751.38	86.139
751.69	84.175
752.01	88.462
752.32	81.728
752.63	84.899
752.94	87.413
753.26	92.188
753.57	91.440
753.88	89.513
754.19	90.614
754.51	83.056
754.82	82.550
755.13	77.703
755.44	91.481
755.75	84.880
756.07	85.959
756.38	85.294
756.69	80.313
757.00	82.789
757.31	77.746
757.63	78.512
757.94	77.660
758.25	74.396
758.56	75.515
758.87	81.955
759.18	81.395
759.50	81.763
759.81	79.525
760.12	79.775
760.43	77.031
760.74	77.468
761.05	77.454
761.36	75.781
761.67	79.245
761.99	78.592
762.30	82.637
762.61	76.736
762.92	81.439
763.23	87.170
763.54	84.231
763.85	83.658
764.16	78.125
764.47	83.446
764.78	75.570
765.10	77.744
765.41	76.705
765.72	77.072
766.03	75.831
766.34	82.927
766.65	84.791
766.96	85.425
767.27	94.393
767.58	89.109
767.89	95.028
768.20	112.805
768.51	87.755
768.82	84.211
769.13	81.961
769.44	80.827
769.75	80.150
770.06	93.697
770.37	82.456
770.68	83.111
770.99	86.864
771.30	86.192
771.61	83.846
771.92	83.588
772.23	82.258
772.54	87.556
772.85	87.624
773.16	89.674
773.47	91.111
773.78	79.208
774.09	90.341
774.39	95.152
774.70	90.000
775.01	92.763
775.32	96.894
775.63	100.000
775.94	100.000
776.25	91.034
776.56	101.527
776.87	108.397
777.18	95.455
777.48	113.386
777.79	99.231
778.10	100.758
778.41	100.746
778.72	100.752
779.03	83.333
779.34	95.270
779.65	88.820
779.95	98.758
780.26	83.929
780.57	93.197
780.88	96.454
781.19	105.833
781.50	86.982
781.80	86.885
782.11	83.069
782.42	86.207
782.73	86.441
783.04	96.774
783.34	100.775
783.65	87.755
783.96	92.258
784.27	86.755
784.57	86.842
784.88	96.377
785.19	92.500
785.50	102.586
785.81	92.248
786.11	90.370
786.42	99.213
786.73	103.604
787.04	103.774
787.34	91.870
787.65	100.758
787.96	94.697
788.26	102.362
788.57	101.460
788.88	97.183
789.19	92.366
789.49	89.865
789.80	101.563
790.11	91.736
790.41	101.852
790.72	96.296
791.03	110.577
791.33	97.980
791.64	116.842
791.95	101.053
792.25	93.750
792.56	109.000
792.87	109.756
793.17	92.045
793.48	115.294
793.79	105.747
794.09	123.864
794.40	101.724
794.70	93.651
795.01	95.385
795.32	93.893
795.62	90.598
795.93	98.319
796.23	92.683
796.54	115.306
796.85	106.818
797.15	127.273
797.46	110.976
797.76	100.000
798.07	112.000
798.37	107.500
798.68	103.750
798.99	113.415
799.29	112.000
799.60	95.349
799.90	109.211
800.21	134.848
800.51	116.901
800.82	134.483
801.12	123.077
801.43	125.333
801.73	122.414
802.04	103.896
802.34	116.438
802.65	129.412
802.95	121.739
803.26	122.581
803.56	135.000
803.87	108.955
804.17	101.587
804.48	130.189
804.78	119.444
805.09	125.758
805.39	125.397
805.70	136.842
806.00	105.714
806.30	126.562
806.61	104.706
806.91	106.667
807.22	82.609
807.52	101.316
807.83	103.947
808.13	111.594
808.43	125.806
808.74	104.110
809.04	125.000
809.35	122.059
809.65	115.152
809.95	129.412
810.26	138.889
810.56	115.625
810.86	130.612
811.17	129.825
811.47	156.522
811.77	96.552
812.08	117.241
812.38	123.810
812.69	142.857
812.99	140.000
813.29	205.714
813.59	177.419
813.90	115.517
814.20	118.033
814.50	122.000
814.81	115.789
815.11	146.296
815.41	123.214
815.72	128.571
816.02	144.000
816.32	139.024
816.62	122.414
816.93	196.970
817.23	148.780
817.53	137.500
817.84	122.222
818.14	121.429
818.44	120.833
818.74	128.302
819.04	141.026
819.35	169.697
819.65	119.231
819.95	135.185
820.25	151.064
820.56	167.568
820.86	139.474
821.16	119.149
821.46	160.526
821.76	130.909
822.07	126.190
822.37	160.526
822.67	146.512
822.97	126.316
823.27	152.174
823.57	159.375
823.88	158.974
824.18	154.545
824.48	234.783
824.78	163.889
825.08	217.391
825.38	203.448
825.69	170.588
825.99	104.255
826.29	155.556
826.59	160.000
826.89	173.333
827.19	151.429
827.49	180.645
827.79	219.231
828.09	145.238
828.39	152.778
828.70	140.541
829.00	185.714
829.30	250.000
829.60	175.000
829.90	158.065
830.20	157.576
830.50	143.243
830.80	208.333
831.10	207.692
831.40	214.286
831.70	225.000
832.00	160.000
832.30	191.304
832.60	225.000
832.90	166.667
833.20	280.000
833.50	147.368
833.80	138.235
834.10	136.842
834.40	205.263
834.70	160.000
835.00	168.000
835.30	135.135
835.60	159.375
835.90	145.946
836.20	207.692
836.50	186.364
836.80	124.390
837.10	200.000
837.40	430.769
837.70	178.947
838.00	183.333
838.30	241.667
838.60	232.000
838.90	440.000
839.19	218.750
839.49	150.000
839.79	124.138
840.09	223.077
840.39	300.000
840.69	189.474
840.99	157.143
841.29	217.391
841.59	250.000
841.88	224.000
842.18	300.000
842.48	200.000
842.78	196.296
843.08	315.385
843.38	172.727
843.68	328.571
843.97	528.571
844.27	204.348
844.57	1600.000
844.87	264.286
845.17	244.444
845.47	119.048
845.76	195.833
846.06	585.714
846.36	235.294
846.66	238.462
846.96	306.250
847.25	207.692
847.55	247.368
847.85	216.667
848.15	760.000
848.44	381.818
848.74	185.714
849.04	187.500
849.34	182.353
849.63	262.500
849.93	306.250
850.23	1233.333
850.53	587.500
850.82	281.818
851.12	188.235
851.42	183.333
851.71	306.250
852.01	0.000
852.31	258.824
852.61	310.000
852.90	170.833
853.20	411.111
853.50	-2100.000
853.79	136.000
854.09	156.250
854.39	200.000
854.68	172.414
854.98	257.143
855.28	154.839
855.57	407.143
855.87	277.778
856.17	162.963
856.46	152.632
856.76	151.613
857.05	276.471
857.35	345.455
857.65	253.846
857.94	170.000
858.24	433.333
858.53	307.143
858.83	585.714
859.13	182.609
859.42	411.111
859.72	475.000
860.01	300.000
860.31	825.000
860.60	450.000
860.90	475.000
861.20	200.000
861.49	400.000
861.79	-3700.000
862.08	685.714
862.38	488.889
862.67	285.714
862.97	480.000
863.26	146.667
863.56	1050.000
863.85	261.538
864.15	264.706
864.44	177.778
864.74	383.333
865.03	281.818
865.33	362.500
865.62	293.333
865.92	683.333
866.21	875.000
866.51	540.000
866.80	238.889
867.10	966.667
867.39	3400.000
867.69	620.000
867.98	850.000
868.27	200.000
868.57	340.000
868.86	900.000
869.16	171.429
869.45	4100.000
869.75	-600.000
870.04	775.000
870.33	660.000
870.63	437.500
870.92	211.765
871.22	900.000
871.51	657.143
871.80	400.000
872.10	323.077
>>>>>End Processed Spectral Data<<<<<
