SpectraSuite Data File
++++++++++++++++++++++++++++++++++++
Date: Tue May 12 15:20:39 PDT 2015
User: schluterlab
Dark Spectrum Present: Yes
Reference Spectrum Present: Yes
Number of Sampled Component Spectra: 1
Spectrometers: USB2E3373
Integration Time (usec): 3000 (USB2E3373)
Spectra Averaged: 3 (USB2E3373)
Boxcar Smoothing: 0 (USB2E3373)
Correct for Electrical Dark: No (USB2E3373)
Strobe/Lamp Enabled: No (USB2E3373)
Correct for Detector Non-linearity: No (USB2E3373)
Correct for Stray Light: No (USB2E3373)
Number of Pixels in Processed Spectrum: 2048
>>>>>Begin Processed Spectral Data<<<<<
178.53	0.000
178.91	-175.000
179.29	-700.000
179.67	-2800.000
180.04	-113.333
180.42	575.000
180.80	1250.000
181.18	0.000
181.56	-350.000
181.94	0.000
182.31	900.000
182.69	-3000.000
183.07	585.714
183.45	-3400.000
183.83	-1450.000
184.20	330.000
184.58	428.571
184.96	-238.462
185.34	-150.000
185.72	1550.000
186.09	-750.000
186.47	-2900.000
186.85	1033.333
187.23	480.000
187.61	1150.000
187.98	437.500
188.36	221.429
188.74	283.333
189.12	283.333
189.49	950.000
189.87	0.000
190.25	462.500
190.63	2400.000
191.00	-150.000
191.38	-2600.000
191.76	-850.000
192.14	537.500
192.51	-2700.000
192.89	1450.000
193.27	966.667
193.65	-1366.667
194.02	-700.000
194.40	542.857
194.78	-235.714
195.15	233.333
195.53	-2900.000
195.91	-720.000
196.29	3900.000
196.66	143.750
197.04	750.000
197.42	-1200.000
197.79	525.000
198.17	316.667
198.55	0.000
198.92	528.571
199.30	1166.667
199.68	1700.000
200.05	550.000
200.43	-450.000
200.81	233.333
201.18	2800.000
201.56	291.667
201.94	-950.000
202.31	-250.000
202.69	-520.000
203.07	3100.000
203.44	-400.000
203.82	308.333
204.19	560.000
204.57	-950.000
204.95	-625.000
205.32	-760.000
205.70	400.000
206.08	925.000
206.45	-800.000
206.83	366.667
207.20	194.737
207.58	233.333
207.96	520.000
208.33	0.000
208.71	500.000
209.08	680.000
209.46	-2600.000
209.84	-750.000
210.21	860.000
210.59	-600.000
210.96	316.667
211.34	-900.000
211.71	363.636
212.09	750.000
212.46	1550.000
212.84	-383.333
213.22	366.667
213.59	-2400.000
213.97	320.000
214.34	925.000
214.72	1366.667
215.09	933.333
215.47	-3000.000
215.84	-380.000
216.22	-400.000
216.59	0.000
216.97	0.000
217.34	850.000
217.72	-1300.000
218.09	1300.000
218.47	375.000
218.84	825.000
219.22	1066.667
219.59	1066.667
219.97	614.286
220.34	400.000
220.72	1350.000
221.09	3100.000
221.47	241.667
221.84	1266.667
222.22	330.000
222.59	255.556
222.97	207.143
223.34	206.250
223.72	-1650.000
224.09	933.333
224.46	238.462
224.84	-750.000
225.21	477.778
225.59	280.000
225.96	900.000
226.34	-480.000
226.71	-550.000
227.08	-460.000
227.46	0.000
227.83	-633.333
228.21	-1150.000
228.58	408.333
228.95	925.000
229.33	188.889
229.70	850.000
230.08	276.923
230.45	4000.000
230.82	-1200.000
231.20	-800.000
231.57	-566.667
231.95	540.000
232.32	266.667
232.69	466.667
233.07	225.000
233.44	-1950.000
233.81	213.333
234.19	170.370
234.56	193.750
234.93	182.353
235.31	195.000
235.68	262.500
236.05	167.857
236.43	114.815
236.80	292.857
237.17	134.483
237.55	103.125
237.92	125.000
238.29	142.424
238.67	140.625
239.04	109.756
239.41	97.917
239.79	115.000
240.16	68.750
240.53	83.607
240.91	68.116
241.28	101.695
241.65	80.303
242.02	85.915
242.40	74.286
242.77	80.220
243.14	55.696
243.51	83.838
243.89	64.486
244.26	68.224
244.63	68.317
245.00	64.220
245.38	59.322
245.75	56.818
246.12	62.963
246.49	58.156
246.87	52.459
247.24	61.333
247.61	56.250
247.98	58.503
248.36	54.545
248.73	55.612
249.10	52.976
249.47	52.500
249.84	46.269
250.22	51.892
250.59	51.500
250.96	45.992
251.33	53.488
251.70	49.554
252.08	46.639
252.45	46.614
252.82	46.008
253.19	47.826
253.56	45.000
253.94	43.116
254.31	46.899
254.68	46.690
255.05	47.241
255.42	45.985
255.79	46.906
256.16	49.492
256.54	50.974
256.91	43.791
257.28	45.819
257.65	41.693
258.02	37.758
258.39	44.986
258.76	44.928
259.14	40.857
259.51	46.356
259.88	49.848
260.25	43.407
260.62	41.370
260.99	43.526
261.36	44.290
261.73	43.085
262.10	42.932
262.47	42.000
262.85	41.867
263.22	40.874
263.59	40.921
263.96	41.353
264.33	42.716
264.70	46.683
265.07	43.659
265.44	41.743
265.81	40.566
266.18	42.792
266.55	40.662
266.92	42.282
267.29	43.860
267.66	40.583
268.03	41.031
268.40	40.803
268.77	43.392
269.14	39.696
269.51	41.203
269.88	39.796
270.25	38.445
270.62	42.060
270.99	38.742
271.36	39.634
271.73	39.832
272.10	40.404
272.47	41.071
272.84	38.523
273.21	40.083
273.58	41.093
273.95	40.246
274.32	41.051
274.69	40.551
275.06	40.437
275.43	37.739
275.80	39.811
276.17	38.235
276.54	38.879
276.91	41.231
277.28	37.409
277.65	39.483
278.02	39.338
278.39	36.331
278.76	38.621
279.13	38.612
279.50	38.909
279.87	37.989
280.23	38.858
280.60	41.058
280.97	38.793
281.34	36.964
281.71	37.565
282.08	38.462
282.45	37.669
282.82	35.786
283.19	36.407
283.56	37.190
283.92	37.459
284.29	37.937
284.66	36.639
285.03	38.972
285.40	35.868
285.77	37.037
286.14	37.771
286.51	36.196
286.87	35.601
287.24	35.736
287.61	35.714
287.98	38.955
288.35	35.407
288.72	35.660
289.08	39.790
289.45	38.110
289.82	37.656
290.19	34.700
290.56	37.846
290.93	37.554
291.29	34.807
291.66	34.605
292.03	35.344
292.40	34.959
292.77	34.680
293.13	35.235
293.50	35.493
293.87	34.824
294.24	38.601
294.60	36.070
294.97	37.902
295.34	34.794
295.71	35.611
296.08	35.067
296.44	35.705
296.81	34.988
297.18	34.728
297.55	35.345
297.91	34.606
298.28	35.145
298.65	34.847
299.02	32.569
299.38	35.612
299.75	35.366
300.12	33.830
300.48	35.480
300.85	35.042
301.22	35.233
301.59	34.788
301.95	32.555
302.32	35.739
302.69	35.973
303.05	36.139
303.42	34.978
303.79	35.320
304.15	35.094
304.52	34.778
304.89	34.861
305.25	37.931
305.62	36.567
305.99	34.674
306.35	34.632
306.72	35.692
307.09	34.783
307.45	35.903
307.82	35.905
308.19	34.639
308.55	35.800
308.92	36.605
309.29	37.377
309.65	37.066
310.02	36.511
310.38	35.892
310.75	35.101
311.12	36.207
311.48	36.486
311.85	36.641
312.22	38.300
312.58	36.832
312.95	37.864
313.31	38.483
313.68	37.242
314.05	39.011
314.41	38.175
314.78	39.205
315.14	38.294
315.51	40.776
315.87	38.504
316.24	40.243
316.61	39.033
316.97	39.358
317.34	39.712
317.70	40.825
318.07	40.658
318.43	39.807
318.80	40.193
319.16	39.860
319.53	41.416
319.89	39.606
320.26	41.527
320.62	41.117
320.99	41.468
321.35	41.002
321.72	43.548
322.08	43.121
322.45	42.598
322.81	43.458
323.18	42.096
323.54	43.293
323.91	44.696
324.27	42.352
324.64	43.339
325.00	44.741
325.37	44.688
325.73	44.941
326.10	45.899
326.46	45.665
326.83	44.320
327.19	46.185
327.56	45.767
327.92	47.541
328.29	47.054
328.65	47.175
329.01	48.589
329.38	46.024
329.74	45.944
330.11	47.003
330.47	47.826
330.84	46.074
331.20	46.870
331.56	48.014
331.93	48.503
332.29	46.259
332.66	47.364
333.02	47.079
333.38	49.215
333.75	47.706
334.11	46.980
334.48	46.923
334.84	47.466
335.20	49.444
335.57	45.340
335.93	47.435
336.29	46.766
336.66	48.199
337.02	49.701
337.38	47.034
337.75	48.733
338.11	48.439
338.47	47.841
338.84	46.486
339.20	46.753
339.56	47.687
339.93	48.913
340.29	46.723
340.65	47.779
341.02	47.868
341.38	48.851
341.74	49.252
342.11	48.080
342.47	47.662
342.83	48.482
343.20	47.696
343.56	47.180
343.92	48.555
344.28	49.203
344.65	48.166
345.01	47.857
345.37	49.760
345.73	47.698
346.10	48.845
346.46	48.405
346.82	48.071
347.19	49.382
347.55	47.385
347.91	47.205
348.27	47.018
348.63	49.209
349.00	47.525
349.36	48.560
349.72	49.618
350.08	49.068
350.45	49.581
350.81	49.083
351.17	48.767
351.53	49.038
351.89	49.184
352.26	47.543
352.62	49.321
352.98	49.847
353.34	49.230
353.70	48.930
354.07	50.154
354.43	49.539
354.79	48.368
355.15	49.617
355.51	49.773
355.87	50.301
356.24	49.885
356.60	49.543
356.96	50.644
357.32	48.757
357.68	49.706
358.04	50.152
358.40	50.975
358.77	50.639
359.13	50.751
359.49	49.815
359.85	51.080
360.21	51.412
360.57	50.876
360.93	50.505
361.29	52.381
361.66	51.603
362.02	50.852
362.38	51.371
362.74	52.866
363.10	51.753
363.46	51.657
363.82	52.525
364.18	52.560
364.54	52.074
364.90	52.075
365.26	52.325
365.62	53.108
365.98	51.273
366.35	52.828
366.71	52.741
367.07	52.765
367.43	51.444
367.79	52.327
368.15	51.289
368.51	51.206
368.87	52.649
369.23	53.777
369.59	52.933
369.95	53.846
370.31	52.225
370.67	52.325
371.03	53.011
371.39	54.501
371.75	53.315
372.11	53.569
372.47	54.178
372.83	54.317
373.19	53.804
373.55	52.509
373.91	54.351
374.27	54.101
374.63	55.458
374.99	56.132
375.35	56.384
375.71	54.947
376.07	55.836
376.42	53.325
376.78	55.556
377.14	56.750
377.50	55.243
377.86	55.669
378.22	54.906
378.58	55.811
378.94	55.824
379.30	55.367
379.66	56.051
380.02	55.484
380.38	55.679
380.74	56.517
381.09	56.893
381.45	54.393
381.81	55.674
382.17	54.945
382.53	56.029
382.89	56.475
383.25	56.365
383.61	54.697
383.97	56.449
384.32	56.420
384.68	56.506
385.04	56.506
385.40	56.940
385.76	56.466
386.12	58.256
386.48	57.143
386.83	57.641
387.19	56.890
387.55	57.656
387.91	57.159
388.27	57.109
388.62	56.103
388.98	57.201
389.34	56.454
389.70	56.958
390.06	58.110
390.42	57.927
390.77	59.091
391.13	58.721
391.49	57.653
391.85	57.723
392.20	57.628
392.56	57.826
392.92	57.945
393.28	57.567
393.64	56.938
393.99	57.202
394.35	57.387
394.71	56.634
395.07	57.603
395.42	57.963
395.78	58.606
396.14	58.253
396.50	57.762
396.85	57.439
397.21	57.040
397.57	57.322
397.92	58.174
398.28	57.363
398.64	57.068
399.00	57.616
399.35	56.790
399.71	57.230
400.07	56.050
400.42	57.612
400.78	57.654
401.14	56.371
401.49	56.394
401.85	56.721
402.21	56.766
402.57	58.229
402.92	58.242
403.28	57.100
403.63	56.798
403.99	56.936
404.35	57.268
404.70	57.826
405.06	56.317
405.42	56.972
405.77	56.725
406.13	56.128
406.49	56.055
406.84	55.048
407.20	56.393
407.55	56.800
407.91	58.264
408.27	56.701
408.62	56.712
408.98	57.244
409.34	56.166
409.69	55.756
410.05	55.993
410.40	55.536
410.76	55.524
411.11	56.339
411.47	55.617
411.83	55.888
412.18	55.254
412.54	55.015
412.89	55.634
413.25	55.302
413.60	56.250
413.96	55.835
414.31	56.021
414.67	56.363
415.03	56.130
415.38	56.845
415.74	55.843
416.09	56.465
416.45	56.949
416.80	56.382
417.16	54.933
417.51	56.624
417.87	57.071
418.22	56.075
418.58	55.796
418.93	54.908
419.29	54.159
419.64	54.755
420.00	56.444
420.35	55.981
420.71	54.434
421.06	55.562
421.42	55.095
421.77	55.469
422.12	56.174
422.48	54.032
422.83	55.915
423.19	53.888
423.54	55.074
423.90	55.663
424.25	55.311
424.61	55.543
424.96	54.150
425.31	54.406
425.67	54.377
426.02	54.122
426.38	54.551
426.73	54.829
427.09	55.635
427.44	55.881
427.79	55.575
428.15	55.038
428.50	54.914
428.85	54.615
429.21	54.187
429.56	54.686
429.92	54.301
430.27	53.846
430.62	53.647
430.98	54.291
431.33	54.536
431.68	52.099
432.04	53.337
432.39	54.885
432.74	54.742
433.10	54.430
433.45	55.141
433.80	55.764
434.16	54.388
434.51	53.044
434.86	54.219
435.22	54.025
435.57	54.179
435.92	55.378
436.28	54.435
436.63	54.079
436.98	54.899
437.34	53.710
437.69	53.471
438.04	53.333
438.39	54.641
438.75	54.176
439.10	55.100
439.45	52.685
439.81	54.540
440.16	54.210
440.51	53.378
440.86	54.188
441.22	53.517
441.57	52.913
441.92	52.715
442.27	52.835
442.63	53.709
442.98	51.724
443.33	53.401
443.68	53.119
444.03	53.346
444.39	53.107
444.74	53.364
445.09	52.607
445.44	52.869
445.79	53.265
446.15	53.158
446.50	53.270
446.85	52.141
447.20	52.488
447.55	52.964
447.91	52.424
448.26	51.384
448.61	52.294
448.96	53.922
449.31	53.410
449.66	52.769
450.02	51.432
450.37	52.804
450.72	52.782
451.07	51.832
451.42	52.401
451.77	52.749
452.12	52.581
452.47	52.309
452.83	52.451
453.18	53.333
453.53	52.102
453.88	51.543
454.23	52.063
454.58	51.166
454.93	51.747
455.28	51.408
455.63	51.891
455.98	51.607
456.34	52.401
456.69	51.341
457.04	50.895
457.39	51.029
457.74	50.901
458.09	50.983
458.44	51.369
458.79	51.353
459.14	50.682
459.49	52.039
459.84	51.304
460.19	50.791
460.54	51.054
460.89	51.279
461.24	50.745
461.59	50.737
461.94	49.764
462.29	50.515
462.64	50.879
462.99	50.416
463.34	50.421
463.69	50.998
464.04	50.835
464.39	49.742
464.74	50.000
465.09	49.913
465.44	49.946
465.79	49.156
466.14	49.020
466.49	50.407
466.84	48.662
467.19	50.146
467.54	48.889
467.89	49.002
468.24	49.508
468.59	48.750
468.94	49.336
469.29	48.809
469.64	48.553
469.99	48.972
470.34	48.450
470.68	48.138
471.03	49.433
471.38	48.675
471.73	48.792
472.08	49.511
472.43	47.921
472.78	48.464
473.13	48.436
473.48	48.594
473.83	47.939
474.17	48.632
474.52	47.927
474.87	47.925
475.22	49.172
475.57	47.849
475.92	47.266
476.27	47.008
476.61	47.775
476.96	46.499
477.31	46.530
477.66	47.289
478.01	47.086
478.36	47.013
478.70	46.352
479.05	47.594
479.40	46.230
479.75	47.418
480.10	45.837
480.45	46.125
480.79	45.853
481.14	45.934
481.49	45.791
481.84	45.383
482.19	46.026
482.53	45.542
482.88	45.475
483.23	45.692
483.58	45.646
483.92	45.430
484.27	44.777
484.62	46.095
484.97	45.033
485.31	44.646
485.66	44.702
486.01	44.587
486.36	43.110
486.70	42.167
487.05	43.127
487.40	43.542
487.75	43.620
488.09	43.381
488.44	43.881
488.79	43.457
489.13	44.308
489.48	44.746
489.83	44.245
490.17	42.775
490.52	43.626
490.87	43.534
491.22	44.326
491.56	43.522
491.91	43.548
492.26	42.227
492.60	43.827
492.95	43.498
493.30	43.039
493.64	42.677
493.99	43.023
494.34	43.254
494.68	42.895
495.03	42.928
495.37	42.638
495.72	43.543
496.07	42.588
496.41	42.615
496.76	42.718
497.11	42.288
497.45	42.218
497.80	42.817
498.14	41.563
498.49	42.015
498.84	42.150
499.18	41.545
499.53	42.306
499.87	41.689
500.22	42.331
500.56	41.458
500.91	42.115
501.26	42.352
501.60	41.758
501.95	40.905
502.29	41.422
502.64	41.464
502.98	40.818
503.33	41.782
503.67	40.927
504.02	40.170
504.36	41.041
504.71	42.479
505.06	40.310
505.40	40.992
505.75	41.113
506.09	41.484
506.44	40.977
506.78	42.250
507.13	42.172
507.47	40.611
507.82	41.606
508.16	42.283
508.51	41.787
508.85	40.931
509.19	41.116
509.54	40.332
509.88	40.278
510.23	40.049
510.57	40.251
510.92	40.410
511.26	40.964
511.61	39.734
511.95	39.970
512.30	40.150
512.64	39.772
512.98	39.928
513.33	39.600
513.67	40.031
514.02	41.143
514.36	39.200
514.70	39.253
515.05	40.330
515.39	40.351
515.74	40.733
516.08	40.414
516.42	40.710
516.77	40.107
517.11	40.053
517.46	38.955
517.80	39.705
518.14	41.127
518.49	39.581
518.83	39.011
519.17	39.046
519.52	39.268
519.86	39.510
520.20	39.562
520.55	40.136
520.89	39.598
521.23	39.778
521.58	39.931
521.92	38.601
522.26	39.336
522.61	40.582
522.95	39.339
523.29	38.304
523.64	38.092
523.98	39.613
524.32	38.581
524.66	39.710
525.01	38.994
525.35	38.126
525.69	38.230
526.04	40.274
526.38	38.905
526.72	37.589
527.06	37.729
527.41	38.996
527.75	38.101
528.09	38.591
528.43	37.462
528.78	38.163
529.12	38.772
529.46	38.282
529.80	37.734
530.15	37.419
530.49	37.966
530.83	37.477
531.17	37.884
531.51	37.646
531.86	37.077
532.20	36.156
532.54	37.037
532.88	37.477
533.22	37.965
533.57	37.828
533.91	36.072
534.25	36.411
534.59	37.368
534.93	36.405
535.27	35.857
535.62	36.523
535.96	37.470
536.30	37.051
536.64	36.522
536.98	36.627
537.32	37.437
537.66	36.416
538.01	36.656
538.35	37.056
538.69	35.862
539.03	34.826
539.37	35.983
539.71	36.481
540.05	35.815
540.39	36.541
540.73	36.139
541.07	35.634
541.42	35.634
541.76	35.573
542.10	35.943
542.44	36.471
542.78	35.431
543.12	35.767
543.46	35.965
543.80	36.529
544.14	35.913
544.48	34.428
544.82	35.719
545.16	34.244
545.50	35.648
545.84	35.859
546.18	36.086
546.52	36.262
546.86	35.654
547.20	34.432
547.54	34.452
547.88	34.672
548.22	34.851
548.56	33.883
548.90	33.274
549.24	35.250
549.58	33.698
549.92	35.429
550.26	35.632
550.60	35.263
550.94	36.092
551.28	35.034
551.62	35.379
551.96	35.338
552.30	34.212
552.64	35.793
552.98	33.119
553.32	32.843
553.66	34.007
554.00	33.784
554.34	34.554
554.68	34.476
555.02	34.352
555.36	33.178
555.69	34.359
556.03	33.694
556.37	34.289
556.71	35.854
557.05	33.552
557.39	33.400
557.73	34.771
558.07	34.004
558.41	33.927
558.75	34.747
559.08	35.811
559.42	34.073
559.76	33.571
560.10	32.622
560.44	33.245
560.78	34.271
561.12	34.520
561.45	32.979
561.79	33.521
562.13	32.723
562.47	33.744
562.81	32.726
563.15	33.613
563.48	31.615
563.82	34.124
564.16	33.769
564.50	32.248
564.84	33.982
565.17	31.373
565.51	34.421
565.85	33.683
566.19	32.798
566.52	32.250
566.86	34.209
567.20	32.247
567.54	33.188
567.88	32.394
568.21	32.252
568.55	31.858
568.89	32.619
569.23	32.183
569.56	31.949
569.90	31.621
570.24	32.129
570.57	32.252
570.91	31.544
571.25	31.020
571.59	31.134
571.92	30.920
572.26	30.270
572.60	30.797
572.93	30.966
573.27	30.643
573.61	30.536
573.95	30.802
574.28	31.071
574.62	30.112
574.96	30.154
575.29	29.726
575.63	30.106
575.97	29.649
576.30	29.790
576.64	30.212
576.98	29.765
577.31	30.325
577.65	30.362
577.98	29.709
578.32	29.923
578.66	29.821
578.99	30.417
579.33	29.612
579.67	29.518
580.00	29.603
580.34	29.660
580.67	29.396
581.01	30.327
581.35	29.537
581.68	29.494
582.02	29.777
582.35	29.312
582.69	29.497
583.02	29.299
583.36	29.614
583.70	30.159
584.03	30.375
584.37	29.758
584.70	29.709
585.04	29.669
585.37	28.877
585.71	29.798
586.04	29.053
586.38	29.208
586.72	29.498
587.05	29.748
587.39	29.178
587.72	29.397
588.06	29.476
588.39	29.580
588.73	29.229
589.06	29.618
589.40	29.859
589.73	29.597
590.07	30.577
590.40	29.930
590.73	30.665
591.07	30.323
591.40	29.621
591.74	29.383
592.07	29.243
592.41	29.776
592.74	29.074
593.08	28.906
593.41	28.875
593.75	28.521
594.08	29.042
594.41	29.163
594.75	28.870
595.08	29.801
595.42	28.966
595.75	29.385
596.09	29.510
596.42	29.497
596.75	29.327
597.09	29.715
597.42	29.592
597.75	29.452
598.09	28.847
598.42	29.906
598.76	28.604
599.09	29.680
599.42	28.374
599.76	29.240
600.09	28.475
600.42	29.144
600.76	28.688
601.09	29.134
601.42	28.370
601.76	29.717
602.09	28.550
602.42	28.651
602.76	28.577
603.09	29.035
603.42	29.064
603.76	28.344
604.09	27.904
604.42	28.362
604.76	29.316
605.09	28.898
605.42	29.256
605.75	28.780
606.09	28.653
606.42	28.673
606.75	28.372
607.09	28.227
607.42	28.526
607.75	28.264
608.08	28.392
608.42	28.314
608.75	28.455
609.08	27.717
609.41	28.682
609.75	29.167
610.08	28.732
610.41	29.205
610.74	28.874
611.07	28.558
611.41	28.406
611.74	28.585
612.07	28.998
612.40	29.581
612.73	28.557
613.07	29.397
613.40	29.424
613.73	28.507
614.06	28.200
614.39	28.535
614.72	27.524
615.06	27.300
615.39	28.614
615.72	27.202
616.05	27.926
616.38	28.716
616.71	27.727
617.05	27.512
617.38	27.472
617.71	28.515
618.04	27.874
618.37	28.849
618.70	28.002
619.03	27.961
619.36	28.580
619.69	28.496
620.03	28.898
620.36	28.645
620.69	28.799
621.02	28.804
621.35	27.937
621.68	28.761
622.01	30.480
622.34	28.551
622.67	28.862
623.00	28.046
623.33	28.745
623.66	28.077
623.99	28.904
624.32	28.862
624.65	27.584
624.99	27.519
625.32	28.123
625.65	27.517
625.98	27.197
626.31	29.303
626.64	28.398
626.97	28.233
627.30	28.571
627.63	29.356
627.96	28.795
628.29	27.393
628.62	27.802
628.95	28.369
629.28	29.185
629.61	28.998
629.94	28.436
630.26	30.069
630.59	29.521
630.92	28.879
631.25	29.556
631.58	28.351
631.91	28.544
632.24	29.252
632.57	27.898
632.90	29.607
633.23	28.751
633.56	29.189
633.89	30.225
634.22	29.279
634.55	28.925
634.88	29.682
635.20	29.148
635.53	31.010
635.86	29.418
636.19	27.946
636.52	27.135
636.85	27.400
637.18	28.602
637.51	27.933
637.83	29.291
638.16	29.191
638.49	30.060
638.82	28.638
639.15	29.612
639.48	29.858
639.81	29.304
640.13	29.448
640.46	28.951
640.79	30.039
641.12	29.003
641.45	29.237
641.77	28.005
642.10	29.585
642.43	30.299
642.76	29.972
643.09	29.827
643.41	29.032
643.74	29.353
644.07	28.909
644.40	28.107
644.73	29.580
645.05	30.758
645.38	31.700
645.71	28.983
646.04	30.229
646.36	29.890
646.69	27.520
647.02	29.760
647.35	27.874
647.67	29.173
648.00	28.990
648.33	28.271
648.66	29.697
648.98	28.116
649.31	29.285
649.64	29.046
649.96	28.592
650.29	28.429
650.62	30.633
650.94	30.422
651.27	29.346
651.60	27.387
651.92	29.186
652.25	31.654
652.58	28.794
652.90	29.341
653.23	28.804
653.56	30.564
653.88	28.341
654.21	28.592
654.54	28.404
654.86	27.139
655.19	27.441
655.52	25.980
655.84	23.039
656.17	27.769
656.49	39.902
656.82	46.109
657.15	36.684
657.47	27.223
657.80	19.954
658.13	15.735
658.45	21.526
658.78	25.792
659.10	26.034
659.43	26.570
659.75	27.695
660.08	28.697
660.41	29.673
660.73	29.987
661.06	29.730
661.38	30.324
661.71	30.216
662.03	27.757
662.36	28.762
662.68	27.561
663.01	30.991
663.33	29.245
663.66	28.402
663.98	31.548
664.31	31.530
664.63	28.544
664.96	33.208
665.28	27.872
665.61	28.113
665.93	28.679
666.26	30.467
666.58	31.193
666.91	29.730
667.23	30.924
667.56	30.185
667.88	30.083
668.21	27.869
668.53	30.242
668.86	32.665
669.18	28.106
669.50	29.959
669.83	32.649
670.15	31.185
670.48	28.320
670.80	30.677
671.13	28.287
671.45	31.864
671.77	30.427
672.10	28.725
672.42	29.276
672.75	28.797
673.07	28.458
673.39	28.754
673.72	29.585
674.04	29.749
674.37	29.220
674.69	27.881
675.01	29.478
675.34	28.295
675.66	29.102
675.98	28.600
676.31	30.400
676.63	29.225
676.95	30.556
677.28	29.006
677.60	29.779
677.92	25.794
678.25	31.202
678.57	28.119
678.89	30.018
679.22	29.779
679.54	29.181
679.86	27.749
680.18	28.120
680.51	25.705
680.83	27.534
681.15	29.116
681.48	29.514
681.80	28.021
682.12	29.066
682.44	27.387
682.77	28.648
683.09	27.767
683.41	30.408
683.73	28.150
684.06	28.571
684.38	31.202
684.70	26.799
685.02	26.563
685.34	28.697
685.67	28.778
685.99	27.422
686.31	28.043
686.63	27.480
686.96	28.431
687.28	27.349
687.60	28.840
687.92	28.811
688.24	27.586
688.56	28.114
688.89	27.916
689.21	28.709
689.53	31.423
689.85	29.878
690.17	28.738
690.49	31.250
690.82	28.782
691.14	32.929
691.46	31.211
691.78	29.825
692.10	25.954
692.42	28.131
692.74	28.101
693.06	30.039
693.39	28.063
693.71	28.684
694.03	28.600
694.35	32.530
694.67	28.310
694.99	28.603
695.31	31.532
695.63	28.281
695.95	32.805
696.27	28.982
696.59	30.549
696.91	29.367
697.23	29.864
697.56	24.896
697.88	27.146
698.20	29.057
698.52	25.292
698.84	27.310
699.16	31.343
699.48	29.661
699.80	28.976
700.12	32.333
700.44	28.972
700.76	30.072
701.08	28.721
701.40	30.130
701.72	32.086
702.04	31.707
702.36	29.839
702.68	32.713
703.00	27.569
703.32	33.747
703.64	28.212
703.96	29.427
704.28	30.159
704.60	31.549
704.91	27.451
705.23	30.114
705.55	33.531
705.87	30.476
706.19	33.856
706.51	35.737
706.83	29.794
707.15	31.818
707.47	29.540
707.79	30.345
708.11	29.252
708.43	30.562
708.74	29.412
709.06	30.000
709.38	28.536
709.70	31.880
710.02	27.989
710.34	29.282
710.66	29.722
710.98	32.514
711.29	30.362
711.61	32.591
711.93	31.611
712.25	31.325
712.57	30.868
712.89	33.030
713.20	29.073
713.52	31.153
713.84	34.139
714.16	30.145
714.48	26.513
714.80	32.520
715.11	30.319
715.43	28.492
715.75	31.831
716.07	30.058
716.39	30.000
716.70	29.283
717.02	32.323
717.34	35.252
717.66	33.681
717.97	40.909
718.29	33.099
718.61	32.095
718.93	30.796
719.24	30.201
719.56	32.069
719.88	28.981
720.20	29.355
720.51	29.085
720.83	32.441
721.15	35.374
721.46	31.849
721.78	35.889
722.10	32.639
722.42	35.117
722.73	29.242
723.05	36.491
723.37	33.922
723.68	36.328
724.00	32.197
724.32	31.559
724.63	36.154
724.95	33.725
725.27	33.086
725.58	35.294
725.90	34.155
726.22	33.219
726.53	33.445
726.85	32.899
727.16	33.557
727.48	34.551
727.80	31.655
728.11	33.571
728.43	34.420
728.74	30.070
729.06	28.315
729.38	35.088
729.69	36.333
730.01	34.868
730.32	33.221
730.64	31.894
730.96	30.330
731.27	24.159
731.59	26.437
731.90	29.805
732.22	31.429
732.53	28.205
732.85	34.211
733.16	32.530
733.48	31.975
733.80	28.986
734.11	34.049
734.43	30.994
734.74	29.491
735.06	35.450
735.37	30.928
735.69	31.884
736.00	34.862
736.32	29.394
736.63	30.284
736.95	27.329
737.26	36.280
737.58	30.982
737.89	33.735
738.21	31.457
738.52	31.104
738.83	34.432
739.15	31.010
739.46	28.276
739.78	33.673
740.09	34.402
740.41	31.902
740.72	35.238
741.04	37.063
741.35	33.203
741.66	31.225
741.98	34.764
742.29	30.556
742.61	33.628
742.92	30.085
743.23	34.400
743.55	35.849
743.86	29.804
744.18	37.288
744.49	35.537
744.80	33.641
745.12	39.286
745.43	36.449
745.74	37.778
746.06	31.140
746.37	40.000
746.68	40.265
747.00	37.220
747.31	33.193
747.62	32.377
747.94	37.768
748.25	34.630
748.56	33.051
748.88	37.500
749.19	34.884
749.50	32.420
749.82	36.214
750.13	33.202
750.44	30.000
750.75	31.544
751.07	33.553
751.38	30.033
751.69	31.313
752.01	32.517
752.32	33.223
752.63	34.899
752.94	32.867
753.26	35.938
753.57	37.743
753.88	33.708
754.19	34.657
754.51	34.551
754.82	30.201
755.13	30.405
755.44	31.481
755.75	32.990
756.07	29.795
756.38	30.065
756.69	32.188
757.00	32.938
757.31	34.085
757.63	31.680
757.94	29.787
758.25	29.227
758.56	28.833
758.87	31.328
759.18	33.140
759.50	34.043
759.81	29.970
760.12	31.742
760.43	29.972
760.74	31.646
761.05	33.687
761.36	26.302
761.67	31.806
761.99	33.803
762.30	31.833
762.61	27.083
762.92	35.606
763.23	34.717
763.54	29.615
763.85	30.739
764.16	31.250
764.47	30.743
764.78	29.967
765.10	27.439
765.41	31.250
765.72	28.453
766.03	28.701
766.34	30.662
766.65	34.601
766.96	35.628
767.27	42.991
767.58	35.149
767.89	41.989
768.20	44.512
768.51	36.224
768.82	38.596
769.13	33.725
769.44	33.835
769.75	32.210
770.06	31.513
770.37	28.509
770.68	33.778
770.99	38.136
771.30	34.310
771.61	37.692
771.92	35.115
772.23	33.468
772.54	36.889
772.85	41.089
773.16	33.152
773.47	33.889
773.78	32.673
774.09	39.773
774.39	39.394
774.70	43.529
775.01	37.500
775.32	37.267
775.63	36.986
775.94	49.383
776.25	46.897
776.56	41.221
776.87	43.511
777.18	41.667
777.48	47.244
777.79	53.077
778.10	40.909
778.41	50.000
778.72	39.850
779.03	39.744
779.34	46.622
779.65	42.236
779.95	39.752
780.26	38.690
780.57	46.939
780.88	40.426
781.19	52.500
781.50	44.379
781.80	43.716
782.11	36.508
782.42	35.632
782.73	36.158
783.04	44.516
783.34	41.860
783.65	42.857
783.96	44.516
784.27	42.384
784.57	32.237
784.88	45.652
785.19	45.000
785.50	43.966
785.81	59.690
786.11	40.000
786.42	45.669
786.73	51.351
787.04	47.170
787.34	37.398
787.65	51.515
787.96	46.212
788.26	44.882
788.57	42.336
788.88	45.775
789.19	39.695
789.49	47.297
789.80	48.437
790.11	43.802
790.41	53.704
790.72	48.148
791.03	48.077
791.33	65.657
791.64	52.632
791.95	55.789
792.25	55.208
792.56	55.000
792.87	51.220
793.17	50.000
793.48	51.765
793.79	60.920
794.09	44.318
794.40	52.586
794.70	46.825
795.01	35.385
795.32	47.328
795.62	40.171
795.93	52.101
796.23	50.407
796.54	55.102
796.85	46.591
797.15	63.636
797.46	63.415
797.76	51.250
798.07	64.000
798.37	71.250
798.68	67.500
798.99	75.610
799.29	61.333
799.60	43.023
799.90	60.526
800.21	68.182
800.51	60.563
800.82	67.241
801.12	70.769
801.43	64.000
801.73	65.517
802.04	64.935
802.34	68.493
802.65	72.549
802.95	69.565
803.26	77.419
803.56	91.667
803.87	62.687
804.17	53.968
804.48	60.377
804.78	66.667
805.09	71.212
805.39	90.476
805.70	61.404
806.00	64.286
806.30	62.500
806.61	61.176
806.91	57.778
807.22	54.348
807.52	51.316
807.83	68.421
808.13	59.420
808.43	80.645
808.74	57.534
809.04	75.000
809.35	83.824
809.65	63.636
809.95	82.353
810.26	85.185
810.56	79.688
810.86	79.592
811.17	91.228
811.47	78.261
811.77	63.793
812.08	58.621
812.38	64.286
812.69	90.476
812.99	68.889
813.29	94.286
813.59	106.452
813.90	62.069
814.20	80.328
814.50	84.000
814.81	75.439
815.11	90.741
815.41	73.214
815.72	87.500
816.02	62.000
816.32	102.439
816.62	77.586
816.93	106.061
817.23	100.000
817.53	67.857
817.84	75.556
818.14	104.762
818.44	77.083
818.74	100.000
819.04	76.923
819.35	100.000
819.65	92.308
819.95	112.963
820.25	102.128
820.56	118.919
820.86	115.789
821.16	72.340
821.46	105.263
821.76	74.545
822.07	78.571
822.37	84.211
822.67	65.116
822.97	97.368
823.27	102.174
823.57	103.125
823.88	110.256
824.18	84.848
824.48	126.087
824.78	116.667
825.08	126.087
825.38	110.345
825.69	111.765
825.99	65.957
826.29	94.444
826.59	91.429
826.89	126.667
827.19	85.714
827.49	125.806
827.79	150.000
828.09	85.714
828.39	94.444
828.70	100.000
829.00	139.286
829.30	200.000
829.60	91.667
829.90	106.452
830.20	75.758
830.50	121.622
830.80	162.500
831.10	173.077
831.40	104.762
831.70	183.333
832.00	90.000
832.30	134.783
832.60	150.000
832.90	142.424
833.20	175.000
833.50	123.684
833.80	111.765
834.10	128.947
834.40	126.316
834.70	113.333
835.00	168.000
835.30	118.919
835.60	109.375
835.90	105.405
836.20	153.846
836.50	136.364
836.80	102.439
837.10	117.391
837.40	300.000
837.70	173.684
838.00	160.000
838.30	137.500
838.60	128.000
838.90	240.000
839.19	137.500
839.49	150.000
839.79	100.000
840.09	130.769
840.39	233.333
840.69	200.000
840.99	114.286
841.29	182.609
841.59	200.000
841.88	168.000
842.18	277.778
842.48	150.000
842.78	148.148
843.08	176.923
843.38	177.273
843.68	257.143
843.97	514.286
844.27	173.913
844.57	1150.000
844.87	264.286
845.17	227.778
845.47	147.619
845.76	150.000
846.06	600.000
846.36	117.647
846.66	253.846
846.96	193.750
847.25	207.692
847.55	163.158
847.85	138.889
848.15	600.000
848.44	300.000
848.74	133.333
849.04	166.667
849.34	205.882
849.63	231.250
849.93	212.500
850.23	800.000
850.53	350.000
850.82	263.636
851.12	152.941
851.42	133.333
851.71	250.000
852.01	0.000
852.31	194.118
852.61	320.000
852.90	200.000
853.20	277.778
853.50	-3000.000
853.79	132.000
854.09	121.875
854.39	110.345
854.68	144.828
854.98	185.714
855.28	135.484
855.57	292.857
855.87	172.222
856.17	133.333
856.46	163.158
856.76	119.355
857.05	223.529
857.35	290.909
857.65	253.846
857.94	125.000
858.24	366.667
858.53	264.286
858.83	400.000
859.13	160.870
859.42	222.222
859.72	325.000
860.01	175.000
860.31	800.000
860.60	320.000
860.90	437.500
861.20	292.308
861.49	242.857
861.79	-3200.000
862.08	571.429
862.38	311.111
862.67	257.143
862.97	270.000
863.26	126.667
863.56	650.000
863.85	307.692
864.15	235.294
864.44	233.333
864.74	308.333
865.03	327.273
865.33	275.000
865.62	226.667
865.92	433.333
866.21	800.000
866.51	320.000
866.80	222.222
867.10	966.667
867.39	3500.000
867.69	540.000
867.98	1000.000
868.27	157.143
868.57	226.667
868.86	750.000
869.16	152.381
869.45	3400.000
869.75	-400.000
870.04	675.000
870.33	660.000
870.63	400.000
870.92	205.882
871.22	750.000
871.51	528.571
871.80	316.667
872.10	176.923
>>>>>End Processed Spectral Data<<<<<
