SpectraSuite Data File
++++++++++++++++++++++++++++++++++++
Date: Tue May 12 16:52:35 PDT 2015
User: schluterlab
Dark Spectrum Present: Yes
Reference Spectrum Present: Yes
Number of Sampled Component Spectra: 1
Spectrometers: USB2E3373
Integration Time (usec): 3000 (USB2E3373)
Spectra Averaged: 3 (USB2E3373)
Boxcar Smoothing: 0 (USB2E3373)
Correct for Electrical Dark: No (USB2E3373)
Strobe/Lamp Enabled: No (USB2E3373)
Correct for Detector Non-linearity: No (USB2E3373)
Correct for Stray Light: No (USB2E3373)
Number of Pixels in Processed Spectrum: 2048
>>>>>Begin Processed Spectral Data<<<<<
178.53	0.000
178.91	-241.667
179.29	-375.000
179.67	-3000.000
180.04	-180.000
180.42	650.000
180.80	1700.000
181.18	0.000
181.56	-425.000
181.94	0.000
182.31	1100.000
182.69	-3400.000
183.07	628.571
183.45	-4800.000
183.83	-1850.000
184.20	320.000
184.58	557.143
184.96	-215.385
185.34	-200.000
185.72	1500.000
186.09	-675.000
186.47	-2300.000
186.85	1100.000
187.23	520.000
187.61	1150.000
187.98	387.500
188.36	257.143
188.74	291.667
189.12	391.667
189.49	1075.000
189.87	0.000
190.25	375.000
190.63	2000.000
191.00	-216.667
191.38	-3700.000
191.76	-800.000
192.14	500.000
192.51	-3300.000
192.89	1900.000
193.27	1100.000
193.65	-1066.667
194.02	-620.000
194.40	485.714
194.78	-185.714
195.15	206.667
195.53	-3200.000
195.91	-540.000
196.29	4200.000
196.66	237.500
197.04	825.000
197.42	-1300.000
197.79	825.000
198.17	291.667
198.55	0.000
198.92	442.857
199.30	1133.333
199.68	1950.000
200.05	733.333
200.43	-483.333
200.81	283.333
201.18	3300.000
201.56	275.000
201.94	-700.000
202.31	-437.500
202.69	-460.000
203.07	3700.000
203.44	-483.333
203.82	266.667
204.19	660.000
204.57	-1300.000
204.95	-725.000
205.32	-580.000
205.70	583.333
206.08	650.000
206.45	-666.667
206.83	333.333
207.20	163.158
207.58	250.000
207.96	560.000
208.33	0.000
208.71	414.286
209.08	640.000
209.46	-3500.000
209.84	-950.000
210.21	880.000
210.59	-560.000
210.96	383.333
211.34	-950.000
211.71	309.091
212.09	875.000
212.46	1250.000
212.84	-483.333
213.22	488.889
213.59	-2500.000
213.97	230.000
214.34	900.000
214.72	1133.333
215.09	1000.000
215.47	-2400.000
215.84	-380.000
216.22	-375.000
216.59	0.000
216.97	0.000
217.34	1550.000
217.72	-1600.000
218.09	1266.667
218.47	600.000
218.84	825.000
219.22	900.000
219.59	966.667
219.97	514.286
220.34	511.111
220.72	1750.000
221.09	3200.000
221.47	183.333
221.84	1000.000
222.22	310.000
222.59	294.444
222.97	192.857
223.34	243.750
223.72	-1200.000
224.09	833.333
224.46	246.154
224.84	-550.000
225.21	344.444
225.59	240.000
225.96	1366.667
226.34	-540.000
226.71	-525.000
227.08	-660.000
227.46	0.000
227.83	-483.333
228.21	-1550.000
228.58	366.667
228.95	875.000
229.33	355.556
229.70	1050.000
230.08	346.154
230.45	3700.000
230.82	-850.000
231.20	-866.667
231.57	-1166.667
231.95	480.000
232.32	341.667
232.69	566.667
233.07	266.667
233.44	-1800.000
233.81	193.333
234.19	151.852
234.56	156.250
234.93	205.882
235.31	205.000
235.68	306.250
236.05	167.857
236.43	129.630
236.80	278.571
237.17	131.034
237.55	96.875
237.92	120.000
238.29	130.303
238.67	134.375
239.04	104.878
239.41	91.667
239.79	102.500
240.16	93.750
240.53	77.049
240.91	66.667
241.28	66.102
241.65	80.303
242.02	71.831
242.40	61.429
242.77	61.538
243.14	59.494
243.51	54.545
243.89	54.206
244.26	44.860
244.63	52.475
245.00	57.798
245.38	39.831
245.75	41.667
246.12	49.630
246.49	44.681
246.87	40.164
247.24	36.667
247.61	43.750
247.98	42.857
248.36	32.727
248.73	42.857
249.10	41.071
249.47	41.500
249.84	38.806
250.22	36.757
250.59	33.500
250.96	33.333
251.33	37.674
251.70	34.821
252.08	37.395
252.45	34.263
252.82	30.418
253.19	31.225
253.56	32.308
253.94	34.783
254.31	29.457
254.68	32.404
255.05	35.172
255.42	29.197
255.79	33.876
256.16	32.542
256.54	33.442
256.91	31.046
257.28	31.104
257.65	24.451
258.02	26.549
258.39	30.086
258.76	29.275
259.14	28.857
259.51	30.612
259.88	29.483
260.25	24.176
260.62	29.589
260.99	25.620
261.36	26.462
261.73	28.191
262.10	30.105
262.47	24.750
262.85	28.267
263.22	26.992
263.59	26.854
263.96	27.820
264.33	26.173
264.70	30.467
265.07	27.805
265.44	29.358
265.81	25.943
266.18	27.231
266.55	26.241
266.92	24.385
267.29	27.412
267.66	26.457
268.03	24.664
268.40	23.890
268.77	27.093
269.14	24.295
269.51	28.062
269.88	27.551
270.25	23.758
270.62	25.966
270.99	26.572
271.36	25.610
271.73	23.899
272.10	25.455
272.47	23.611
272.84	24.750
273.21	25.620
273.58	26.923
273.95	24.230
274.32	26.070
274.69	27.362
275.06	25.683
275.43	24.521
275.80	23.962
276.17	25.184
276.54	26.168
276.91	24.627
277.28	22.445
277.65	24.354
278.02	26.287
278.39	23.561
278.76	26.207
279.13	23.310
279.50	24.000
279.87	22.719
280.23	22.836
280.60	24.453
280.97	23.793
281.34	25.248
281.71	25.217
282.08	24.444
282.45	23.986
282.82	23.579
283.19	23.847
283.56	24.132
283.92	22.638
284.29	23.960
284.66	21.681
285.03	23.549
285.40	22.149
285.77	21.914
286.14	23.375
286.51	23.313
286.87	22.468
287.24	22.372
287.61	24.924
287.98	24.328
288.35	22.667
288.72	23.217
289.08	24.775
289.45	24.695
289.82	25.781
290.19	22.548
290.56	24.600
290.93	24.460
291.29	24.448
291.66	23.729
292.03	23.142
292.40	23.171
292.77	22.702
293.13	24.679
293.50	23.887
293.87	22.493
294.24	25.315
294.60	23.553
294.97	25.315
295.34	24.436
295.71	24.573
296.08	24.667
296.44	24.269
296.81	22.953
297.18	24.081
297.55	24.384
297.91	22.906
298.28	23.068
298.65	22.945
299.02	24.487
299.38	21.942
299.75	23.537
300.12	24.885
300.48	25.059
300.85	25.030
301.22	24.767
301.59	22.406
301.95	23.337
302.32	24.796
302.69	23.529
303.05	25.365
303.42	24.327
303.79	25.135
304.15	24.422
304.52	24.736
304.89	24.307
305.25	24.472
305.62	23.774
305.99	23.696
306.35	23.368
306.72	24.870
307.09	26.087
307.45	24.498
307.82	24.280
308.19	25.567
308.55	24.000
308.92	24.239
309.29	26.726
309.65	25.570
310.02	24.645
310.38	23.928
310.75	24.397
311.12	26.149
311.48	27.220
311.85	24.905
312.22	25.692
312.58	25.462
312.95	25.437
313.31	26.685
313.68	24.484
314.05	27.289
314.41	25.233
314.78	25.284
315.14	25.118
315.51	25.828
315.87	25.821
316.24	25.490
316.61	25.873
316.97	24.862
317.34	25.876
317.70	26.514
318.07	26.157
318.43	27.417
318.80	26.095
319.16	25.437
319.53	26.018
319.89	26.075
320.26	27.561
320.62	28.755
320.99	26.883
321.35	26.252
321.72	26.850
322.08	28.994
322.45	27.611
322.81	27.996
323.18	26.732
323.54	27.613
323.91	26.836
324.27	26.437
324.64	26.211
325.00	27.155
325.37	26.223
325.73	26.813
326.10	26.429
326.46	27.415
326.83	26.400
327.19	29.478
327.56	27.955
327.92	28.852
328.29	28.805
328.65	29.024
329.01	27.716
329.38	27.750
329.74	27.242
330.11	27.541
330.47	27.962
330.84	25.971
331.20	28.257
331.56	28.411
331.93	27.973
332.29	25.510
332.66	28.231
333.02	25.687
333.38	26.527
333.75	27.690
334.11	27.685
334.48	26.667
334.84	26.436
335.20	26.775
335.57	26.364
335.93	26.913
336.29	25.456
336.66	25.643
337.02	24.979
337.38	25.795
337.75	26.014
338.11	26.835
338.47	26.588
338.84	25.826
339.20	24.502
339.56	24.643
339.93	26.421
340.29	24.538
340.65	26.823
341.02	25.825
341.38	25.698
341.74	26.246
342.11	24.958
342.47	25.021
342.83	25.841
343.20	24.899
343.56	24.464
343.92	25.764
344.28	25.040
344.65	24.531
345.01	24.048
345.37	23.558
345.73	25.556
346.10	24.064
346.46	24.322
346.82	24.460
347.19	26.121
347.55	24.044
347.91	24.698
348.27	23.625
348.63	23.497
349.00	24.067
349.36	23.502
349.72	24.388
350.08	24.845
350.45	25.133
350.81	24.771
351.17	22.496
351.53	24.095
351.89	24.398
352.26	23.810
352.62	24.359
352.98	24.387
353.34	24.037
353.70	23.089
354.07	24.538
354.43	24.270
354.79	23.842
355.15	23.124
355.51	23.792
355.87	22.816
356.24	23.480
356.60	23.516
356.96	23.654
357.32	24.115
357.68	23.568
358.04	23.252
358.40	23.613
358.77	23.065
359.13	23.498
359.49	23.128
359.85	22.710
360.21	22.585
360.57	22.920
360.93	22.872
361.29	23.160
361.66	23.863
362.02	23.153
362.38	22.583
362.74	22.364
363.10	23.422
363.46	22.652
363.82	23.983
364.18	22.760
364.54	22.461
364.90	22.959
365.26	22.623
365.62	22.238
365.98	22.161
366.35	21.448
366.71	22.831
367.07	22.799
367.43	21.961
367.79	21.277
368.15	21.710
368.51	22.467
368.87	21.671
369.23	21.760
369.59	22.522
369.95	22.517
370.31	22.108
370.67	22.554
371.03	21.849
371.39	21.953
371.75	21.493
372.11	22.026
372.47	22.740
372.83	21.822
373.19	22.824
373.55	22.337
373.91	21.823
374.27	22.156
374.63	21.966
374.99	21.833
375.35	22.379
375.71	22.098
376.07	22.149
376.42	22.059
376.78	22.094
377.14	21.953
377.50	21.286
377.86	21.397
378.22	21.755
378.58	21.792
378.94	22.028
379.30	21.710
379.66	21.373
380.02	21.349
380.38	20.375
380.74	21.107
381.09	21.262
381.45	19.827
381.81	20.745
382.17	20.696
382.53	21.476
382.89	20.402
383.25	20.485
383.61	20.807
383.97	20.336
384.32	21.519
384.68	20.856
385.04	20.868
385.40	20.878
385.76	21.240
386.12	20.841
386.48	20.304
386.83	20.844
387.19	19.906
387.55	21.496
387.91	20.150
388.27	20.286
388.62	20.305
388.98	20.117
389.34	20.405
389.70	19.458
390.06	20.122
390.42	20.543
390.77	20.516
391.13	20.036
391.49	19.117
391.85	20.738
392.20	20.560
392.56	20.072
392.92	19.315
393.28	19.339
393.64	18.979
393.99	19.146
394.35	19.070
394.71	19.421
395.07	19.708
395.42	19.906
395.78	19.679
396.14	20.602
396.50	18.893
396.85	19.634
397.21	19.194
397.57	19.904
397.92	19.295
398.28	18.698
398.64	19.488
399.00	18.119
399.35	18.948
399.71	18.377
400.07	18.436
400.42	18.806
400.78	18.358
401.14	18.321
401.49	18.203
401.85	19.525
402.21	18.688
402.57	18.791
402.92	19.273
403.28	17.721
403.63	18.717
403.99	18.577
404.35	18.171
404.70	17.956
405.06	18.136
405.42	18.312
405.77	18.412
406.13	17.950
406.49	17.908
406.84	17.202
407.20	18.664
407.55	17.908
407.91	18.251
408.27	17.890
408.62	18.096
408.98	17.682
409.34	17.475
409.69	18.233
410.05	17.770
410.40	17.020
410.76	17.115
411.11	17.062
411.47	17.407
411.83	16.520
412.18	17.271
412.54	17.237
412.89	17.168
413.25	17.902
413.60	17.173
413.96	16.936
414.31	17.473
414.67	18.001
415.03	18.135
415.38	17.603
415.74	17.562
416.09	16.615
416.45	18.164
416.80	18.281
417.16	17.123
417.51	17.962
417.87	17.397
418.22	17.618
418.58	17.898
418.93	17.549
419.29	16.081
419.64	17.505
420.00	17.780
420.35	17.189
420.71	16.978
421.06	16.892
421.42	17.098
421.77	17.324
422.12	17.641
422.48	17.360
422.83	17.634
423.19	17.549
423.54	17.444
423.90	17.327
424.25	17.722
424.61	16.773
424.96	17.222
425.31	17.351
425.67	18.070
426.02	16.882
426.38	17.328
426.73	17.351
427.09	18.268
427.44	16.826
427.79	17.553
428.15	18.385
428.50	17.943
428.85	17.989
429.21	17.990
429.56	17.747
429.92	17.752
430.27	17.368
430.62	17.523
430.98	17.814
431.33	17.137
431.68	16.840
432.04	17.020
432.39	18.167
432.74	18.384
433.10	18.383
433.45	18.208
433.80	18.257
434.16	18.445
434.51	18.524
434.86	18.454
435.22	17.990
435.57	18.376
435.92	19.180
436.28	18.433
436.63	18.639
436.98	19.144
437.34	19.064
437.69	18.309
438.04	18.978
438.39	18.272
438.75	17.539
439.10	19.212
439.45	18.711
439.81	18.739
440.16	18.382
440.51	18.356
440.86	18.860
441.22	18.506
441.57	19.475
441.92	19.003
442.27	18.814
442.63	19.055
442.98	18.427
443.33	19.122
443.68	18.662
444.03	19.227
444.39	19.021
444.74	19.306
445.09	19.484
445.44	19.607
445.79	19.347
446.15	19.263
446.50	19.093
446.85	18.974
447.20	18.657
447.55	19.521
447.91	20.565
448.26	19.329
448.61	20.509
448.96	20.207
449.31	19.362
449.66	19.989
450.02	19.071
450.37	20.100
450.72	20.165
451.07	20.593
451.42	19.917
451.77	20.103
452.12	20.079
452.47	20.352
452.83	20.225
453.18	20.180
453.53	20.189
453.88	20.400
454.23	20.046
454.58	20.047
454.93	20.233
455.28	19.767
455.63	20.154
455.98	19.853
456.34	20.061
456.69	19.634
457.04	20.525
457.39	19.886
457.74	20.890
458.09	20.101
458.44	20.811
458.79	20.424
459.14	20.567
459.49	20.385
459.84	20.380
460.19	20.339
460.54	20.627
460.89	20.469
461.24	20.103
461.59	20.011
461.94	20.154
462.29	19.908
462.64	20.603
462.99	20.282
463.34	20.804
463.69	21.295
464.04	20.841
464.39	19.576
464.74	19.871
465.09	20.429
465.44	20.675
465.79	20.033
466.14	20.509
466.49	20.076
466.84	20.178
467.19	20.680
467.54	19.520
467.89	20.599
468.24	20.672
468.59	20.893
468.94	20.109
469.29	21.381
469.64	20.579
469.99	20.437
470.34	20.114
470.68	19.862
471.03	20.414
471.38	20.464
471.73	20.509
472.08	20.417
472.43	20.546
472.78	20.871
473.13	19.712
473.48	20.721
473.83	19.788
474.17	20.122
474.52	20.972
474.87	20.637
475.22	20.331
475.57	19.570
475.92	19.928
476.27	19.042
476.61	20.483
476.96	20.010
477.31	20.823
477.66	20.988
478.01	19.856
478.36	20.546
478.70	20.347
479.05	19.874
479.40	19.345
479.75	20.556
480.10	20.765
480.45	19.561
480.79	20.876
481.14	20.209
481.49	19.716
481.84	19.877
482.19	20.000
482.53	19.807
482.88	19.713
483.23	20.117
483.58	19.524
483.92	20.978
484.27	19.349
484.62	20.204
484.97	19.361
485.31	19.672
485.66	19.241
486.01	19.345
486.36	19.310
486.70	19.481
487.05	19.675
487.40	18.827
487.75	18.776
488.09	18.949
488.44	18.770
488.79	18.986
489.13	19.970
489.48	19.656
489.83	19.141
490.17	19.653
490.52	19.552
490.87	19.397
491.22	19.814
491.56	19.719
491.91	19.579
492.26	19.866
492.60	19.636
492.95	19.619
493.30	19.518
493.64	19.766
493.99	19.544
494.34	19.408
494.68	19.212
495.03	19.937
495.37	19.856
495.72	20.280
496.07	20.261
496.41	19.592
496.76	19.671
497.11	19.966
497.45	19.597
497.80	19.555
498.14	19.556
498.49	19.638
498.84	20.140
499.18	19.059
499.53	19.430
499.87	19.991
500.22	19.162
500.56	19.406
500.91	20.315
501.26	19.752
501.60	19.444
501.95	19.400
502.29	19.511
502.64	19.277
502.98	19.209
503.33	19.644
503.67	19.823
504.02	19.122
504.36	19.502
504.71	19.395
505.06	19.193
505.40	19.654
505.75	18.475
506.09	19.785
506.44	19.643
506.78	19.754
507.13	19.680
507.47	19.360
507.82	20.243
508.16	20.235
508.51	19.469
508.85	19.563
509.19	19.432
509.54	19.141
509.88	20.189
510.23	19.314
510.57	19.112
510.92	20.480
511.26	18.825
511.61	19.596
511.95	20.458
512.30	19.650
512.64	19.315
512.98	19.631
513.33	19.723
513.67	19.938
514.02	19.481
514.36	19.367
514.70	18.827
515.05	18.753
515.39	18.860
515.74	19.081
516.08	19.118
516.42	20.328
516.77	19.307
517.11	19.520
517.46	19.397
517.80	19.443
518.14	20.507
518.49	18.908
518.83	18.297
519.17	19.689
519.52	19.661
519.86	19.946
520.20	19.342
520.55	19.163
520.89	18.736
521.23	19.743
521.58	19.621
521.92	20.175
522.26	19.846
522.61	20.321
522.95	19.700
523.29	19.298
523.64	18.902
523.98	18.779
524.32	18.627
524.66	19.362
525.01	18.994
525.35	18.444
525.69	19.627
526.04	18.441
526.38	18.717
526.72	18.914
527.06	18.155
527.41	19.589
527.75	19.172
528.09	18.784
528.43	19.646
528.78	18.664
529.12	19.386
529.46	19.462
529.80	18.692
530.15	19.800
530.49	19.374
530.83	19.622
531.17	19.373
531.51	18.332
531.86	17.391
532.20	18.789
532.54	18.330
532.88	18.613
533.22	18.830
533.57	19.463
533.91	18.590
534.25	18.696
534.59	19.123
534.93	18.544
535.27	17.814
535.62	18.086
535.96	18.440
536.30	19.317
536.64	18.137
536.98	18.754
537.32	19.625
537.66	18.304
538.01	19.009
538.35	18.341
538.69	18.568
539.03	18.781
539.37	18.204
539.71	19.136
540.05	18.277
540.39	19.182
540.73	18.354
541.07	17.315
541.42	18.843
541.76	19.236
542.10	18.434
542.44	18.953
542.78	18.502
543.12	18.896
543.46	18.546
543.80	18.108
544.14	18.638
544.48	18.491
544.82	18.838
545.16	17.365
545.50	18.193
545.84	18.813
546.18	19.441
546.52	19.279
546.86	18.827
547.20	18.475
547.54	18.429
547.88	19.039
548.22	19.004
548.56	18.680
548.90	18.743
549.24	18.762
549.58	18.686
549.92	19.122
550.26	19.067
550.60	18.896
550.94	18.792
551.28	19.310
551.62	18.621
551.96	18.851
552.30	17.996
552.64	18.706
552.98	17.590
553.32	18.758
553.66	18.371
554.00	18.018
554.34	19.108
554.68	18.145
555.02	18.805
555.36	17.354
555.69	18.717
556.03	17.771
556.37	18.547
556.71	19.687
557.05	17.824
557.39	18.133
557.73	18.935
558.07	18.913
558.41	18.574
558.75	18.878
559.08	19.085
559.42	18.826
559.76	18.033
560.10	17.550
560.44	18.315
560.78	18.798
561.12	18.690
561.45	18.773
561.79	18.165
562.13	17.309
562.47	17.456
562.81	17.372
563.15	18.164
563.48	17.267
563.82	18.964
564.16	19.403
564.50	17.902
564.84	18.541
565.17	18.122
565.51	17.549
565.85	19.124
566.19	17.619
566.52	18.532
566.86	19.498
567.20	18.820
567.54	17.849
567.88	18.884
568.21	18.023
568.55	18.337
568.89	17.518
569.23	17.731
569.56	18.211
569.90	17.535
570.24	18.399
570.57	17.975
570.91	17.754
571.25	17.467
571.59	17.090
571.92	17.061
572.26	16.954
572.60	17.051
572.93	17.481
573.27	17.088
573.61	16.946
573.95	16.907
574.28	17.765
574.62	17.094
574.96	16.953
575.29	17.002
575.63	17.362
575.97	16.967
576.30	16.629
576.64	17.003
576.98	16.694
577.31	17.469
577.65	17.305
577.98	17.087
578.32	17.214
578.66	17.166
578.99	17.223
579.33	17.253
579.67	16.755
580.00	16.762
580.34	16.831
580.67	16.980
581.01	17.336
581.35	16.975
581.68	16.890
582.02	17.422
582.35	17.199
582.69	17.029
583.02	17.198
583.36	17.043
583.70	17.132
584.03	17.301
584.37	17.264
584.70	16.845
585.04	17.035
585.37	17.042
585.71	17.551
586.04	17.499
586.38	17.309
586.72	17.452
587.05	17.087
587.39	16.789
587.72	16.931
588.06	17.308
588.39	17.631
588.73	17.352
589.06	17.596
589.40	17.934
589.73	17.830
590.07	17.742
590.40	17.387
590.73	18.619
591.07	18.254
591.40	18.563
591.74	17.614
592.07	17.596
592.41	17.626
592.74	17.283
593.08	17.546
593.41	17.235
593.75	17.540
594.08	18.078
594.41	17.791
594.75	17.534
595.08	17.833
595.42	17.577
595.75	17.539
596.09	17.935
596.42	17.844
596.75	18.149
597.09	17.912
597.42	17.224
597.75	17.606
598.09	16.906
598.42	17.503
598.76	17.348
599.09	17.543
599.42	17.474
599.76	17.877
600.09	17.797
600.42	17.472
600.76	17.539
601.09	17.190
601.42	17.388
601.76	17.436
602.09	17.439
602.42	17.116
602.76	17.495
603.09	17.459
603.42	17.872
603.76	17.896
604.09	17.517
604.42	17.589
604.76	17.938
605.09	17.184
605.42	17.716
605.75	17.726
606.09	17.253
606.42	17.625
606.75	17.450
607.09	17.371
607.42	17.196
607.75	17.556
608.08	17.100
608.42	17.701
608.75	17.544
609.08	17.510
609.41	17.864
609.75	18.040
610.08	17.311
610.41	17.479
610.74	17.576
611.07	17.735
611.41	18.165
611.74	17.686
612.07	17.967
612.40	17.885
612.73	18.173
613.07	17.993
613.40	17.494
613.73	16.925
614.06	17.000
614.39	17.929
614.72	17.629
615.06	17.656
615.39	17.822
615.72	18.103
616.05	17.780
616.38	18.265
616.71	17.580
617.05	17.408
617.38	17.809
617.71	17.435
618.04	17.106
618.37	17.899
618.70	18.072
619.03	17.460
619.36	18.279
619.69	17.810
620.03	18.265
620.36	17.726
620.69	18.582
621.02	18.614
621.35	18.553
621.68	17.847
622.01	18.303
622.34	17.189
622.67	17.556
623.00	18.108
623.33	17.746
623.66	17.964
623.99	18.630
624.32	17.615
624.65	17.709
624.99	17.512
625.32	17.635
625.65	17.793
625.98	17.085
626.31	17.953
626.64	17.844
626.97	16.603
627.30	16.925
627.63	18.681
627.96	16.823
628.29	18.399
628.62	16.852
628.95	17.465
629.28	18.843
629.61	17.047
629.94	18.842
630.26	18.718
630.59	19.947
630.92	17.668
631.25	18.404
631.58	16.876
631.91	17.031
632.24	18.270
632.57	18.075
632.90	18.634
633.23	17.943
633.56	19.283
633.89	18.757
634.22	19.591
634.55	17.312
634.88	18.949
635.20	18.498
635.53	18.583
635.86	19.911
636.19	18.070
636.52	18.270
636.85	18.015
637.18	17.985
637.51	17.542
637.83	17.963
638.16	20.399
638.49	18.443
638.82	19.953
639.15	19.506
639.48	18.839
639.81	17.949
640.13	19.018
640.46	18.458
640.79	18.596
641.12	18.373
641.45	20.569
641.77	19.551
642.10	19.009
642.43	18.065
642.76	18.892
643.09	18.156
643.41	19.635
643.74	17.410
644.07	19.912
644.40	18.195
644.73	19.520
645.05	20.208
645.38	18.836
645.71	18.665
646.04	18.779
646.36	20.501
646.69	18.240
647.02	18.720
647.35	18.898
647.67	19.611
648.00	18.567
648.33	19.398
648.66	18.939
648.98	17.536
649.31	18.219
649.64	18.672
649.96	17.212
650.29	18.714
650.62	19.735
650.94	20.331
651.27	18.660
651.60	20.031
651.92	18.126
652.25	20.472
652.58	20.142
652.90	20.060
653.23	19.793
653.56	20.623
653.88	18.209
654.21	18.182
654.54	19.619
654.86	18.142
655.19	20.185
655.52	17.547
655.84	14.634
656.17	16.363
656.49	24.397
656.82	29.610
657.15	24.934
657.47	18.510
657.80	12.859
658.13	9.441
658.45	12.636
658.78	15.024
659.10	15.439
659.43	15.999
659.75	17.090
660.08	18.797
660.41	18.784
660.73	20.703
661.06	20.270
661.38	22.487
661.71	19.604
662.03	21.293
662.36	20.762
662.68	18.250
663.01	20.360
663.33	18.491
663.66	21.302
663.98	21.825
664.31	21.642
664.63	20.115
664.96	21.764
665.28	22.222
665.61	18.302
665.93	19.434
666.26	19.252
666.58	22.569
666.91	18.147
667.23	20.482
667.56	20.945
667.88	19.710
668.21	20.287
668.53	20.363
668.86	21.443
669.18	19.552
669.50	18.388
669.83	21.355
670.15	20.998
670.48	17.578
670.80	20.518
671.13	20.717
671.45	21.443
671.77	22.078
672.10	19.569
672.42	20.395
672.75	19.304
673.07	18.760
673.39	18.211
673.72	20.934
674.04	20.430
674.37	19.782
674.69	20.632
675.01	18.470
675.34	17.442
675.66	19.922
675.98	20.710
676.31	18.800
676.63	21.272
676.95	21.627
677.28	18.053
677.60	19.718
677.92	17.857
678.25	17.636
678.57	20.484
678.89	19.349
679.22	21.875
679.54	20.996
679.86	19.023
680.18	18.981
680.51	19.735
680.83	19.088
681.15	18.891
681.48	19.271
681.80	20.140
682.12	20.588
682.44	18.559
682.77	20.285
683.09	19.417
683.41	21.837
683.73	21.457
684.06	18.651
684.38	18.217
684.70	19.784
685.02	19.097
685.34	20.070
685.67	19.614
685.99	20.690
686.31	19.260
686.63	18.699
686.96	19.444
687.28	18.289
687.60	20.137
687.92	19.933
688.24	20.172
688.56	17.794
688.89	18.929
689.21	20.039
689.53	20.949
689.85	19.106
690.17	20.583
690.49	21.976
690.82	19.748
691.14	21.818
691.46	22.587
691.78	20.468
692.10	19.466
692.42	20.145
692.74	20.349
693.06	20.155
693.39	19.170
693.71	19.450
694.03	19.329
694.35	21.486
694.67	20.570
694.99	22.616
695.31	22.297
695.63	21.719
695.95	19.683
696.27	21.681
696.59	18.854
696.91	21.266
697.23	21.946
697.56	18.880
697.88	17.964
698.20	18.679
698.52	19.455
698.84	20.945
699.16	22.601
699.48	20.975
699.80	22.658
700.12	21.709
700.44	22.430
700.76	23.150
701.08	19.582
701.40	20.519
701.72	25.401
702.04	23.306
702.36	21.505
702.68	22.872
703.00	20.050
703.32	24.318
703.64	21.159
703.96	22.656
704.28	22.487
704.60	22.817
704.91	20.168
705.23	23.011
705.55	22.552
705.87	23.175
706.19	24.765
706.51	27.900
706.83	22.714
707.15	25.401
707.47	21.065
707.79	23.448
708.11	21.315
708.43	21.124
708.74	19.683
709.06	21.395
709.38	22.829
709.70	17.439
710.02	23.098
710.34	23.757
710.66	24.444
710.98	22.404
711.29	23.120
711.61	21.727
711.93	22.796
712.25	22.289
712.57	25.723
712.89	22.727
713.20	24.281
713.52	20.249
713.84	26.888
714.16	23.768
714.48	19.308
714.80	21.138
715.11	20.479
715.43	19.553
715.75	21.690
716.07	23.988
716.39	24.286
716.70	26.480
717.02	23.232
717.34	21.583
717.66	23.264
717.97	26.894
718.29	21.831
718.61	19.595
718.93	23.183
719.24	26.174
719.56	21.724
719.88	22.930
720.20	22.903
720.51	22.222
720.83	22.742
721.15	27.211
721.46	20.205
721.78	27.526
722.10	22.569
722.42	22.408
722.73	28.159
723.05	26.316
723.37	25.795
723.68	25.781
724.00	29.545
724.32	25.475
724.63	20.769
724.95	21.569
725.27	25.651
725.58	24.265
725.90	20.070
726.22	20.890
726.53	22.408
726.85	26.384
727.16	30.201
727.48	23.256
727.80	23.741
728.11	23.214
728.43	20.290
728.74	24.476
729.06	22.939
729.38	22.807
729.69	29.000
730.01	25.000
730.32	24.161
730.64	26.910
730.96	26.126
731.27	18.043
731.59	21.264
731.90	22.284
732.22	22.000
732.53	20.228
732.85	21.345
733.16	21.687
733.48	23.511
733.80	26.667
734.11	24.847
734.43	23.099
734.74	25.201
735.06	23.810
735.37	22.165
735.69	21.739
736.00	25.382
736.32	22.424
736.63	22.397
736.95	22.981
737.26	24.390
737.58	23.006
737.89	21.687
738.21	20.199
738.52	25.418
738.83	27.839
739.15	23.345
739.46	22.414
739.78	23.810
740.09	23.907
740.41	21.166
740.72	26.667
741.04	28.671
741.35	25.391
741.66	24.901
741.98	26.609
742.29	27.315
742.61	23.451
742.92	26.695
743.23	27.200
743.55	24.528
743.86	24.314
744.18	28.814
744.49	29.339
744.80	31.797
745.12	28.125
745.43	29.907
745.74	25.778
746.06	23.246
746.37	28.837
746.68	31.858
747.00	24.215
747.31	28.992
747.62	27.459
747.94	27.468
748.25	23.346
748.56	27.542
748.88	25.000
749.19	24.651
749.50	26.484
749.82	23.868
750.13	26.482
750.44	21.667
750.75	27.517
751.07	23.026
751.38	23.762
751.69	26.936
752.01	24.476
752.32	24.252
752.63	24.832
752.94	26.573
753.26	23.828
753.57	28.405
753.88	26.217
754.19	24.910
754.51	24.252
754.82	23.490
755.13	24.324
755.44	22.222
755.75	25.430
756.07	23.288
756.38	23.203
756.69	25.000
757.00	26.706
757.31	25.915
757.63	21.212
757.94	22.340
758.25	22.222
758.56	22.426
758.87	20.551
759.18	23.837
759.50	22.188
759.81	25.223
760.12	22.753
760.43	23.529
760.74	22.785
761.05	24.138
761.36	20.312
761.67	24.259
761.99	24.507
762.30	20.257
762.61	22.917
762.92	28.788
763.23	25.660
763.54	24.231
763.85	22.957
764.16	24.306
764.47	23.311
764.78	19.870
765.10	21.951
765.41	25.000
765.72	22.928
766.03	19.940
766.34	25.087
766.65	28.517
766.96	34.008
767.27	28.972
767.58	30.693
767.89	28.177
768.20	34.146
768.51	27.551
768.82	23.684
769.13	25.882
769.44	25.188
769.75	24.345
770.06	26.050
770.37	23.684
770.68	23.556
770.99	26.271
771.30	26.360
771.61	27.692
771.92	23.282
772.23	26.613
772.54	35.111
772.85	33.663
773.16	33.696
773.47	26.111
773.78	34.158
774.09	35.795
774.39	35.758
774.70	25.294
775.01	28.947
775.32	32.919
775.63	37.671
775.94	43.827
776.25	40.000
776.56	39.695
776.87	33.588
777.18	35.606
777.48	48.031
777.79	38.462
778.10	37.121
778.41	42.537
778.72	38.346
779.03	26.923
779.34	34.459
779.65	37.888
779.95	32.298
780.26	34.524
780.57	37.415
780.88	41.135
781.19	32.500
781.50	40.828
781.80	24.590
782.11	26.984
782.42	28.161
782.73	30.508
783.04	34.194
783.34	33.333
783.65	35.374
783.96	32.258
784.27	29.139
784.57	30.921
784.88	42.029
785.19	35.833
785.50	45.690
785.81	51.163
786.11	45.926
786.42	37.008
786.73	39.640
787.04	40.566
787.34	34.146
787.65	46.970
787.96	39.394
788.26	38.583
788.57	48.905
788.88	42.958
789.19	35.878
789.49	41.216
789.80	39.844
790.11	41.322
790.41	44.444
790.72	39.815
791.03	49.038
791.33	47.475
791.64	47.368
791.95	46.316
792.25	48.958
792.56	48.000
792.87	48.780
793.17	45.455
793.48	52.941
793.79	50.575
794.09	40.909
794.40	48.276
794.70	35.714
795.01	36.154
795.32	35.115
795.62	31.624
795.93	49.580
796.23	39.024
796.54	53.061
796.85	53.409
797.15	57.143
797.46	52.439
797.76	43.750
798.07	50.667
798.37	57.500
798.68	65.000
798.99	59.756
799.29	45.333
799.60	46.512
799.90	51.316
800.21	51.515
800.51	46.479
800.82	53.448
801.12	67.692
801.43	69.333
801.73	56.897
802.04	51.948
802.34	65.753
802.65	68.627
802.95	71.739
803.26	79.032
803.56	78.333
803.87	61.194
804.17	74.603
804.48	60.377
804.78	59.722
805.09	60.606
805.39	63.492
805.70	66.667
806.00	61.429
806.30	73.437
806.61	55.294
806.91	52.222
807.22	50.000
807.52	50.000
807.83	60.526
808.13	81.159
808.43	74.194
808.74	64.384
809.04	46.429
809.35	77.941
809.65	51.515
809.95	72.549
810.26	75.926
810.56	75.000
810.86	81.633
811.17	71.930
811.47	84.783
811.77	72.414
812.08	53.448
812.38	76.190
812.69	83.333
812.99	88.889
813.29	145.714
813.59	119.355
813.90	75.862
814.20	78.689
814.50	64.000
814.81	63.158
815.11	79.630
815.41	50.000
815.72	92.857
816.02	78.000
816.32	109.756
816.62	79.310
816.93	96.970
817.23	102.439
817.53	73.214
817.84	111.111
818.14	100.000
818.44	56.250
818.74	86.792
819.04	82.051
819.35	112.121
819.65	84.615
819.95	92.593
820.25	95.745
820.56	121.622
820.86	115.789
821.16	74.468
821.46	110.526
821.76	61.818
822.07	66.667
822.37	76.316
822.67	100.000
822.97	73.684
823.27	106.522
823.57	59.375
823.88	128.205
824.18	81.818
824.48	121.739
824.78	127.778
825.08	134.783
825.38	137.931
825.69	105.882
825.99	68.085
826.29	86.111
826.59	100.000
826.89	103.333
827.19	77.143
827.49	109.677
827.79	138.462
828.09	88.095
828.39	88.889
828.70	83.784
829.00	171.429
829.30	212.500
829.60	91.667
829.90	119.355
830.20	130.303
830.50	124.324
830.80	154.167
831.10	157.692
831.40	152.381
831.70	170.833
832.00	106.667
832.30	156.522
832.60	120.833
832.90	154.545
833.20	175.000
833.50	139.474
833.80	126.471
834.10	102.632
834.40	157.895
834.70	103.333
835.00	120.000
835.30	108.108
835.60	115.625
835.90	124.324
836.20	130.769
836.50	140.909
836.80	85.366
837.10	91.304
837.40	253.846
837.70	89.474
838.00	176.667
838.30	204.167
838.60	148.000
838.90	290.000
839.19	168.750
839.49	146.667
839.79	96.552
840.09	138.462
840.39	200.000
840.69	178.947
840.99	152.381
841.29	160.870
841.59	150.000
841.88	164.000
842.18	300.000
842.48	135.714
842.78	148.148
843.08	230.769
843.38	186.364
843.68	264.286
843.97	442.857
844.27	143.478
844.57	1200.000
844.87	314.286
845.17	211.111
845.47	114.286
845.76	154.167
846.06	557.143
846.36	170.588
846.66	315.385
846.96	218.750
847.25	246.154
847.55	189.474
847.85	194.444
848.15	480.000
848.44	272.727
848.74	180.952
849.04	183.333
849.34	194.118
849.63	200.000
849.93	293.750
850.23	933.333
850.53	437.500
850.82	336.364
851.12	211.765
851.42	162.500
851.71	225.000
852.01	0.000
852.31	229.412
852.61	330.000
852.90	137.500
853.20	333.333
853.50	-2100.000
853.79	176.000
854.09	162.500
854.39	100.000
854.68	137.931
854.98	176.190
855.28	116.129
855.57	221.429
855.87	194.444
856.17	140.741
856.46	221.053
856.76	141.935
857.05	229.412
857.35	318.182
857.65	253.846
857.94	170.000
858.24	366.667
858.53	292.857
858.83	571.429
859.13	182.609
859.42	322.222
859.72	375.000
860.01	241.667
860.31	725.000
860.60	370.000
860.90	475.000
861.20	338.462
861.49	500.000
861.79	-3100.000
862.08	342.857
862.38	222.222
862.67	171.429
862.97	340.000
863.26	140.000
863.56	1025.000
863.85	300.000
864.15	276.471
864.44	233.333
864.74	366.667
865.03	327.273
865.33	300.000
865.62	233.333
865.92	633.333
866.21	750.000
866.51	640.000
866.80	188.889
867.10	933.333
867.39	4000.000
867.69	720.000
867.98	750.000
868.27	171.429
868.57	266.667
868.86	950.000
869.16	147.619
869.45	3300.000
869.75	-466.667
870.04	850.000
870.33	660.000
870.63	475.000
870.92	141.176
871.22	1075.000
871.51	342.857
871.80	350.000
872.10	292.308
>>>>>End Processed Spectral Data<<<<<
