SpectraSuite Data File
++++++++++++++++++++++++++++++++++++
Date: Tue May 12 16:55:14 PDT 2015
User: schluterlab
Dark Spectrum Present: Yes
Reference Spectrum Present: Yes
Number of Sampled Component Spectra: 1
Spectrometers: USB2E3373
Integration Time (usec): 3000 (USB2E3373)
Spectra Averaged: 3 (USB2E3373)
Boxcar Smoothing: 0 (USB2E3373)
Correct for Electrical Dark: No (USB2E3373)
Strobe/Lamp Enabled: No (USB2E3373)
Correct for Detector Non-linearity: No (USB2E3373)
Correct for Stray Light: No (USB2E3373)
Number of Pixels in Processed Spectrum: 2048
>>>>>Begin Processed Spectral Data<<<<<
178.53	0.000
178.91	-200.000
179.29	-675.000
179.67	-2900.000
180.04	-40.000
180.42	675.000
180.80	1250.000
181.18	0.000
181.56	-337.500
181.94	0.000
182.31	966.667
182.69	-3200.000
183.07	685.714
183.45	-3300.000
183.83	-1550.000
184.20	390.000
184.58	571.429
184.96	-261.538
185.34	-208.333
185.72	1250.000
186.09	-475.000
186.47	-2100.000
186.85	900.000
187.23	780.000
187.61	1600.000
187.98	400.000
188.36	271.429
188.74	275.000
189.12	308.333
189.49	1000.000
189.87	0.000
190.25	475.000
190.63	2900.000
191.00	-233.333
191.38	-3400.000
191.76	-975.000
192.14	475.000
192.51	-2500.000
192.89	1700.000
193.27	933.333
193.65	-1100.000
194.02	-520.000
194.40	542.857
194.78	-221.429
195.15	240.000
195.53	-3300.000
195.91	-440.000
196.29	3400.000
196.66	212.500
197.04	800.000
197.42	-1450.000
197.79	725.000
198.17	358.333
198.55	0.000
198.92	471.429
199.30	1300.000
199.68	1800.000
200.05	600.000
200.43	-433.333
200.81	200.000
201.18	3200.000
201.56	308.333
201.94	-825.000
202.31	-412.500
202.69	-460.000
203.07	3500.000
203.44	-416.667
203.82	300.000
204.19	600.000
204.57	-1350.000
204.95	-825.000
205.32	-580.000
205.70	533.333
206.08	675.000
206.45	-766.667
206.83	444.444
207.20	168.421
207.58	300.000
207.96	700.000
208.33	0.000
208.71	657.143
209.08	680.000
209.46	-2800.000
209.84	-600.000
210.21	800.000
210.59	-700.000
210.96	258.333
211.34	-975.000
211.71	418.182
212.09	750.000
212.46	1350.000
212.84	-366.667
213.22	488.889
213.59	-3500.000
213.97	370.000
214.34	1075.000
214.72	1366.667
215.09	933.333
215.47	-2600.000
215.84	-370.000
216.22	-325.000
216.59	0.000
216.97	0.000
217.34	1300.000
217.72	-1450.000
218.09	1100.000
218.47	500.000
218.84	800.000
219.22	1166.667
219.59	933.333
219.97	414.286
220.34	333.333
220.72	1450.000
221.09	3500.000
221.47	233.333
221.84	1166.667
222.22	390.000
222.59	277.778
222.97	128.571
223.34	237.500
223.72	-1750.000
224.09	1133.333
224.46	292.308
224.84	-675.000
225.21	400.000
225.59	253.333
225.96	1166.667
226.34	-580.000
226.71	-650.000
227.08	-480.000
227.46	0.000
227.83	-483.333
228.21	-1400.000
228.58	341.667
228.95	1025.000
229.33	311.111
229.70	1025.000
230.08	392.308
230.45	3300.000
230.82	-900.000
231.20	-800.000
231.57	-1200.000
231.95	440.000
232.32	208.333
232.69	500.000
233.07	208.333
233.44	-1450.000
233.81	200.000
234.19	114.815
234.56	218.750
234.93	182.353
235.31	170.000
235.68	193.750
236.05	139.286
236.43	133.333
236.80	200.000
237.17	162.069
237.55	118.750
237.92	117.500
238.29	106.061
238.67	103.125
239.04	90.244
239.41	50.000
239.79	72.500
240.16	81.250
240.53	70.492
240.91	63.768
241.28	55.932
241.65	56.061
242.02	63.380
242.40	60.000
242.77	58.242
243.14	45.570
243.51	61.616
243.89	53.271
244.26	38.318
244.63	41.584
245.00	43.119
245.38	37.288
245.75	47.727
246.12	42.963
246.49	39.007
246.87	33.607
247.24	37.333
247.61	39.375
247.98	34.694
248.36	32.727
248.73	37.755
249.10	30.952
249.47	27.000
249.84	30.348
250.22	31.892
250.59	31.500
250.96	32.068
251.33	32.558
251.70	31.250
252.08	31.092
252.45	27.092
252.82	25.856
253.19	27.668
253.56	28.077
253.94	27.899
254.31	25.194
254.68	25.784
255.05	28.276
255.42	28.467
255.79	28.339
256.16	31.186
256.54	29.221
256.91	25.817
257.28	23.746
257.65	21.630
258.02	24.189
258.39	23.209
258.76	23.768
259.14	23.429
259.51	27.697
259.88	24.316
260.25	23.352
260.62	23.562
260.99	20.386
261.36	22.006
261.73	23.404
262.10	23.037
262.47	22.000
262.85	22.667
263.22	26.221
263.59	25.575
263.96	25.815
264.33	24.444
264.70	25.799
265.07	23.415
265.44	21.789
265.81	21.226
266.18	25.858
266.55	24.113
266.92	23.266
267.29	21.053
267.66	21.300
268.03	21.300
268.40	21.987
268.77	26.432
269.14	21.692
269.51	23.163
269.88	22.245
270.25	19.870
270.62	20.815
270.99	22.515
271.36	25.203
271.73	20.964
272.10	20.404
272.47	19.643
272.84	19.960
273.21	19.835
273.58	22.874
273.95	21.766
274.32	21.595
274.69	23.031
275.06	23.679
275.43	19.923
275.80	23.208
276.17	20.037
276.54	22.243
276.91	22.388
277.28	19.343
277.65	20.849
278.02	22.426
278.39	20.683
278.76	23.621
279.13	19.751
279.50	21.818
279.87	18.808
280.23	18.969
280.60	20.255
280.97	20.172
281.34	22.112
281.71	21.217
282.08	19.145
282.45	18.412
282.82	20.736
283.19	21.304
283.56	19.835
283.92	20.847
284.29	20.632
284.66	18.655
285.03	20.066
285.40	20.165
285.77	18.673
286.14	19.659
286.51	19.325
286.87	17.563
287.24	18.018
287.61	17.629
287.98	18.060
288.35	17.926
288.72	18.968
289.08	20.270
289.45	20.579
289.82	19.531
290.19	18.155
290.56	19.360
290.93	19.281
291.29	16.713
291.66	18.503
292.03	16.830
292.40	18.293
292.77	18.663
293.13	18.545
293.50	17.814
293.87	17.344
294.24	18.322
294.60	19.650
294.97	19.301
295.34	17.264
295.71	18.134
296.08	18.933
296.44	18.424
296.81	18.238
297.18	17.237
297.55	20.567
297.91	18.473
298.28	19.082
298.65	18.160
299.02	15.802
299.38	19.065
299.75	18.293
300.12	19.266
300.48	19.555
300.85	18.474
301.22	20.349
301.59	18.042
301.95	18.203
302.32	19.441
302.69	18.665
303.05	19.304
303.42	18.049
303.79	18.418
304.15	18.922
304.52	18.076
304.89	18.763
305.25	19.355
305.62	19.829
305.99	18.261
306.35	18.947
306.72	19.251
307.09	19.358
307.45	18.374
307.82	18.930
308.19	18.866
308.55	19.600
308.92	20.314
309.29	20.907
309.65	18.533
310.02	19.473
310.38	19.442
310.75	19.961
311.12	18.966
311.48	20.656
311.85	21.851
312.22	20.344
312.58	20.991
312.95	20.388
313.31	21.161
313.68	18.949
314.05	21.062
314.41	19.926
314.78	20.360
315.14	21.611
315.51	22.611
315.87	20.803
316.24	21.008
316.61	20.949
316.97	20.183
317.34	22.282
317.70	21.949
318.07	23.132
318.43	23.111
318.80	20.753
319.16	22.465
319.53	21.681
319.89	21.685
320.26	23.650
320.62	23.077
320.99	23.356
321.35	23.655
321.72	24.478
322.08	23.453
322.45	24.886
322.81	22.964
323.18	24.512
323.54	25.348
323.91	25.204
324.27	25.553
324.64	24.135
325.00	25.517
325.37	25.717
325.73	25.464
326.10	26.761
326.46	27.085
326.83	26.400
327.19	27.309
327.56	25.958
327.92	28.279
328.29	27.823
328.65	28.253
329.01	27.716
329.38	27.665
329.74	28.437
330.11	28.236
330.47	28.218
330.84	26.661
331.20	28.765
331.56	29.706
331.93	28.400
332.29	27.381
332.66	28.486
333.02	29.210
333.38	28.796
333.75	28.941
334.11	29.362
334.48	28.889
334.84	29.561
335.20	29.170
335.57	28.128
335.93	29.773
336.29	29.270
336.66	30.189
337.02	28.315
337.38	29.579
337.75	28.463
338.11	29.536
338.47	29.128
338.84	28.112
339.20	29.177
339.56	29.437
339.93	28.846
340.29	27.731
340.65	29.505
341.02	30.169
341.38	28.489
341.74	29.402
342.11	28.214
342.47	29.122
342.83	30.271
343.20	28.698
343.56	27.720
343.92	27.993
344.28	28.389
344.65	29.014
345.01	28.175
345.37	27.244
345.73	28.413
346.10	28.367
346.46	29.187
346.82	28.009
347.19	27.821
347.55	29.196
347.91	28.399
348.27	28.118
348.63	29.351
349.00	29.094
349.36	28.560
349.72	29.128
350.08	28.804
350.45	29.931
350.81	27.370
351.17	27.350
351.53	28.714
351.89	28.671
352.26	28.269
352.62	27.828
352.98	28.298
353.34	29.353
353.70	28.364
354.07	29.000
354.43	29.263
354.79	29.157
355.15	28.560
355.51	28.097
355.87	28.464
356.24	28.868
356.60	28.387
356.96	28.961
357.32	28.862
357.68	28.928
358.04	30.395
358.40	29.760
358.77	29.001
359.13	28.453
359.49	28.317
359.85	28.667
360.21	28.306
360.57	28.321
360.93	28.716
361.29	29.365
361.66	29.456
362.02	28.551
362.38	29.221
362.74	29.441
363.10	29.453
363.46	27.901
363.82	28.401
364.18	29.659
364.54	29.399
364.90	28.983
365.26	29.979
365.62	30.249
365.98	29.319
366.35	28.621
366.71	29.702
367.07	29.283
367.43	29.416
367.79	29.255
368.15	28.765
368.51	29.566
368.87	28.397
369.23	28.413
369.59	28.321
369.95	30.070
370.31	28.131
370.67	29.146
371.03	29.552
371.39	28.255
371.75	29.309
372.11	29.096
372.47	29.521
372.83	28.688
373.19	29.815
373.55	29.210
373.91	28.660
374.27	28.108
374.63	29.153
374.99	29.380
375.35	29.032
375.71	28.958
376.07	28.581
376.42	28.581
376.78	29.416
377.14	28.768
377.50	27.965
377.86	28.507
378.22	28.215
378.58	28.753
378.94	28.063
379.30	28.563
379.66	29.079
380.02	29.208
380.38	26.874
380.74	28.777
381.09	29.030
381.45	27.341
381.81	27.778
382.17	29.731
382.53	27.894
382.89	28.149
383.25	28.064
383.61	28.012
383.97	28.194
384.32	28.813
384.68	28.639
385.04	28.253
385.40	27.817
385.76	27.150
386.12	27.953
386.48	28.085
386.83	28.301
387.19	27.621
387.55	27.444
387.91	28.176
388.27	28.019
388.62	26.819
388.98	27.172
389.34	26.472
389.70	26.651
390.06	27.073
390.42	26.835
390.77	27.273
391.13	27.097
391.49	26.921
391.85	27.754
392.20	26.639
392.56	28.196
392.92	26.221
393.28	25.729
393.64	25.516
393.99	25.845
394.35	25.544
394.71	26.176
395.07	26.886
395.42	26.464
395.78	26.280
396.14	27.108
396.50	26.173
396.85	25.915
397.21	25.933
397.57	26.599
397.92	25.650
398.28	26.034
398.64	25.713
399.00	25.013
399.35	24.584
399.71	24.669
400.07	24.144
400.42	26.030
400.78	23.812
401.14	25.367
401.49	23.848
401.85	23.812
402.21	24.370
402.57	24.895
402.92	24.424
403.28	24.045
403.63	23.779
403.99	24.005
404.35	24.912
404.70	24.513
405.06	23.695
405.42	24.596
405.77	23.153
406.13	22.777
406.49	22.513
406.84	22.335
407.20	23.630
407.55	24.308
407.91	24.123
408.27	24.015
408.62	23.655
408.98	22.768
409.34	23.437
409.69	23.149
410.05	23.256
410.40	22.144
410.76	22.553
411.11	23.223
411.47	23.086
411.83	22.496
412.18	21.618
412.54	22.763
412.89	22.006
413.25	23.033
413.60	22.664
413.96	22.442
414.31	22.491
414.67	22.905
415.03	22.861
415.38	22.208
415.74	22.805
416.09	23.235
416.45	23.400
416.80	23.669
417.16	22.724
417.51	23.121
417.87	22.215
418.22	22.600
418.58	23.503
418.93	23.795
419.29	22.243
419.64	22.895
420.00	23.031
420.35	22.532
420.71	23.104
421.06	23.720
421.42	23.777
421.77	23.098
422.12	23.705
422.48	22.804
422.83	24.163
423.19	23.218
423.54	24.301
423.90	24.575
424.25	24.051
424.61	24.028
424.96	23.941
425.31	23.372
425.67	24.074
426.02	24.790
426.38	24.504
426.73	24.639
427.09	24.970
427.44	24.142
427.79	23.842
428.15	25.810
428.50	25.829
428.85	26.044
429.21	25.122
429.56	25.224
429.92	25.908
430.27	24.625
430.62	25.404
430.98	25.250
431.33	24.849
431.68	24.741
432.04	25.246
432.39	26.674
432.74	26.347
433.10	26.135
433.45	26.020
433.80	27.082
434.16	27.010
434.51	26.677
434.86	26.402
435.22	26.796
435.57	27.090
435.92	27.149
436.28	27.535
436.63	26.850
436.98	27.815
437.34	27.283
437.69	25.980
438.04	27.151
438.39	27.788
438.75	26.726
439.10	27.253
439.45	28.038
439.81	27.646
440.16	27.408
440.51	27.309
440.86	28.319
441.22	27.435
441.57	27.192
441.92	27.937
442.27	28.299
442.63	27.693
442.98	27.532
443.33	28.763
443.68	28.370
444.03	27.380
444.39	28.484
444.74	29.244
445.09	28.331
445.44	28.905
445.79	28.704
446.15	28.158
446.50	29.589
446.85	28.685
447.20	28.109
447.55	29.418
447.91	29.782
448.26	28.967
448.61	29.187
448.96	29.357
449.31	29.208
449.66	29.014
450.02	28.255
450.37	29.817
450.72	29.256
451.07	30.017
451.42	29.164
451.77	29.267
452.12	29.325
452.47	30.863
452.83	30.085
453.18	30.270
453.53	29.959
453.88	30.000
454.23	30.564
454.58	29.545
454.93	29.368
455.28	30.171
455.63	30.733
455.98	28.878
456.34	29.970
456.69	30.183
457.04	31.086
457.39	29.486
457.74	30.856
458.09	30.095
458.44	30.394
458.79	29.867
459.14	29.460
459.49	29.672
459.84	30.380
460.19	30.282
460.54	30.712
460.89	30.117
461.24	30.069
461.59	30.669
461.94	30.496
462.29	30.950
462.64	31.407
462.99	29.878
463.34	30.266
463.69	30.913
464.04	30.340
464.39	30.338
464.74	30.188
465.09	30.064
465.44	30.141
465.79	29.940
466.14	30.419
466.49	30.711
466.84	29.487
467.19	30.287
467.54	29.910
467.89	30.986
468.24	30.168
468.59	30.655
468.94	30.978
469.29	30.788
469.64	31.576
469.99	31.298
470.34	31.120
470.68	30.828
471.03	32.155
471.38	32.252
471.73	31.091
472.08	32.290
472.43	32.030
472.78	32.010
473.13	29.850
473.48	30.318
473.83	31.449
474.17	30.881
474.52	31.457
474.87	31.040
475.22	30.782
475.57	31.007
475.92	30.404
476.27	29.761
476.61	31.046
476.96	31.191
477.31	31.362
477.66	31.669
478.01	30.428
478.36	30.330
478.70	31.017
479.05	31.851
479.40	30.952
479.75	31.480
480.10	31.607
480.45	31.419
480.79	30.184
481.14	30.766
481.49	30.695
481.84	30.343
482.19	31.572
482.53	30.918
482.88	30.645
483.23	30.672
483.58	31.014
483.92	31.581
484.27	29.923
484.62	31.537
484.97	29.646
485.31	29.717
485.66	29.784
486.01	28.404
486.36	28.631
486.70	28.637
487.05	29.178
487.40	28.538
487.75	28.916
488.09	29.631
488.44	29.509
488.79	29.781
489.13	30.347
489.48	30.324
489.83	30.817
490.17	30.471
490.52	31.309
490.87	30.647
491.22	31.427
491.56	31.840
491.91	30.824
492.26	31.581
492.60	31.116
492.95	31.264
493.30	31.210
493.64	31.267
493.99	31.619
494.34	30.928
494.68	31.076
495.03	31.522
495.37	31.742
495.72	31.795
496.07	31.132
496.41	31.494
496.76	30.815
497.11	30.677
497.45	31.434
497.80	31.464
498.14	31.854
498.49	31.523
498.84	31.449
499.18	31.170
499.53	31.557
499.87	31.671
500.22	32.335
500.56	31.708
500.91	32.607
501.26	31.971
501.60	31.466
501.95	31.004
502.29	31.733
502.64	32.025
502.98	31.659
503.33	31.180
503.67	32.009
504.02	31.214
504.36	32.172
504.71	32.214
505.06	31.910
505.40	31.446
505.75	32.086
506.09	33.084
506.44	32.190
506.78	32.136
507.13	31.944
507.47	32.217
507.82	32.701
508.16	33.170
508.51	32.512
508.85	31.576
509.19	32.991
509.54	32.910
509.88	32.571
510.23	32.696
510.57	31.902
510.92	33.017
511.26	32.480
511.61	33.235
511.95	32.902
512.30	32.850
512.64	33.022
512.98	32.650
513.33	33.863
513.67	33.195
514.02	33.403
514.36	33.749
514.70	32.960
515.05	32.765
515.39	34.101
515.74	33.898
516.08	33.279
516.42	34.208
516.77	33.653
517.11	33.547
517.46	33.998
517.80	33.643
518.14	34.930
518.49	33.131
518.83	33.242
519.17	33.555
519.52	34.462
519.86	34.005
520.20	34.740
520.55	34.483
520.89	34.713
521.23	34.755
521.58	33.907
521.92	34.694
522.26	33.768
522.61	34.522
522.95	35.616
523.29	34.269
523.64	34.451
523.98	35.915
524.32	35.236
524.66	34.551
525.01	34.379
525.35	35.180
525.69	34.557
526.04	35.634
526.38	34.609
526.72	34.606
527.06	34.418
527.41	35.490
527.75	35.301
528.09	34.497
528.43	35.998
528.78	34.645
529.12	35.280
529.46	35.009
529.80	35.280
530.15	34.826
530.49	34.597
530.83	34.918
531.17	36.470
531.51	34.764
531.86	34.783
532.20	34.487
532.54	34.401
532.88	34.541
533.22	35.101
533.57	34.838
533.91	33.974
534.25	34.160
534.59	34.503
534.93	33.788
535.27	33.865
535.62	34.189
535.96	34.220
536.30	35.710
536.64	35.280
536.98	34.613
537.32	35.500
537.66	34.758
538.01	34.861
538.35	34.124
538.69	33.738
539.03	33.644
539.37	33.859
539.71	35.309
540.05	35.138
540.39	35.849
540.73	35.127
541.07	33.689
541.42	34.701
541.76	35.080
542.10	34.094
542.44	34.476
542.78	34.865
543.12	34.601
543.46	34.211
543.80	34.774
544.14	34.799
544.48	34.854
544.82	34.862
545.16	34.487
545.50	34.235
545.84	35.354
546.18	36.281
546.52	35.082
546.86	35.719
547.20	35.142
547.54	34.642
547.88	34.124
548.22	34.851
548.56	35.239
548.90	35.053
549.24	35.755
549.58	35.954
549.92	35.756
550.26	36.038
550.60	35.462
550.94	35.957
551.28	36.828
551.62	37.448
551.96	36.689
552.30	35.201
552.64	36.375
552.98	36.276
553.32	35.595
553.66	36.352
554.00	35.843
554.34	37.217
554.68	36.290
555.02	37.814
555.36	35.040
555.69	37.369
556.03	36.178
556.37	37.221
556.71	36.962
557.05	35.518
557.39	35.667
557.73	36.792
558.07	36.955
558.41	37.012
558.75	37.073
559.08	37.884
559.42	36.793
559.76	37.135
560.10	37.027
560.44	35.766
560.78	36.637
561.12	37.572
561.45	35.857
561.79	36.642
562.13	35.629
562.47	37.184
562.81	37.280
563.15	35.811
563.48	35.652
563.82	37.555
564.16	37.749
564.50	36.528
564.84	37.082
565.17	35.294
565.51	37.069
565.85	37.014
566.19	36.071
566.52	37.365
566.86	37.011
567.20	37.640
567.54	36.299
567.88	36.202
568.21	35.696
568.55	35.409
568.89	35.036
569.23	34.211
569.56	34.585
569.90	32.986
570.24	33.935
570.57	34.134
570.91	33.354
571.25	32.592
571.59	32.459
571.92	31.943
572.26	31.914
572.60	32.630
572.93	32.864
573.27	33.027
573.61	32.377
573.95	32.171
574.28	32.792
574.62	31.789
574.96	32.437
575.29	31.967
575.63	31.684
575.97	32.084
576.30	31.638
576.64	32.182
576.98	32.111
577.31	32.654
577.65	32.424
577.98	31.865
578.32	31.650
578.66	31.512
578.99	32.284
579.33	32.679
579.67	31.918
580.00	32.630
580.34	32.298
580.67	32.416
581.01	32.675
581.35	32.499
581.68	31.863
582.02	31.994
582.35	32.575
582.69	32.126
583.02	32.277
583.36	33.368
583.70	33.180
584.03	33.234
584.37	33.392
584.70	33.267
585.04	33.024
585.37	33.499
585.71	33.820
586.04	33.688
586.38	33.996
586.72	33.668
587.05	33.762
587.39	34.311
587.72	34.765
588.06	34.070
588.39	34.877
588.73	34.595
589.06	35.133
589.40	35.837
589.73	35.693
590.07	36.376
590.40	36.620
590.73	36.981
591.07	37.078
591.40	35.928
591.74	36.201
592.07	36.522
592.41	37.530
592.74	36.434
593.08	35.286
593.41	35.458
593.75	35.578
594.08	35.848
594.41	35.842
594.75	36.507
595.08	36.523
595.42	36.142
595.75	36.690
596.09	37.470
596.42	36.672
596.75	37.861
597.09	37.474
597.42	36.571
597.75	36.795
598.09	37.218
598.42	37.536
598.76	36.777
599.09	37.036
599.42	36.367
599.76	36.839
600.09	35.864
600.42	36.533
600.76	36.268
601.09	37.004
601.42	35.903
601.76	36.806
602.09	37.049
602.42	36.525
602.76	37.306
603.09	37.255
603.42	37.541
603.76	37.455
604.09	35.975
604.42	37.213
604.76	37.021
605.09	37.714
605.42	37.221
605.75	37.742
606.09	37.031
606.42	37.166
606.75	37.621
607.09	37.031
607.42	36.922
607.75	37.540
608.08	38.018
608.42	37.248
608.75	37.184
609.08	37.791
609.41	38.273
609.75	39.423
610.08	37.455
610.41	38.032
610.74	39.307
611.07	38.881
611.41	38.971
611.74	38.002
612.07	39.692
612.40	39.181
612.73	39.491
613.07	39.838
613.40	39.499
613.73	39.041
614.06	38.450
614.39	39.747
614.72	38.975
615.06	37.438
615.39	38.861
615.72	38.335
616.05	38.774
616.38	38.052
616.71	39.447
617.05	39.868
617.38	39.775
617.71	39.483
618.04	39.821
618.37	40.245
618.70	39.376
619.03	39.683
619.36	40.892
619.69	41.029
620.03	42.792
620.36	41.618
620.69	40.613
621.02	41.576
621.35	42.120
621.68	41.298
622.01	42.509
622.34	41.442
622.67	42.556
623.00	40.300
623.33	40.756
623.66	40.585
623.99	41.644
624.32	42.412
624.65	40.948
624.99	43.272
625.32	41.483
625.65	40.414
625.98	40.167
626.31	41.988
626.64	42.673
626.97	42.081
627.30	42.780
627.63	43.721
627.96	43.114
628.29	43.812
628.62	43.884
628.95	44.326
629.28	43.208
629.61	44.025
629.94	43.647
630.26	43.414
630.59	44.238
630.92	42.780
631.25	43.246
631.58	45.612
631.91	44.719
632.24	44.801
632.57	44.499
632.90	47.308
633.23	45.331
633.56	44.784
633.89	46.945
634.22	46.071
634.55	47.097
634.88	46.769
635.20	46.637
635.53	48.897
635.86	48.098
636.19	47.026
636.52	45.297
636.85	46.494
637.18	47.346
637.51	45.698
637.83	45.767
638.16	48.300
638.49	48.024
638.82	46.596
639.15	45.241
639.48	47.512
639.81	47.009
640.13	47.485
640.46	48.040
640.79	47.334
641.12	45.538
641.45	47.865
641.77	47.292
642.10	46.854
642.43	50.356
642.76	50.710
643.09	48.991
643.41	50.491
643.74	49.784
644.07	50.590
644.40	49.556
644.73	49.850
645.05	51.412
645.38	50.230
645.71	48.407
646.04	49.160
646.36	49.296
646.69	51.200
647.02	49.920
647.35	47.874
647.67	47.326
648.00	51.466
648.33	48.271
648.66	49.697
648.98	46.087
649.31	47.368
649.64	46.611
649.96	47.084
650.29	46.571
650.62	51.399
650.94	50.000
651.27	48.644
651.60	50.548
651.92	49.309
652.25	48.661
652.58	47.660
652.90	48.952
653.23	48.301
653.56	48.071
653.88	48.458
654.21	46.041
654.54	48.170
654.86	48.083
655.19	46.438
655.52	41.397
655.84	33.216
656.17	37.834
656.49	54.633
656.82	62.454
657.15	50.590
657.47	38.030
657.80	28.034
658.13	21.766
658.45	29.522
658.78	36.520
659.10	36.628
659.43	37.583
659.75	39.658
660.08	41.228
660.41	44.283
660.73	47.804
661.06	48.949
661.38	51.959
661.71	51.079
662.03	53.232
662.36	51.238
662.68	49.907
663.01	50.991
663.33	50.377
663.66	52.860
663.98	51.786
664.31	51.493
664.63	51.341
664.96	52.908
665.28	51.224
665.61	50.377
665.93	51.698
666.26	48.411
666.58	49.908
666.91	51.158
667.23	53.614
667.56	51.951
667.88	55.187
668.21	50.820
668.53	51.411
668.86	54.709
669.18	51.731
669.50	52.479
669.83	53.799
670.15	49.480
670.48	50.000
670.80	52.390
671.13	51.394
671.45	53.707
671.77	53.061
672.10	48.833
672.42	46.053
672.75	49.209
673.07	48.649
673.39	47.444
673.72	52.422
674.04	49.642
674.37	50.454
674.69	50.743
675.01	49.440
675.34	49.419
675.66	52.344
675.98	52.071
676.31	53.000
676.63	47.714
676.95	50.397
677.28	50.710
677.60	52.113
677.92	50.000
678.25	50.194
678.57	51.024
678.89	51.175
679.22	49.632
679.54	47.153
679.86	50.087
680.18	50.088
680.51	45.439
680.83	47.297
681.15	50.433
681.48	48.785
681.80	46.760
682.12	51.730
682.44	46.126
682.77	48.754
683.09	52.427
683.41	54.286
683.73	49.016
684.06	47.222
684.38	51.938
684.70	49.640
685.02	46.701
685.34	49.120
685.67	47.749
685.99	47.291
686.31	45.917
686.63	46.829
686.96	44.935
687.28	47.315
687.60	48.635
687.92	47.906
688.24	47.241
688.56	48.043
688.89	48.757
689.21	47.592
689.53	48.814
689.85	48.171
690.17	48.738
690.49	52.621
690.82	43.908
691.14	49.293
691.46	52.156
691.78	51.657
692.10	47.137
692.42	50.272
692.74	49.031
693.06	48.062
693.39	50.000
693.71	48.527
694.03	50.099
694.35	51.807
694.67	49.287
694.99	49.224
695.31	52.027
695.63	52.941
695.95	50.679
696.27	53.097
696.59	51.074
696.91	53.671
697.23	50.452
697.56	47.925
697.88	47.505
698.20	48.113
698.52	47.471
698.84	51.335
699.16	49.893
699.48	52.754
699.80	52.723
700.12	51.963
700.44	50.935
700.76	51.074
701.08	53.525
701.40	51.948
701.72	57.754
702.04	53.659
702.36	53.495
702.68	52.394
703.00	51.629
703.32	49.628
703.64	51.637
703.96	50.781
704.28	50.529
704.60	56.056
704.91	52.661
705.23	52.841
705.55	55.490
705.87	57.778
706.19	57.053
706.51	57.680
706.83	55.752
707.15	53.209
707.47	51.816
707.79	48.276
708.11	48.753
708.43	51.011
708.74	46.380
709.06	48.837
709.38	51.365
709.70	52.044
710.02	50.815
710.34	54.144
710.66	53.611
710.98	52.732
711.29	50.696
711.61	52.089
711.93	53.191
712.25	55.120
712.57	54.341
712.89	53.636
713.20	55.911
713.52	56.386
713.84	53.776
714.16	52.174
714.48	48.127
714.80	53.930
715.11	47.606
715.43	53.073
715.75	48.169
716.07	50.000
716.39	50.857
716.70	54.829
717.02	54.545
717.34	57.194
717.66	55.903
717.97	62.879
718.29	55.986
718.61	49.662
718.93	54.671
719.24	54.698
719.56	55.862
719.88	52.229
720.20	53.226
720.51	53.268
720.83	56.856
721.15	52.721
721.46	54.795
721.78	56.794
722.10	57.986
722.42	54.849
722.73	53.430
723.05	56.842
723.37	53.710
723.68	52.734
724.00	56.439
724.32	54.753
724.63	56.538
724.95	55.686
725.27	57.993
725.58	50.368
725.90	54.225
726.22	51.027
726.53	53.846
726.85	53.420
727.16	58.725
727.48	49.169
727.80	56.475
728.11	59.286
728.43	52.536
728.74	56.643
729.06	49.821
729.38	55.439
729.69	56.333
730.01	56.908
730.32	49.664
730.64	54.485
730.96	51.051
731.27	47.401
731.59	46.839
731.90	49.304
732.22	49.714
732.53	45.869
732.85	54.971
733.16	49.096
733.48	52.665
733.80	50.145
734.11	54.908
734.43	50.000
734.74	45.576
735.06	48.413
735.37	45.103
735.69	44.348
736.00	54.740
736.32	49.091
736.63	48.896
736.95	45.652
737.26	47.866
737.58	46.626
737.89	50.000
738.21	49.338
738.52	53.846
738.83	59.341
739.15	53.659
739.46	53.793
739.78	54.762
740.09	47.813
740.41	49.080
740.72	52.381
741.04	53.147
741.35	52.344
741.66	56.917
741.98	57.511
742.29	58.333
742.61	56.195
742.92	52.542
743.23	52.400
743.55	47.170
743.86	49.804
744.18	58.475
744.49	53.306
744.80	58.525
745.12	59.821
745.43	64.486
745.74	60.889
746.06	53.947
746.37	60.930
746.68	57.080
747.00	55.157
747.31	58.403
747.62	48.770
747.94	52.790
748.25	52.140
748.56	54.661
748.88	59.821
749.19	55.814
749.50	56.164
749.82	53.086
750.13	51.383
750.44	51.000
750.75	52.013
751.07	50.658
751.38	47.525
751.69	48.148
752.01	51.399
752.32	50.831
752.63	50.000
752.94	49.650
753.26	57.031
753.57	54.086
753.88	51.311
754.19	49.819
754.51	51.495
754.82	49.329
755.13	49.324
755.44	53.704
755.75	54.639
756.07	48.288
756.38	46.405
756.69	46.875
757.00	51.632
757.31	47.606
757.63	45.455
757.94	45.745
758.25	44.444
758.56	43.936
758.87	48.622
759.18	49.419
759.50	41.337
759.81	47.181
760.12	48.315
760.43	45.098
760.74	43.544
761.05	47.745
761.36	42.969
761.67	47.709
761.99	48.169
762.30	46.302
762.61	50.347
762.92	52.652
763.23	52.830
763.54	54.231
763.85	46.693
764.16	49.306
764.47	48.311
764.78	47.883
765.10	44.512
765.41	38.636
765.72	43.094
766.03	41.692
766.34	46.690
766.65	49.049
766.96	49.798
767.27	62.150
767.58	55.446
767.89	59.669
768.20	63.415
768.51	50.510
768.82	52.632
769.13	48.235
769.44	49.248
769.75	46.442
770.06	52.521
770.37	46.053
770.68	47.111
770.99	54.237
771.30	54.393
771.61	50.769
771.92	47.710
772.23	47.177
772.54	56.000
772.85	58.416
773.16	48.913
773.47	55.556
773.78	53.465
774.09	49.432
774.39	55.758
774.70	60.000
775.01	58.553
775.32	59.627
775.63	65.068
775.94	62.346
776.25	73.103
776.56	67.939
776.87	64.122
777.18	63.636
777.48	77.953
777.79	68.462
778.10	65.152
778.41	67.910
778.72	66.165
779.03	53.205
779.34	68.919
779.65	59.627
779.95	56.522
780.26	61.905
780.57	74.150
780.88	63.121
781.19	70.000
781.50	56.213
781.80	63.388
782.11	51.323
782.42	54.598
782.73	58.757
783.04	61.290
783.34	62.016
783.65	57.823
783.96	59.355
784.27	55.629
784.57	59.211
784.88	57.971
785.19	57.500
785.50	64.655
785.81	71.318
786.11	62.222
786.42	57.480
786.73	73.874
787.04	68.868
787.34	59.350
787.65	73.485
787.96	64.394
788.26	71.654
788.57	70.073
788.88	64.789
789.19	54.962
789.49	66.216
789.80	56.250
790.11	61.157
790.41	65.741
790.72	66.667
791.03	63.462
791.33	77.778
791.64	69.474
791.95	67.368
792.25	55.208
792.56	63.000
792.87	74.390
793.17	79.545
793.48	84.706
793.79	72.414
794.09	77.273
794.40	79.310
794.70	67.460
795.01	57.692
795.32	63.359
795.62	53.846
795.93	61.345
796.23	58.537
796.54	81.633
796.85	81.818
797.15	92.208
797.46	85.366
797.76	66.250
798.07	102.667
798.37	77.500
798.68	76.250
798.99	81.707
799.29	60.000
799.60	62.791
799.90	90.789
800.21	87.879
800.51	85.915
800.82	93.103
801.12	96.923
801.43	82.667
801.73	87.931
802.04	74.026
802.34	80.822
802.65	111.765
802.95	91.304
803.26	112.903
803.56	115.000
803.87	94.030
804.17	90.476
804.48	120.755
804.78	76.389
805.09	95.455
805.39	84.127
805.70	100.000
806.00	81.429
806.30	103.125
806.61	65.882
806.91	71.111
807.22	63.043
807.52	69.737
807.83	88.158
808.13	66.667
808.43	79.032
808.74	86.301
809.04	103.571
809.35	102.941
809.65	87.879
809.95	135.294
810.26	114.815
810.56	100.000
810.86	104.082
811.17	100.000
811.47	108.696
811.77	93.103
812.08	89.655
812.38	97.619
812.69	102.381
812.99	80.000
813.29	122.857
813.59	141.935
813.90	87.931
814.20	95.082
814.50	94.000
814.81	92.982
815.11	109.259
815.41	76.786
815.72	103.571
816.02	120.000
816.32	136.585
816.62	100.000
816.93	136.364
817.23	124.390
817.53	101.786
817.84	106.667
818.14	109.524
818.44	100.000
818.74	83.019
819.04	102.564
819.35	187.879
819.65	107.692
819.95	135.185
820.25	134.043
820.56	121.622
820.86	126.316
821.16	93.617
821.46	144.737
821.76	109.091
822.07	95.238
822.37	113.158
822.67	125.581
822.97	89.474
823.27	104.348
823.57	134.375
823.88	141.026
824.18	127.273
824.48	173.913
824.78	133.333
825.08	173.913
825.38	151.724
825.69	144.118
825.99	93.617
826.29	100.000
826.59	134.286
826.89	140.000
827.19	145.714
827.49	154.839
827.79	153.846
828.09	116.667
828.39	122.222
828.70	94.595
829.00	167.857
829.30	200.000
829.60	116.667
829.90	151.613
830.20	118.182
830.50	140.541
830.80	183.333
831.10	173.077
831.40	180.952
831.70	200.000
832.00	160.000
832.30	182.609
832.60	187.500
832.90	166.667
833.20	205.000
833.50	136.842
833.80	120.588
834.10	134.211
834.40	210.526
834.70	130.000
835.00	172.000
835.30	116.216
835.60	150.000
835.90	110.811
836.20	188.462
836.50	168.182
836.80	121.951
837.10	195.652
837.40	392.308
837.70	157.895
838.00	170.000
838.30	183.333
838.60	188.000
838.90	370.000
839.19	218.750
839.49	163.333
839.79	148.276
840.09	192.308
840.39	220.000
840.69	242.105
840.99	142.857
841.29	200.000
841.59	170.000
841.88	216.000
842.18	288.889
842.48	142.857
842.78	162.963
843.08	276.923
843.38	204.545
843.68	250.000
843.97	457.143
844.27	156.522
844.57	1350.000
844.87	335.714
845.17	272.222
845.47	166.667
845.76	183.333
846.06	542.857
846.36	194.118
846.66	307.692
846.96	256.250
847.25	253.846
847.55	147.368
847.85	211.111
848.15	600.000
848.44	300.000
848.74	171.429
849.04	183.333
849.34	194.118
849.63	281.250
849.93	231.250
850.23	1133.333
850.53	500.000
850.82	272.727
851.12	200.000
851.42	187.500
851.71	262.500
852.01	0.000
852.31	223.529
852.61	390.000
852.90	166.667
853.20	322.222
853.50	-2000.000
853.79	140.000
854.09	128.125
854.39	141.379
854.68	155.172
854.98	219.048
855.28	129.032
855.57	221.429
855.87	150.000
856.17	162.963
856.46	205.263
856.76	135.484
857.05	241.176
857.35	300.000
857.65	200.000
857.94	160.000
858.24	322.222
858.53	335.714
858.83	628.571
859.13	204.348
859.42	333.333
859.72	425.000
860.01	300.000
860.31	1000.000
860.60	390.000
860.90	275.000
861.20	246.154
861.49	371.429
861.79	-3400.000
862.08	471.429
862.38	333.333
862.67	214.286
862.97	410.000
863.26	163.333
863.56	650.000
863.85	307.692
864.15	282.353
864.44	172.222
864.74	350.000
865.03	327.273
865.33	487.500
865.62	226.667
865.92	566.667
866.21	900.000
866.51	760.000
866.80	238.889
867.10	766.667
867.39	3500.000
867.69	640.000
867.98	775.000
868.27	200.000
868.57	326.667
868.86	950.000
869.16	138.095
869.45	3000.000
869.75	-616.667
870.04	900.000
870.33	720.000
870.63	437.500
870.92	223.529
871.22	775.000
871.51	471.429
871.80	333.333
872.10	284.615
>>>>>End Processed Spectral Data<<<<<
