SpectraSuite Data File
++++++++++++++++++++++++++++++++++++
Date: Tue May 12 17:13:01 PDT 2015
User: schluterlab
Dark Spectrum Present: Yes
Reference Spectrum Present: Yes
Number of Sampled Component Spectra: 1
Spectrometers: USB2E3373
Integration Time (usec): 3000 (USB2E3373)
Spectra Averaged: 3 (USB2E3373)
Boxcar Smoothing: 0 (USB2E3373)
Correct for Electrical Dark: No (USB2E3373)
Strobe/Lamp Enabled: No (USB2E3373)
Correct for Detector Non-linearity: No (USB2E3373)
Correct for Stray Light: No (USB2E3373)
Number of Pixels in Processed Spectrum: 2048
>>>>>Begin Processed Spectral Data<<<<<
178.53	0.000
178.91	-183.333
179.29	-600.000
179.67	-3200.000
180.04	-126.667
180.42	700.000
180.80	1150.000
181.18	0.000
181.56	-337.500
181.94	0.000
182.31	900.000
182.69	-3400.000
183.07	442.857
183.45	-3100.000
183.83	-1150.000
184.20	360.000
184.58	357.143
184.96	-253.846
185.34	-233.333
185.72	1950.000
186.09	-825.000
186.47	-4000.000
186.85	966.667
187.23	500.000
187.61	1300.000
187.98	400.000
188.36	207.143
188.74	233.333
189.12	291.667
189.49	850.000
189.87	0.000
190.25	487.500
190.63	2000.000
191.00	-175.000
191.38	-3700.000
191.76	-725.000
192.14	525.000
192.51	-2200.000
192.89	1600.000
193.27	1200.000
193.65	-966.667
194.02	-680.000
194.40	557.143
194.78	-207.143
195.15	273.333
195.53	-2800.000
195.91	-420.000
196.29	3100.000
196.66	225.000
197.04	800.000
197.42	-1050.000
197.79	650.000
198.17	258.333
198.55	0.000
198.92	428.571
199.30	1033.333
199.68	1550.000
200.05	683.333
200.43	-416.667
200.81	188.889
201.18	3600.000
201.56	183.333
201.94	-675.000
202.31	-287.500
202.69	-440.000
203.07	2700.000
203.44	-450.000
203.82	275.000
204.19	500.000
204.57	-1200.000
204.95	-550.000
205.32	-600.000
205.70	516.667
206.08	700.000
206.45	-833.333
206.83	277.778
207.20	178.947
207.58	200.000
207.96	660.000
208.33	0.000
208.71	500.000
209.08	640.000
209.46	-2700.000
209.84	-750.000
210.21	820.000
210.59	-520.000
210.96	258.333
211.34	-950.000
211.71	418.182
212.09	900.000
212.46	1300.000
212.84	-500.000
213.22	344.444
213.59	-2500.000
213.97	300.000
214.34	1050.000
214.72	1266.667
215.09	1200.000
215.47	-3100.000
215.84	-260.000
216.22	-362.500
216.59	0.000
216.97	0.000
217.34	900.000
217.72	-1450.000
218.09	1133.333
218.47	312.500
218.84	775.000
219.22	1033.333
219.59	766.667
219.97	557.143
220.34	433.333
220.72	1350.000
221.09	3400.000
221.47	375.000
221.84	833.333
222.22	270.000
222.59	238.889
222.97	200.000
223.34	162.500
223.72	-1900.000
224.09	1200.000
224.46	276.923
224.84	-875.000
225.21	377.778
225.59	226.667
225.96	1200.000
226.34	-680.000
226.71	-625.000
227.08	-480.000
227.46	0.000
227.83	-600.000
228.21	-1900.000
228.58	308.333
228.95	975.000
229.33	366.667
229.70	1225.000
230.08	300.000
230.45	3100.000
230.82	-800.000
231.20	-766.667
231.57	-1033.333
231.95	540.000
232.32	275.000
232.69	516.667
233.07	241.667
233.44	-1650.000
233.81	246.667
234.19	144.444
234.56	218.750
234.93	205.882
235.31	185.000
235.68	262.500
236.05	139.286
236.43	148.148
236.80	264.286
237.17	151.724
237.55	131.250
237.92	90.000
238.29	115.152
238.67	140.625
239.04	107.317
239.41	89.583
239.79	105.000
240.16	85.417
240.53	68.852
240.91	88.406
241.28	88.136
241.65	68.182
242.02	80.282
242.40	74.286
242.77	60.440
243.14	49.367
243.51	62.626
243.89	65.421
244.26	55.140
244.63	56.436
245.00	61.468
245.38	42.373
245.75	50.758
246.12	65.185
246.49	48.227
246.87	45.082
247.24	48.667
247.61	48.750
247.98	55.102
248.36	47.273
248.73	44.388
249.10	49.405
249.47	49.000
249.84	43.781
250.22	43.243
250.59	42.000
250.96	40.084
251.33	44.186
251.70	47.768
252.08	42.017
252.45	40.637
252.82	38.403
253.19	37.945
253.56	44.231
253.94	39.855
254.31	47.287
254.68	40.767
255.05	38.621
255.42	39.416
255.79	40.065
256.16	40.339
256.54	41.234
256.91	42.157
257.28	41.472
257.65	37.931
258.02	34.808
258.39	42.120
258.76	39.130
259.14	34.857
259.51	44.898
259.88	41.033
260.25	36.264
260.62	42.466
260.99	35.537
261.36	37.047
261.73	36.702
262.10	38.482
262.47	35.000
262.85	36.533
263.22	37.018
263.59	37.596
263.96	38.346
264.33	36.049
264.70	37.346
265.07	38.537
265.44	35.550
265.81	39.387
266.18	35.698
266.55	35.934
266.92	34.228
267.29	37.500
267.66	35.650
268.03	37.220
268.40	37.421
268.77	37.885
269.14	32.755
269.51	36.080
269.88	35.510
270.25	34.125
270.62	35.408
270.99	35.700
271.36	35.569
271.73	35.849
272.10	35.960
272.47	35.714
272.84	34.531
273.21	35.331
273.58	36.842
273.95	33.265
274.32	34.825
274.69	37.795
275.06	34.791
275.43	35.441
275.80	33.585
276.17	36.029
276.54	34.766
276.91	35.261
277.28	31.387
277.65	35.055
278.02	33.824
278.39	33.813
278.76	35.172
279.13	33.274
279.50	32.545
279.87	33.147
280.23	35.359
280.60	35.766
280.97	34.828
281.34	33.498
281.71	33.913
282.08	33.846
282.45	30.743
282.82	34.615
283.19	32.750
283.56	31.074
283.92	34.202
284.29	33.611
284.66	31.429
285.03	33.167
285.40	31.570
285.77	29.784
286.14	32.198
286.51	33.436
286.87	31.013
287.24	32.733
287.61	32.675
287.98	29.552
288.35	32.000
288.72	31.563
289.08	30.330
289.45	34.299
289.82	32.188
290.19	31.479
290.56	34.061
290.93	29.928
291.29	30.939
291.66	31.215
292.03	30.996
292.40	30.759
292.77	30.641
293.13	31.669
293.50	29.420
293.87	28.997
294.24	30.070
294.60	30.821
294.97	31.049
295.34	28.951
295.71	29.304
296.08	30.533
296.44	31.639
296.81	29.901
297.18	29.151
297.55	28.818
297.91	29.557
298.28	29.106
298.65	30.061
299.02	29.674
299.38	31.055
299.75	30.732
300.12	30.161
300.48	31.499
300.85	31.824
301.22	29.535
301.59	29.599
301.95	30.105
302.32	29.686
302.69	29.977
303.05	28.620
303.42	30.830
303.79	31.094
304.15	30.033
304.52	29.915
304.89	29.211
305.25	30.590
305.62	30.810
305.99	31.739
306.35	31.158
306.72	29.865
307.09	31.056
307.45	29.461
307.82	29.835
308.19	30.515
308.55	30.500
308.92	31.698
309.29	30.671
309.65	31.715
310.02	31.542
310.38	30.608
310.75	30.665
311.12	29.981
311.48	31.660
311.85	32.538
312.22	33.047
312.58	31.001
312.95	32.233
313.31	32.022
313.68	32.552
314.05	33.333
314.41	31.471
314.78	33.902
315.14	33.175
315.51	34.532
315.87	33.212
316.24	33.987
316.61	33.124
316.97	33.303
317.34	34.951
317.70	34.680
318.07	35.231
318.43	34.007
318.80	35.464
319.16	34.703
319.53	35.664
319.89	35.573
320.26	38.082
320.62	35.897
320.99	36.797
321.35	34.787
321.72	38.615
322.08	37.673
322.45	38.147
322.81	37.786
323.18	39.343
323.54	39.808
323.91	40.345
324.27	38.992
324.64	39.965
325.00	41.466
325.37	40.809
325.73	41.821
326.10	42.088
326.46	42.775
326.83	41.040
327.19	42.088
327.56	41.853
327.92	43.934
328.29	43.535
328.65	44.349
329.01	43.541
329.38	43.909
329.74	43.296
330.11	45.526
330.47	44.842
330.84	42.709
331.20	43.993
331.56	45.164
331.93	44.654
332.29	43.282
332.66	45.068
333.02	44.244
333.38	43.979
333.75	43.870
334.11	45.638
334.48	46.325
334.84	43.919
335.20	45.766
335.57	44.752
335.93	43.566
336.29	43.449
336.66	46.312
337.02	43.627
337.38	43.508
337.75	43.159
338.11	45.654
338.47	44.115
338.84	43.607
339.20	44.416
339.56	44.828
339.93	44.064
340.29	42.185
340.65	44.174
341.02	42.961
341.38	44.499
341.74	44.518
342.11	43.740
342.47	43.642
342.83	45.775
343.20	42.603
343.56	43.527
343.92	44.013
344.28	44.258
344.65	45.069
345.01	44.206
345.37	43.830
345.73	44.444
346.10	44.064
346.46	44.099
346.82	41.127
347.19	44.436
347.55	44.106
347.91	43.051
348.27	43.455
348.63	44.383
349.00	43.869
349.36	44.669
349.72	43.196
350.08	44.177
350.45	43.945
350.81	43.272
351.17	43.683
351.53	43.803
351.89	42.813
352.26	43.991
352.62	43.363
352.98	43.865
353.34	43.837
353.70	43.196
354.07	44.462
354.43	43.241
354.79	42.521
355.15	45.253
355.51	44.411
355.87	44.428
356.24	44.573
356.60	44.064
356.96	42.987
357.32	43.632
357.68	44.420
358.04	44.073
358.40	43.328
358.77	43.952
359.13	44.369
359.49	43.810
359.85	44.899
360.21	44.131
360.57	44.380
360.93	45.960
361.29	43.795
361.66	44.743
362.02	43.111
362.38	44.444
362.74	45.789
363.10	45.863
363.46	43.646
363.82	43.899
364.18	44.381
364.54	44.707
364.90	45.382
365.26	45.108
365.62	45.166
365.98	43.565
366.35	44.483
366.71	44.691
367.07	45.256
367.43	43.586
367.79	44.614
368.15	44.437
368.51	44.590
368.87	43.410
369.23	44.283
369.59	45.786
369.95	45.734
370.31	44.490
370.67	44.899
371.03	46.148
371.39	46.053
371.75	46.406
372.11	44.935
372.47	45.342
372.83	45.615
373.19	45.442
373.55	45.086
373.91	45.787
374.27	45.238
374.63	44.949
374.99	46.092
375.35	45.901
375.71	46.108
376.07	45.557
376.42	45.269
376.78	45.986
377.14	47.313
377.50	45.194
377.86	45.099
378.22	46.435
378.58	47.215
378.94	45.021
379.30	46.452
379.66	45.876
380.02	46.393
380.38	45.316
380.74	46.136
381.09	46.495
381.45	44.798
381.81	45.922
382.17	44.567
382.53	46.551
382.89	46.422
383.25	47.010
383.61	46.110
383.97	44.511
384.32	46.172
384.68	47.178
385.04	46.542
385.40	46.501
385.76	45.641
386.12	46.630
386.48	46.383
386.83	46.027
387.19	45.583
387.55	45.465
387.91	46.363
388.27	46.698
388.62	46.420
388.98	45.423
389.34	45.152
389.70	45.047
390.06	46.463
390.42	46.391
390.77	45.086
391.13	44.418
391.49	45.191
391.85	45.846
392.20	45.948
392.56	46.117
392.92	45.536
393.28	45.404
393.64	44.839
393.99	45.525
394.35	44.438
394.71	44.632
395.07	44.404
395.42	45.902
395.78	45.898
396.14	45.241
396.50	44.525
396.85	44.695
397.21	46.450
397.57	44.172
397.92	44.310
398.28	45.008
398.64	45.084
399.00	44.308
399.35	44.337
399.71	44.481
400.07	43.779
400.42	45.433
400.78	43.930
401.14	44.745
401.49	44.873
401.85	45.307
402.21	44.933
402.57	44.225
402.92	44.727
403.28	44.212
403.63	42.554
403.99	43.607
404.35	45.018
404.70	44.418
405.06	44.133
405.42	44.524
405.77	43.660
406.13	43.764
406.49	44.059
406.84	44.050
407.20	43.037
407.55	44.492
407.91	45.246
408.27	43.542
408.62	43.051
408.98	43.051
409.34	42.431
409.69	42.875
410.05	42.397
410.40	43.404
410.76	43.331
411.11	43.009
411.47	42.778
411.83	43.175
412.18	42.874
412.54	43.604
412.89	42.655
413.25	42.987
413.60	44.217
413.96	44.524
414.31	43.093
414.67	44.879
415.03	43.678
415.38	43.659
415.74	44.220
416.09	44.597
416.45	44.926
416.80	44.644
417.16	42.839
417.51	43.121
417.87	43.492
418.22	44.775
418.58	44.713
418.93	43.962
419.29	43.130
419.64	45.124
420.00	44.869
420.35	44.948
420.71	44.574
421.06	43.496
421.42	44.675
421.77	44.031
422.12	45.424
422.48	43.400
422.83	45.257
423.19	44.762
423.54	45.036
423.90	45.696
424.25	45.625
424.61	46.198
424.96	45.624
425.31	45.813
425.67	46.465
426.02	45.597
426.38	45.333
426.73	46.848
427.09	47.034
427.44	46.820
427.79	47.113
428.15	47.201
428.50	47.886
428.85	46.914
429.21	47.002
429.56	46.311
429.92	47.489
430.27	46.057
430.62	47.186
430.98	45.559
431.33	47.026
431.68	46.173
432.04	47.543
432.39	46.707
432.74	47.951
433.10	48.339
433.45	48.765
433.80	48.814
434.16	47.819
434.51	48.916
434.86	48.775
435.22	48.352
435.57	48.014
435.92	48.492
436.28	48.560
436.63	48.676
436.98	49.662
437.34	48.744
437.69	48.824
438.04	48.817
438.39	48.628
438.75	48.274
439.10	49.541
439.45	48.163
439.81	48.236
440.16	48.872
440.51	48.480
440.86	50.313
441.22	48.052
441.57	48.924
441.92	49.408
442.27	49.639
442.63	49.187
442.98	49.192
443.33	48.420
443.68	48.491
444.03	48.209
444.39	49.011
444.74	48.706
445.09	49.605
445.44	49.256
445.79	49.172
446.15	49.263
446.50	48.892
446.85	49.851
447.20	48.856
447.55	50.027
447.91	50.240
448.26	50.266
448.61	51.410
448.96	50.654
449.31	50.055
449.66	49.834
450.02	49.325
450.37	51.694
450.72	49.862
451.07	50.553
451.42	49.437
451.77	51.088
452.12	51.049
452.47	50.304
452.83	50.873
453.18	50.931
453.53	50.207
453.88	50.857
454.23	50.784
454.58	50.932
454.93	50.828
455.28	51.040
455.63	50.946
455.98	48.844
456.34	51.793
456.69	51.159
457.04	51.671
457.39	50.400
457.74	51.689
458.09	50.309
458.44	49.671
458.79	50.345
459.14	50.573
459.49	50.057
459.84	50.598
460.19	49.322
460.54	50.427
460.89	51.226
461.24	49.427
461.59	51.304
461.94	50.414
462.29	51.201
462.64	51.570
462.99	51.184
463.34	50.292
463.69	50.575
464.04	50.720
464.39	50.830
464.74	50.996
465.09	50.435
465.44	50.000
465.79	49.809
466.14	49.020
466.49	50.624
466.84	49.275
467.19	49.736
467.54	49.850
467.89	50.587
468.24	49.508
468.59	50.833
468.94	50.060
469.29	49.725
469.64	50.225
469.99	50.835
470.34	49.905
470.68	50.621
471.03	52.035
471.38	50.199
471.73	51.143
472.08	51.924
472.43	51.273
472.78	51.344
473.13	50.876
473.48	50.061
473.83	48.940
474.17	50.578
474.52	49.467
474.87	48.948
475.22	50.314
475.57	49.318
475.92	49.821
476.27	49.184
476.61	49.223
476.96	49.739
477.31	50.746
477.66	50.725
478.01	49.819
478.36	50.154
478.70	49.926
479.05	48.902
479.40	49.107
479.75	48.908
480.10	50.678
480.45	48.413
480.79	49.724
481.14	48.740
481.49	48.490
481.84	48.461
482.19	48.646
482.53	47.738
482.88	48.163
483.23	48.083
483.58	48.788
483.92	49.954
484.27	47.988
484.62	48.854
484.97	47.643
485.31	46.250
485.66	45.045
486.01	44.810
486.36	43.778
486.70	44.337
487.05	45.340
487.40	45.085
487.75	46.032
488.09	45.398
488.44	46.526
488.79	46.893
489.13	47.816
489.48	47.823
489.83	47.039
490.17	47.523
490.52	48.234
490.87	48.534
491.22	49.158
491.56	48.924
491.91	48.297
492.26	47.884
492.60	48.474
492.95	49.479
493.30	48.635
493.64	47.529
493.99	47.809
494.34	48.409
494.68	48.163
495.03	48.271
495.37	48.402
495.72	48.625
496.07	48.113
496.41	47.871
496.76	47.953
497.11	48.372
497.45	47.260
497.80	48.424
498.14	47.342
498.49	46.936
498.84	48.364
499.18	47.852
499.53	48.369
499.87	47.260
500.22	48.549
500.56	48.050
500.91	47.820
501.26	48.048
501.60	46.995
501.95	46.729
502.29	47.067
502.64	46.581
502.98	46.687
503.33	46.949
503.67	47.064
504.02	45.947
504.36	46.154
504.71	47.871
505.06	46.879
505.40	46.373
505.75	46.819
506.09	47.830
506.44	47.086
506.78	47.117
507.13	48.279
507.47	46.822
507.82	47.348
508.16	48.898
508.51	46.812
508.85	46.296
509.19	46.941
509.54	46.289
509.88	47.737
510.23	46.667
510.57	45.753
510.92	46.803
511.26	47.239
511.61	46.824
511.95	46.640
512.30	46.450
512.64	46.106
512.98	47.155
513.33	47.234
513.67	47.333
514.02	46.701
514.36	47.352
514.70	46.667
515.05	48.002
515.39	47.752
515.74	47.840
516.08	47.168
516.42	47.869
516.77	47.893
517.11	47.467
517.46	47.144
517.80	47.406
518.14	47.437
518.49	47.078
518.83	46.703
519.17	47.310
519.52	47.570
519.86	47.520
520.20	47.671
520.55	46.410
520.89	47.759
521.23	47.430
521.58	47.562
521.92	47.230
522.26	47.097
522.61	47.831
522.95	48.589
523.29	46.842
523.64	45.780
523.98	48.239
524.32	45.675
524.66	47.536
525.01	46.982
525.35	47.496
525.69	47.682
526.04	46.817
526.38	46.263
526.72	46.659
527.06	46.895
527.41	47.098
527.75	45.892
528.09	45.756
528.43	47.102
528.78	47.227
529.12	48.585
529.46	46.639
529.80	46.086
530.15	45.492
530.49	45.307
530.83	46.801
531.17	45.141
531.51	46.658
531.86	44.746
532.20	45.241
532.54	46.955
532.88	45.534
533.22	45.277
533.57	46.248
533.91	44.639
534.25	44.432
534.59	45.263
534.93	44.141
535.27	43.597
535.62	44.691
535.96	43.972
536.30	46.313
536.64	44.596
536.98	45.500
537.32	44.000
537.66	44.643
538.01	45.944
538.35	45.540
538.69	42.900
539.03	44.900
539.37	44.053
539.71	44.877
540.05	44.677
540.39	44.340
540.73	44.051
541.07	43.664
541.42	44.465
541.76	44.020
542.10	43.218
542.44	45.200
542.78	45.060
543.12	43.129
543.46	43.045
543.80	44.361
544.14	45.387
544.48	43.674
544.82	44.587
545.16	42.319
545.50	44.376
545.84	44.003
546.18	45.514
546.52	43.934
546.86	44.358
547.20	42.636
547.54	43.192
547.88	43.370
548.22	43.412
548.56	42.074
548.90	41.993
549.24	44.157
549.58	43.492
549.92	44.466
550.26	44.625
550.60	42.981
550.94	44.980
551.28	46.552
551.62	44.552
551.96	43.851
552.30	42.980
552.64	44.466
552.98	42.397
553.32	42.190
553.66	43.388
554.00	44.080
554.34	44.208
554.68	43.884
555.02	44.942
555.36	42.021
555.69	43.128
556.03	43.312
556.37	43.276
556.71	43.677
557.05	42.202
557.39	41.733
557.73	42.857
558.07	42.589
558.41	44.277
558.75	43.502
559.08	44.174
559.42	43.450
559.76	45.260
560.10	43.014
560.44	43.331
560.78	43.159
561.12	42.212
561.45	42.365
561.79	42.509
562.13	40.619
562.47	43.024
562.81	41.835
563.15	42.340
563.48	40.435
563.82	42.857
564.16	42.848
564.50	40.627
564.84	41.884
565.17	42.484
565.51	42.980
565.85	42.258
566.19	41.250
566.52	42.178
566.86	42.615
567.20	41.180
567.54	40.939
567.88	42.462
568.21	39.491
568.55	39.737
568.89	40.055
569.23	38.697
569.56	38.898
569.90	37.765
570.24	37.785
570.57	37.638
570.91	37.598
571.25	36.833
571.59	35.956
571.92	36.733
572.26	36.092
572.60	36.518
572.93	36.515
573.27	37.019
573.61	35.517
573.95	36.628
574.28	36.161
574.62	35.212
574.96	35.488
575.29	35.454
575.63	34.841
575.97	34.761
576.30	35.004
576.64	35.198
576.98	35.686
577.31	36.148
577.65	35.319
577.98	34.924
578.32	34.410
578.66	34.720
578.99	34.823
579.33	35.228
579.67	34.757
580.00	35.336
580.34	34.712
580.67	34.787
581.01	35.330
581.35	34.844
581.68	33.888
582.02	34.311
582.35	34.332
582.69	34.512
583.02	34.510
583.36	35.562
583.70	34.955
584.03	35.521
584.37	35.033
584.70	34.835
585.04	34.452
585.37	34.806
585.71	35.461
586.04	34.705
586.38	35.169
586.72	35.804
587.05	35.229
587.39	35.348
587.72	35.277
588.06	35.610
588.39	34.877
588.73	35.740
589.06	35.775
589.40	36.025
589.73	35.759
590.07	36.307
590.40	35.714
590.73	37.422
591.07	37.419
591.40	36.846
591.74	37.216
592.07	35.857
592.41	36.811
592.74	35.884
593.08	35.514
593.41	35.308
593.75	35.695
594.08	35.448
594.41	35.191
594.75	36.164
595.08	35.700
595.42	35.813
595.75	35.472
596.09	36.079
596.42	35.761
596.75	36.979
597.09	37.061
597.42	35.796
597.75	36.471
598.09	36.767
598.42	35.577
598.76	36.006
599.09	36.190
599.42	35.156
599.76	35.448
600.09	34.746
600.42	35.532
600.76	34.942
601.09	35.485
601.42	34.882
601.76	36.162
602.09	35.283
602.42	35.490
602.76	35.370
603.09	36.086
603.42	35.890
603.76	35.286
604.09	35.288
604.42	35.443
604.76	35.994
605.09	35.714
605.42	36.083
605.75	35.531
606.09	36.458
606.42	35.438
606.75	36.106
607.09	35.492
607.42	35.677
607.75	35.549
608.08	35.053
608.42	36.158
608.75	35.516
609.08	36.692
609.41	36.727
609.75	36.676
610.08	36.960
610.41	35.705
610.74	35.931
611.07	36.880
611.41	36.145
611.74	36.998
612.07	36.753
612.40	36.793
612.73	36.795
613.07	36.645
613.40	37.043
613.73	37.344
614.06	36.100
614.39	36.717
614.72	36.012
615.06	36.251
615.39	35.891
615.72	35.721
616.05	36.816
616.38	35.363
616.71	36.951
617.05	35.750
617.38	37.022
617.71	37.402
618.04	36.343
618.37	36.465
618.70	37.356
619.03	37.973
619.36	39.133
619.69	37.599
620.03	38.030
620.36	37.508
620.69	37.676
621.02	38.111
621.35	38.109
621.68	38.864
622.01	39.557
622.34	38.165
622.67	38.904
623.00	37.440
623.33	38.124
623.66	37.591
623.99	38.699
624.32	37.805
624.65	37.591
624.99	37.863
625.32	38.677
625.65	36.690
625.98	37.238
626.31	39.614
626.64	38.952
626.97	38.026
627.30	39.053
627.63	38.776
627.96	37.715
628.29	39.934
628.62	39.949
628.95	39.628
629.28	41.104
629.61	39.104
629.94	39.067
630.26	40.641
630.59	40.691
630.92	39.731
631.25	41.070
631.58	40.309
631.91	40.913
632.24	39.942
632.57	40.766
632.90	42.340
633.23	42.392
633.56	41.412
633.89	42.765
634.22	41.658
634.55	41.398
634.88	42.935
635.20	41.704
635.53	43.322
635.86	42.282
636.19	41.302
636.52	41.405
636.85	40.561
637.18	40.737
637.51	42.235
637.83	40.961
638.16	43.728
638.49	42.874
638.82	44.131
639.15	41.246
639.48	43.128
639.81	42.491
640.13	43.436
640.46	43.489
640.79	40.702
641.12	43.307
641.45	42.561
641.77	42.668
642.10	42.035
642.43	43.385
642.76	42.472
643.09	44.524
643.41	42.076
643.74	45.468
644.07	43.805
644.40	44.231
644.73	45.796
645.05	43.388
645.38	44.410
645.71	42.489
646.04	45.954
646.36	43.036
646.69	44.320
647.02	45.120
647.35	42.362
647.67	45.057
648.00	45.928
648.33	43.759
648.66	44.091
648.98	42.754
649.31	41.700
649.64	41.632
649.96	41.821
650.29	41.286
650.62	43.594
650.94	44.729
651.27	45.455
651.60	43.192
651.92	43.011
652.25	42.992
652.58	41.844
652.90	42.814
653.23	40.325
653.56	40.208
653.88	43.612
654.21	41.642
654.54	42.460
654.86	41.593
655.19	40.633
655.52	35.349
655.84	28.058
656.17	32.581
656.49	47.335
656.82	54.069
657.15	43.573
657.47	32.813
657.80	24.274
658.13	18.950
658.45	25.888
658.78	31.433
659.10	32.053
659.43	32.786
659.75	34.882
660.08	36.216
660.41	38.657
660.73	41.907
661.06	43.243
661.38	44.463
661.71	43.885
662.03	43.536
662.36	45.333
662.68	45.438
663.01	46.667
663.33	45.660
663.66	43.393
663.98	45.238
664.31	46.269
664.63	44.636
664.96	44.653
665.28	40.301
665.61	41.132
665.93	45.283
666.26	47.664
666.58	45.321
666.91	44.788
667.23	45.181
667.56	46.612
667.88	47.095
668.21	46.721
668.53	46.774
668.86	42.485
669.18	46.232
669.50	42.562
669.83	46.201
670.15	44.491
670.48	42.578
670.80	44.422
671.13	43.825
671.45	44.890
671.77	41.558
672.10	41.831
672.42	39.967
672.75	40.506
673.07	41.017
673.39	40.256
673.72	41.349
674.04	41.756
674.37	44.646
674.69	42.565
675.01	41.791
675.34	40.504
675.66	43.945
675.98	43.984
676.31	44.600
676.63	43.738
676.95	43.452
677.28	44.625
677.60	45.875
677.92	41.071
678.25	44.767
678.57	43.389
678.89	44.304
679.22	39.522
679.54	42.705
679.86	41.536
680.18	41.652
680.51	39.635
680.83	39.358
681.15	42.981
681.48	40.799
681.80	40.105
682.12	41.176
682.44	41.261
682.77	43.416
683.09	43.689
683.41	44.694
683.73	42.913
684.06	46.032
684.38	40.504
684.70	43.165
685.02	42.361
685.34	42.430
685.67	41.158
685.99	39.737
686.31	39.753
686.63	40.488
686.96	42.810
687.28	39.597
687.60	39.932
687.92	39.698
688.24	42.241
688.56	41.281
688.89	39.197
689.21	42.775
689.53	42.688
689.85	43.699
690.17	42.136
690.49	41.935
690.82	39.706
691.14	44.040
691.46	43.532
691.78	43.080
692.10	40.458
692.42	39.201
692.74	41.473
693.06	43.605
693.39	41.107
693.71	42.240
694.03	42.209
694.35	42.570
694.67	43.992
694.99	41.020
695.31	43.919
695.63	43.665
695.95	44.796
696.27	45.796
696.59	42.005
696.91	43.544
697.23	43.665
697.56	39.212
697.88	37.525
698.20	41.509
698.52	36.770
698.84	44.559
699.16	40.085
699.48	42.373
699.80	44.444
700.12	43.649
700.44	40.654
700.76	45.585
701.08	46.475
701.40	44.416
701.72	48.663
702.04	46.883
702.36	46.505
702.68	46.011
703.00	42.105
703.32	44.913
703.64	45.592
703.96	42.708
704.28	43.915
704.60	45.915
704.91	46.499
705.23	42.614
705.55	48.665
705.87	46.032
706.19	47.962
706.51	48.589
706.83	47.198
707.15	45.989
707.47	43.584
707.79	41.379
708.11	40.363
708.43	42.472
708.74	40.950
709.06	40.000
709.38	46.898
709.70	43.052
710.02	40.217
710.34	41.160
710.66	41.944
710.98	46.995
711.29	45.125
711.61	45.961
711.93	46.505
712.25	43.373
712.57	48.875
712.89	50.000
713.20	44.728
713.52	43.614
713.84	44.411
714.16	43.768
714.48	41.499
714.80	44.173
715.11	42.021
715.43	43.575
715.75	43.944
716.07	42.197
716.39	42.286
716.70	41.433
717.02	44.781
717.34	48.201
717.66	47.569
717.97	54.167
718.29	46.831
718.61	42.905
718.93	49.135
719.24	43.960
719.56	46.207
719.88	40.764
720.20	42.903
720.51	41.176
720.83	45.151
721.15	44.218
721.46	48.973
721.78	46.690
722.10	43.750
722.42	45.485
722.73	47.653
723.05	44.211
723.37	46.643
723.68	45.703
724.00	50.379
724.32	48.289
724.63	47.692
724.95	49.412
725.27	46.840
725.58	46.324
725.90	42.254
726.22	45.205
726.53	45.819
726.85	46.580
727.16	43.960
727.48	42.525
727.80	48.201
728.11	44.643
728.43	45.290
728.74	46.154
729.06	45.161
729.38	50.526
729.69	47.333
730.01	45.066
730.32	46.980
730.64	45.847
730.96	42.643
731.27	41.590
731.59	37.931
731.90	41.504
732.22	40.000
732.53	37.607
732.85	41.813
733.16	43.072
733.48	42.947
733.80	41.449
734.11	42.945
734.43	40.058
734.74	39.946
735.06	43.122
735.37	37.113
735.69	41.739
736.00	44.343
736.32	41.515
736.63	41.956
736.95	41.304
737.26	43.902
737.58	42.945
737.89	39.759
738.21	44.371
738.52	49.164
738.83	49.084
739.15	42.857
739.46	42.759
739.78	41.156
740.09	44.606
740.41	42.025
740.72	45.079
741.04	47.902
741.35	48.828
741.66	48.221
741.98	45.923
742.29	47.222
742.61	48.230
742.92	43.644
743.23	44.800
743.55	41.509
743.86	44.314
744.18	47.881
744.49	51.240
744.80	48.848
745.12	48.214
745.43	55.140
745.74	49.333
746.06	46.491
746.37	47.907
746.68	51.327
747.00	47.085
747.31	42.857
747.62	46.311
747.94	48.069
748.25	43.580
748.56	50.847
748.88	46.875
749.19	50.233
749.50	43.836
749.82	46.091
750.13	47.826
750.44	39.000
750.75	43.289
751.07	43.092
751.38	41.914
751.69	38.384
752.01	45.804
752.32	41.196
752.63	41.275
752.94	45.105
753.26	48.047
753.57	43.969
753.88	46.067
754.19	42.238
754.51	44.518
754.82	37.248
755.13	42.230
755.44	44.074
755.75	42.955
756.07	44.521
756.38	42.810
756.69	42.188
757.00	42.730
757.31	41.972
757.63	39.945
757.94	39.894
758.25	37.681
758.56	37.757
758.87	38.095
759.18	41.570
759.50	39.514
759.81	38.576
760.12	41.292
760.43	40.056
760.74	39.747
761.05	39.788
761.36	36.719
761.67	38.275
761.99	38.592
762.30	41.479
762.61	42.361
762.92	41.667
763.23	44.528
763.54	44.231
763.85	40.856
764.16	42.014
764.47	41.554
764.78	38.762
765.10	38.110
765.41	37.500
765.72	36.740
766.03	37.160
766.34	42.857
766.65	42.205
766.96	46.154
767.27	46.729
767.58	49.010
767.89	49.724
768.20	58.537
768.51	47.959
768.82	45.614
769.13	44.314
769.44	40.226
769.75	39.326
770.06	45.378
770.37	40.351
770.68	44.444
770.99	43.220
771.30	50.628
771.61	46.154
771.92	44.656
772.23	35.081
772.54	47.556
772.85	50.990
773.16	49.457
773.47	51.111
773.78	45.050
774.09	53.409
774.39	47.273
774.70	45.882
775.01	46.711
775.32	45.342
775.63	63.014
775.94	50.617
776.25	60.690
776.56	63.359
776.87	58.015
777.18	56.061
777.48	55.906
777.79	56.154
778.10	58.333
778.41	60.448
778.72	48.120
779.03	50.000
779.34	54.730
779.65	55.901
779.95	50.311
780.26	50.595
780.57	60.544
780.88	56.738
781.19	59.167
781.50	49.704
781.80	55.191
782.11	50.794
782.42	44.828
782.73	47.458
783.04	45.161
783.34	53.488
783.65	51.020
783.96	50.968
784.27	43.046
784.57	47.368
784.88	52.899
785.19	50.833
785.50	62.069
785.81	58.915
786.11	59.259
786.42	55.118
786.73	62.162
787.04	64.151
787.34	51.220
787.65	63.636
787.96	59.848
788.26	60.630
788.57	64.964
788.88	50.704
789.19	54.198
789.49	54.054
789.80	50.000
790.11	50.413
790.41	53.704
790.72	55.556
791.03	58.654
791.33	76.768
791.64	71.579
791.95	61.053
792.25	53.125
792.56	63.000
792.87	70.732
793.17	75.000
793.48	64.706
793.79	73.563
794.09	71.591
794.40	58.621
794.70	50.794
795.01	55.385
795.32	58.015
795.62	55.556
795.93	63.025
796.23	52.033
796.54	61.224
796.85	68.182
797.15	87.013
797.46	87.805
797.76	73.750
798.07	77.333
798.37	73.750
798.68	76.250
798.99	82.927
799.29	65.333
799.60	53.488
799.90	78.947
800.21	84.848
800.51	73.239
800.82	86.207
801.12	87.692
801.43	86.667
801.73	68.966
802.04	81.818
802.34	69.863
802.65	98.039
802.95	71.739
803.26	95.161
803.56	115.000
803.87	88.060
804.17	76.190
804.48	92.453
804.78	63.889
805.09	63.636
805.39	77.778
805.70	101.754
806.00	81.429
806.30	90.625
806.61	74.118
806.91	81.111
807.22	61.957
807.52	80.263
807.83	76.316
808.13	84.058
808.43	88.710
808.74	84.932
809.04	91.071
809.35	95.588
809.65	89.394
809.95	88.235
810.26	111.111
810.56	79.688
810.86	102.041
811.17	84.211
811.47	86.957
811.77	81.034
812.08	68.966
812.38	109.524
812.69	119.048
812.99	102.222
813.29	140.000
813.59	151.613
813.90	77.586
814.20	80.328
814.50	100.000
814.81	75.439
815.11	124.074
815.41	87.500
815.72	85.714
816.02	96.000
816.32	82.927
816.62	96.552
816.93	103.030
817.23	112.195
817.53	101.786
817.84	91.111
818.14	95.238
818.44	91.667
818.74	94.340
819.04	100.000
819.35	169.697
819.65	101.923
819.95	120.370
820.25	121.277
820.56	132.432
820.86	97.368
821.16	87.234
821.46	115.789
821.76	98.182
822.07	76.190
822.37	105.263
822.67	139.535
822.97	113.158
823.27	117.391
823.57	121.875
823.88	110.256
824.18	121.212
824.48	65.217
824.78	125.000
825.08	160.870
825.38	110.345
825.69	97.059
825.99	74.468
826.29	83.333
826.59	128.571
826.89	173.333
827.19	125.714
827.49	129.032
827.79	161.538
828.09	80.952
828.39	125.000
828.70	97.297
829.00	142.857
829.30	243.750
829.60	119.444
829.90	145.161
830.20	93.939
830.50	113.514
830.80	145.833
831.10	165.385
831.40	152.381
831.70	200.000
832.00	110.000
832.30	165.217
832.60	162.500
832.90	151.515
833.20	175.000
833.50	131.579
833.80	100.000
834.10	113.158
834.40	205.263
834.70	130.000
835.00	180.000
835.30	100.000
835.60	156.250
835.90	105.405
836.20	173.077
836.50	127.273
836.80	117.073
837.10	104.348
837.40	300.000
837.70	136.842
838.00	156.667
838.30	175.000
838.60	124.000
838.90	380.000
839.19	150.000
839.49	123.333
839.79	131.034
840.09	134.615
840.39	193.333
840.69	152.632
840.99	133.333
841.29	173.913
841.59	215.000
841.88	156.000
842.18	366.667
842.48	157.143
842.78	151.852
843.08	176.923
843.38	168.182
843.68	228.571
843.97	485.714
844.27	178.261
844.57	1850.000
844.87	257.143
845.17	200.000
845.47	133.333
845.76	158.333
846.06	542.857
846.36	205.882
846.66	238.462
846.96	193.750
847.25	230.769
847.55	194.737
847.85	188.889
848.15	580.000
848.44	254.545
848.74	128.571
849.04	183.333
849.34	200.000
849.63	225.000
849.93	250.000
850.23	833.333
850.53	425.000
850.82	272.727
851.12	182.353
851.42	183.333
851.71	243.750
852.01	0.000
852.31	282.353
852.61	330.000
852.90	150.000
853.20	244.444
853.50	-2600.000
853.79	144.000
854.09	128.125
854.39	110.345
854.68	155.172
854.98	176.190
855.28	112.903
855.57	264.286
855.87	222.222
856.17	133.333
856.46	210.526
856.76	116.129
857.05	200.000
857.35	281.818
857.65	246.154
857.94	130.000
858.24	266.667
858.53	285.714
858.83	542.857
859.13	195.652
859.42	366.667
859.72	400.000
860.01	283.333
860.31	875.000
860.60	340.000
860.90	312.500
861.20	223.077
861.49	514.286
861.79	-3800.000
862.08	500.000
862.38	377.778
862.67	214.286
862.97	360.000
863.26	126.667
863.56	600.000
863.85	300.000
864.15	205.882
864.44	144.444
864.74	375.000
865.03	309.091
865.33	387.500
865.62	226.667
865.92	433.333
866.21	850.000
866.51	600.000
866.80	188.889
867.10	900.000
867.39	3800.000
867.69	540.000
867.98	675.000
868.27	147.619
868.57	193.333
868.86	875.000
869.16	133.333
869.45	2400.000
869.75	-600.000
870.04	700.000
870.33	500.000
870.63	462.500
870.92	247.059
871.22	800.000
871.51	328.571
871.80	341.667
872.10	369.231
>>>>>End Processed Spectral Data<<<<<
