SpectraSuite Data File
++++++++++++++++++++++++++++++++++++
Date: Tue May 12 16:52:18 PDT 2015
User: schluterlab
Dark Spectrum Present: Yes
Reference Spectrum Present: Yes
Number of Sampled Component Spectra: 1
Spectrometers: USB2E3373
Integration Time (usec): 3000 (USB2E3373)
Spectra Averaged: 3 (USB2E3373)
Boxcar Smoothing: 0 (USB2E3373)
Correct for Electrical Dark: No (USB2E3373)
Strobe/Lamp Enabled: No (USB2E3373)
Correct for Detector Non-linearity: No (USB2E3373)
Correct for Stray Light: No (USB2E3373)
Number of Pixels in Processed Spectrum: 2048
>>>>>Begin Processed Spectral Data<<<<<
178.53	0.000
178.91	-216.667
179.29	-725.000
179.67	-3600.000
180.04	-120.000
180.42	375.000
180.80	1700.000
181.18	0.000
181.56	-262.500
181.94	0.000
182.31	1200.000
182.69	-3500.000
183.07	685.714
183.45	-2800.000
183.83	-2400.000
184.20	450.000
184.58	428.571
184.96	-207.692
185.34	-275.000
185.72	1800.000
186.09	-850.000
186.47	-3400.000
186.85	733.333
187.23	600.000
187.61	1350.000
187.98	537.500
188.36	235.714
188.74	350.000
189.12	441.667
189.49	950.000
189.87	0.000
190.25	525.000
190.63	2800.000
191.00	-225.000
191.38	-4100.000
191.76	-900.000
192.14	712.500
192.51	-3000.000
192.89	2300.000
193.27	1233.333
193.65	-1000.000
194.02	-660.000
194.40	500.000
194.78	-264.286
195.15	273.333
195.53	-3500.000
195.91	-800.000
196.29	3000.000
196.66	212.500
197.04	825.000
197.42	-950.000
197.79	725.000
198.17	266.667
198.55	0.000
198.92	457.143
199.30	1066.667
199.68	2150.000
200.05	666.667
200.43	-400.000
200.81	211.111
201.18	3900.000
201.56	275.000
201.94	-775.000
202.31	-400.000
202.69	-580.000
203.07	3100.000
203.44	-483.333
203.82	325.000
204.19	760.000
204.57	-1450.000
204.95	-675.000
205.32	-700.000
205.70	583.333
206.08	825.000
206.45	-933.333
206.83	466.667
207.20	163.158
207.58	308.333
207.96	640.000
208.33	0.000
208.71	600.000
209.08	660.000
209.46	-3300.000
209.84	-725.000
210.21	720.000
210.59	-540.000
210.96	241.667
211.34	-1000.000
211.71	427.273
212.09	775.000
212.46	1850.000
212.84	-216.667
213.22	366.667
213.59	-2900.000
213.97	430.000
214.34	950.000
214.72	966.667
215.09	766.667
215.47	-2400.000
215.84	-410.000
216.22	-312.500
216.59	0.000
216.97	0.000
217.34	1550.000
217.72	-1050.000
218.09	1200.000
218.47	312.500
218.84	725.000
219.22	1000.000
219.59	833.333
219.97	400.000
220.34	288.889
220.72	1550.000
221.09	2600.000
221.47	216.667
221.84	1166.667
222.22	270.000
222.59	266.667
222.97	257.143
223.34	262.500
223.72	-1550.000
224.09	1000.000
224.46	276.923
224.84	-750.000
225.21	366.667
225.59	340.000
225.96	1400.000
226.34	-760.000
226.71	-800.000
227.08	-500.000
227.46	0.000
227.83	-516.667
228.21	-1900.000
228.58	341.667
228.95	1000.000
229.33	333.333
229.70	1025.000
230.08	330.769
230.45	3300.000
230.82	-950.000
231.20	-900.000
231.57	-1166.667
231.95	400.000
232.32	266.667
232.69	566.667
233.07	300.000
233.44	-950.000
233.81	240.000
234.19	144.444
234.56	175.000
234.93	194.118
235.31	200.000
235.68	262.500
236.05	142.857
236.43	155.556
236.80	264.286
237.17	151.724
237.55	115.625
237.92	130.000
238.29	112.121
238.67	100.000
239.04	104.878
239.41	77.083
239.79	72.500
240.16	66.667
240.53	50.820
240.91	69.565
241.28	69.492
241.65	62.121
242.02	70.423
242.40	60.000
242.77	46.154
243.14	56.962
243.51	63.636
243.89	45.794
244.26	44.860
244.63	46.535
245.00	42.202
245.38	43.220
245.75	34.091
246.12	43.704
246.49	32.624
246.87	28.689
247.24	35.333
247.61	41.875
247.98	35.374
248.36	28.485
248.73	31.633
249.10	27.381
249.47	33.000
249.84	26.866
250.22	30.270
250.59	24.500
250.96	29.958
251.33	28.372
251.70	27.232
252.08	28.571
252.45	23.506
252.82	22.053
253.19	22.530
253.56	24.615
253.94	23.551
254.31	23.643
254.68	22.648
255.05	24.828
255.42	23.358
255.79	27.687
256.16	24.407
256.54	25.649
256.91	21.242
257.28	23.411
257.65	19.122
258.02	22.124
258.39	21.490
258.76	22.029
259.14	19.429
259.51	22.449
259.88	19.149
260.25	19.505
260.62	22.466
260.99	18.182
261.36	22.841
261.73	21.011
262.10	21.466
262.47	20.500
262.85	15.733
263.22	18.766
263.59	18.414
263.96	20.050
264.33	16.790
264.70	19.902
265.07	19.024
265.44	18.349
265.81	20.519
266.18	17.620
266.55	15.603
266.92	17.002
267.29	21.491
267.66	17.489
268.03	18.610
268.40	18.393
268.77	18.282
269.14	17.354
269.51	16.036
269.88	18.367
270.25	13.391
270.62	16.309
270.99	19.473
271.36	18.293
271.73	16.352
272.10	15.152
272.47	16.667
272.84	14.770
273.21	16.736
273.58	16.397
273.95	16.838
274.32	17.510
274.69	18.307
275.06	16.576
275.43	17.050
275.80	15.094
276.17	16.728
276.54	17.383
276.91	16.045
277.28	13.321
277.65	14.576
278.02	15.625
278.39	16.547
278.76	16.897
279.13	14.235
279.50	14.545
279.87	15.456
280.23	14.365
280.60	13.869
280.97	15.690
281.34	14.026
281.71	15.652
282.08	13.846
282.45	14.696
282.82	14.047
283.19	16.852
283.56	16.694
283.92	16.287
284.29	17.637
284.66	14.622
285.03	14.760
285.40	15.537
285.77	14.352
286.14	15.944
286.51	15.951
286.87	14.715
287.24	14.715
287.61	15.046
287.98	16.119
288.35	15.259
288.72	13.354
289.08	15.465
289.45	16.006
289.82	16.875
290.19	15.227
290.56	16.303
290.93	15.396
291.29	16.298
291.66	17.090
292.03	15.428
292.40	15.447
292.77	16.156
293.13	17.404
293.50	16.869
293.87	15.854
294.24	18.182
294.60	15.747
294.97	17.483
295.34	15.007
295.71	16.951
296.08	18.133
296.44	18.679
296.81	17.494
297.18	17.110
297.55	18.103
297.91	17.365
298.28	16.787
298.65	18.282
299.02	18.094
299.38	17.386
299.75	17.561
300.12	18.693
300.48	18.970
300.85	19.428
301.22	18.488
301.59	19.458
301.95	18.086
302.32	18.510
302.69	18.665
303.05	19.978
303.42	17.040
303.79	19.285
304.15	18.152
304.52	18.393
304.89	18.763
305.25	21.023
305.62	20.256
305.99	19.783
306.35	19.263
306.72	20.187
307.09	20.807
307.45	19.958
307.82	20.267
308.19	21.959
308.55	21.100
308.92	21.786
309.29	20.809
309.65	21.308
310.02	22.515
310.38	21.834
310.75	21.311
311.12	22.031
311.48	23.456
311.85	23.950
312.22	23.209
312.58	23.518
312.95	23.301
313.31	24.625
313.68	24.015
314.05	26.282
314.41	25.140
314.78	25.000
315.14	25.972
315.51	26.112
315.87	25.456
316.24	27.544
316.61	26.231
316.97	25.505
317.34	27.763
317.70	26.953
318.07	30.160
318.43	28.383
318.80	28.459
319.16	28.934
319.53	29.204
319.89	29.659
320.26	31.378
320.62	30.678
320.99	29.933
321.35	30.705
321.72	32.732
322.08	33.610
322.45	32.698
322.81	33.303
323.18	34.103
323.54	35.192
323.91	35.449
324.27	34.925
324.64	34.429
325.00	35.603
325.37	35.750
325.73	37.437
326.10	37.448
326.46	37.490
326.83	38.240
327.19	38.956
327.56	38.738
327.92	40.164
328.29	41.408
328.65	41.952
329.01	40.719
329.38	41.455
329.74	41.161
330.11	41.616
330.47	40.665
330.84	41.070
331.20	40.694
331.56	42.314
331.93	42.857
332.29	40.561
332.66	41.582
333.02	40.893
333.38	42.321
333.75	41.284
334.11	41.275
334.48	41.538
334.84	40.456
335.20	42.258
335.57	41.226
335.93	40.959
336.29	41.542
336.66	43.654
337.02	41.317
337.38	41.531
337.75	42.568
338.11	41.772
338.47	41.744
338.84	41.998
339.20	42.684
339.56	40.202
339.93	41.304
340.29	41.513
340.65	40.319
341.02	40.869
341.38	40.969
341.74	41.030
342.11	41.068
342.47	40.689
342.83	42.740
343.20	41.795
343.56	39.317
343.92	41.784
344.28	42.105
344.65	42.217
345.01	41.349
345.37	40.625
345.73	39.444
346.10	42.390
346.46	41.069
346.82	39.969
347.19	41.267
347.55	40.437
347.91	40.030
348.27	40.279
348.63	42.247
349.00	41.889
349.36	41.089
349.72	41.667
350.08	41.693
350.45	42.193
350.81	41.437
351.17	39.908
351.53	41.109
351.89	40.948
352.26	40.665
352.62	40.573
352.98	41.181
353.34	42.912
353.70	40.214
354.07	41.154
354.43	41.244
354.79	41.534
355.15	42.113
355.51	42.069
355.87	41.416
356.24	42.340
356.60	41.020
356.96	41.092
357.32	41.145
357.68	41.483
358.04	42.249
358.40	42.204
358.77	41.698
359.13	41.141
359.49	40.623
359.85	42.144
360.21	40.193
360.57	41.241
360.93	40.909
361.29	41.342
361.66	42.580
362.02	40.199
362.38	41.414
362.74	42.180
363.10	40.393
363.46	40.746
363.82	41.655
364.18	41.038
364.54	41.345
364.90	41.365
365.26	42.054
365.62	41.644
365.98	41.776
366.35	40.828
366.71	41.707
367.07	40.137
367.43	42.042
367.79	40.758
368.15	40.027
368.51	41.006
368.87	41.304
369.23	41.303
369.59	40.863
369.95	41.049
370.31	40.315
370.67	41.707
371.03	41.457
371.39	41.066
371.75	40.265
372.11	40.857
372.47	41.849
372.83	41.740
373.19	41.398
373.55	41.856
373.91	39.157
374.27	40.741
374.63	40.542
374.99	41.375
375.35	41.129
375.71	40.435
376.07	40.517
376.42	40.665
376.78	41.875
377.14	40.301
377.50	42.197
377.86	40.743
378.22	41.804
378.58	41.223
378.94	41.340
379.30	41.298
379.66	42.023
380.02	42.111
380.38	40.925
380.74	42.272
381.09	41.822
381.45	40.231
381.81	40.839
382.17	41.270
382.53	41.032
382.89	40.804
383.25	40.438
383.61	40.576
383.97	39.472
384.32	40.506
384.68	41.236
385.04	40.797
385.40	40.688
385.76	40.667
386.12	41.373
386.48	41.094
386.83	41.076
387.19	41.519
387.55	39.223
387.91	40.993
388.27	40.452
388.62	40.376
388.98	39.417
389.34	39.143
389.70	40.094
390.06	40.366
390.42	39.914
390.77	39.988
391.13	39.710
391.49	38.778
391.85	41.108
392.20	40.226
392.56	40.084
392.92	39.079
393.28	38.229
393.64	38.475
393.99	39.004
394.35	38.846
394.71	38.299
395.07	38.990
395.42	38.876
395.78	39.975
396.14	39.940
396.50	39.531
396.85	38.232
397.21	39.531
397.57	38.733
397.92	38.648
398.28	38.003
398.64	39.209
399.00	37.573
399.35	37.413
399.71	38.411
400.07	37.842
400.42	38.388
400.78	38.358
401.14	38.755
401.49	38.076
401.85	37.659
402.21	36.555
402.57	38.300
402.92	37.576
403.28	37.470
403.63	36.433
403.99	36.972
404.35	37.866
404.70	38.452
405.06	36.833
405.42	37.343
405.77	37.211
406.13	37.256
406.49	35.645
406.84	35.477
407.20	36.815
407.55	37.046
407.91	36.886
408.27	36.871
408.62	37.315
408.98	36.132
409.34	35.827
409.69	35.719
410.05	35.480
410.40	34.688
410.76	35.089
411.11	36.671
411.47	36.420
411.83	35.735
412.18	35.990
412.54	34.895
412.89	35.339
413.25	36.659
413.60	35.864
413.96	35.129
414.31	37.249
414.67	36.127
415.03	35.121
415.38	35.710
415.74	35.818
416.09	36.415
416.45	35.811
416.80	37.973
417.16	35.201
417.51	35.987
417.87	35.294
418.22	35.298
418.58	36.115
418.93	34.920
419.29	35.798
419.64	35.918
420.00	36.396
420.35	36.005
420.71	35.939
421.06	36.139
421.42	35.809
421.77	36.646
422.12	35.722
422.48	34.977
422.83	35.714
423.19	36.339
423.54	35.930
423.90	36.240
424.25	36.819
424.61	37.551
424.96	35.743
425.31	35.632
425.67	36.925
426.02	36.343
426.38	36.523
426.73	37.016
427.09	37.426
427.44	36.804
427.79	36.535
428.15	36.889
428.50	37.486
428.85	37.155
429.21	36.791
429.56	36.889
429.92	37.941
430.27	37.542
430.62	36.221
430.98	36.677
431.33	36.492
431.68	37.037
432.04	35.644
432.39	38.200
432.74	37.646
433.10	37.763
433.45	38.484
433.80	38.720
434.16	37.467
434.51	38.132
434.86	38.051
435.22	38.250
435.57	37.819
435.92	38.019
436.28	38.422
436.63	38.142
436.98	38.570
437.34	39.840
437.69	37.626
438.04	37.796
438.39	38.704
438.75	37.918
439.10	37.561
439.45	37.875
439.81	38.982
440.16	39.075
440.51	39.583
440.86	39.031
441.22	37.392
441.57	39.423
441.92	37.463
442.27	38.918
442.63	38.465
442.98	37.985
443.33	38.457
443.68	39.135
444.03	38.077
444.39	38.512
444.74	39.337
445.09	39.179
445.44	38.789
445.79	38.889
446.15	38.526
446.50	38.924
446.85	39.392
447.20	38.408
447.55	39.695
447.91	38.572
448.26	39.350
448.61	39.525
448.96	40.087
449.31	39.329
449.66	40.089
450.02	39.114
450.37	38.701
450.72	39.945
451.07	40.314
451.42	40.071
451.77	39.748
452.12	40.102
452.47	40.036
452.83	39.155
453.18	40.300
453.53	39.668
453.88	40.114
454.23	41.720
454.58	40.035
454.93	40.282
455.28	41.248
455.63	40.485
455.98	40.384
456.34	40.912
456.69	41.341
457.04	40.632
457.39	40.229
457.74	40.935
458.09	40.034
458.44	40.088
458.79	39.682
459.14	40.371
459.49	39.751
459.84	40.924
460.19	39.944
460.54	40.114
460.89	39.765
461.24	39.977
461.59	40.476
461.94	39.835
462.29	40.618
462.64	42.211
462.99	40.499
463.34	41.089
463.69	42.105
464.04	41.278
464.39	40.240
464.74	40.328
465.09	40.743
465.44	40.751
465.79	40.882
466.14	39.852
466.49	39.338
466.84	39.855
467.19	39.953
467.54	41.081
467.89	40.610
468.24	39.896
468.59	40.476
468.94	41.848
469.29	40.318
469.64	41.543
469.99	40.681
470.34	39.911
470.68	40.000
471.03	41.027
471.38	40.795
471.73	40.692
472.08	42.727
472.43	41.713
472.78	41.485
473.13	41.302
473.48	40.709
473.83	40.754
474.17	41.094
474.52	39.633
474.87	40.648
475.22	41.176
475.57	40.189
475.92	40.061
476.27	39.608
476.61	41.340
476.96	40.752
477.31	40.874
477.66	41.385
478.01	41.362
478.36	40.680
478.70	40.298
479.05	41.056
479.40	40.774
479.75	41.360
480.10	40.368
480.45	40.803
480.79	40.507
481.14	40.418
481.49	40.851
481.84	39.534
482.19	41.092
482.53	40.009
482.88	41.039
483.23	41.001
483.58	40.305
483.92	40.951
484.27	40.582
484.62	39.813
484.97	38.644
485.31	40.042
485.66	38.772
486.01	37.853
486.36	37.642
486.70	37.432
487.05	37.746
487.40	37.773
487.75	38.200
488.09	38.665
488.44	38.783
488.79	38.737
489.13	39.978
489.48	40.072
489.83	39.158
490.17	40.297
490.52	41.559
490.87	39.440
491.22	41.223
491.56	41.195
491.91	40.233
492.26	39.777
492.60	40.638
492.95	41.731
493.30	39.945
493.64	41.240
493.99	40.295
494.34	40.520
494.68	39.752
495.03	41.895
495.37	41.108
495.72	41.259
496.07	40.611
496.41	40.617
496.76	40.819
497.11	41.088
497.45	40.289
497.80	41.149
498.14	41.609
498.49	41.040
498.84	41.589
499.18	40.219
499.53	40.469
499.87	41.285
500.22	41.179
500.56	40.761
500.91	41.512
501.26	41.893
501.60	41.120
501.95	39.964
502.29	39.911
502.64	40.053
502.98	40.418
503.33	40.223
503.67	41.545
504.02	41.021
504.36	40.452
504.71	42.148
505.06	41.530
505.40	41.273
505.75	40.926
506.09	41.017
506.44	41.635
506.78	42.155
507.13	42.705
507.47	41.776
507.82	42.092
508.16	42.283
508.51	41.787
508.85	41.690
509.19	41.997
509.54	41.699
509.88	41.621
510.23	41.863
510.57	40.106
510.92	43.057
511.26	42.922
511.61	41.260
511.95	42.658
512.30	42.150
512.64	41.329
512.98	42.132
513.33	42.367
513.67	41.533
514.02	42.338
514.36	42.368
514.70	41.653
515.05	42.408
515.39	43.366
515.74	44.013
516.08	41.993
516.42	44.754
516.77	42.240
517.11	43.360
517.46	42.403
517.80	42.163
518.14	43.775
518.49	42.668
518.83	41.923
519.17	42.374
519.52	43.692
519.86	43.597
520.20	43.123
520.55	43.584
520.89	43.333
521.23	43.575
521.58	42.513
521.92	44.140
522.26	44.609
522.61	44.266
522.95	44.745
523.29	44.211
523.64	43.526
523.98	44.131
524.32	43.137
524.66	43.362
525.01	43.609
525.35	43.842
525.69	44.250
526.04	43.367
526.38	42.849
526.72	43.079
527.06	42.519
527.41	44.256
527.75	44.127
528.09	42.264
528.43	43.807
528.78	43.351
529.12	43.889
529.46	43.074
529.80	43.049
530.15	43.489
530.49	42.419
530.83	44.241
531.17	44.096
531.51	43.348
531.86	43.780
532.20	43.696
532.54	44.068
532.88	44.535
533.22	42.535
533.57	44.356
533.91	42.774
534.25	42.066
534.59	42.982
534.93	42.264
535.27	41.150
535.62	42.649
535.96	43.262
536.30	44.424
536.64	43.230
536.98	42.857
537.32	44.000
537.66	42.921
538.01	43.591
538.35	43.356
538.69	42.597
539.03	42.537
539.37	42.900
539.71	42.840
540.05	42.400
540.39	43.585
540.73	42.722
541.07	43.287
541.42	42.537
541.76	43.711
542.10	42.417
542.44	42.706
542.78	43.235
543.12	42.577
543.46	42.607
543.80	43.108
544.14	42.601
544.48	43.127
544.82	43.303
545.16	41.773
545.50	43.577
545.84	44.255
546.18	44.213
546.52	44.131
546.86	43.198
547.20	42.248
547.54	42.559
547.88	42.579
548.22	42.562
548.56	41.249
548.90	42.645
549.24	43.714
549.58	43.235
549.92	44.008
550.26	44.557
550.60	44.578
550.94	43.623
551.28	44.345
551.62	44.552
551.96	42.973
552.30	42.980
552.64	44.013
552.98	43.041
553.32	42.125
553.66	42.215
554.00	43.565
554.34	43.409
554.68	43.280
555.02	43.381
555.36	43.019
555.69	43.848
556.03	42.866
556.37	42.447
556.71	45.046
557.05	41.809
557.39	44.067
557.73	43.464
558.07	42.723
558.41	43.660
558.75	44.323
559.08	44.174
559.42	44.023
559.76	44.547
560.10	43.772
560.44	42.999
560.78	43.734
561.12	43.738
561.45	43.492
561.79	43.383
562.13	42.956
562.47	43.219
562.81	42.941
563.15	43.374
563.48	42.174
563.82	44.105
564.16	43.159
564.50	42.254
564.84	42.614
565.17	43.731
565.51	44.027
565.85	44.047
566.19	42.738
566.52	42.419
566.86	43.199
567.20	43.427
567.54	42.576
567.88	42.462
568.21	41.238
568.55	41.829
568.89	41.423
569.23	40.466
569.56	40.775
569.90	40.208
570.24	39.864
570.57	39.228
570.91	39.376
571.25	39.116
571.59	38.353
571.92	37.594
572.26	37.898
572.60	38.212
572.93	39.132
573.27	38.512
573.61	38.116
573.95	38.172
574.28	38.294
574.62	37.587
574.96	37.116
575.29	37.673
575.63	37.668
575.97	37.293
576.30	36.877
576.64	38.142
576.98	37.544
577.31	37.559
577.65	37.609
577.98	37.425
578.32	36.925
578.66	37.208
578.99	37.382
579.33	37.844
579.67	37.387
580.00	36.941
580.34	37.170
580.67	37.360
581.01	38.095
581.35	37.706
581.68	37.125
582.02	37.312
582.35	36.942
582.69	37.002
583.02	37.584
583.36	37.692
583.70	37.468
584.03	38.976
584.37	38.516
584.70	38.119
585.04	38.211
585.37	38.390
585.71	38.112
586.04	38.255
586.38	38.832
586.72	38.764
587.05	38.343
587.39	38.230
587.72	38.326
588.06	38.540
588.39	38.127
588.73	38.300
589.06	39.422
589.40	39.718
589.73	39.889
590.07	40.666
590.40	39.617
590.73	41.094
591.07	40.114
591.40	39.601
591.74	40.666
592.07	40.724
592.41	40.248
592.74	39.583
593.08	39.518
593.41	38.839
593.75	38.653
594.08	39.298
594.41	39.231
594.75	39.658
595.08	39.781
595.42	39.631
595.75	39.552
596.09	40.667
596.42	39.476
596.75	40.705
597.09	40.322
597.42	39.388
597.75	40.243
598.09	39.885
598.42	41.085
598.76	40.093
599.09	40.088
599.42	39.100
599.76	40.163
600.09	39.153
600.42	39.503
600.76	39.021
601.09	39.627
601.42	39.071
601.76	40.100
602.09	39.588
602.42	39.298
602.76	39.431
603.09	39.932
603.42	39.817
603.76	39.732
604.09	39.377
604.42	39.849
604.76	39.826
605.09	40.449
605.42	40.349
605.75	40.387
606.09	39.594
606.42	39.759
606.75	40.497
607.09	38.966
607.42	39.534
607.75	40.247
608.08	39.724
608.42	40.688
608.75	39.795
609.08	40.167
609.41	41.091
609.75	41.300
610.08	40.018
610.41	39.657
610.74	40.000
611.07	41.155
611.41	40.778
611.74	41.109
612.07	41.859
612.40	41.228
612.73	41.638
613.07	41.612
613.40	41.654
613.73	42.636
614.06	40.450
614.39	42.020
614.72	41.637
615.06	40.208
615.39	40.842
615.72	40.029
616.05	40.984
616.38	40.233
616.71	41.725
617.05	42.175
617.38	41.236
617.71	41.564
618.04	41.503
618.37	41.190
618.70	40.589
619.03	42.369
619.36	42.651
619.69	41.359
620.03	44.292
620.36	42.903
620.69	43.934
621.02	44.090
621.35	42.264
621.68	42.920
622.01	42.804
622.34	42.972
622.67	43.048
623.00	42.750
623.33	41.565
623.66	42.049
623.99	44.932
624.32	42.005
624.65	42.989
624.99	43.272
625.32	42.752
625.65	42.069
625.98	42.050
626.31	44.585
626.64	42.976
626.97	44.300
627.30	44.022
627.63	44.741
627.96	43.975
628.29	44.389
628.62	43.969
628.95	44.504
629.28	46.889
629.61	46.397
629.94	45.549
630.26	45.147
630.59	46.543
630.92	44.574
631.25	45.240
631.58	47.445
631.91	44.434
632.24	44.509
632.57	46.267
632.90	45.238
633.23	47.324
633.56	46.575
633.89	46.409
634.22	46.932
634.55	46.882
634.88	47.317
635.20	47.982
635.53	49.361
635.86	48.770
636.19	45.455
636.52	46.270
636.85	46.386
637.18	46.046
637.51	46.927
637.83	47.140
638.16	47.245
638.49	47.186
638.82	48.826
639.15	46.651
639.48	47.512
639.81	48.840
640.13	47.730
640.46	48.546
640.79	48.505
641.12	47.507
641.45	49.806
641.77	50.991
642.10	48.862
642.43	52.489
642.76	48.580
643.09	49.568
643.41	49.509
643.74	49.784
644.07	49.705
644.40	50.592
644.73	51.351
645.05	51.560
645.38	50.230
645.71	49.014
646.04	50.382
646.36	51.174
646.69	50.560
647.02	51.040
647.35	49.449
647.67	48.784
648.00	51.954
648.33	48.722
648.66	48.939
648.98	48.261
649.31	48.583
649.64	47.718
649.96	48.222
650.29	47.000
650.62	49.337
650.94	50.000
651.27	53.429
651.60	48.983
651.92	49.309
652.25	48.976
652.58	46.950
652.90	47.754
653.23	49.335
653.56	48.368
653.88	47.724
654.21	48.534
654.54	46.999
654.86	46.313
655.19	46.306
655.52	41.227
655.84	33.655
656.17	38.530
656.49	54.871
656.82	63.295
657.15	50.802
657.47	38.124
657.80	27.737
658.13	21.766
658.45	29.284
658.78	35.392
659.10	36.482
659.43	37.204
659.75	39.921
660.08	39.411
660.41	43.194
660.73	49.059
661.06	47.898
661.38	49.574
661.71	51.439
662.03	51.331
662.36	51.048
662.68	50.466
663.01	51.351
663.33	51.321
663.66	52.071
663.98	54.563
664.31	50.373
664.63	50.958
664.96	51.407
665.28	48.776
665.61	49.434
665.93	49.811
666.26	51.963
666.58	51.376
666.91	51.158
667.23	51.406
667.56	53.183
667.88	53.734
668.21	51.844
668.53	52.419
668.86	52.505
669.18	51.935
669.50	49.587
669.83	51.951
670.15	51.975
670.48	47.852
670.80	52.191
671.13	50.000
671.45	51.102
671.77	50.464
672.10	50.449
672.42	45.395
672.75	48.259
673.07	46.582
673.39	46.326
673.72	48.616
674.04	48.566
674.37	48.639
674.69	47.398
675.01	46.455
675.34	48.643
675.66	50.586
675.98	51.282
676.31	48.800
676.63	47.714
676.95	48.016
677.28	50.101
677.60	50.704
677.92	49.405
678.25	49.419
678.57	49.348
678.89	50.452
679.22	47.243
679.54	49.644
679.86	46.946
680.18	46.749
680.51	44.610
680.83	46.453
681.15	48.527
681.48	47.569
681.80	47.285
682.12	49.308
682.44	45.946
682.77	46.085
683.09	48.544
683.41	50.000
683.73	50.394
684.06	49.405
684.38	48.837
684.70	46.763
685.02	47.917
685.34	45.246
685.67	46.141
685.99	44.499
686.31	44.684
686.63	47.317
686.96	45.588
687.28	45.302
687.60	45.222
687.92	46.064
688.24	47.586
688.56	46.797
688.89	44.551
689.21	48.748
689.53	49.605
689.85	47.764
690.17	49.126
690.49	50.605
690.82	46.849
691.14	48.283
691.46	51.129
691.78	49.318
692.10	46.374
692.42	45.372
692.74	47.674
693.06	46.318
693.39	44.862
693.71	45.383
694.03	50.296
694.35	49.197
694.67	46.436
694.99	49.667
695.31	49.324
695.63	49.321
695.95	47.285
696.27	50.000
696.59	49.642
696.91	50.127
697.23	50.679
697.56	46.680
697.88	42.116
698.20	44.906
698.52	43.191
698.84	47.639
699.16	50.320
699.48	47.458
699.80	50.763
700.12	48.730
700.44	50.234
700.76	47.733
701.08	50.392
701.40	50.130
701.72	55.080
702.04	53.659
702.36	52.151
702.68	49.202
703.00	49.624
703.32	49.876
703.64	48.866
703.96	49.740
704.28	51.587
704.60	52.113
704.91	52.101
705.23	52.841
705.55	55.193
705.87	53.016
706.19	58.621
706.51	56.426
706.83	55.752
707.15	51.604
707.47	49.395
707.79	47.126
708.11	45.805
708.43	46.517
708.74	44.796
709.06	46.977
709.38	50.620
709.70	46.866
710.02	49.457
710.34	54.972
710.66	50.833
710.98	45.355
711.29	47.354
711.61	51.253
711.93	51.064
712.25	47.590
712.57	52.090
712.89	52.727
713.20	51.438
713.52	52.648
713.84	49.849
714.16	46.667
714.48	47.839
714.80	47.154
715.11	47.872
715.43	48.883
715.75	45.634
716.07	47.110
716.39	45.143
716.70	47.975
717.02	53.199
717.34	55.396
717.66	54.514
717.97	56.818
718.29	52.817
718.61	50.676
718.93	51.211
719.24	51.678
719.56	48.966
719.88	45.541
720.20	49.032
720.51	45.098
720.83	49.833
721.15	51.361
721.46	50.342
721.78	52.962
722.10	50.000
722.42	51.839
722.73	52.347
723.05	54.386
723.37	52.650
723.68	53.906
724.00	53.788
724.32	55.133
724.63	52.692
724.95	54.510
725.27	54.647
725.58	53.309
725.90	50.352
726.22	50.342
726.53	49.498
726.85	51.466
727.16	53.356
727.48	45.515
727.80	51.079
728.11	54.286
728.43	55.435
728.74	48.252
729.06	45.161
729.38	53.684
729.69	52.333
730.01	52.961
730.32	50.671
730.64	53.821
730.96	47.447
731.27	45.566
731.59	42.529
731.90	42.897
732.22	47.714
732.53	44.444
732.85	50.000
733.16	44.578
733.48	47.022
733.80	45.507
734.11	46.319
734.43	43.567
734.74	45.308
735.06	46.825
735.37	45.876
735.69	46.087
736.00	46.483
736.32	40.909
736.63	47.319
736.95	45.342
737.26	47.561
737.58	46.626
737.89	44.277
738.21	48.013
738.52	48.829
738.83	52.381
739.15	50.523
739.46	46.207
739.78	48.980
740.09	43.440
740.41	45.706
740.72	50.476
741.04	50.350
741.35	53.906
741.66	52.174
741.98	52.790
742.29	55.093
742.61	49.115
742.92	49.576
743.23	47.600
743.55	49.057
743.86	47.059
744.18	55.508
744.49	52.893
744.80	53.917
745.12	58.929
745.43	54.673
745.74	55.556
746.06	47.807
746.37	57.209
746.68	55.752
747.00	53.812
747.31	47.479
747.62	49.590
747.94	50.215
748.25	52.140
748.56	56.356
748.88	56.696
749.19	52.558
749.50	47.945
749.82	47.737
750.13	48.617
750.44	46.000
750.75	48.993
751.07	47.368
751.38	48.185
751.69	46.128
752.01	47.552
752.32	42.525
752.63	48.322
752.94	47.902
753.26	53.125
753.57	50.584
753.88	43.446
754.19	48.736
754.51	46.179
754.82	44.631
755.13	47.635
755.44	50.000
755.75	47.766
756.07	41.438
756.38	44.771
756.69	46.875
757.00	45.104
757.31	44.507
757.63	39.394
757.94	42.553
758.25	38.889
758.56	42.563
758.87	41.855
759.18	44.477
759.50	43.161
759.81	43.027
760.12	43.820
760.43	44.258
760.74	41.772
761.05	40.053
761.36	39.323
761.67	43.127
761.99	42.817
762.30	42.444
762.61	43.403
762.92	49.242
763.23	45.283
763.54	45.000
763.85	46.304
764.16	43.750
764.47	49.662
764.78	41.368
765.10	41.159
765.41	42.614
765.72	42.541
766.03	39.879
766.34	42.509
766.65	49.810
766.96	50.202
767.27	52.804
767.58	51.980
767.89	55.249
768.20	57.927
768.51	49.490
768.82	49.123
769.13	47.059
769.44	46.992
769.75	46.067
770.06	47.059
770.37	46.491
770.68	41.333
770.99	47.458
771.30	50.209
771.61	46.923
771.92	40.840
772.23	47.177
772.54	48.889
772.85	54.950
773.16	50.000
773.47	51.111
773.78	49.010
774.09	56.250
774.39	56.364
774.70	53.529
775.01	47.368
775.32	50.932
775.63	56.849
775.94	53.704
776.25	55.862
776.56	65.649
776.87	64.122
777.18	56.818
777.48	70.079
777.79	57.692
778.10	55.303
778.41	70.896
778.72	54.887
779.03	57.051
779.34	40.541
779.65	52.795
779.95	59.627
780.26	52.976
780.57	60.544
780.88	57.447
781.19	63.333
781.50	53.254
781.80	55.191
782.11	54.497
782.42	51.724
782.73	50.282
783.04	54.839
783.34	55.039
783.65	57.823
783.96	49.677
784.27	51.656
784.57	53.947
784.88	57.971
785.19	53.333
785.50	58.621
785.81	68.217
786.11	54.815
786.42	68.504
786.73	67.568
787.04	58.491
787.34	45.528
787.65	68.182
787.96	63.636
788.26	62.992
788.57	59.854
788.88	57.746
789.19	59.542
789.49	53.378
789.80	46.094
790.11	62.810
790.41	73.148
790.72	64.815
791.03	65.385
791.33	70.707
791.64	69.474
791.95	62.105
792.25	61.458
792.56	63.000
792.87	67.073
793.17	70.455
793.48	76.471
793.79	73.563
794.09	60.227
794.40	65.517
794.70	57.143
795.01	56.154
795.32	56.489
795.62	57.265
795.93	64.706
796.23	61.789
796.54	74.490
796.85	63.636
797.15	96.104
797.46	86.585
797.76	70.000
798.07	84.000
798.37	78.750
798.68	58.750
798.99	85.366
799.29	69.333
799.60	72.093
799.90	76.316
800.21	72.727
800.51	80.282
800.82	93.103
801.12	92.308
801.43	89.333
801.73	103.448
802.04	80.519
802.34	83.562
802.65	94.118
802.95	93.478
803.26	88.710
803.56	106.667
803.87	86.567
804.17	85.714
804.48	69.811
804.78	77.778
805.09	92.424
805.39	80.952
805.70	103.509
806.00	85.714
806.30	93.750
806.61	78.824
806.91	73.333
807.22	61.957
807.52	61.842
807.83	100.000
808.13	75.362
808.43	98.387
808.74	80.822
809.04	101.786
809.35	86.765
809.65	87.879
809.95	96.078
810.26	101.852
810.56	101.563
810.86	112.245
811.17	112.281
811.47	73.913
811.77	94.828
812.08	67.241
812.38	119.048
812.69	102.381
812.99	97.778
813.29	100.000
813.59	170.968
813.90	86.207
814.20	104.918
814.50	74.000
814.81	94.737
815.11	107.407
815.41	80.357
815.72	82.143
816.02	100.000
816.32	131.707
816.62	93.103
816.93	115.152
817.23	129.268
817.53	96.429
817.84	108.889
818.14	121.429
818.44	118.750
818.74	118.868
819.04	115.385
819.35	130.303
819.65	113.462
819.95	114.815
820.25	108.511
820.56	140.541
820.86	139.474
821.16	95.745
821.46	139.474
821.76	118.182
822.07	109.524
822.37	107.895
822.67	130.233
822.97	102.632
823.27	121.739
823.57	134.375
823.88	100.000
824.18	106.061
824.48	139.130
824.78	127.778
825.08	169.565
825.38	148.276
825.69	126.471
825.99	110.638
826.29	105.556
826.59	108.571
826.89	126.667
827.19	131.429
827.49	151.613
827.79	211.538
828.09	100.000
828.39	125.000
828.70	124.324
829.00	185.714
829.30	218.750
829.60	108.333
829.90	135.484
830.20	133.333
830.50	113.514
830.80	150.000
831.10	153.846
831.40	171.429
831.70	141.667
832.00	136.667
832.30	178.261
832.60	200.000
832.90	145.455
833.20	265.000
833.50	97.368
833.80	126.471
834.10	123.684
834.40	205.263
834.70	113.333
835.00	168.000
835.30	102.703
835.60	162.500
835.90	113.514
836.20	176.923
836.50	104.545
836.80	97.561
837.10	186.957
837.40	276.923
837.70	173.684
838.00	133.333
838.30	191.667
838.60	156.000
838.90	300.000
839.19	187.500
839.49	163.333
839.79	182.759
840.09	142.308
840.39	173.333
840.69	226.316
840.99	138.095
841.29	169.565
841.59	210.000
841.88	188.000
842.18	422.222
842.48	157.143
842.78	159.259
843.08	230.769
843.38	181.818
843.68	342.857
843.97	457.143
844.27	147.826
844.57	1300.000
844.87	292.857
845.17	250.000
845.47	147.619
845.76	158.333
846.06	485.714
846.36	205.882
846.66	292.308
846.96	212.500
847.25	246.154
847.55	178.947
847.85	188.889
848.15	720.000
848.44	263.636
848.74	161.905
849.04	183.333
849.34	235.294
849.63	293.750
849.93	318.750
850.23	833.333
850.53	462.500
850.82	327.273
851.12	194.118
851.42	133.333
851.71	237.500
852.01	0.000
852.31	194.118
852.61	330.000
852.90	150.000
853.20	288.889
853.50	-2000.000
853.79	208.000
854.09	128.125
854.39	137.931
854.68	141.379
854.98	238.095
855.28	161.290
855.57	314.286
855.87	205.556
856.17	148.148
856.46	168.421
856.76	135.484
857.05	288.235
857.35	236.364
857.65	284.615
857.94	165.000
858.24	277.778
858.53	257.143
858.83	528.571
859.13	169.565
859.42	355.556
859.72	400.000
860.01	275.000
860.31	850.000
860.60	420.000
860.90	500.000
861.20	253.846
861.49	514.286
861.79	-3000.000
862.08	571.429
862.38	355.556
862.67	242.857
862.97	410.000
863.26	116.667
863.56	1150.000
863.85	384.615
864.15	258.824
864.44	261.111
864.74	300.000
865.03	318.182
865.33	425.000
865.62	206.667
865.92	566.667
866.21	825.000
866.51	780.000
866.80	255.556
867.10	900.000
867.39	3500.000
867.69	760.000
867.98	900.000
868.27	200.000
868.57	326.667
868.86	975.000
869.16	176.190
869.45	2800.000
869.75	-750.000
870.04	650.000
870.33	780.000
870.63	425.000
870.92	200.000
871.22	800.000
871.51	414.286
871.80	375.000
872.10	315.385
>>>>>End Processed Spectral Data<<<<<
