SpectraSuite Data File
++++++++++++++++++++++++++++++++++++
Date: Tue May 12 15:28:36 PDT 2015
User: schluterlab
Dark Spectrum Present: Yes
Reference Spectrum Present: Yes
Number of Sampled Component Spectra: 1
Spectrometers: USB2E3373
Integration Time (usec): 3000 (USB2E3373)
Spectra Averaged: 3 (USB2E3373)
Boxcar Smoothing: 0 (USB2E3373)
Correct for Electrical Dark: No (USB2E3373)
Strobe/Lamp Enabled: No (USB2E3373)
Correct for Detector Non-linearity: No (USB2E3373)
Correct for Stray Light: No (USB2E3373)
Number of Pixels in Processed Spectrum: 2048
>>>>>Begin Processed Spectral Data<<<<<
178.53	0.000
178.91	-275.000
179.29	-875.000
179.67	-4500.000
180.04	-233.333
180.42	725.000
180.80	1300.000
181.18	0.000
181.56	-362.500
181.94	0.000
182.31	1166.667
182.69	-3600.000
183.07	628.571
183.45	-3600.000
183.83	-2000.000
184.20	330.000
184.58	585.714
184.96	-207.692
185.34	-191.667
185.72	1650.000
186.09	-825.000
186.47	-3000.000
186.85	1233.333
187.23	740.000
187.61	1750.000
187.98	500.000
188.36	278.571
188.74	333.333
189.12	391.667
189.49	1000.000
189.87	0.000
190.25	487.500
190.63	3400.000
191.00	-216.667
191.38	-3800.000
191.76	-800.000
192.14	600.000
192.51	-3900.000
192.89	1900.000
193.27	966.667
193.65	-833.333
194.02	-800.000
194.40	557.143
194.78	-300.000
195.15	273.333
195.53	-3000.000
195.91	-560.000
196.29	3300.000
196.66	306.250
197.04	925.000
197.42	-1600.000
197.79	675.000
198.17	316.667
198.55	0.000
198.92	557.143
199.30	1400.000
199.68	2100.000
200.05	666.667
200.43	-450.000
200.81	255.556
201.18	3600.000
201.56	308.333
201.94	-625.000
202.31	-387.500
202.69	-600.000
203.07	3100.000
203.44	-500.000
203.82	291.667
204.19	860.000
204.57	-1550.000
204.95	-750.000
205.32	-760.000
205.70	650.000
206.08	950.000
206.45	-966.667
206.83	400.000
207.20	215.789
207.58	341.667
207.96	700.000
208.33	0.000
208.71	614.286
209.08	880.000
209.46	-4500.000
209.84	-875.000
210.21	740.000
210.59	-720.000
210.96	350.000
211.34	-850.000
211.71	400.000
212.09	850.000
212.46	1850.000
212.84	-616.667
213.22	366.667
213.59	-2500.000
213.97	400.000
214.34	925.000
214.72	1266.667
215.09	1166.667
215.47	-4000.000
215.84	-330.000
216.22	-300.000
216.59	0.000
216.97	0.000
217.34	1600.000
217.72	-1350.000
218.09	1100.000
218.47	512.500
218.84	875.000
219.22	1133.333
219.59	900.000
219.97	657.143
220.34	488.889
220.72	1950.000
221.09	4300.000
221.47	241.667
221.84	1300.000
222.22	280.000
222.59	250.000
222.97	221.429
223.34	181.250
223.72	-1300.000
224.09	1300.000
224.46	261.538
224.84	-975.000
225.21	500.000
225.59	346.667
225.96	1300.000
226.34	-420.000
226.71	-675.000
227.08	-500.000
227.46	0.000
227.83	-600.000
228.21	-1250.000
228.58	425.000
228.95	1050.000
229.33	422.222
229.70	1275.000
230.08	315.385
230.45	3200.000
230.82	-950.000
231.20	-1000.000
231.57	-1033.333
231.95	600.000
232.32	283.333
232.69	400.000
233.07	291.667
233.44	-1400.000
233.81	226.667
234.19	148.148
234.56	212.500
234.93	211.765
235.31	195.000
235.68	181.250
236.05	139.286
236.43	144.444
236.80	214.286
237.17	113.793
237.55	131.250
237.92	125.000
238.29	139.394
238.67	109.375
239.04	92.683
239.41	72.917
239.79	85.000
240.16	87.500
240.53	54.098
240.91	63.768
241.28	59.322
241.65	60.606
242.02	64.789
242.40	67.143
242.77	53.846
243.14	27.848
243.51	50.505
243.89	42.991
244.26	36.449
244.63	43.564
245.00	44.037
245.38	29.661
245.75	36.364
246.12	38.519
246.49	21.986
246.87	25.410
247.24	31.333
247.61	35.000
247.98	31.293
248.36	23.030
248.73	31.122
249.10	24.405
249.47	24.500
249.84	22.886
250.22	22.703
250.59	28.000
250.96	27.004
251.33	24.186
251.70	20.982
252.08	22.689
252.45	20.319
252.82	20.532
253.19	19.368
253.56	20.769
253.94	20.652
254.31	17.829
254.68	18.815
255.05	24.138
255.42	18.248
255.79	19.218
256.16	17.966
256.54	18.831
256.91	16.993
257.28	18.060
257.65	13.166
258.02	14.159
258.39	19.484
258.76	19.130
259.14	14.857
259.51	15.452
259.88	12.462
260.25	12.912
260.62	17.260
260.99	11.295
261.36	16.992
261.73	14.628
262.10	17.016
262.47	14.500
262.85	14.667
263.22	14.139
263.59	16.368
263.96	15.288
264.33	14.321
264.70	14.496
265.07	12.439
265.44	13.991
265.81	15.094
266.18	15.332
266.55	13.002
266.92	10.738
267.29	14.474
267.66	12.332
268.03	13.004
268.40	12.474
268.77	14.537
269.14	11.497
269.51	14.254
269.88	12.449
270.25	11.879
270.62	14.592
270.99	13.590
271.36	11.992
271.73	11.111
272.10	11.111
272.47	9.127
272.84	13.174
273.21	10.331
273.58	13.360
273.95	11.088
274.32	11.673
274.69	14.567
275.06	14.754
275.43	12.644
275.80	10.755
276.17	12.316
276.54	11.589
276.91	13.806
277.28	10.036
277.65	13.100
278.02	12.316
278.39	11.511
278.76	10.517
279.13	11.032
279.50	12.000
279.87	9.311
280.23	9.576
280.60	11.314
280.97	10.517
281.34	11.716
281.71	12.348
282.08	12.821
282.45	11.993
282.82	10.033
283.19	11.288
283.56	11.570
283.92	9.446
284.29	10.815
284.66	10.252
285.03	11.111
285.40	9.917
285.77	9.722
286.14	11.455
286.51	10.890
286.87	8.544
287.24	10.060
287.61	12.310
287.98	11.940
288.35	10.370
288.72	8.346
289.08	11.261
289.45	9.146
289.82	11.406
290.19	10.542
290.56	11.936
290.93	8.633
291.29	10.083
291.66	10.311
292.03	9.677
292.40	11.111
292.77	10.306
293.13	11.127
293.50	10.121
293.87	9.214
294.24	10.350
294.60	11.171
294.97	10.769
295.34	11.687
295.71	10.250
296.08	9.467
296.44	11.817
296.81	9.801
297.18	7.985
297.55	10.099
297.91	9.852
298.28	9.783
298.65	9.080
299.02	9.650
299.38	8.153
299.75	8.902
300.12	9.518
300.48	9.719
300.85	9.893
301.22	9.186
301.59	7.783
301.95	8.635
302.32	10.012
302.69	9.050
303.05	10.438
303.42	9.081
303.79	9.967
304.15	9.241
304.52	8.457
304.89	9.168
305.25	8.454
305.62	8.955
305.99	8.261
306.35	8.316
306.72	8.533
307.09	9.627
307.45	8.025
307.82	8.128
308.19	8.969
308.55	8.600
308.92	9.323
309.29	10.552
309.65	7.929
310.02	9.229
310.38	8.873
310.75	8.679
311.12	8.046
311.48	10.328
311.85	8.206
312.22	8.883
312.58	7.775
312.95	8.447
313.31	9.270
313.68	9.193
314.05	8.974
314.41	8.101
314.78	7.386
315.14	7.867
315.51	8.609
315.87	7.847
316.24	9.244
316.61	8.774
316.97	8.073
317.34	8.805
317.70	9.658
318.07	9.342
318.43	8.699
318.80	8.669
319.16	8.042
319.53	8.761
319.89	7.796
320.26	9.590
320.62	8.516
320.99	8.580
321.35	9.462
321.72	9.488
322.08	8.033
322.45	8.901
322.81	7.594
323.18	8.259
323.54	8.972
323.91	9.157
324.27	8.842
324.64	8.045
325.00	8.362
325.37	8.263
325.73	9.022
326.10	9.693
326.46	9.496
326.83	8.800
327.19	9.317
327.56	8.466
327.92	9.016
328.29	10.229
328.65	9.418
329.01	8.896
329.38	10.237
329.74	8.881
330.11	8.949
330.47	10.742
330.84	7.765
331.20	8.545
331.56	10.104
331.93	9.581
332.29	7.568
332.66	9.184
333.02	8.247
333.38	8.028
333.75	9.508
334.11	8.977
334.48	8.462
334.84	8.953
335.20	8.811
335.57	9.236
335.93	8.915
336.29	8.624
336.66	9.177
337.02	7.442
337.38	8.512
337.75	9.206
338.11	8.692
338.47	8.383
338.84	8.298
339.20	7.619
339.56	8.158
339.93	8.863
340.29	7.647
340.65	8.885
341.02	9.332
341.38	8.703
341.74	9.385
342.11	7.429
342.47	9.106
342.83	9.024
343.20	8.488
343.56	7.705
343.92	7.102
344.28	8.293
344.65	7.905
345.01	8.651
345.37	7.853
345.73	8.016
346.10	7.649
346.46	8.612
346.82	7.407
347.19	8.578
347.55	8.041
347.91	8.006
348.27	7.359
348.63	7.753
349.00	7.388
349.36	8.171
349.72	8.486
350.08	8.463
350.45	8.530
350.81	7.951
351.17	6.471
351.53	7.467
351.89	7.770
352.26	7.861
352.62	7.919
352.98	7.899
353.34	7.704
353.70	6.575
354.07	8.231
354.43	7.680
354.79	6.834
355.15	7.734
355.51	7.402
355.87	7.982
356.24	7.775
356.60	7.230
356.96	6.748
357.32	7.385
357.68	8.737
358.04	7.447
358.40	7.646
358.77	7.663
359.13	7.508
359.49	6.968
359.85	6.776
360.21	7.429
360.57	7.372
360.93	7.864
361.29	7.359
361.66	6.861
362.02	6.534
362.38	7.504
362.74	6.723
363.10	7.854
363.46	7.251
363.82	8.415
364.18	6.899
364.54	8.011
364.90	8.635
365.26	7.009
365.62	7.597
365.98	7.226
366.35	7.103
366.71	7.009
367.07	7.372
367.43	6.447
367.79	7.646
368.15	6.581
368.51	8.063
368.87	6.793
369.23	6.653
369.59	7.148
369.95	7.203
370.31	6.913
370.67	7.564
371.03	8.123
371.39	7.271
371.75	7.327
372.11	7.614
372.47	7.192
372.83	7.274
373.19	8.362
373.55	8.385
373.91	6.285
374.27	7.143
374.63	7.254
374.99	6.941
375.35	6.855
375.71	7.454
376.07	7.361
376.42	6.330
376.78	6.936
377.14	6.881
377.50	7.366
377.86	6.470
378.22	7.556
378.58	7.748
378.94	7.242
379.30	6.671
379.66	7.345
380.02	7.977
380.38	6.733
380.74	7.901
381.09	6.893
381.45	6.532
381.81	6.797
382.17	7.265
382.53	6.659
382.89	5.618
383.25	6.335
383.61	7.147
383.97	6.779
384.32	6.751
384.68	7.784
385.04	7.210
385.40	7.117
385.76	7.022
386.12	7.112
386.48	6.991
386.83	7.457
387.19	7.126
387.55	7.303
387.91	7.390
388.27	7.317
388.62	7.864
388.98	7.114
389.34	6.484
389.70	6.309
390.06	6.768
390.42	6.786
390.77	7.678
391.13	7.182
391.49	7.562
391.85	7.077
392.20	7.390
392.56	7.646
392.92	6.625
393.28	6.895
393.64	6.307
393.99	6.165
394.35	6.710
394.71	6.152
395.07	6.873
395.42	6.850
395.78	6.971
396.14	7.831
396.50	6.919
396.85	6.890
397.21	7.461
397.57	6.993
397.92	6.124
398.28	6.564
398.64	7.679
399.00	6.307
399.35	6.495
399.71	6.678
400.07	6.735
400.42	6.448
400.78	7.155
401.14	6.812
401.49	6.336
401.85	6.895
402.21	6.503
402.57	7.121
402.92	6.667
403.28	6.921
403.63	6.651
403.99	6.996
404.35	7.679
404.70	6.615
405.06	7.019
405.42	6.344
405.77	6.781
406.13	6.725
406.49	5.969
406.84	6.881
407.20	7.249
407.55	6.400
407.91	7.530
408.27	7.277
408.62	6.801
408.98	7.569
409.34	6.955
409.69	6.161
410.05	6.082
410.40	6.302
410.76	6.812
411.11	6.694
411.47	6.667
411.83	6.620
412.18	6.280
412.54	6.426
412.89	6.490
413.25	7.241
413.60	7.068
413.96	6.224
414.31	6.494
414.67	7.263
415.03	6.450
415.38	7.445
415.74	6.822
416.09	6.808
416.45	7.369
416.80	7.184
417.16	6.238
417.51	7.707
417.87	6.383
418.22	5.954
418.58	7.134
418.93	6.544
419.29	6.223
419.64	7.268
420.00	7.339
420.35	5.981
420.71	7.001
421.06	7.004
421.42	6.563
421.77	6.441
422.12	6.450
422.48	7.242
422.83	6.808
423.19	6.695
423.54	6.199
423.90	7.588
424.25	6.935
424.61	6.790
424.96	5.929
425.31	6.568
425.67	7.015
426.02	6.562
426.38	5.484
426.73	6.709
427.09	7.117
427.44	6.922
427.79	6.690
428.15	6.718
428.50	7.486
428.85	7.407
429.21	6.861
429.56	6.780
429.92	6.564
430.27	6.870
430.62	6.363
430.98	6.437
431.33	6.351
431.68	6.173
432.04	6.415
432.39	6.970
432.74	7.494
433.10	6.811
433.45	6.376
433.80	7.501
434.16	6.306
434.51	6.398
434.86	7.131
435.22	6.105
435.57	6.876
435.92	7.228
436.28	7.085
436.63	7.185
436.98	7.320
437.34	7.877
437.69	6.551
438.04	7.473
438.39	7.122
438.75	7.071
439.10	6.422
439.45	7.066
439.81	7.172
440.16	7.045
440.51	7.151
440.86	7.293
441.22	6.872
441.57	7.034
441.92	6.269
442.27	7.268
442.63	5.996
442.98	7.004
443.33	7.338
443.68	7.193
444.03	6.598
444.39	6.638
444.74	6.315
445.09	7.004
445.44	7.226
445.79	6.433
446.15	6.947
446.50	6.276
446.85	6.972
447.20	6.318
447.55	6.852
447.91	7.991
448.26	7.135
448.61	7.407
448.96	6.808
449.31	6.931
449.66	7.697
450.02	6.753
450.37	6.996
450.72	7.989
451.07	7.912
451.42	7.410
451.77	7.388
452.12	7.828
452.47	6.987
452.83	7.437
453.18	7.027
453.53	7.697
453.88	7.829
454.23	7.960
454.58	7.168
454.93	6.990
455.28	7.834
455.63	7.210
455.98	7.840
456.34	7.903
456.69	7.012
457.04	7.399
457.39	6.571
457.74	8.221
458.09	7.748
458.44	7.229
458.79	7.692
459.14	7.583
459.49	7.475
459.84	7.446
460.19	7.910
460.54	8.547
460.89	7.303
461.24	8.018
461.59	7.653
461.94	7.210
462.29	7.551
462.64	7.601
462.99	8.381
463.34	7.583
463.69	7.925
464.04	7.484
464.39	7.670
464.74	6.858
465.09	7.951
465.44	7.508
465.79	7.022
466.14	6.571
466.49	7.271
466.84	6.912
467.19	7.909
467.54	6.907
467.89	7.923
468.24	7.006
468.59	7.679
468.94	7.609
469.29	8.552
469.64	8.296
469.99	7.969
470.34	6.894
470.68	8.138
471.03	8.072
471.38	8.411
471.73	7.511
472.08	8.611
472.43	8.132
472.78	7.939
473.13	8.385
473.48	7.885
473.83	7.774
474.17	7.964
474.52	8.116
474.87	7.675
475.22	7.424
475.57	7.660
475.92	6.949
476.27	7.291
476.61	6.273
476.96	7.367
477.31	7.763
477.66	7.837
478.01	7.478
478.36	6.797
478.70	7.047
479.05	6.851
479.40	7.341
479.75	7.696
480.10	7.599
480.45	7.190
480.79	7.604
481.14	6.895
481.49	7.640
481.84	6.904
482.19	7.162
482.53	6.983
482.88	7.079
483.23	6.225
483.58	7.316
483.92	7.541
484.27	7.021
484.62	7.683
484.97	6.934
485.31	6.069
485.66	5.930
486.01	5.822
486.36	5.453
486.70	5.491
487.05	5.807
487.40	5.722
487.75	6.276
488.09	6.477
488.44	6.437
488.79	6.630
489.13	6.420
489.48	7.471
489.83	6.964
490.17	7.225
490.52	7.192
490.87	7.629
491.22	6.915
491.56	7.817
491.91	7.079
492.26	7.572
492.60	7.289
492.95	6.797
493.30	7.370
493.64	7.637
493.99	7.245
494.34	7.306
494.68	7.039
495.03	7.409
495.37	8.195
495.72	7.506
496.07	6.918
496.41	6.994
496.76	7.514
497.11	7.498
497.45	7.409
497.80	7.322
498.14	7.906
498.49	7.057
498.84	8.037
499.18	7.450
499.53	7.533
499.87	7.323
500.22	7.232
500.56	7.428
500.91	7.375
501.26	7.947
501.60	7.195
501.95	6.989
502.29	7.556
502.64	7.367
502.98	7.337
503.33	7.394
503.67	7.815
504.02	7.120
504.36	7.692
504.71	7.994
505.06	8.541
505.40	7.487
505.75	7.437
506.09	8.633
506.44	7.754
506.78	7.609
507.13	7.562
507.47	7.666
507.82	7.883
508.16	8.084
508.51	7.778
508.85	7.502
509.19	7.783
509.54	7.324
509.88	9.100
510.23	7.304
510.57	7.963
510.92	7.642
511.26	7.932
511.61	7.878
511.95	8.263
512.30	8.200
512.64	7.788
512.98	7.945
513.33	7.838
513.67	8.441
514.02	7.688
514.36	7.788
514.70	8.053
515.05	7.885
515.39	7.730
515.74	8.693
516.08	7.898
516.42	9.344
516.77	8.000
517.11	8.320
517.46	8.728
517.80	7.810
518.14	8.732
518.49	8.820
518.83	7.637
519.17	8.597
519.52	8.902
519.86	8.447
520.20	9.041
520.55	8.479
520.89	9.023
521.23	9.171
521.58	8.491
521.92	8.280
522.26	8.531
522.61	9.150
522.95	8.649
523.29	8.538
523.64	8.613
523.98	9.331
524.32	8.651
524.66	8.406
525.01	8.343
525.35	8.839
525.69	8.910
526.04	8.507
526.38	9.123
526.72	8.532
527.06	8.989
527.41	9.734
527.75	9.069
528.09	8.850
528.43	9.213
528.78	8.766
529.12	9.813
529.46	8.416
529.80	8.879
530.15	8.662
530.49	8.363
530.83	8.410
531.17	8.795
531.51	9.197
531.86	8.333
532.20	8.096
532.54	8.600
532.88	8.745
533.22	9.263
533.57	8.725
533.91	8.741
534.25	8.482
534.59	9.006
534.93	9.556
535.27	8.196
535.62	8.401
535.96	8.924
536.30	9.385
536.64	8.634
536.98	8.181
537.32	9.438
537.66	9.311
538.01	9.598
538.35	8.983
538.69	8.677
539.03	8.022
539.37	8.252
539.71	9.506
540.05	8.862
540.39	9.308
540.73	8.671
541.07	7.654
541.42	8.893
541.76	8.570
542.10	8.940
542.44	9.601
542.78	8.622
543.12	8.405
543.46	8.208
543.80	8.835
544.14	8.731
544.48	9.307
544.82	8.563
545.16	7.954
545.50	8.851
545.84	8.333
546.18	9.558
546.52	9.311
546.86	9.220
547.20	8.979
547.54	9.120
547.88	9.124
548.22	8.257
548.56	9.193
548.90	8.363
549.24	9.349
549.58	8.827
549.92	8.972
550.26	8.790
550.60	8.982
550.94	8.684
551.28	9.448
551.62	10.276
551.96	9.595
552.30	8.240
552.64	9.256
552.98	8.054
553.32	8.259
553.66	8.208
554.00	9.331
554.34	8.988
554.68	8.938
555.02	8.215
555.36	8.644
555.69	8.901
556.03	8.089
556.37	9.433
556.71	8.801
557.05	8.453
557.39	9.533
557.73	9.973
558.07	9.323
558.41	8.430
558.75	9.918
559.08	9.793
559.42	9.377
559.76	9.266
560.10	9.085
560.44	9.157
560.78	9.399
561.12	8.773
561.45	8.198
561.79	8.801
562.13	8.654
562.47	8.566
562.81	8.393
563.15	8.662
563.48	8.075
563.82	8.671
564.16	8.396
564.50	8.439
564.84	8.450
565.17	8.675
565.51	8.929
565.85	8.883
566.19	8.869
566.52	7.641
566.86	9.282
567.20	8.371
567.54	7.697
567.88	8.607
568.21	7.888
568.55	7.977
568.89	8.394
569.23	7.593
569.56	7.268
569.90	6.971
570.24	7.428
570.57	7.171
570.91	6.739
571.25	6.435
571.59	6.373
571.92	6.405
572.26	6.253
572.60	6.304
572.93	6.671
573.27	6.605
573.61	6.091
573.95	5.951
574.28	6.253
574.62	5.752
574.96	5.945
575.29	5.909
575.63	6.031
575.97	5.818
576.30	6.074
576.64	6.276
576.98	5.828
577.31	6.316
577.65	6.039
577.98	5.657
578.32	5.876
578.66	5.579
578.99	6.083
579.33	6.315
579.67	6.093
580.00	5.641
580.34	5.811
580.67	5.928
581.01	6.210
581.35	6.062
581.68	5.732
582.02	5.869
582.35	5.588
582.69	5.711
583.02	5.650
583.36	5.800
583.70	6.064
584.03	6.388
584.37	6.386
584.70	6.295
585.04	5.686
585.37	5.996
585.71	6.337
586.04	5.946
586.38	5.698
586.72	6.538
587.05	6.459
587.39	6.094
587.72	5.879
588.06	6.382
588.39	6.474
588.73	6.374
589.06	6.361
589.40	6.416
589.73	6.719
590.07	7.069
590.40	6.760
590.73	7.639
591.07	7.514
591.40	7.106
591.74	7.305
592.07	6.614
592.41	7.154
592.74	6.847
593.08	6.022
593.41	6.433
593.75	6.325
594.08	6.560
594.41	6.517
594.75	6.986
595.08	7.236
595.42	7.143
595.75	7.141
596.09	7.125
596.42	6.482
596.75	7.452
597.09	7.759
597.42	7.265
597.75	6.450
598.09	7.140
598.42	7.303
598.76	6.785
599.09	6.878
599.42	6.955
599.76	7.090
600.09	6.847
600.42	6.492
600.76	6.594
601.09	6.559
601.42	7.005
601.76	6.839
602.09	6.770
602.42	6.950
602.76	7.135
603.09	6.863
603.42	7.046
603.76	6.580
604.09	6.623
604.42	6.855
604.76	7.191
605.09	7.388
605.42	7.355
605.75	6.948
606.09	7.345
606.42	7.103
606.75	6.879
607.09	6.751
607.42	6.870
607.75	6.967
608.08	7.108
608.42	6.921
608.75	6.761
609.08	7.083
609.41	7.364
609.75	7.234
610.08	7.419
610.41	7.159
610.74	7.835
611.07	7.685
611.41	7.646
611.74	7.218
612.07	7.322
612.40	7.505
612.73	7.339
613.07	7.400
613.40	7.318
613.73	7.189
614.06	7.800
614.39	7.980
614.72	8.237
615.06	7.567
615.39	7.921
615.72	7.164
616.05	7.885
616.38	8.321
616.71	7.271
617.05	7.798
617.38	7.584
617.71	8.493
618.04	7.908
618.37	7.671
618.70	7.679
619.03	7.631
619.36	8.920
619.69	9.037
620.03	9.198
620.36	8.863
620.69	9.387
621.02	8.628
621.35	8.524
621.68	9.071
622.01	10.406
622.34	7.866
622.67	9.129
623.00	9.394
623.33	8.772
623.66	8.583
623.99	9.178
624.32	8.875
624.65	8.427
624.99	8.857
625.32	9.018
625.65	8.276
625.98	8.438
626.31	8.309
626.64	8.656
626.97	8.952
627.30	9.084
627.63	9.027
627.96	8.920
628.29	9.241
628.62	9.410
628.95	10.727
629.28	10.955
629.61	9.842
629.94	9.507
630.26	9.965
630.59	11.436
630.92	10.404
631.25	10.698
631.58	11.379
631.91	9.229
632.24	9.913
632.57	9.725
632.90	11.387
633.23	11.752
633.56	11.907
633.89	11.576
634.22	11.625
634.55	10.860
634.88	11.610
635.20	11.659
635.53	11.614
635.86	11.745
636.19	10.662
636.52	10.486
636.85	10.248
637.18	11.051
637.51	10.726
637.83	10.297
638.16	13.013
638.49	11.617
638.82	12.089
639.15	10.341
639.48	12.915
639.81	11.233
640.13	12.393
640.46	11.378
640.79	12.224
641.12	10.892
641.45	12.678
641.77	12.417
642.10	13.119
642.43	13.371
642.76	12.074
643.09	12.680
643.41	13.885
643.74	12.518
644.07	11.504
644.40	12.574
644.73	14.114
645.05	14.413
645.38	12.711
645.71	13.050
646.04	13.282
646.36	12.520
646.69	11.520
647.02	14.240
647.35	11.654
647.67	13.614
648.00	13.192
648.33	13.383
648.66	12.727
648.98	12.319
649.31	12.551
649.64	9.959
649.96	11.238
650.29	12.286
650.62	12.813
650.94	14.157
651.27	13.397
651.60	12.520
651.92	13.978
652.25	12.598
652.58	12.766
652.90	10.928
653.23	13.146
653.56	11.573
653.88	11.747
654.21	12.023
654.54	13.177
654.86	11.652
655.19	11.478
655.52	8.859
655.84	4.808
656.17	4.931
656.49	7.239
656.82	8.309
657.15	6.787
657.47	4.988
657.80	3.819
658.13	3.206
658.45	4.361
658.78	5.226
659.10	5.456
659.43	5.964
659.75	6.661
660.08	6.955
660.41	10.345
660.73	11.418
661.06	13.664
661.38	13.799
661.71	10.791
662.03	11.597
662.36	15.429
662.68	13.966
663.01	15.856
663.33	12.075
663.66	14.793
663.98	13.294
664.31	18.657
664.63	16.858
664.96	16.510
665.28	12.994
665.61	12.453
665.93	15.094
666.26	13.832
666.58	17.064
666.91	14.479
667.23	13.655
667.56	16.222
667.88	16.598
668.21	15.574
668.53	14.718
668.86	16.834
669.18	15.682
669.50	13.223
669.83	15.195
670.15	14.345
670.48	14.062
670.80	14.940
671.13	14.542
671.45	17.635
671.77	15.770
672.10	13.285
672.42	11.842
672.75	12.975
673.07	14.944
673.39	12.620
673.72	14.014
674.04	14.516
674.37	14.519
674.69	13.569
675.01	13.806
675.34	13.953
675.66	16.406
675.98	17.751
676.31	14.000
676.63	14.513
676.95	15.476
677.28	12.373
677.60	14.889
677.92	13.095
678.25	13.372
678.57	16.760
678.89	14.647
679.22	14.890
679.54	12.456
679.86	14.136
680.18	12.830
680.51	11.609
680.83	11.655
681.15	13.518
681.48	14.931
681.80	13.835
682.12	12.976
682.44	13.874
682.77	13.345
683.09	14.757
683.41	13.878
683.73	15.748
684.06	13.095
684.38	13.566
684.70	13.129
685.02	11.632
685.34	13.204
685.67	13.023
685.99	12.151
686.31	11.710
686.63	10.569
686.96	14.052
687.28	12.416
687.60	11.433
687.92	12.563
688.24	13.448
688.56	12.100
688.89	12.237
689.21	14.066
689.53	14.427
689.85	15.041
690.17	14.757
690.49	16.532
690.82	14.286
691.14	14.747
691.46	16.016
691.78	12.865
692.10	12.405
692.42	14.156
692.74	15.698
693.06	14.535
693.39	14.032
693.71	14.342
694.03	12.821
694.35	15.863
694.67	14.868
694.99	13.969
695.31	15.766
695.63	16.063
695.95	14.480
696.27	17.035
696.59	15.513
696.91	12.658
697.23	16.290
697.56	11.826
697.88	11.178
698.20	12.453
698.52	12.646
698.84	14.579
699.16	15.139
699.48	15.466
699.80	17.647
700.12	17.552
700.44	17.290
700.76	17.422
701.08	16.188
701.40	15.065
701.72	17.647
702.04	17.073
702.36	16.667
702.68	15.957
703.00	15.789
703.32	16.625
703.64	14.610
703.96	15.625
704.28	16.138
704.60	16.338
704.91	17.087
705.23	16.193
705.55	18.101
705.87	15.238
706.19	21.317
706.51	18.182
706.83	21.534
707.15	20.053
707.47	17.433
707.79	15.632
708.11	11.791
708.43	16.629
708.74	13.575
709.06	16.512
709.38	17.122
709.70	15.531
710.02	13.315
710.34	17.403
710.66	17.778
710.98	20.765
711.29	16.435
711.61	18.663
711.93	16.109
712.25	17.470
712.57	18.006
712.89	17.879
713.20	19.808
713.52	18.069
713.84	16.918
714.16	15.072
714.48	13.256
714.80	16.260
715.11	15.691
715.43	17.598
715.75	17.183
716.07	15.029
716.39	19.143
716.70	17.134
717.02	19.192
717.34	21.583
717.66	21.181
717.97	24.242
718.29	19.366
718.61	18.581
718.93	20.415
719.24	21.812
719.56	22.069
719.88	17.516
720.20	18.710
720.51	16.667
720.83	15.385
721.15	17.687
721.46	18.151
721.78	20.209
722.10	20.486
722.42	20.736
722.73	22.022
723.05	18.947
723.37	22.615
723.68	19.922
724.00	18.561
724.32	22.053
724.63	19.615
724.95	18.824
725.27	21.561
725.58	19.485
725.90	19.718
726.22	18.151
726.53	19.064
726.85	20.195
727.16	19.799
727.48	18.937
727.80	20.863
728.11	22.143
728.43	21.014
728.74	20.629
729.06	18.638
729.38	20.702
729.69	19.667
730.01	24.013
730.32	19.128
730.64	17.276
730.96	18.018
731.27	14.373
731.59	12.356
731.90	14.206
732.22	14.571
732.53	15.385
732.85	19.883
733.16	19.880
733.48	16.301
733.80	19.130
734.11	19.632
734.43	14.035
734.74	14.745
735.06	17.196
735.37	15.464
735.69	14.203
736.00	16.514
736.32	16.061
736.63	14.196
736.95	16.770
737.26	17.073
737.58	17.178
737.89	18.072
738.21	15.894
738.52	19.732
738.83	20.147
739.15	20.557
739.46	20.000
739.78	13.946
740.09	17.493
740.41	19.018
740.72	20.317
741.04	20.280
741.35	20.703
741.66	21.739
741.98	18.884
742.29	23.148
742.61	18.142
742.92	22.034
743.23	22.800
743.55	22.642
743.86	22.745
744.18	21.186
744.49	21.488
744.80	24.885
745.12	24.107
745.43	23.832
745.74	27.111
746.06	17.544
746.37	26.047
746.68	25.664
747.00	22.422
747.31	24.370
747.62	20.492
747.94	21.888
748.25	19.455
748.56	26.271
748.88	20.089
749.19	19.070
749.50	22.374
749.82	19.753
750.13	19.368
750.44	18.000
750.75	19.128
751.07	15.132
751.38	15.842
751.69	18.855
752.01	19.930
752.32	18.605
752.63	18.792
752.94	23.077
753.26	21.875
753.57	23.346
753.88	15.356
754.19	18.773
754.51	18.937
754.82	15.436
755.13	18.581
755.44	20.370
755.75	20.962
756.07	18.836
756.38	16.667
756.69	19.063
757.00	19.881
757.31	18.592
757.63	15.427
757.94	14.096
758.25	15.942
758.56	15.789
758.87	15.539
759.18	18.605
759.50	13.982
759.81	16.024
760.12	16.011
760.43	14.286
760.74	14.684
761.05	15.385
761.36	14.323
761.67	16.442
761.99	18.028
762.30	19.293
762.61	14.931
762.92	18.939
763.23	21.132
763.54	17.692
763.85	16.732
764.16	19.444
764.47	17.230
764.78	21.173
765.10	15.244
765.41	16.193
765.72	17.956
766.03	15.408
766.34	16.725
766.65	17.871
766.96	21.053
767.27	24.299
767.58	21.287
767.89	23.204
768.20	26.829
768.51	27.041
768.82	23.684
769.13	22.353
769.44	21.805
769.75	16.854
770.06	18.067
770.37	21.930
770.68	15.556
770.99	27.119
771.30	23.849
771.61	19.231
771.92	20.611
772.23	18.145
772.54	23.556
772.85	28.713
773.16	25.543
773.47	28.333
773.78	23.762
774.09	26.136
774.39	23.636
774.70	22.353
775.01	21.053
775.32	23.602
775.63	34.932
775.94	33.333
776.25	33.793
776.56	29.771
776.87	39.695
777.18	35.606
777.48	40.945
777.79	30.000
778.10	37.879
778.41	40.299
778.72	34.586
779.03	29.487
779.34	29.730
779.65	29.814
779.95	29.814
780.26	28.571
780.57	44.898
780.88	29.787
781.19	33.333
781.50	30.178
781.80	33.333
782.11	26.455
782.42	24.138
782.73	29.379
783.04	29.677
783.34	23.256
783.65	26.531
783.96	31.613
784.27	26.490
784.57	28.289
784.88	31.884
785.19	35.833
785.50	37.069
785.81	36.434
786.11	30.370
786.42	37.008
786.73	36.937
787.04	33.962
787.34	36.585
787.65	39.394
787.96	37.121
788.26	37.008
788.57	40.146
788.88	33.803
789.19	35.115
789.49	36.486
789.80	35.938
790.11	35.537
790.41	37.037
790.72	48.148
791.03	47.115
791.33	36.364
791.64	52.632
791.95	40.000
792.25	30.208
792.56	41.000
792.87	46.341
793.17	47.727
793.48	49.412
793.79	63.218
794.09	48.864
794.40	39.655
794.70	34.921
795.01	26.923
795.32	35.115
795.62	28.205
795.93	40.336
796.23	28.455
796.54	51.020
796.85	37.500
797.15	51.948
797.46	48.780
797.76	42.500
798.07	57.333
798.37	66.250
798.68	56.250
798.99	68.293
799.29	56.000
799.60	39.535
799.90	53.947
800.21	46.970
800.51	66.197
800.82	62.069
801.12	61.538
801.43	69.333
801.73	51.724
802.04	45.455
802.34	57.534
802.65	76.471
802.95	60.870
803.26	69.355
803.56	76.667
803.87	71.642
804.17	69.841
804.48	69.811
804.78	55.556
805.09	69.697
805.39	58.730
805.70	54.386
806.00	41.429
806.30	62.500
806.61	51.765
806.91	38.889
807.22	43.478
807.52	52.632
807.83	51.316
808.13	53.623
808.43	66.129
808.74	56.164
809.04	57.143
809.35	60.294
809.65	66.667
809.95	62.745
810.26	64.815
810.56	84.375
810.86	71.429
811.17	64.912
811.47	80.435
811.77	60.345
812.08	63.793
812.38	85.714
812.69	97.619
812.99	71.111
813.29	117.143
813.59	77.419
813.90	55.172
814.20	81.967
814.50	64.000
814.81	64.912
815.11	81.481
815.41	76.786
815.72	71.429
816.02	90.000
816.32	104.878
816.62	91.379
816.93	90.909
817.23	100.000
817.53	78.571
817.84	46.667
818.14	59.524
818.44	66.667
818.74	71.698
819.04	84.615
819.35	115.152
819.65	96.154
819.95	109.259
820.25	89.362
820.56	124.324
820.86	102.632
821.16	57.447
821.46	94.737
821.76	78.182
822.07	76.190
822.37	71.053
822.67	111.628
822.97	89.474
823.27	108.696
823.57	140.625
823.88	115.385
824.18	121.212
824.48	134.783
824.78	111.111
825.08	152.174
825.38	134.483
825.69	138.235
825.99	93.617
826.29	91.667
826.59	114.286
826.89	133.333
827.19	94.286
827.49	109.677
827.79	126.923
828.09	80.952
828.39	97.222
828.70	78.378
829.00	135.714
829.30	118.750
829.60	97.222
829.90	116.129
830.20	100.000
830.50	127.027
830.80	129.167
831.10	173.077
831.40	157.143
831.70	170.833
832.00	96.667
832.30	208.696
832.60	133.333
832.90	145.455
833.20	120.000
833.50	142.105
833.80	108.824
834.10	113.158
834.40	184.211
834.70	123.333
835.00	180.000
835.30	102.703
835.60	162.500
835.90	89.189
836.20	142.308
836.50	154.545
836.80	92.683
837.10	165.217
837.40	307.692
837.70	126.316
838.00	146.667
838.30	170.833
838.60	188.000
838.90	340.000
839.19	212.500
839.49	170.000
839.79	131.034
840.09	153.846
840.39	180.000
840.69	200.000
840.99	138.095
841.29	173.913
841.59	220.000
841.88	156.000
842.18	244.444
842.48	164.286
842.78	177.778
843.08	223.077
843.38	154.545
843.68	264.286
843.97	600.000
844.27	165.217
844.57	1300.000
844.87	328.571
845.17	172.222
845.47	142.857
845.76	195.833
846.06	428.571
846.36	211.765
846.66	276.923
846.96	256.250
847.25	207.692
847.55	152.632
847.85	266.667
848.15	680.000
848.44	363.636
848.74	214.286
849.04	175.000
849.34	211.765
849.63	300.000
849.93	237.500
850.23	1033.333
850.53	437.500
850.82	281.818
851.12	217.647
851.42	183.333
851.71	162.500
852.01	0.000
852.31	211.765
852.61	470.000
852.90	133.333
853.20	266.667
853.50	-1800.000
853.79	124.000
854.09	150.000
854.39	96.552
854.68	131.034
854.98	171.429
855.28	112.903
855.57	221.429
855.87	200.000
856.17	148.148
856.46	163.158
856.76	109.677
857.05	223.529
857.35	290.909
857.65	300.000
857.94	165.000
858.24	411.111
858.53	314.286
858.83	542.857
859.13	173.913
859.42	333.333
859.72	350.000
860.01	250.000
860.31	800.000
860.60	430.000
860.90	487.500
861.20	284.615
861.49	357.143
861.79	-3300.000
862.08	542.857
862.38	344.444
862.67	178.571
862.97	480.000
863.26	136.667
863.56	850.000
863.85	315.385
864.15	258.824
864.44	177.778
864.74	333.333
865.03	272.727
865.33	300.000
865.62	213.333
865.92	600.000
866.21	800.000
866.51	660.000
866.80	222.222
867.10	600.000
867.39	3900.000
867.69	660.000
867.98	850.000
868.27	180.952
868.57	266.667
868.86	600.000
869.16	161.905
869.45	3800.000
869.75	-416.667
870.04	700.000
870.33	580.000
870.63	325.000
870.92	170.588
871.22	900.000
871.51	500.000
871.80	300.000
872.10	261.538
>>>>>End Processed Spectral Data<<<<<
