SpectraSuite Data File
++++++++++++++++++++++++++++++++++++
Date: Wed May 13 21:47:25 PDT 2015
User: schluterlab
Dark Spectrum Present: Yes
Reference Spectrum Present: Yes
Number of Sampled Component Spectra: 1
Spectrometers: USB2E3373
Integration Time (usec): 3000 (USB2E3373)
Spectra Averaged: 3 (USB2E3373)
Boxcar Smoothing: 0 (USB2E3373)
Correct for Electrical Dark: No (USB2E3373)
Strobe/Lamp Enabled: No (USB2E3373)
Correct for Detector Non-linearity: No (USB2E3373)
Correct for Stray Light: No (USB2E3373)
Number of Pixels in Processed Spectrum: 2048
>>>>>Begin Processed Spectral Data<<<<<
178.53	0.000
178.91	300.000
179.29	166.667
179.67	-750.000
180.04	-266.667
180.42	120.000
180.80	1100.000
181.18	200.000
181.56	-325.000
181.94	-200.000
182.31	9.091
182.69	107.692
183.07	-260.000
183.45	316.667
183.83	44.444
184.20	157.143
184.58	-66.667
184.96	266.667
185.34	128.571
185.72	0.000
186.09	-600.000
186.47	-200.000
186.85	340.000
187.23	-150.000
187.61	300.000
187.98	700.000
188.36	50.000
188.74	0.000
189.12	-100.000
189.49	-10.000
189.87	91.667
190.25	360.000
190.63	800.000
191.00	-80.000
191.38	280.000
191.76	400.000
192.14	83.333
192.51	-5.263
192.89	366.667
193.27	200.000
193.65	-60.000
194.02	172.727
194.40	120.000
194.78	-200.000
195.15	240.000
195.53	-100.000
195.91	0.000
196.29	-166.667
196.66	0.000
197.04	550.000
197.42	-140.000
197.79	20.000
198.17	87.500
198.55	-500.000
198.92	325.000
199.30	-300.000
199.68	-50.000
200.05	650.000
200.43	200.000
200.81	-1300.000
201.18	-80.000
201.56	-166.667
201.94	550.000
202.31	17.391
202.69	-142.857
203.07	-333.333
203.44	60.000
203.82	-233.333
204.19	50.000
204.57	0.000
204.95	33.333
205.32	0.000
205.70	-250.000
206.08	-350.000
206.45	-150.000
206.83	100.000
207.20	-300.000
207.58	-60.000
207.96	-900.000
208.33	-200.000
208.71	-800.000
209.08	325.000
209.46	425.000
209.84	0.000
210.21	100.000
210.59	2900.000
210.96	180.000
211.34	700.000
211.71	-900.000
212.09	-250.000
212.46	-220.000
212.84	133.333
213.22	50.000
213.59	-1300.000
213.97	-650.000
214.34	-500.000
214.72	-15.385
215.09	150.000
215.47	66.667
215.84	750.000
216.22	-37.500
216.59	-150.000
216.97	400.000
217.34	122.222
217.72	0.000
218.09	366.667
218.47	-600.000
218.84	-128.571
219.22	-87.500
219.59	-333.333
219.97	-400.000
220.34	-175.000
220.72	-40.000
221.09	0.000
221.47	-250.000
221.84	-500.000
222.22	0.000
222.59	400.000
222.97	-300.000
223.34	-41.667
223.72	-1200.000
224.09	-100.000
224.46	-118.182
224.84	-25.000
225.21	-100.000
225.59	-125.000
225.96	-133.333
226.34	-60.000
226.71	-157.143
227.08	950.000
227.46	-100.000
227.83	-200.000
228.21	-25.000
228.58	-25.000
228.95	-35.294
229.33	-12.500
229.70	-37.500
230.08	-30.769
230.45	-137.500
230.82	-141.667
231.20	171.429
231.57	-275.000
231.95	1500.000
232.32	-25.000
232.69	-29.412
233.07	-1300.000
233.44	17.391
233.81	-600.000
234.19	20.833
234.56	-100.000
234.93	6.667
235.31	-5.263
235.68	-38.462
236.05	-115.385
236.43	-50.000
236.80	-42.424
237.17	-100.000
237.55	-82.353
237.92	-44.828
238.29	-48.148
238.67	-25.000
239.04	-32.258
239.41	-23.404
239.79	8.511
240.16	-11.628
240.53	-19.643
240.91	-5.357
241.28	-8.929
241.65	-1.613
242.02	1.316
242.40	5.797
242.77	-31.884
243.14	-3.846
243.51	0.000
243.89	-0.962
244.26	7.547
244.63	-4.808
245.00	-1.042
245.38	-6.723
245.75	0.820
246.12	0.752
246.49	-8.943
246.87	-9.244
247.24	1.351
247.61	-1.325
247.98	-3.846
248.36	-8.876
248.73	-6.180
249.10	-4.545
249.47	-3.763
249.84	1.579
250.22	0.000
250.59	1.869
250.96	3.182
251.33	-9.569
251.70	5.021
252.08	-2.510
252.45	0.412
252.82	3.802
253.19	-2.335
253.56	0.719
253.94	4.626
254.31	1.761
254.68	5.369
255.05	2.640
255.42	-0.350
255.79	1.840
256.16	1.262
256.54	0.635
256.91	-1.266
257.28	1.258
257.65	-3.185
258.02	-1.466
258.39	1.170
258.76	0.581
259.14	-2.273
259.51	2.247
259.88	0.813
260.25	-2.222
260.62	-0.562
260.99	0.265
261.36	3.109
261.73	-1.975
262.10	-1.272
262.47	-2.222
262.85	-0.746
263.22	0.256
263.59	-2.338
263.96	-0.730
264.33	-1.202
264.70	0.465
265.07	1.620
265.44	0.230
265.81	-0.229
266.18	-0.911
266.55	0.655
266.92	-0.212
267.29	1.440
267.66	1.699
268.03	2.675
268.40	0.424
268.77	-0.413
269.14	-0.408
269.51	5.339
269.88	-2.444
270.25	-0.636
270.62	-2.459
270.99	0.984
271.36	0.794
271.73	-1.205
272.10	0.952
272.47	4.031
272.84	1.378
273.21	-0.978
273.58	-0.205
273.95	-1.887
274.32	1.679
274.69	-0.911
275.06	1.767
275.43	0.188
275.80	0.532
276.17	-0.184
276.54	-0.888
276.91	0.523
277.28	-0.722
277.65	1.923
278.02	3.750
278.39	-1.066
278.76	1.338
279.13	0.858
279.50	1.034
279.87	-0.543
280.23	0.541
280.60	-0.519
280.97	0.649
281.34	2.997
281.71	0.976
282.08	0.513
282.45	2.131
282.82	1.917
283.19	1.982
283.56	1.875
283.92	2.141
284.29	2.184
284.66	0.000
285.03	1.303
285.40	0.000
285.77	2.252
286.14	1.824
286.51	2.849
286.87	1.846
287.24	1.327
287.61	1.054
287.98	1.765
288.35	0.745
288.72	2.439
289.08	4.131
289.45	0.587
289.82	0.454
290.19	2.525
290.56	1.136
290.93	1.243
291.29	2.599
291.66	1.913
292.03	3.951
292.40	2.153
292.77	2.008
293.13	3.347
293.50	2.876
293.87	3.733
294.24	2.249
294.60	3.771
294.97	3.836
295.34	2.243
295.71	3.022
296.08	2.487
296.44	2.934
296.81	2.680
297.18	5.000
297.55	4.953
297.91	5.217
298.28	4.722
298.65	3.448
299.02	5.617
299.38	4.663
299.75	5.409
300.12	4.651
300.48	5.146
300.85	6.467
301.22	5.691
301.59	5.282
301.95	5.343
302.32	7.118
302.69	7.345
303.05	5.980
303.42	6.705
303.79	8.097
304.15	7.996
304.52	8.387
304.89	6.866
305.25	6.915
305.62	8.677
305.99	8.705
306.35	11.181
306.72	9.359
307.09	9.176
307.45	8.946
307.82	8.947
308.19	9.195
308.55	9.212
308.92	11.198
309.29	11.211
309.65	11.289
310.02	11.730
310.38	12.195
310.75	11.243
311.12	12.828
311.48	12.463
311.85	13.287
312.22	14.120
312.58	11.981
312.95	14.030
313.31	15.611
313.68	13.931
314.05	15.123
314.41	15.850
314.78	15.370
315.14	16.944
315.51	16.841
315.87	15.848
316.24	17.723
316.61	18.721
316.97	17.500
317.34	18.717
317.70	20.339
318.07	21.207
318.43	21.319
318.80	20.157
319.16	20.424
319.53	21.685
319.89	22.493
320.26	23.475
320.62	23.262
320.99	24.031
321.35	23.948
321.72	25.987
322.08	25.923
322.45	27.105
322.81	27.079
323.18	26.834
323.54	28.520
323.91	28.817
324.27	29.973
324.64	30.139
325.00	30.446
325.37	32.338
325.73	32.828
326.10	32.548
326.46	33.110
326.83	35.113
327.19	35.041
327.56	36.100
327.92	35.961
328.29	37.312
328.65	37.248
329.01	36.236
329.38	37.478
329.74	38.970
330.11	39.946
330.47	40.104
330.84	39.621
331.20	40.649
331.56	40.761
331.93	41.344
332.29	41.095
332.66	41.017
333.02	42.224
333.38	41.404
333.75	43.686
334.11	43.316
334.48	44.289
334.84	42.756
335.20	42.710
335.57	42.124
335.93	41.323
336.29	41.681
336.66	42.479
337.02	42.000
337.38	42.559
337.75	43.755
338.11	42.528
338.47	43.493
338.84	42.698
339.20	44.092
339.56	44.027
339.93	44.771
340.29	44.663
340.65	45.680
341.02	43.677
341.38	44.932
341.74	43.613
342.11	44.344
342.47	45.272
342.83	46.078
343.20	45.347
343.56	45.135
343.92	44.435
344.28	45.373
344.65	44.980
345.01	44.471
345.37	45.724
345.73	45.261
346.10	45.345
346.46	45.935
346.82	45.345
347.19	44.066
347.55	47.011
347.91	45.596
348.27	45.426
348.63	46.234
349.00	46.148
349.36	46.311
349.72	46.172
350.08	45.086
350.45	46.437
350.81	46.557
351.17	46.266
351.53	45.876
351.89	45.592
352.26	45.251
352.62	47.132
352.98	47.364
353.34	47.585
353.70	46.028
354.07	47.294
354.43	47.900
354.79	48.478
355.15	46.817
355.51	46.925
355.87	49.101
356.24	48.074
356.60	46.443
356.96	48.734
357.32	46.749
357.68	48.739
358.04	47.246
358.40	46.744
358.77	47.248
359.13	47.393
359.49	47.237
359.85	47.536
360.21	48.882
360.57	48.061
360.93	48.179
361.29	49.149
361.66	47.836
362.02	48.258
362.38	48.671
362.74	47.788
363.10	49.024
363.46	48.271
363.82	48.041
364.18	48.513
364.54	50.109
364.90	46.690
365.26	49.115
365.62	48.651
365.98	48.826
366.35	49.929
366.71	47.932
367.07	48.335
367.43	49.686
367.79	48.645
368.15	48.875
368.51	47.750
368.87	49.058
369.23	48.683
369.59	47.357
369.95	48.403
370.31	48.884
370.67	49.312
371.03	49.443
371.39	48.758
371.75	47.429
372.11	49.359
372.47	49.099
372.83	48.752
373.19	48.129
373.55	48.410
373.91	48.091
374.27	47.372
374.63	49.004
374.99	49.304
375.35	49.110
375.71	48.981
376.07	49.280
376.42	47.928
376.78	49.934
377.14	48.542
377.50	49.218
377.86	49.137
378.22	48.483
378.58	48.424
378.94	49.188
379.30	50.156
379.66	48.027
380.02	47.978
380.38	47.831
380.74	47.639
381.09	48.070
381.45	48.186
381.81	47.936
382.17	48.267
382.53	47.877
382.89	46.803
383.25	47.963
383.61	48.547
383.97	46.812
384.32	48.897
384.68	47.502
385.04	48.076
385.40	48.630
385.76	47.384
386.12	47.321
386.48	48.213
386.83	47.309
387.19	46.823
387.55	48.314
387.91	47.355
388.27	46.424
388.62	46.941
388.98	47.247
389.34	46.742
389.70	45.665
390.06	46.375
390.42	47.229
390.77	46.124
391.13	46.212
391.49	45.731
391.85	46.006
392.20	45.426
392.56	45.841
392.92	45.231
393.28	45.845
393.64	46.300
393.99	44.553
394.35	45.309
394.71	45.769
395.07	44.025
395.42	44.851
395.78	45.560
396.14	44.959
396.50	45.339
396.85	45.252
397.21	44.694
397.57	43.665
397.92	43.713
398.28	43.937
398.64	43.959
399.00	42.076
399.35	44.154
399.71	45.020
400.07	44.518
400.42	43.386
400.78	42.477
401.14	43.777
401.49	42.061
401.85	42.383
402.21	43.220
402.57	41.386
402.92	43.805
403.28	42.714
403.63	42.467
403.99	41.779
404.35	42.768
404.70	41.571
405.06	42.396
405.42	41.457
405.77	41.820
406.13	41.200
406.49	40.264
406.84	41.575
407.20	40.320
407.55	41.169
407.91	40.371
408.27	40.424
408.62	39.840
408.98	39.766
409.34	40.347
409.69	40.091
410.05	39.677
410.40	40.292
410.76	39.651
411.11	40.983
411.47	40.677
411.83	38.740
412.18	39.547
412.54	39.411
412.89	40.000
413.25	38.289
413.60	38.809
413.96	38.639
414.31	39.519
414.67	38.794
415.03	39.919
415.38	37.450
415.74	37.297
416.09	38.863
416.45	38.414
416.80	38.121
417.16	39.474
417.51	37.776
417.87	38.492
418.22	38.138
418.58	37.845
418.93	37.916
419.29	38.350
419.64	37.341
420.00	38.159
420.35	37.657
420.71	36.685
421.06	37.146
421.42	37.409
421.77	37.225
422.12	37.765
422.48	36.750
422.83	37.685
423.19	37.493
423.54	36.219
423.90	35.570
424.25	38.128
424.61	36.722
424.96	36.487
425.31	35.558
425.67	37.155
426.02	37.279
426.38	37.065
426.73	36.591
427.09	35.522
427.44	35.643
427.79	35.451
428.15	35.963
428.50	34.562
428.85	36.654
429.21	35.678
429.56	36.397
429.92	35.034
430.27	35.532
430.62	35.100
430.98	35.907
431.33	35.304
431.68	36.049
432.04	34.761
432.39	34.700
432.74	34.948
433.10	36.316
433.45	35.148
433.80	35.057
434.16	35.281
434.51	35.217
434.86	35.453
435.22	34.578
435.57	34.521
435.92	34.922
436.28	34.174
436.63	35.277
436.98	34.959
437.34	34.676
437.69	33.825
438.04	34.578
438.39	35.554
438.75	33.850
439.10	35.107
439.45	34.383
439.81	35.099
440.16	34.493
440.51	34.007
440.86	34.262
441.22	33.907
441.57	34.002
441.92	34.163
442.27	34.145
442.63	32.992
442.98	33.275
443.33	33.691
443.68	32.841
444.03	33.681
444.39	34.060
444.74	34.235
445.09	32.709
445.44	33.915
445.79	34.125
446.15	33.444
446.50	33.040
446.85	34.313
447.20	34.449
447.55	32.177
447.91	33.034
448.26	33.047
448.61	32.969
448.96	33.087
449.31	33.352
449.66	33.430
450.02	33.883
450.37	33.020
450.72	32.549
451.07	33.103
451.42	31.379
451.77	32.015
452.12	31.313
452.47	32.343
452.83	31.073
453.18	32.718
453.53	32.219
453.88	32.169
454.23	32.200
454.58	31.250
454.93	31.687
455.28	32.113
455.63	30.880
455.98	31.589
456.34	31.659
456.69	31.246
457.04	31.517
457.39	31.690
457.74	31.598
458.09	30.273
458.44	31.316
458.79	30.917
459.14	31.011
459.49	31.524
459.84	31.567
460.19	30.012
460.54	30.961
460.89	30.912
461.24	30.395
461.59	30.556
461.94	30.468
462.29	29.473
462.64	29.288
462.99	29.846
463.34	31.077
463.69	30.090
464.04	29.592
464.39	29.957
464.74	28.808
465.09	29.076
465.44	29.910
465.79	30.132
466.14	29.475
466.49	29.326
466.84	29.528
467.19	30.064
467.54	29.812
467.89	29.038
468.24	28.765
468.59	29.318
468.94	29.502
469.29	28.486
469.64	29.219
469.99	29.586
470.34	28.456
470.68	28.327
471.03	28.420
471.38	28.720
471.73	28.669
472.08	29.003
472.43	29.222
472.78	28.871
473.13	28.232
473.48	28.702
473.83	28.751
474.17	27.930
474.52	28.220
474.87	27.201
475.22	28.382
475.57	27.998
475.92	27.917
476.27	28.380
476.61	26.727
476.96	27.470
477.31	27.400
477.66	27.910
478.01	27.033
478.36	27.139
478.70	27.282
479.05	28.024
479.40	26.729
479.75	27.099
480.10	27.078
480.45	26.827
480.79	26.929
481.14	26.950
481.49	27.134
481.84	26.532
482.19	26.401
482.53	26.524
482.88	27.181
483.23	25.794
483.58	27.032
483.92	25.584
484.27	25.709
484.62	25.566
484.97	25.674
485.31	25.651
485.66	24.981
486.01	25.921
486.36	25.650
486.70	25.973
487.05	25.701
487.40	26.064
487.75	26.701
488.09	25.399
488.44	25.587
488.79	25.965
489.13	24.891
489.48	24.925
489.83	25.190
490.17	25.374
490.52	25.760
490.87	25.081
491.22	25.389
491.56	25.587
491.91	25.012
492.26	25.000
492.60	24.483
492.95	24.879
493.30	24.709
493.64	23.501
493.99	25.169
494.34	24.326
494.68	24.916
495.03	24.209
495.37	24.477
495.72	23.810
496.07	24.355
496.41	23.678
496.76	24.314
497.11	24.695
497.45	23.492
497.80	24.382
498.14	24.181
498.49	23.046
498.84	24.038
499.18	23.793
499.53	23.781
499.87	22.562
500.22	24.241
500.56	23.922
500.91	24.195
501.26	24.236
501.60	23.186
501.95	23.143
502.29	23.641
502.64	24.301
502.98	23.796
503.33	23.066
503.67	23.661
504.02	23.039
504.36	22.585
504.71	23.120
505.06	23.383
505.40	23.299
505.75	23.042
506.09	23.710
506.44	22.933
506.78	22.803
507.13	23.493
507.47	22.481
507.82	22.187
508.16	22.269
508.51	21.436
508.85	22.032
509.19	22.857
509.54	23.110
509.88	21.667
510.23	22.105
510.57	23.093
510.92	23.006
511.26	21.947
511.61	22.173
511.95	21.555
512.30	21.710
512.64	22.418
512.98	21.440
513.33	21.352
513.67	21.863
514.02	22.463
514.36	21.629
514.70	21.478
515.05	22.235
515.39	21.108
515.74	21.492
516.08	21.416
516.42	22.005
516.77	21.090
517.11	20.694
517.46	21.609
517.80	23.002
518.14	20.698
518.49	21.700
518.83	20.644
519.17	21.446
519.52	20.567
519.86	21.554
520.20	20.679
520.55	21.206
520.89	20.557
521.23	21.346
521.58	20.733
521.92	21.182
522.26	19.323
522.61	20.233
522.95	20.920
523.29	21.333
523.64	20.661
523.98	20.394
524.32	20.668
524.66	20.260
525.01	20.511
525.35	21.593
525.69	20.212
526.04	19.544
526.38	20.714
526.72	20.316
527.06	20.052
527.41	20.119
527.75	19.292
528.09	19.877
528.43	21.370
528.78	20.026
529.12	20.957
529.46	20.154
529.80	19.547
530.15	19.369
530.49	21.092
530.83	19.431
531.17	18.630
531.51	19.420
531.86	19.715
532.20	19.642
532.54	18.966
532.88	19.129
533.22	19.259
533.57	19.868
533.91	19.484
534.25	20.052
534.59	19.048
534.93	19.005
535.27	18.599
535.62	18.684
535.96	19.779
536.30	19.215
536.64	18.045
536.98	18.641
537.32	19.004
537.66	19.252
538.01	19.417
538.35	18.785
538.69	18.395
539.03	17.987
539.37	18.377
539.71	18.690
540.05	18.421
540.39	18.238
540.73	18.575
541.07	18.980
541.42	17.710
541.76	18.742
542.10	16.655
542.44	17.879
542.78	17.974
543.12	19.542
543.46	17.830
543.80	18.058
544.14	18.995
544.48	18.182
544.82	18.494
545.16	17.309
545.50	18.028
545.84	18.373
546.18	16.971
546.52	18.066
546.86	17.102
547.20	18.156
547.54	16.154
547.88	17.476
548.22	18.371
548.56	17.612
548.90	17.659
549.24	18.333
549.58	17.509
549.92	17.975
550.26	18.819
550.60	17.417
550.94	18.060
551.28	17.335
551.62	17.669
551.96	16.764
552.30	15.648
552.64	17.373
552.98	17.259
553.32	17.015
553.66	17.682
554.00	17.207
554.34	17.949
554.68	17.151
555.02	17.066
555.36	17.700
555.69	17.189
556.03	16.226
556.37	17.496
556.71	16.889
557.05	16.162
557.39	17.257
557.73	17.625
558.07	16.805
558.41	17.335
558.75	16.782
559.08	16.439
559.42	17.703
559.76	16.131
560.10	17.371
560.44	17.539
560.78	16.403
561.12	16.678
561.45	16.122
561.79	16.988
562.13	17.229
562.47	17.429
562.81	16.306
563.15	16.572
563.48	16.655
563.82	16.074
564.16	16.588
564.50	17.096
564.84	17.500
565.17	17.020
565.51	15.775
565.85	16.256
566.19	15.762
566.52	15.924
566.86	15.613
567.20	15.944
567.54	15.544
567.88	15.230
568.21	15.046
568.55	15.806
568.89	15.703
569.23	15.445
569.56	15.895
569.90	15.874
570.24	15.235
570.57	15.592
570.91	15.613
571.25	15.605
571.59	15.664
571.92	15.958
572.26	15.919
572.60	15.553
572.93	15.589
573.27	15.396
573.61	15.836
573.95	15.547
574.28	15.159
574.62	15.280
574.96	15.231
575.29	15.296
575.63	15.490
575.97	15.353
576.30	15.419
576.64	15.352
576.98	15.313
577.31	15.192
577.65	15.242
577.98	14.918
578.32	14.732
578.66	15.111
578.99	15.423
579.33	15.392
579.67	15.275
580.00	14.634
580.34	15.221
580.67	15.189
581.01	15.042
581.35	14.715
581.68	14.991
582.02	15.027
582.35	15.472
582.69	14.918
583.02	14.912
583.36	14.865
583.70	14.935
584.03	14.721
584.37	14.508
584.70	14.700
585.04	15.127
585.37	14.411
585.71	14.761
586.04	14.962
586.38	14.707
586.72	14.667
587.05	14.890
587.39	15.069
587.72	14.734
588.06	14.692
588.39	15.085
588.73	14.170
589.06	14.420
589.40	14.689
589.73	13.906
590.07	14.801
590.40	14.805
590.73	14.506
591.07	14.751
591.40	14.957
591.74	14.406
592.07	14.696
592.41	14.929
592.74	14.699
593.08	14.085
593.41	14.033
593.75	14.115
594.08	14.439
594.41	14.479
594.75	14.243
595.08	14.339
595.42	14.674
595.75	14.100
596.09	14.550
596.42	14.461
596.75	14.656
597.09	14.331
597.42	14.581
597.75	14.178
598.09	13.980
598.42	14.273
598.76	14.022
599.09	14.406
599.42	14.502
599.76	14.307
600.09	14.194
600.42	14.614
600.76	13.821
601.09	13.785
601.42	14.426
601.76	14.247
602.09	14.633
602.42	14.651
602.76	14.136
603.09	13.963
603.42	13.914
603.76	13.640
604.09	14.980
604.42	13.437
604.76	14.448
605.09	14.635
605.42	14.800
605.75	13.576
606.09	13.618
606.42	13.799
606.75	13.810
607.09	13.298
607.42	13.704
607.75	12.998
608.08	14.157
608.42	14.152
608.75	14.095
609.08	13.572
609.41	14.059
609.75	13.616
610.08	13.363
610.41	14.674
610.74	13.763
611.07	13.677
611.41	14.534
611.74	13.716
612.07	13.340
612.40	13.838
612.73	13.502
613.07	12.971
613.40	14.537
613.73	13.922
614.06	12.935
614.39	13.230
614.72	14.547
615.06	13.222
615.39	13.576
615.72	12.527
616.05	13.063
616.38	13.116
616.71	12.358
617.05	13.145
617.38	13.802
617.71	12.929
618.04	13.163
618.37	13.691
618.70	13.001
619.03	13.952
619.36	12.883
619.69	13.158
620.03	13.074
620.36	12.109
620.69	12.277
621.02	12.769
621.35	12.919
621.68	12.143
622.01	13.107
622.34	13.481
622.67	13.234
623.00	13.526
623.33	13.014
623.66	11.970
623.99	13.353
624.32	13.500
624.65	11.350
624.99	12.417
625.32	13.518
625.65	12.326
625.98	12.954
626.31	13.796
626.64	12.296
626.97	13.322
627.30	13.174
627.63	12.803
627.96	12.468
628.29	13.302
628.62	14.410
628.95	12.525
629.28	12.118
629.61	13.684
629.94	13.056
630.26	13.695
630.59	12.987
630.92	11.446
631.25	12.255
631.58	13.062
631.91	11.347
632.24	13.063
632.57	11.667
632.90	14.002
633.23	11.631
633.56	14.269
633.89	12.560
634.22	14.723
634.55	12.302
634.88	13.358
635.20	12.375
635.53	10.982
635.86	12.564
636.19	13.400
636.52	13.293
636.85	13.148
637.18	10.597
637.51	11.236
637.83	13.185
638.16	12.133
638.49	10.948
638.82	11.503
639.15	11.968
639.48	11.096
639.81	13.056
640.13	13.099
640.46	12.853
640.79	11.367
641.12	11.243
641.45	12.227
641.77	11.193
642.10	11.649
642.43	13.836
642.76	12.618
643.09	11.342
643.41	12.121
643.74	13.732
644.07	10.841
644.40	12.106
644.73	11.186
645.05	11.693
645.38	11.628
645.71	12.755
646.04	10.438
646.36	12.326
646.69	12.937
647.02	13.661
647.35	10.420
647.67	10.906
648.00	11.232
648.33	11.695
648.66	10.851
648.98	10.404
649.31	11.810
649.64	9.233
649.96	12.322
650.29	8.987
650.62	10.873
650.94	12.241
651.27	10.601
651.60	12.937
651.92	10.573
652.25	12.730
652.58	12.706
652.90	11.953
653.23	8.998
653.56	11.074
653.88	10.068
654.21	10.580
654.54	9.302
654.86	11.870
655.19	10.504
655.52	12.895
655.84	11.859
656.17	14.050
656.49	18.736
656.82	18.366
657.15	13.969
657.47	10.344
657.80	7.732
658.13	8.323
658.45	12.131
658.78	12.453
659.10	12.223
659.43	11.882
659.75	12.372
660.08	11.103
660.41	11.359
660.73	10.606
661.06	9.694
661.38	10.853
661.71	10.656
662.03	12.051
662.36	10.841
662.68	13.548
663.01	12.712
663.33	9.719
663.66	9.091
663.98	11.236
664.31	9.451
664.63	5.631
664.96	10.941
665.28	12.232
665.61	9.935
665.93	9.422
666.26	14.135
666.58	8.351
666.91	12.108
667.23	10.829
667.56	13.793
667.88	9.813
668.21	10.045
668.53	12.184
668.86	11.031
669.18	10.165
669.50	11.521
669.83	11.933
670.15	7.619
670.48	7.816
670.80	11.160
671.13	10.526
671.45	10.959
671.77	9.483
672.10	9.747
672.42	8.969
672.75	8.750
673.07	10.000
673.39	13.060
673.72	9.381
674.04	12.090
674.37	10.772
674.69	10.494
675.01	11.966
675.34	13.786
675.66	13.508
675.98	8.186
676.31	8.597
676.63	12.472
676.95	7.765
677.28	10.321
677.60	7.598
677.92	11.530
678.25	11.714
678.57	11.609
678.89	7.889
679.22	12.215
679.54	10.000
679.86	9.180
680.18	8.654
680.51	10.192
680.83	11.306
681.15	10.216
681.48	8.617
681.80	7.975
682.12	6.458
682.44	10.060
682.77	6.526
683.09	8.259
683.41	11.628
683.73	9.375
684.06	8.628
684.38	6.838
684.70	8.961
685.02	8.678
685.34	9.589
685.67	10.507
685.99	9.075
686.31	10.345
686.63	7.904
686.96	11.132
687.28	9.980
687.60	12.287
687.92	8.366
688.24	11.400
688.56	9.868
688.89	7.572
689.21	8.296
689.53	7.658
689.85	9.438
690.17	9.231
690.49	10.628
690.82	8.592
691.14	6.763
691.46	9.513
691.78	9.011
692.10	9.554
692.42	5.714
692.74	10.652
693.06	5.618
693.39	7.260
693.71	9.111
694.03	10.227
694.35	10.360
694.67	6.750
694.99	11.082
695.31	9.819
695.63	8.780
695.95	7.888
696.27	5.479
696.59	5.914
696.91	7.821
697.23	6.345
697.56	9.113
697.88	10.395
698.20	10.799
698.52	7.710
698.84	9.330
699.16	8.983
699.48	10.370
699.80	10.078
700.12	10.992
700.44	9.577
700.76	9.551
701.08	6.949
701.40	6.587
701.72	8.615
702.04	5.031
702.36	7.012
702.68	5.183
703.00	7.310
703.32	6.964
703.64	6.024
703.96	8.211
704.28	5.422
704.60	8.537
704.91	5.956
705.23	8.544
705.55	6.897
705.87	7.746
706.19	5.495
706.51	8.803
706.83	7.325
707.15	10.366
707.47	8.815
707.79	6.091
708.11	8.997
708.43	9.137
708.74	9.043
709.06	6.952
709.38	9.510
709.70	9.309
710.02	7.477
710.34	3.000
710.66	6.189
710.98	8.050
711.29	7.468
711.61	7.419
711.93	8.387
712.25	4.545
712.57	2.105
712.89	7.326
713.20	8.156
713.52	4.745
713.84	6.774
714.16	8.738
714.48	7.911
714.80	1.597
715.11	9.884
715.43	4.658
715.75	9.317
716.07	9.036
716.39	8.754
716.70	11.511
717.02	5.490
717.34	6.818
717.66	1.724
717.97	5.159
718.29	7.087
718.61	5.579
718.93	3.876
719.24	9.225
719.56	4.869
719.88	7.463
720.20	5.929
720.51	10.547
720.83	10.117
721.15	0.407
721.46	7.252
721.78	9.163
722.10	5.976
722.42	4.032
722.73	8.108
723.05	10.612
723.37	6.723
723.68	9.200
724.00	-0.851
724.32	6.695
724.63	8.230
724.95	7.692
725.27	8.017
725.58	13.992
725.90	5.858
726.22	4.348
726.53	2.745
726.85	9.124
727.16	7.037
727.48	7.663
727.80	8.984
728.11	4.098
728.43	5.078
728.74	5.159
729.06	6.000
729.38	3.953
729.69	8.185
730.01	3.717
730.32	8.487
730.64	3.030
730.96	6.993
731.27	8.361
731.59	7.937
731.90	6.796
732.22	5.769
732.53	2.027
732.85	2.685
733.16	7.261
733.48	8.108
733.80	4.392
734.11	11.824
734.43	6.811
734.74	5.405
735.06	6.340
735.37	6.991
735.69	5.825
736.00	3.960
736.32	3.546
736.63	6.552
736.95	4.795
737.26	7.931
737.58	6.250
737.89	6.186
738.21	6.762
738.52	3.422
738.83	6.939
739.15	7.595
739.46	5.058
739.78	5.634
740.09	7.192
740.41	6.429
740.72	3.901
741.04	3.200
741.35	7.018
741.66	6.667
741.98	6.731
742.29	8.911
742.61	3.415
742.92	10.526
743.23	9.434
743.55	3.153
743.86	3.587
744.18	7.353
744.49	7.614
744.80	0.510
745.12	5.140
745.43	9.479
745.74	9.910
746.06	8.411
746.37	2.294
746.68	5.769
747.00	9.569
747.31	14.904
747.62	8.716
747.94	9.170
748.25	7.798
748.56	7.556
748.88	14.554
749.19	9.048
749.50	5.825
749.82	1.408
750.13	2.917
750.44	4.615
750.75	3.690
751.07	8.897
751.38	9.220
751.69	0.772
752.01	3.125
752.32	2.308
752.63	5.597
752.94	5.200
753.26	1.255
753.57	2.083
753.88	9.312
754.19	2.390
754.51	3.759
754.82	4.762
755.13	2.174
755.44	2.439
755.75	1.200
756.07	1.845
756.38	7.194
756.69	8.191
757.00	5.919
757.31	6.472
757.63	3.704
757.94	7.345
758.25	8.466
758.56	5.978
758.87	8.929
759.18	10.095
759.50	3.704
759.81	8.361
760.12	4.923
760.43	4.762
760.74	5.650
761.05	8.840
761.36	6.590
761.67	6.344
761.99	4.467
762.30	5.839
762.61	8.230
762.92	9.402
763.23	6.557
763.54	13.853
763.85	2.041
764.16	2.439
764.47	2.800
764.78	6.786
765.10	4.590
765.41	8.207
765.72	4.969
766.03	6.931
766.34	7.308
766.65	1.674
766.96	7.042
767.27	11.881
767.58	-1.124
767.89	5.556
768.20	0.000
768.51	4.523
768.82	6.250
769.13	4.425
769.44	12.552
769.75	0.000
770.06	0.448
770.37	4.902
770.68	3.883
770.99	3.883
771.30	7.143
771.61	7.347
771.92	9.544
772.23	-0.901
772.54	-3.315
772.85	2.907
773.16	6.349
773.47	-3.550
773.78	9.770
774.09	2.500
774.39	7.453
774.70	6.803
775.01	5.517
775.32	-2.143
775.63	-4.511
775.94	-3.759
776.25	-0.800
776.56	9.091
776.87	3.175
777.18	-6.306
777.48	0.901
777.79	3.937
778.10	0.917
778.41	1.754
778.72	0.840
779.03	-9.155
779.34	5.405
779.65	1.408
779.95	8.609
780.26	-3.597
780.57	2.158
780.88	1.408
781.19	-9.244
781.50	8.725
781.80	1.754
782.11	-3.488
782.42	9.434
782.73	3.922
783.04	2.069
783.34	0.763
783.65	4.698
783.96	-2.308
784.27	4.286
784.57	7.092
784.88	-17.308
785.19	3.636
785.50	2.727
785.81	-6.667
786.11	2.521
786.42	5.310
786.73	-6.604
787.04	-7.339
787.34	-12.871
787.65	6.667
787.96	-8.264
788.26	7.246
788.57	-0.794
788.88	-0.813
789.19	-4.000
789.49	-5.344
789.80	3.030
790.11	-1.887
790.41	4.950
790.72	-4.255
791.03	-3.261
791.33	-14.118
791.64	-14.815
791.95	-5.435
792.25	-2.273
792.56	0.000
792.87	1.282
793.17	-17.949
793.48	-3.571
793.79	1.250
794.09	17.308
794.40	1.042
794.70	0.901
795.01	-0.781
795.32	4.348
795.62	-21.739
795.93	-9.434
796.23	2.020
796.54	-12.195
796.85	-10.714
797.15	-3.030
797.46	1.449
797.76	13.158
798.07	2.273
798.37	-4.878
798.68	-12.903
798.99	-8.108
799.29	-1.205
799.60	6.410
799.90	-1.538
800.21	-6.061
800.51	6.667
800.82	20.000
801.12	-35.417
801.43	-26.667
801.73	2.703
802.04	11.429
802.34	-14.754
802.65	-5.970
802.95	-3.636
803.26	12.069
803.56	10.769
803.87	15.094
804.17	-6.452
804.48	-11.765
804.78	-7.317
805.09	11.594
805.39	-13.235
805.70	-23.404
806.00	-19.298
806.30	7.692
806.61	-1.316
806.91	-1.351
807.22	-5.263
807.52	-1.136
807.83	-28.814
808.13	-24.242
808.43	-11.667
808.74	-27.586
809.04	-15.873
809.35	-51.020
809.65	-3.333
809.95	-34.694
810.26	11.268
810.56	-12.500
810.86	-18.367
811.17	5.769
811.47	-17.021
811.77	-25.000
812.08	-3.774
812.38	-9.375
812.69	-9.091
812.99	-24.390
813.29	0.000
813.59	-29.730
813.90	-23.636
814.20	-3.636
814.50	-15.000
814.81	1.818
815.11	-10.526
815.41	23.256
815.72	-7.500
816.02	-5.714
816.32	-35.135
816.62	-18.750
816.93	-6.667
817.23	-13.333
817.53	-61.111
817.84	-24.324
818.14	12.195
818.44	0.000
818.74	-2.041
819.04	-2.439
819.35	-36.111
819.65	-20.455
819.95	-122.222
820.25	-3.030
820.56	-35.714
820.86	-38.889
821.16	-34.091
821.46	-10.870
821.76	-8.621
822.07	-4.348
822.37	-9.091
822.67	31.707
822.97	-13.514
823.27	-22.857
823.57	20.690
823.88	-17.647
824.18	-16.667
824.48	-28.571
824.78	-66.667
825.08	-14.286
825.38	0.000
825.69	-12.903
825.99	-14.634
826.29	-11.111
826.59	-21.875
826.89	-22.581
827.19	-60.870
827.49	-36.111
827.79	-65.217
828.09	-32.258
828.39	0.000
828.70	-53.125
829.00	-48.276
829.30	-24.324
829.60	-62.500
829.90	-18.519
830.20	9.375
830.50	-54.545
830.80	-147.059
831.10	-9.091
831.40	-26.471
831.70	-30.769
832.00	0.000
832.30	-8.824
832.60	8.108
832.90	800.000
833.20	7.143
833.50	-85.000
833.80	-5.263
834.10	-50.000
834.40	-113.636
834.70	-100.000
835.00	-150.000
835.30	-45.833
835.60	-66.667
835.90	-66.667
836.20	-64.000
836.50	-41.667
836.80	-94.737
837.10	-18.919
837.40	13.333
837.70	-30.435
838.00	-8.333
838.30	-10.526
838.60	-130.000
838.90	-210.000
839.19	-91.667
839.49	-61.538
839.79	-21.053
840.09	-133.333
840.39	-110.000
840.69	-36.364
840.99	-33.333
841.29	-58.333
841.59	-100.000
841.88	-100.000
842.18	-78.571
842.48	-6.667
842.78	-300.000
843.08	-71.429
843.38	-200.000
843.68	-62.500
843.97	14.286
844.27	-211.111
844.57	-45.455
844.87	-93.333
845.17	9.091
845.47	766.667
845.76	0.000
846.06	-100.000
846.36	-900.000
846.66	-47.368
846.96	-50.000
847.25	-72.222
847.55	-177.778
847.85	-33.333
848.15	-38.462
848.44	-316.667
848.74	-166.667
849.04	-69.231
849.34	-475.000
849.63	-172.727
849.93	-107.143
850.23	5.000
850.53	-250.000
850.82	-33.333
851.12	-26.667
851.42	-17.647
851.71	-62.500
852.01	-5.882
852.31	-30.769
852.61	550.000
852.90	-17.647
853.20	-53.333
853.50	-68.750
853.79	-121.429
854.09	-450.000
854.39	-40.000
854.68	-12.500
854.98	9.524
855.28	-48.000
855.57	-16.667
855.87	-12.500
856.17	-64.000
856.46	-34.375
856.76	-30.000
857.05	4.000
857.35	-75.000
857.65	-70.588
857.94	-183.333
858.24	-116.667
858.53	-20.000
858.83	-100.000
859.13	-24.000
859.42	7.143
859.72	-112.500
860.01	-8.333
860.31	-337.500
860.60	-43.750
860.90	-183.333
861.20	-183.333
861.49	-6.667
861.79	-68.750
862.08	350.000
862.38	-108.333
862.67	214.286
862.97	350.000
863.26	-81.818
863.56	-45.455
863.85	0.000
864.15	-23.529
864.44	-380.000
864.74	-60.000
865.03	-111.111
865.33	-78.571
865.62	164.286
865.92	-57.895
866.21	-16.667
866.51	-100.000
866.80	-133.333
867.10	-200.000
867.39	-81.250
867.69	-53.333
867.98	-50.000
868.27	-11.765
868.57	0.000
868.86	800.000
869.16	-350.000
869.45	-200.000
869.75	450.000
870.04	-50.000
870.33	-1100.000
870.63	-47.368
870.92	-141.667
871.22	-1500.000
871.51	-228.571
871.80	-277.778
872.10	-225.000
>>>>>End Processed Spectral Data<<<<<
