SpectraSuite Data File
++++++++++++++++++++++++++++++++++++
Date: Wed May 13 21:42:23 PDT 2015
User: schluterlab
Dark Spectrum Present: Yes
Reference Spectrum Present: Yes
Number of Sampled Component Spectra: 1
Spectrometers: USB2E3373
Integration Time (usec): 3000 (USB2E3373)
Spectra Averaged: 3 (USB2E3373)
Boxcar Smoothing: 0 (USB2E3373)
Correct for Electrical Dark: No (USB2E3373)
Strobe/Lamp Enabled: No (USB2E3373)
Correct for Detector Non-linearity: No (USB2E3373)
Correct for Stray Light: No (USB2E3373)
Number of Pixels in Processed Spectrum: 2048
>>>>>Begin Processed Spectral Data<<<<<
178.53	0.000
178.91	550.000
179.29	258.333
179.67	-400.000
180.04	-633.333
180.42	340.000
180.80	1500.000
181.18	233.333
181.56	-400.000
181.94	-150.000
182.31	-18.182
182.69	169.231
183.07	-100.000
183.45	350.000
183.83	155.556
184.20	200.000
184.58	133.333
184.96	533.333
185.34	185.714
185.72	0.000
186.09	-600.000
186.47	-180.000
186.85	240.000
187.23	-300.000
187.61	1000.000
187.98	1100.000
188.36	-100.000
188.74	0.000
189.12	45.455
189.49	50.000
189.87	75.000
190.25	400.000
190.63	1300.000
191.00	-20.000
191.38	260.000
191.76	350.000
192.14	108.333
192.51	15.789
192.89	200.000
193.27	150.000
193.65	-100.000
194.02	190.909
194.40	200.000
194.78	-400.000
195.15	-60.000
195.53	-100.000
195.91	-75.000
196.29	-366.667
196.66	0.000
197.04	300.000
197.42	-40.000
197.79	20.000
198.17	75.000
198.55	-166.667
198.92	50.000
199.30	-266.667
199.68	-30.000
200.05	550.000
200.43	250.000
200.81	-1500.000
201.18	-20.000
201.56	66.667
201.94	500.000
202.31	-17.391
202.69	71.429
203.07	-200.000
203.44	-200.000
203.82	-300.000
204.19	-30.000
204.57	0.000
204.95	-50.000
205.32	0.000
205.70	-450.000
206.08	-275.000
206.45	-200.000
206.83	475.000
207.20	-33.333
207.58	50.000
207.96	-1900.000
208.33	-200.000
208.71	-1800.000
209.08	150.000
209.46	450.000
209.84	0.000
210.21	160.000
210.59	1700.000
210.96	420.000
211.34	800.000
211.71	-500.000
212.09	-250.000
212.46	-60.000
212.84	-33.333
213.22	-25.000
213.59	-1100.000
213.97	-700.000
214.34	-300.000
214.72	-30.769
215.09	362.500
215.47	144.444
215.84	750.000
216.22	-162.500
216.59	-350.000
216.97	333.333
217.34	133.333
217.72	0.000
218.09	166.667
218.47	300.000
218.84	-171.429
219.22	-137.500
219.59	-200.000
219.97	-225.000
220.34	-37.500
220.72	-80.000
221.09	0.000
221.47	-166.667
221.84	-600.000
222.22	0.000
222.59	700.000
222.97	-300.000
223.34	-116.667
223.72	-700.000
224.09	-350.000
224.46	-27.273
224.84	0.000
225.21	-128.571
225.59	100.000
225.96	-133.333
226.34	30.000
226.71	-171.429
227.08	350.000
227.46	-162.500
227.83	300.000
228.21	0.000
228.58	-275.000
228.95	-70.588
229.33	-18.750
229.70	-25.000
230.08	-46.154
230.45	-62.500
230.82	-41.667
231.20	185.714
231.57	-125.000
231.95	400.000
232.32	41.667
232.69	5.882
233.07	-1300.000
233.44	-8.696
233.81	-400.000
234.19	-4.167
234.56	-66.667
234.93	-40.000
235.31	5.263
235.68	-76.923
236.05	46.154
236.43	5.556
236.80	15.152
237.17	-13.333
237.55	-41.176
237.92	-6.897
238.29	-7.407
238.67	19.444
239.04	19.355
239.41	19.149
239.79	42.553
240.16	48.837
240.53	41.071
240.91	21.429
241.28	30.357
241.65	46.774
242.02	34.211
242.40	36.232
242.77	44.928
243.14	33.333
243.51	40.426
243.89	27.885
244.26	39.623
244.63	30.769
245.00	51.042
245.38	33.613
245.75	36.066
246.12	34.586
246.49	37.398
246.87	31.092
247.24	41.216
247.61	41.722
247.98	41.026
248.36	37.870
248.73	33.708
249.10	32.828
249.47	38.710
249.84	44.737
250.22	41.791
250.59	33.645
250.96	42.727
251.33	31.579
251.70	40.167
252.08	36.402
252.45	39.095
252.82	40.304
253.19	41.245
253.56	36.331
253.94	38.078
254.31	41.197
254.68	42.617
255.05	37.954
255.42	39.161
255.79	38.957
256.16	41.009
256.54	38.730
256.91	37.658
257.28	40.566
257.65	39.809
258.02	40.469
258.39	41.813
258.76	35.465
259.14	40.057
259.51	37.360
259.88	38.753
260.25	40.556
260.62	40.730
260.99	40.053
261.36	40.933
261.73	38.025
262.10	40.458
262.47	37.778
262.85	40.547
263.22	42.821
263.59	40.000
263.96	39.903
264.33	39.663
264.70	38.605
265.07	39.120
265.44	41.149
265.81	40.275
266.18	40.319
266.55	38.646
266.92	38.983
267.29	37.449
267.66	38.217
268.03	39.095
268.40	37.288
268.77	42.355
269.14	37.755
269.51	43.532
269.88	39.308
270.25	38.771
270.62	41.189
270.99	39.370
271.36	41.071
271.73	41.767
272.10	40.571
272.47	38.964
272.84	40.354
273.21	39.335
273.58	43.033
273.95	41.321
274.32	39.925
274.69	37.887
275.06	41.696
275.43	39.360
275.80	40.071
276.17	37.201
276.54	36.234
276.91	36.411
277.28	37.726
277.65	38.287
278.02	40.000
278.39	37.300
278.76	40.970
279.13	38.765
279.50	38.448
279.87	34.239
280.23	38.739
280.60	38.062
280.97	38.636
281.34	38.013
281.71	37.398
282.08	38.120
282.45	38.852
282.82	36.741
283.19	37.043
283.56	36.406
283.92	39.908
284.29	36.037
284.66	37.068
285.03	36.971
285.40	37.311
285.77	40.240
286.14	36.930
286.51	38.531
286.87	37.692
287.24	34.956
287.61	38.102
287.98	36.176
288.35	38.152
288.72	37.733
289.08	35.613
289.45	36.711
289.82	35.401
290.19	35.344
290.56	35.085
290.93	33.978
291.29	35.841
291.66	34.153
292.03	36.649
292.40	34.455
292.77	34.003
293.13	35.844
293.50	33.595
293.87	33.333
294.24	33.598
294.60	33.290
294.97	34.524
295.34	31.266
295.71	32.589
296.08	31.806
296.44	33.291
296.81	31.912
297.18	32.750
297.55	33.019
297.91	33.416
298.28	32.082
298.65	32.143
299.02	31.990
299.38	33.252
299.75	31.611
300.12	30.698
300.48	30.292
300.85	31.409
301.22	31.707
301.59	29.695
301.95	30.314
302.32	31.155
302.69	29.266
303.05	30.343
303.42	30.568
303.79	31.756
304.15	30.449
304.52	31.075
304.89	31.008
305.25	29.418
305.62	32.213
305.99	29.924
306.35	31.766
306.72	31.536
307.09	32.847
307.45	30.351
307.82	29.895
308.19	29.467
308.55	31.218
308.92	31.827
309.29	31.532
309.65	31.668
310.02	32.107
310.38	32.012
310.75	31.657
311.12	31.584
311.48	32.542
311.85	31.988
312.22	33.849
312.58	31.884
312.95	33.433
313.31	31.956
313.68	32.920
314.05	35.633
314.41	36.023
314.78	34.725
315.14	33.056
315.51	37.012
315.87	35.959
316.24	35.904
316.61	36.895
316.97	36.759
317.34	37.077
317.70	37.467
318.07	38.509
318.43	39.205
318.80	39.005
319.16	40.230
319.53	38.530
319.89	40.199
320.26	40.850
320.62	40.778
320.99	41.376
321.35	40.973
321.72	42.445
322.08	43.727
322.45	46.531
322.81	44.917
323.18	45.707
323.54	47.292
323.91	46.883
324.27	46.625
324.64	46.516
325.00	46.457
325.37	48.464
325.73	46.886
326.10	48.444
326.46	48.746
326.83	49.434
327.19	52.033
327.56	50.927
327.92	51.569
328.29	52.170
328.65	53.637
329.01	54.529
329.38	54.000
329.74	53.562
330.11	55.455
330.47	55.208
330.84	55.144
331.20	54.825
331.56	57.428
331.93	56.761
332.29	56.299
332.66	54.322
333.02	56.473
333.38	59.035
333.75	57.509
334.11	56.944
334.48	58.849
334.84	58.216
335.20	56.346
335.57	55.788
335.93	57.045
336.29	57.005
336.66	56.496
337.02	58.087
337.38	55.178
337.75	58.053
338.11	56.618
338.47	57.791
338.84	56.529
339.20	59.259
339.56	58.447
339.93	59.983
340.29	58.241
340.65	56.544
341.02	57.321
341.38	58.530
341.74	58.403
342.11	58.464
342.47	58.494
342.83	57.925
343.20	57.953
343.56	58.790
343.92	58.408
344.28	57.711
344.65	58.612
345.01	57.627
345.37	59.293
345.73	59.314
346.10	58.989
346.46	59.106
346.82	58.748
347.19	59.335
347.55	60.420
347.91	57.989
348.27	59.069
348.63	58.413
349.00	60.770
349.36	59.419
349.72	59.319
350.08	58.736
350.45	59.358
350.81	59.781
351.17	58.814
351.53	60.330
351.89	58.777
352.26	58.919
352.62	60.388
352.98	59.824
353.34	60.789
353.70	59.735
354.07	59.608
354.43	59.487
354.79	61.378
355.15	60.792
355.51	59.226
355.87	61.845
356.24	61.637
356.60	59.656
356.96	60.246
357.32	61.533
357.68	62.185
358.04	62.529
358.40	61.008
358.77	60.703
359.13	61.556
359.49	61.090
359.85	60.197
360.21	63.223
360.57	61.141
360.93	63.429
361.29	62.324
361.66	63.554
362.02	62.046
362.38	61.743
362.74	62.219
363.10	62.690
363.46	62.680
363.82	63.341
364.18	63.814
364.54	63.530
364.90	64.321
365.26	63.128
365.62	64.134
365.98	62.278
366.35	62.695
366.71	63.837
367.07	63.997
367.43	63.066
367.79	64.350
368.15	63.502
368.51	61.674
368.87	63.712
369.23	64.555
369.59	64.059
369.95	64.078
370.31	63.598
370.67	64.301
371.03	64.439
371.39	64.869
371.75	65.357
372.11	64.103
372.47	66.186
372.83	64.910
373.19	65.612
373.55	66.329
373.91	66.337
374.27	65.629
374.63	66.003
374.99	65.808
375.35	64.589
375.71	64.878
376.07	65.798
376.42	66.243
376.78	65.456
377.14	67.458
377.50	66.102
377.86	66.799
378.22	65.740
378.58	66.456
378.94	67.938
379.30	67.146
379.66	68.064
380.02	67.463
380.38	66.566
380.74	68.619
381.09	65.501
381.45	67.533
381.81	66.420
382.17	66.541
382.53	67.877
382.89	67.008
383.25	66.420
383.61	66.949
383.97	66.375
384.32	67.360
384.68	68.970
385.04	66.646
385.40	68.431
385.76	66.545
386.12	68.044
386.48	68.652
386.83	68.523
387.19	67.551
387.55	67.321
387.91	69.004
388.27	68.311
388.62	68.165
388.98	69.337
389.34	68.421
389.70	67.399
390.06	66.625
390.42	67.655
390.77	67.905
391.13	69.003
391.49	67.426
391.85	67.348
392.20	68.296
392.56	69.651
392.92	68.051
393.28	68.042
393.64	68.196
393.99	66.279
394.35	67.654
394.71	67.756
395.07	67.107
395.42	68.617
395.78	68.082
396.14	67.850
396.50	67.914
396.85	67.686
397.21	67.665
397.57	66.460
397.92	66.108
398.28	66.779
398.64	66.667
399.00	66.797
399.35	68.218
399.71	67.443
400.07	67.771
400.42	68.464
400.78	66.042
401.14	67.259
401.49	66.866
401.85	67.199
402.21	68.421
402.57	67.443
402.92	67.584
403.28	67.667
403.63	67.328
403.99	67.818
404.35	67.581
404.70	66.647
405.06	66.706
405.42	66.834
405.77	65.150
406.13	66.114
406.49	66.687
406.84	67.705
407.20	66.193
407.55	67.273
407.91	65.586
408.27	65.565
408.62	67.465
408.98	66.584
409.34	66.832
409.69	66.732
410.05	66.231
410.40	64.151
410.76	66.968
411.11	66.604
411.47	68.215
411.83	65.752
412.18	67.632
412.54	67.105
412.89	67.022
413.25	65.959
413.60	67.335
413.96	66.792
414.31	66.584
414.67	65.397
415.03	67.524
415.38	66.645
415.74	66.927
416.09	67.548
416.45	68.626
416.80	68.054
417.16	67.072
417.51	67.850
417.87	67.328
418.22	67.873
418.58	66.820
418.93	67.294
419.29	68.779
419.64	67.494
420.00	67.746
420.35	68.380
420.71	68.495
421.06	67.343
421.42	69.769
421.77	69.711
422.12	69.341
422.48	67.775
422.83	69.522
423.19	69.983
423.54	70.671
423.90	69.002
424.25	70.711
424.61	70.856
424.96	68.835
425.31	68.817
425.67	69.959
426.02	71.084
426.38	71.953
426.73	71.411
427.09	70.106
427.44	71.051
427.79	72.150
428.15	72.049
428.50	71.480
428.85	71.894
429.21	71.750
429.56	72.476
429.92	71.525
430.27	72.188
430.62	72.455
430.98	72.977
431.33	73.509
431.68	74.068
432.04	74.423
432.39	73.326
432.74	74.617
433.10	75.015
433.45	74.675
433.80	74.885
434.16	71.873
434.51	74.457
434.86	74.323
435.22	74.420
435.57	74.263
435.92	77.443
436.28	74.835
436.63	75.462
436.98	75.676
437.34	76.984
437.69	75.738
438.04	75.495
438.39	77.273
438.75	77.473
439.10	77.386
439.45	76.998
439.81	76.170
440.16	77.159
440.51	76.397
440.86	76.763
441.22	78.141
441.57	76.518
441.92	77.449
442.27	74.459
442.63	77.018
442.98	76.968
443.33	76.975
443.68	77.280
444.03	77.993
444.39	78.532
444.74	77.084
445.09	76.707
445.44	78.817
445.79	79.350
446.15	78.314
446.50	78.139
446.85	78.888
447.20	79.247
447.55	78.232
447.91	78.483
448.26	78.902
448.61	76.697
448.96	79.499
449.31	80.011
449.66	79.584
450.02	79.648
450.37	80.552
450.72	79.392
451.07	79.310
451.42	76.918
451.77	78.454
452.12	79.204
452.47	79.923
452.83	79.422
453.18	79.694
453.53	80.202
453.88	80.120
454.23	79.913
454.58	78.309
454.93	78.319
455.28	78.870
455.63	77.729
455.98	79.915
456.34	78.131
456.69	80.128
457.04	78.824
457.39	79.134
457.74	80.012
458.09	79.325
458.44	80.082
458.79	77.375
459.14	77.753
459.49	79.817
459.84	77.227
460.19	78.631
460.54	80.474
460.89	79.336
461.24	80.210
461.59	80.435
461.94	79.267
462.29	79.289
462.64	79.024
462.99	81.221
463.34	80.110
463.69	80.026
464.04	78.812
464.39	81.086
464.74	79.730
465.09	79.417
465.44	78.283
465.79	80.679
466.14	80.559
466.49	79.589
466.84	80.873
467.19	81.146
467.54	81.335
467.89	80.264
468.24	80.086
468.59	81.389
468.94	81.290
469.29	82.089
469.64	81.939
469.99	80.897
470.34	80.984
470.68	81.338
471.03	81.523
471.38	79.555
471.73	80.178
472.08	79.107
472.43	81.860
472.78	78.905
473.13	78.364
473.48	79.517
473.83	80.414
474.17	80.859
474.52	80.129
474.87	80.760
475.22	80.193
475.57	79.030
475.92	79.607
476.27	78.730
476.61	78.596
476.96	82.524
477.31	80.960
477.66	80.621
478.01	79.780
478.36	79.837
478.70	79.860
479.05	80.577
479.40	78.055
479.75	79.330
480.10	78.123
480.45	78.617
480.79	79.044
481.14	80.952
481.49	80.118
481.84	78.652
482.19	79.203
482.53	78.476
482.88	79.195
483.23	79.307
483.58	79.820
483.92	79.961
484.27	79.277
484.62	79.139
484.97	78.474
485.31	78.630
485.66	72.606
486.01	73.083
486.36	73.725
486.70	76.241
487.05	77.262
487.40	78.403
487.75	80.218
488.09	79.762
488.44	80.687
488.79	82.021
489.13	80.239
489.48	80.205
489.83	79.500
490.17	79.846
490.52	81.487
490.87	79.277
491.22	79.228
491.56	79.396
491.91	79.021
492.26	79.981
492.60	77.730
492.95	78.960
493.30	78.343
493.64	78.129
493.99	80.145
494.34	79.528
494.68	79.714
495.03	80.534
495.37	78.881
495.72	80.401
496.07	80.955
496.41	77.960
496.76	79.890
497.11	79.624
497.45	81.128
497.80	80.818
498.14	81.159
498.49	79.778
498.84	80.213
499.18	79.642
499.53	79.124
499.87	78.700
500.22	79.243
500.56	78.536
500.91	80.080
501.26	78.966
501.60	79.265
501.95	78.869
502.29	78.835
502.64	80.039
502.98	79.239
503.33	79.805
503.67	80.088
504.02	79.853
504.36	79.396
504.71	80.030
505.06	80.336
505.40	81.546
505.75	81.943
506.09	80.276
506.44	78.780
506.78	79.736
507.13	79.678
507.47	78.367
507.82	79.069
508.16	80.633
508.51	78.357
508.85	80.301
509.19	80.582
509.54	80.643
509.88	79.032
510.23	79.895
510.57	79.396
510.92	79.903
511.26	80.748
511.61	81.394
511.95	80.430
512.30	79.789
512.64	82.350
512.98	79.723
513.33	80.451
513.67	80.920
514.02	81.357
514.36	81.067
514.70	81.062
515.05	81.100
515.39	81.132
515.74	80.995
516.08	81.298
516.42	79.090
516.77	80.375
517.11	81.305
517.46	83.493
517.80	81.477
518.14	80.220
518.49	79.928
518.83	81.205
519.17	81.024
519.52	81.363
519.86	81.360
520.20	79.806
520.55	82.338
520.89	82.037
521.23	83.846
521.58	82.933
521.92	79.698
522.26	80.351
522.61	82.159
522.95	79.728
523.29	80.254
523.64	81.564
523.98	81.067
524.32	81.727
524.66	81.364
525.01	81.520
525.35	81.303
525.69	81.378
526.04	78.827
526.38	79.669
526.72	80.210
527.06	79.948
527.41	79.881
527.75	80.174
528.09	82.573
528.43	82.022
528.78	79.199
529.12	80.142
529.46	80.934
529.80	80.194
530.15	78.571
530.49	82.075
530.83	81.584
531.17	80.411
531.51	78.085
531.86	78.794
532.20	80.772
532.54	81.103
532.88	80.871
533.22	79.529
533.57	79.735
533.91	80.129
534.25	80.143
534.59	78.571
534.93	77.806
535.27	78.599
535.62	79.211
535.96	79.831
536.30	79.521
536.64	78.674
536.98	79.117
537.32	80.783
537.66	79.972
538.01	78.502
538.35	78.867
538.69	78.127
539.03	76.980
539.37	77.666
539.71	78.445
540.05	78.070
540.39	78.114
540.73	79.818
541.07	78.776
541.42	79.461
541.76	78.349
542.10	77.454
542.44	77.408
542.78	79.598
543.12	77.695
543.46	76.780
543.80	77.054
544.14	77.977
544.48	75.979
544.82	78.547
545.16	77.890
545.50	77.380
545.84	78.682
546.18	78.050
546.52	78.476
546.86	77.527
547.20	78.699
547.54	78.199
547.88	78.745
548.22	76.938
548.56	78.052
548.90	78.755
549.24	78.750
549.58	78.363
549.92	81.438
550.26	80.517
550.60	80.105
550.94	80.000
551.28	80.469
551.62	81.504
551.96	79.429
552.30	79.840
552.64	79.449
552.98	80.895
553.32	79.524
553.66	81.805
554.00	80.490
554.34	79.414
554.68	79.567
555.02	81.886
555.36	82.526
555.69	78.878
556.03	79.986
556.37	79.303
556.71	79.678
557.05	80.738
557.39	81.462
557.73	82.905
558.07	81.236
558.41	81.075
558.75	82.833
559.08	80.674
559.42	81.432
559.76	79.587
560.10	80.938
560.44	80.472
560.78	81.079
561.12	80.589
561.45	77.823
561.79	79.298
562.13	79.958
562.47	80.429
562.81	78.860
563.15	78.754
563.48	79.697
563.82	79.822
564.16	77.996
564.50	78.697
564.84	79.662
565.17	78.543
565.51	77.540
565.85	75.816
566.19	79.073
566.52	77.195
566.86	75.790
567.20	77.337
567.54	75.187
567.88	73.852
568.21	73.710
568.55	74.231
568.89	73.878
569.23	72.869
569.56	73.258
569.90	71.626
570.24	70.325
570.57	70.078
570.91	71.039
571.25	70.446
571.59	70.595
571.92	72.074
572.26	72.349
572.60	73.237
572.93	72.790
573.27	71.485
573.61	71.754
573.95	70.307
574.28	71.152
574.62	70.970
574.96	70.571
575.29	72.568
575.63	72.998
575.97	73.234
576.30	71.916
576.64	72.308
576.98	71.948
577.31	70.418
577.65	69.583
577.98	70.246
578.32	70.311
578.66	71.632
578.99	72.371
579.33	72.689
579.67	73.142
580.00	71.950
580.34	71.425
580.67	73.003
581.01	71.642
581.35	70.152
581.68	70.547
582.02	71.243
582.35	70.856
582.69	71.575
583.02	71.778
583.36	72.391
583.70	73.569
584.03	73.605
584.37	73.579
584.70	72.836
585.04	74.505
585.37	73.536
585.71	71.949
586.04	74.010
586.38	73.270
586.72	73.363
587.05	74.845
587.39	74.070
587.72	74.521
588.06	74.419
588.39	74.251
588.73	75.030
589.06	76.269
589.40	75.095
589.73	75.530
590.07	74.918
590.40	76.789
590.73	77.715
591.07	76.389
591.40	76.478
591.74	76.612
592.07	76.860
592.41	77.177
592.74	75.039
593.08	75.282
593.41	74.952
593.75	75.581
594.08	75.820
594.41	76.782
594.75	77.549
595.08	76.736
595.42	75.770
595.75	76.139
596.09	77.175
596.42	77.696
596.75	79.026
597.09	79.436
597.42	79.139
597.75	79.644
598.09	79.918
598.42	78.837
598.76	79.051
599.09	79.312
599.42	76.699
599.76	77.169
600.09	77.334
600.42	77.288
600.76	78.862
601.09	78.757
601.42	77.969
601.76	77.838
602.09	78.922
602.42	79.447
602.76	79.069
603.09	78.563
603.42	77.489
603.76	75.955
604.09	76.680
604.42	79.322
604.76	78.787
605.09	79.112
605.42	79.937
605.75	77.773
606.09	77.649
606.42	77.972
606.75	78.355
607.09	79.477
607.42	78.940
607.75	77.943
608.08	80.298
608.42	79.850
608.75	80.554
609.08	80.990
609.41	78.987
609.75	79.728
610.08	79.931
610.41	79.883
610.74	78.633
611.07	79.259
611.41	78.864
611.74	79.141
612.07	77.801
612.40	80.811
612.73	79.967
613.07	79.989
613.40	81.663
613.73	80.769
614.06	79.547
614.39	79.822
614.72	80.122
615.06	81.000
615.39	80.795
615.72	80.400
616.05	80.800
616.38	82.245
616.71	80.504
617.05	83.108
617.38	79.482
617.71	79.473
618.04	80.073
618.37	81.893
618.70	81.630
619.03	82.131
619.36	82.989
619.69	82.675
620.03	81.343
620.36	81.628
620.69	81.656
621.02	81.231
621.35	82.829
621.68	83.211
622.01	83.252
622.34	82.712
622.67	82.850
623.00	81.991
623.33	82.573
623.66	82.230
623.99	82.446
624.32	82.098
624.65	82.196
624.99	83.027
625.32	83.420
625.65	81.473
625.98	83.570
626.31	84.327
626.64	84.523
626.97	86.246
627.30	86.313
627.63	84.083
627.96	82.771
628.29	85.953
628.62	86.364
628.95	87.475
629.28	87.389
629.61	85.455
629.94	84.913
630.26	85.419
630.59	87.113
630.92	84.739
631.25	83.831
631.58	86.831
631.91	85.896
632.24	84.962
632.57	85.222
632.90	88.448
633.23	88.609
633.56	89.568
633.89	89.593
634.22	89.870
634.55	90.134
634.88	86.765
635.20	89.500
635.53	89.922
635.86	89.103
636.19	88.213
636.52	88.171
636.85	87.696
637.18	85.749
637.51	87.141
637.83	87.990
638.16	89.067
638.49	89.052
638.82	88.105
639.15	88.963
639.48	88.636
639.81	90.417
640.13	93.521
640.46	88.842
640.79	89.353
641.12	88.757
641.45	87.191
641.77	88.218
642.10	88.200
642.43	94.340
642.76	87.066
643.09	84.185
643.41	88.198
643.74	87.884
644.07	90.129
644.40	92.703
644.73	91.356
645.05	91.274
645.38	88.206
645.71	89.796
646.04	86.532
646.36	88.194
646.69	91.084
647.02	91.803
647.35	94.150
647.67	87.985
648.00	88.949
648.33	87.797
648.66	89.149
648.98	88.199
649.31	86.350
649.64	86.385
649.96	88.942
650.29	87.908
650.62	83.855
650.94	88.448
651.27	89.929
651.60	88.462
651.92	89.427
652.25	90.452
652.58	87.624
652.90	90.572
653.23	89.134
653.56	85.785
653.88	89.420
654.21	89.249
654.54	86.379
654.86	86.179
655.19	82.493
655.52	78.594
655.84	69.925
656.17	82.592
656.49	100.000
656.82	100.000
657.15	100.000
657.47	72.401
657.80	51.250
658.13	55.861
658.45	83.426
658.78	84.771
659.10	85.961
659.43	86.827
659.75	87.677
660.08	88.000
660.41	86.714
660.73	88.017
661.06	87.755
661.38	90.116
661.71	91.598
662.03	90.486
662.36	94.027
662.68	90.968
663.01	88.136
663.33	89.633
663.66	86.696
663.98	94.157
664.31	90.769
664.63	88.514
664.96	92.779
665.28	91.202
665.61	90.713
665.93	89.936
666.26	90.928
666.58	85.867
666.91	90.583
667.23	89.631
667.56	91.494
667.88	90.654
668.21	86.384
668.53	93.333
668.86	90.408
669.18	91.017
669.50	93.548
669.83	91.885
670.15	92.857
670.48	88.736
670.80	90.153
671.13	93.135
671.45	92.237
671.77	90.086
672.10	84.990
672.42	88.740
672.75	87.143
673.07	87.273
673.39	90.672
673.72	89.222
674.04	86.885
674.37	86.382
674.69	86.420
675.01	87.607
675.34	87.527
675.66	87.146
675.98	89.823
676.31	89.367
676.63	91.610
676.95	93.412
677.28	88.303
677.60	92.402
677.92	87.361
678.25	87.419
678.57	85.743
678.89	89.339
679.22	86.128
679.54	86.327
679.86	83.594
680.18	88.654
680.51	86.346
680.83	79.922
681.15	86.444
681.48	84.970
681.80	87.321
682.12	86.667
682.44	85.915
682.77	84.842
683.09	85.491
683.41	87.442
683.73	85.714
684.06	86.062
684.38	83.333
684.70	83.299
685.02	88.430
685.34	83.366
685.67	84.053
685.99	83.986
686.31	83.103
686.63	85.478
686.96	84.601
687.28	85.429
687.60	86.389
687.92	84.825
688.24	84.800
688.56	87.939
688.89	83.742
689.21	85.426
689.53	82.207
689.85	84.270
690.17	81.758
690.49	88.164
690.82	87.828
691.14	85.024
691.46	83.295
691.78	82.857
692.10	85.350
692.42	82.418
692.74	85.652
693.06	86.517
693.39	84.543
693.71	82.667
694.03	84.318
694.35	81.306
694.67	87.000
694.99	84.794
695.31	86.563
695.63	84.634
695.95	85.496
696.27	85.753
696.59	86.290
696.91	81.006
697.23	81.218
697.56	88.489
697.88	84.200
698.20	78.834
698.52	85.981
698.84	83.493
699.16	80.851
699.48	81.728
699.80	88.372
700.12	87.668
700.44	83.380
700.76	83.146
701.08	85.498
701.40	85.329
701.72	88.923
702.04	83.962
702.36	81.402
702.68	81.098
703.00	85.380
703.32	77.716
703.64	81.325
703.96	86.217
704.28	84.639
704.60	85.976
704.91	81.191
705.23	79.114
705.55	86.207
705.87	85.915
706.19	83.150
706.51	83.099
706.83	78.025
707.15	78.049
707.47	81.267
707.79	76.904
708.11	79.692
708.43	78.173
708.74	81.915
709.06	77.273
709.38	85.014
709.70	77.778
710.02	82.866
710.34	86.000
710.66	83.388
710.98	82.663
711.29	87.338
711.61	76.774
711.93	78.065
712.25	80.420
712.57	80.702
712.89	81.685
713.20	83.688
713.52	79.197
713.84	76.452
714.16	81.230
714.48	81.013
714.80	77.316
715.11	73.256
715.43	79.503
715.75	80.124
716.07	76.506
716.39	77.441
716.70	76.978
717.02	82.353
717.34	77.273
717.66	78.879
717.97	75.397
718.29	82.283
718.61	87.983
718.93	81.008
719.24	84.133
719.56	80.150
719.88	79.104
720.20	78.261
720.51	80.469
720.83	78.988
721.15	76.423
721.46	72.137
721.78	78.884
722.10	73.705
722.42	77.823
722.73	79.923
723.05	78.367
723.37	76.471
723.68	72.800
724.00	74.468
724.32	70.711
724.63	74.897
724.95	72.650
725.27	74.684
725.58	71.605
725.90	82.008
726.22	69.928
726.53	77.255
726.85	72.993
727.16	74.815
727.48	73.946
727.80	82.813
728.11	73.770
728.43	78.125
728.74	75.794
729.06	79.600
729.38	81.028
729.69	71.530
730.01	77.695
730.32	72.694
730.64	76.136
730.96	77.972
731.27	74.582
731.59	72.698
731.90	73.463
732.22	73.718
732.53	74.324
732.85	70.134
733.16	72.277
733.48	72.297
733.80	72.973
734.11	76.351
734.43	71.517
734.74	73.574
735.06	67.435
735.37	72.948
735.69	70.550
736.00	72.277
736.32	72.340
736.63	72.759
736.95	68.151
737.26	70.345
737.58	70.833
737.89	69.072
738.21	72.954
738.52	68.441
738.83	75.102
739.15	78.903
739.46	74.319
739.78	68.310
740.09	68.151
740.41	73.571
740.72	69.149
741.04	66.000
741.35	72.807
741.66	70.222
741.98	72.596
742.29	78.218
742.61	69.756
742.92	71.053
743.23	72.642
743.55	68.919
743.86	66.816
744.18	76.961
744.49	69.036
744.80	71.429
745.12	67.757
745.43	71.564
745.74	68.018
746.06	65.888
746.37	62.844
746.68	67.788
747.00	67.943
747.31	72.115
747.62	72.018
747.94	72.052
748.25	72.477
748.56	68.000
748.88	69.953
749.19	75.238
749.50	70.388
749.82	70.892
750.13	64.583
750.44	68.462
750.75	65.683
751.07	68.327
751.38	66.667
751.69	67.181
752.01	65.625
752.32	64.615
752.63	68.657
752.94	74.000
753.26	67.782
753.57	66.667
753.88	67.206
754.19	64.143
754.51	68.045
754.82	61.538
755.13	66.087
755.44	69.106
755.75	67.600
756.07	63.469
756.38	62.230
756.69	66.212
757.00	64.798
757.31	70.874
757.63	66.358
757.94	68.927
758.25	65.079
758.56	69.565
758.87	68.452
759.18	64.353
759.50	63.636
759.81	70.903
760.12	65.846
760.43	61.012
760.74	59.887
761.05	60.221
761.36	65.043
761.67	65.559
761.99	67.354
762.30	67.518
762.61	62.963
762.92	74.359
763.23	63.525
763.54	66.234
763.85	66.531
764.16	63.415
764.47	70.400
764.78	63.571
765.10	63.607
765.41	65.046
765.72	62.112
766.03	66.007
766.34	65.769
766.65	64.017
766.96	59.155
767.27	64.356
767.58	59.551
767.89	70.988
768.20	62.983
768.51	68.342
768.82	60.577
769.13	71.681
769.44	60.669
769.75	55.983
770.06	59.193
770.37	63.725
770.68	63.107
770.99	60.194
771.30	56.723
771.61	59.184
771.92	62.241
772.23	58.559
772.54	64.641
772.85	63.372
773.16	62.963
773.47	60.355
773.78	65.517
774.09	63.125
774.39	60.248
774.70	61.224
775.01	55.862
775.32	70.714
775.63	58.647
775.94	62.406
776.25	55.200
776.56	60.331
776.87	67.460
777.18	63.964
777.48	66.667
777.79	55.906
778.10	72.477
778.41	60.526
778.72	58.824
779.03	55.634
779.34	62.162
779.65	67.606
779.95	58.940
780.26	58.993
780.57	53.237
780.88	49.296
781.19	60.504
781.50	61.074
781.80	59.649
782.11	50.581
782.42	68.553
782.73	58.824
783.04	56.552
783.34	58.015
783.65	59.060
783.96	63.077
784.27	55.000
784.57	52.482
784.88	58.654
785.19	60.909
785.50	60.909
785.81	41.905
786.11	61.345
786.42	62.832
786.73	50.000
787.04	51.376
787.34	65.347
787.65	61.667
787.96	60.331
788.26	56.522
788.57	48.413
788.88	51.220
789.19	57.600
789.49	45.038
789.80	59.848
790.11	61.321
790.41	62.376
790.72	61.702
791.03	46.739
791.33	54.118
791.64	58.025
791.95	56.522
792.25	50.000
792.56	73.077
792.87	42.308
793.17	37.179
793.48	40.476
793.79	58.750
794.09	58.654
794.40	66.667
794.70	54.054
795.01	57.031
795.32	59.130
795.62	57.609
795.93	52.830
796.23	55.556
796.54	45.122
796.85	57.143
797.15	56.061
797.46	47.826
797.76	38.158
798.07	56.818
798.37	36.585
798.68	53.226
798.99	44.595
799.29	45.783
799.60	37.179
799.90	69.231
800.21	57.576
800.51	33.333
800.82	52.000
801.12	43.750
801.43	21.667
801.73	48.649
802.04	48.571
802.34	47.541
802.65	34.328
802.95	47.273
803.26	51.724
803.56	53.846
803.87	69.811
804.17	38.710
804.48	51.471
804.78	39.024
805.09	57.971
805.39	47.059
805.70	23.404
806.00	26.316
806.30	52.564
806.61	60.526
806.91	59.459
807.22	42.105
807.52	53.409
807.83	59.322
808.13	28.788
808.43	40.000
808.74	17.241
809.04	49.206
809.35	42.857
809.65	48.333
809.95	44.898
810.26	50.704
810.56	41.667
810.86	38.776
811.17	38.462
811.47	44.681
811.77	45.833
812.08	47.170
812.38	28.125
812.69	25.455
812.99	36.585
813.29	59.459
813.59	18.919
813.90	30.909
814.20	47.273
814.50	31.667
814.81	36.364
815.11	33.333
815.41	58.140
815.72	32.500
816.02	42.857
816.32	51.351
816.62	39.583
816.93	31.111
817.23	17.778
817.53	11.111
817.84	35.135
818.14	26.829
818.44	34.000
818.74	69.388
819.04	53.659
819.35	22.222
819.65	40.909
819.95	16.667
820.25	48.485
820.56	38.095
820.86	13.889
821.16	27.273
821.46	34.783
821.76	15.517
822.07	39.130
822.37	48.485
822.67	60.976
822.97	45.946
823.27	8.571
823.57	72.414
823.88	8.824
824.18	27.778
824.48	37.143
824.78	38.095
825.08	57.143
825.38	22.222
825.69	16.129
825.99	48.780
826.29	37.037
826.59	46.875
826.89	6.452
827.19	21.739
827.49	11.111
827.79	34.783
828.09	41.935
828.39	45.833
828.70	0.000
829.00	27.586
829.30	2.703
829.60	12.500
829.90	44.444
830.20	21.875
830.50	40.909
830.80	-29.412
831.10	27.273
831.40	11.765
831.70	42.308
832.00	81.818
832.30	32.353
832.60	16.216
832.90	400.000
833.20	7.143
833.50	0.000
833.80	2.632
834.10	-20.833
834.40	18.182
834.70	13.333
835.00	-30.000
835.30	25.000
835.60	-33.333
835.90	14.286
836.20	0.000
836.50	25.000
836.80	10.526
837.10	35.135
837.40	40.000
837.70	4.348
838.00	45.833
838.30	5.263
838.60	-20.000
838.90	-200.000
839.19	-58.333
839.49	-23.077
839.79	15.789
840.09	16.667
840.39	-60.000
840.69	-27.273
840.99	4.762
841.29	-4.167
841.59	-53.846
841.88	-33.333
842.18	85.714
842.48	36.667
842.78	-128.571
843.08	-14.286
843.38	-75.000
843.68	0.000
843.97	57.143
844.27	-66.667
844.57	-54.545
844.87	-13.333
845.17	36.364
845.47	166.667
845.76	-33.333
846.06	-66.667
846.36	-350.000
846.66	26.316
846.96	-27.273
847.25	-33.333
847.55	-166.667
847.85	0.000
848.15	38.462
848.44	-100.000
848.74	-50.000
849.04	-38.462
849.34	-150.000
849.63	-127.273
849.93	-107.143
850.23	30.000
850.53	-212.500
850.82	50.000
851.12	-13.333
851.42	23.529
851.71	37.500
852.01	-17.647
852.31	-23.077
852.61	500.000
852.90	23.529
853.20	0.000
853.50	25.000
853.79	-78.571
854.09	-50.000
854.39	-45.000
854.68	17.500
854.98	42.857
855.28	64.000
855.57	-16.667
855.87	29.167
856.17	28.000
856.46	9.375
856.76	5.000
857.05	28.000
857.35	-25.000
857.65	11.765
857.94	-66.667
858.24	-33.333
858.53	30.000
858.83	-45.455
859.13	12.000
859.42	-7.143
859.72	-100.000
860.01	20.833
860.31	-137.500
860.60	-31.250
860.90	-116.667
861.20	-66.667
861.49	66.667
861.79	12.500
862.08	250.000
862.38	-58.333
862.67	157.143
862.97	175.000
863.26	-109.091
863.56	-72.727
863.85	57.895
864.15	5.882
864.44	-240.000
864.74	-60.000
865.03	-33.333
865.33	0.000
865.62	121.429
865.92	94.737
866.21	-50.000
866.51	-54.545
866.80	-33.333
867.10	-150.000
867.39	0.000
867.69	-33.333
867.98	-40.000
868.27	64.706
868.57	0.000
868.86	-0.000
869.16	-75.000
869.45	-200.000
869.75	500.000
870.04	150.000
870.33	-1200.000
870.63	-68.421
870.92	-150.000
871.22	-900.000
871.51	-71.429
871.80	-122.222
872.10	-350.000
>>>>>End Processed Spectral Data<<<<<
