SpectraSuite Data File
++++++++++++++++++++++++++++++++++++
Date: Tue May 12 15:34:58 PDT 2015
User: schluterlab
Dark Spectrum Present: Yes
Reference Spectrum Present: Yes
Number of Sampled Component Spectra: 1
Spectrometers: USB2E3373
Integration Time (usec): 3000 (USB2E3373)
Spectra Averaged: 3 (USB2E3373)
Boxcar Smoothing: 0 (USB2E3373)
Correct for Electrical Dark: No (USB2E3373)
Strobe/Lamp Enabled: No (USB2E3373)
Correct for Detector Non-linearity: No (USB2E3373)
Correct for Stray Light: No (USB2E3373)
Number of Pixels in Processed Spectrum: 2048
>>>>>Begin Processed Spectral Data<<<<<
178.53	0.000
178.91	-308.333
179.29	-675.000
179.67	-3700.000
180.04	-126.667
180.42	775.000
180.80	2100.000
181.18	0.000
181.56	-287.500
181.94	0.000
182.31	1200.000
182.69	-3500.000
183.07	600.000
183.45	-3100.000
183.83	-1550.000
184.20	360.000
184.58	542.857
184.96	-246.154
185.34	-266.667
185.72	1650.000
186.09	-1025.000
186.47	-2700.000
186.85	1066.667
187.23	780.000
187.61	2000.000
187.98	425.000
188.36	264.286
188.74	375.000
189.12	391.667
189.49	625.000
189.87	0.000
190.25	512.500
190.63	2900.000
191.00	-183.333
191.38	-3500.000
191.76	-700.000
192.14	562.500
192.51	-3300.000
192.89	1850.000
193.27	1033.333
193.65	-1200.000
194.02	-820.000
194.40	528.571
194.78	-214.286
195.15	306.667
195.53	-2500.000
195.91	-460.000
196.29	4000.000
196.66	293.750
197.04	850.000
197.42	-1500.000
197.79	850.000
198.17	308.333
198.55	0.000
198.92	614.286
199.30	1300.000
199.68	2050.000
200.05	633.333
200.43	-400.000
200.81	227.778
201.18	3800.000
201.56	266.667
201.94	-700.000
202.31	-325.000
202.69	-600.000
203.07	3200.000
203.44	-550.000
203.82	316.667
204.19	620.000
204.57	-1750.000
204.95	-750.000
205.32	-880.000
205.70	500.000
206.08	750.000
206.45	-900.000
206.83	377.778
207.20	268.421
207.58	266.667
207.96	800.000
208.33	0.000
208.71	714.286
209.08	660.000
209.46	-2500.000
209.84	-675.000
210.21	800.000
210.59	-500.000
210.96	375.000
211.34	-775.000
211.71	300.000
212.09	1075.000
212.46	1600.000
212.84	-416.667
213.22	400.000
213.59	-4200.000
213.97	360.000
214.34	1150.000
214.72	1233.333
215.09	1066.667
215.47	-3500.000
215.84	-250.000
216.22	-400.000
216.59	0.000
216.97	0.000
217.34	1900.000
217.72	-1300.000
218.09	1366.667
218.47	412.500
218.84	825.000
219.22	1200.000
219.59	866.667
219.97	542.857
220.34	444.444
220.72	1550.000
221.09	2500.000
221.47	308.333
221.84	1133.333
222.22	330.000
222.59	272.222
222.97	292.857
223.34	212.500
223.72	-1450.000
224.09	1266.667
224.46	315.385
224.84	-850.000
225.21	400.000
225.59	293.333
225.96	1366.667
226.34	-800.000
226.71	-1125.000
227.08	-600.000
227.46	0.000
227.83	-583.333
228.21	-2000.000
228.58	366.667
228.95	1025.000
229.33	366.667
229.70	1025.000
230.08	346.154
230.45	3900.000
230.82	-775.000
231.20	-1100.000
231.57	-1233.333
231.95	600.000
232.32	308.333
232.69	600.000
233.07	275.000
233.44	-1550.000
233.81	280.000
234.19	166.667
234.56	250.000
234.93	241.176
235.31	205.000
235.68	281.250
236.05	139.286
236.43	170.370
236.80	342.857
237.17	162.069
237.55	156.250
237.92	150.000
238.29	172.727
238.67	168.750
239.04	126.829
239.41	85.417
239.79	115.000
240.16	118.750
240.53	77.049
240.91	72.464
241.28	118.644
241.65	95.455
242.02	105.634
242.40	81.429
242.77	74.725
243.14	75.949
243.51	95.960
243.89	78.505
244.26	69.159
244.63	80.198
245.00	76.147
245.38	62.712
245.75	67.424
246.12	74.074
246.49	60.284
246.87	69.672
247.24	58.667
247.61	63.125
247.98	61.905
248.36	63.030
248.73	64.286
249.10	60.119
249.47	54.500
249.84	62.687
250.22	58.378
250.59	54.500
250.96	57.384
251.33	55.814
251.70	60.714
252.08	50.000
252.45	58.167
252.82	53.232
253.19	54.941
253.56	51.154
253.94	50.000
254.31	53.101
254.68	53.310
255.05	51.379
255.42	55.474
255.79	52.443
256.16	51.525
256.54	53.247
256.91	49.346
257.28	51.505
257.65	48.276
258.02	50.737
258.39	50.716
258.76	53.043
259.14	49.429
259.51	53.936
259.88	54.711
260.25	44.780
260.62	47.671
260.99	47.383
261.36	47.354
261.73	46.809
262.10	50.524
262.47	49.000
262.85	48.000
263.22	48.072
263.59	45.780
263.96	47.118
264.33	46.667
264.70	51.106
265.07	49.024
265.44	49.541
265.81	48.113
266.18	47.368
266.55	49.409
266.92	48.098
267.29	47.588
267.66	44.170
268.03	46.413
268.40	44.186
268.77	46.696
269.14	45.119
269.51	45.212
269.88	44.898
270.25	41.901
270.62	47.425
270.99	47.262
271.36	45.325
271.73	45.073
272.10	46.667
272.47	44.246
272.84	44.511
273.21	43.182
273.58	47.368
273.95	46.407
274.32	43.385
274.69	46.457
275.06	43.352
275.43	44.253
275.80	44.906
276.17	44.485
276.54	43.925
276.91	46.269
277.28	42.336
277.65	43.542
278.02	42.647
278.39	44.245
278.76	44.655
279.13	43.416
279.50	44.000
279.87	43.389
280.23	43.831
280.60	43.978
280.97	41.724
281.34	42.079
281.71	43.652
282.08	41.538
282.45	41.385
282.82	40.301
283.19	41.176
283.56	41.488
283.92	45.277
284.29	44.426
284.66	41.176
285.03	43.615
285.40	43.471
285.77	39.660
286.14	41.486
286.51	40.184
286.87	38.608
287.24	38.889
287.61	39.058
287.98	38.657
288.35	40.148
288.72	39.757
289.08	42.042
289.45	40.091
289.82	39.219
290.19	40.264
290.56	39.884
290.93	38.849
291.29	36.464
291.66	37.147
292.03	39.130
292.40	36.585
292.77	37.604
293.13	37.946
293.50	36.707
293.87	37.127
294.24	37.902
294.60	36.608
294.97	39.021
295.34	35.591
295.71	36.794
296.08	36.533
296.44	35.451
296.81	35.360
297.18	34.347
297.55	36.084
297.91	33.744
298.28	35.024
298.65	34.601
299.02	34.741
299.38	35.252
299.75	35.610
300.12	37.041
300.48	34.895
300.85	35.995
301.22	33.721
301.59	34.198
301.95	33.606
302.32	35.274
302.69	34.502
303.05	35.802
303.42	34.081
303.79	34.995
304.15	33.993
304.52	34.249
304.89	34.861
305.25	34.705
305.62	35.714
305.99	33.696
306.35	32.947
306.72	34.547
307.09	34.990
307.45	34.530
307.82	35.905
308.19	34.639
308.55	33.700
308.92	34.838
309.29	35.897
309.65	35.382
310.02	35.497
310.38	34.796
310.75	33.462
311.12	32.184
311.48	36.776
311.85	35.782
312.22	34.193
312.58	33.819
312.95	36.117
313.31	35.768
313.68	35.460
314.05	37.363
314.41	34.730
314.78	36.174
315.14	37.536
315.51	38.221
315.87	36.405
316.24	37.535
316.61	36.705
316.97	38.165
317.34	38.814
317.70	38.455
318.07	39.502
318.43	37.786
318.80	39.317
319.16	37.587
319.53	38.850
319.89	37.993
320.26	39.385
320.62	39.469
320.99	40.801
321.35	39.703
321.72	41.556
322.08	41.367
322.45	40.054
322.81	41.537
323.18	41.741
323.54	43.380
323.91	44.515
324.27	44.209
324.64	43.166
325.00	45.259
325.37	44.182
325.73	45.278
326.10	47.804
326.46	47.812
326.83	46.640
327.19	47.631
327.56	47.524
327.92	47.951
328.29	50.000
328.65	50.771
329.01	50.727
329.38	49.408
329.74	50.043
330.11	50.217
330.47	52.515
330.84	48.576
331.20	51.354
331.56	50.518
331.93	51.411
332.29	51.361
332.66	53.571
333.02	51.632
333.38	52.007
333.75	54.212
334.11	51.007
334.48	52.735
334.84	50.929
335.20	52.524
335.57	51.805
335.93	52.145
336.29	51.078
336.66	54.460
337.02	53.208
337.38	53.912
337.75	54.223
338.11	53.840
338.47	52.244
338.84	52.244
339.20	51.861
339.56	52.817
339.93	52.425
340.29	52.689
340.65	51.802
341.02	51.167
341.38	52.956
341.74	51.578
342.11	53.506
342.47	52.912
342.83	53.404
343.20	52.870
343.56	49.881
343.92	51.363
344.28	51.834
344.65	52.404
345.01	51.190
345.37	51.202
345.73	53.175
346.10	51.474
346.46	52.472
346.82	50.000
347.19	51.623
347.55	51.522
347.91	51.284
348.27	50.891
348.63	51.028
349.00	52.171
349.36	51.362
349.72	52.141
350.08	52.795
350.45	52.171
350.81	52.446
351.17	53.005
351.53	52.810
351.89	50.272
352.26	51.172
352.62	49.774
352.98	52.147
353.34	51.618
353.70	50.076
354.07	52.154
354.43	51.767
354.79	50.266
355.15	51.378
355.51	51.284
355.87	51.355
356.24	51.501
356.60	51.294
356.96	51.327
357.32	50.113
357.68	52.570
358.04	51.900
358.40	49.775
358.77	52.066
359.13	51.351
359.49	51.223
359.85	51.601
360.21	50.371
360.57	50.438
360.93	50.072
361.29	52.525
361.66	52.796
362.02	50.426
362.38	51.587
362.74	52.725
363.10	52.104
363.46	51.657
363.82	50.842
364.18	51.494
364.54	52.718
364.90	51.339
365.26	51.978
365.62	52.279
365.98	50.929
366.35	52.207
366.71	51.700
367.07	51.672
367.43	50.974
367.79	50.665
368.15	50.678
368.51	51.895
368.87	50.340
369.23	51.074
369.59	50.438
369.95	51.329
370.31	51.198
370.67	52.186
371.03	51.611
371.39	50.762
371.75	50.872
372.11	50.374
372.47	52.260
372.83	51.122
373.19	52.022
373.55	51.478
373.91	50.207
374.27	50.595
374.63	51.864
374.99	52.695
375.35	53.495
375.71	51.385
376.07	52.056
376.42	50.128
376.78	50.931
377.14	51.507
377.50	51.998
377.86	51.121
378.22	50.213
378.58	52.179
378.94	51.298
379.30	52.577
379.66	51.174
380.02	51.730
380.38	50.527
380.74	52.076
381.09	52.570
381.45	51.156
381.81	51.714
382.17	51.343
382.53	51.410
382.89	51.153
383.25	51.155
383.61	51.009
383.97	51.410
384.32	52.080
384.68	52.941
385.04	52.755
385.40	51.957
385.76	51.551
386.12	51.020
386.48	52.219
386.83	52.995
387.19	52.415
387.55	51.590
387.91	52.079
388.27	52.469
388.62	51.291
388.98	51.195
389.34	51.695
389.70	50.531
390.06	52.744
390.42	51.635
390.77	52.457
391.13	52.686
391.49	51.906
391.85	53.169
392.20	52.980
392.56	52.031
392.92	51.376
393.28	51.289
393.64	51.778
393.99	51.630
394.35	52.031
394.71	50.362
395.07	52.068
395.42	51.698
395.78	52.869
396.14	52.229
396.50	51.504
396.85	51.037
397.21	52.407
397.57	52.361
397.92	50.664
398.28	51.517
398.64	51.658
399.00	50.508
399.35	50.349
399.71	52.373
400.07	50.685
400.42	51.701
400.78	52.962
401.14	51.615
401.49	51.094
401.85	51.738
402.21	52.255
402.57	52.962
402.92	50.727
403.28	50.835
403.63	51.913
403.99	51.809
404.35	52.286
404.70	52.688
405.06	51.881
405.42	50.808
405.77	52.370
406.13	51.302
406.49	50.199
406.84	50.085
407.20	52.283
407.55	52.062
407.91	52.776
408.27	51.607
408.62	51.981
408.98	50.680
409.34	50.789
409.69	52.645
410.05	50.805
410.40	51.119
410.76	51.059
411.11	51.126
411.47	50.556
411.83	51.201
412.18	51.027
412.54	51.712
412.89	50.796
413.25	50.285
413.60	51.343
413.96	52.364
414.31	51.830
414.67	52.886
415.03	52.554
415.38	51.924
415.74	52.874
416.09	50.843
416.45	52.683
416.80	53.239
417.16	51.305
417.51	50.127
417.87	52.378
418.22	52.126
418.58	52.548
418.93	51.874
419.29	51.818
419.64	52.574
420.00	53.222
420.35	51.684
420.71	52.042
421.06	51.854
421.42	52.447
421.77	52.748
422.12	53.914
422.48	52.131
422.83	52.232
423.19	51.350
423.54	52.167
423.90	52.831
424.25	52.504
424.61	53.221
424.96	52.513
425.31	52.053
425.67	53.199
426.02	53.057
426.38	52.042
426.73	53.152
427.09	53.677
427.44	52.898
427.79	53.631
428.15	54.803
428.50	53.371
428.85	54.380
429.21	53.431
429.56	52.592
429.92	53.257
430.27	53.507
430.62	52.961
430.98	52.944
431.33	53.931
431.68	52.938
432.04	53.182
432.39	53.677
432.74	55.094
433.10	54.540
433.45	55.887
433.80	56.205
434.16	54.388
434.51	55.057
434.86	54.818
435.22	54.781
435.57	55.483
435.92	56.915
436.28	55.703
436.63	55.321
436.98	56.306
437.34	55.879
437.69	54.927
438.04	55.753
438.39	55.225
438.75	55.122
439.10	55.801
439.45	54.946
439.81	56.738
440.16	56.577
440.51	55.236
440.86	56.923
441.22	55.249
441.57	56.850
441.92	56.417
442.27	56.340
442.63	55.945
442.98	56.519
443.33	56.186
443.68	56.388
444.03	55.938
444.39	56.827
444.74	56.004
445.09	56.714
445.44	57.226
445.79	57.310
446.15	55.789
446.50	56.487
446.85	56.673
447.20	56.219
447.55	57.640
447.91	57.059
448.26	57.242
448.61	57.546
448.96	58.224
449.31	57.536
449.66	59.025
450.02	57.050
450.37	58.356
450.72	59.118
451.07	58.173
451.42	57.261
451.77	58.591
452.12	57.119
452.47	58.809
452.83	58.423
453.18	58.679
453.53	58.792
453.88	59.429
454.23	59.094
454.58	59.382
454.93	58.492
455.28	60.220
455.63	59.929
455.98	58.827
456.34	59.939
456.69	58.476
457.04	59.905
457.39	58.800
457.74	60.135
458.09	58.731
458.44	58.050
458.79	58.196
459.14	59.029
459.49	59.230
459.84	59.837
460.19	59.605
460.54	58.063
460.89	59.915
461.24	58.477
461.59	58.787
461.94	58.629
462.29	59.439
462.64	59.925
462.99	60.333
463.34	59.754
463.69	59.710
464.04	59.988
464.39	60.046
464.74	58.441
465.09	58.793
465.44	58.923
465.79	59.118
466.14	58.347
466.49	61.205
466.84	57.971
467.19	60.164
467.54	58.198
467.89	58.392
468.24	59.988
468.59	60.238
468.94	60.205
469.29	59.133
469.64	60.193
469.99	59.254
470.34	60.531
470.68	59.172
471.03	61.508
471.38	60.199
471.73	60.614
472.08	61.448
472.43	61.266
472.78	60.819
473.13	59.887
473.48	60.024
473.83	60.188
474.17	60.304
474.52	59.005
474.87	59.181
475.22	59.452
475.57	58.604
475.92	59.683
476.27	58.107
476.61	59.946
476.96	58.307
477.31	59.486
477.66	59.367
478.01	60.495
478.36	59.320
478.70	59.653
479.05	59.728
479.40	59.970
479.75	58.987
480.10	59.390
480.45	59.524
480.79	58.157
481.14	59.154
481.49	57.914
481.84	58.883
482.19	59.476
482.53	58.498
482.88	59.095
483.23	59.044
483.58	60.099
483.92	60.558
484.27	58.861
484.62	59.550
484.97	57.577
485.31	58.912
485.66	58.250
486.01	56.231
486.36	55.321
486.70	54.069
487.05	54.579
487.40	56.054
487.75	57.028
488.09	57.330
488.44	57.393
488.79	57.445
489.13	58.007
489.48	58.570
489.83	58.299
490.17	57.762
490.52	59.475
490.87	58.362
491.22	60.727
491.56	59.201
491.91	59.633
492.26	58.174
492.60	60.182
492.95	59.175
493.30	60.100
493.64	59.075
493.99	59.079
494.34	60.108
494.68	58.920
495.03	58.419
495.37	59.388
495.72	60.420
496.07	58.446
496.41	58.992
496.76	57.873
497.11	57.969
497.45	59.053
497.80	58.573
498.14	59.917
498.49	58.960
498.84	59.626
499.18	59.049
499.53	59.761
499.87	59.704
500.22	59.880
500.56	58.496
500.91	59.137
501.26	57.786
501.60	58.880
501.95	58.154
502.29	58.400
502.64	58.491
502.98	58.115
503.33	58.842
503.67	58.455
504.02	58.083
504.36	58.959
504.71	59.177
505.06	59.409
505.40	59.148
505.75	58.045
506.09	58.796
506.44	58.882
506.78	60.208
507.13	58.604
507.47	58.515
507.82	59.513
508.16	60.265
508.51	59.420
508.85	58.927
509.19	59.080
509.54	59.912
509.88	59.274
510.23	58.431
510.57	57.867
510.92	59.291
511.26	58.986
511.61	57.607
511.95	58.089
512.30	57.150
512.64	58.827
512.98	59.252
513.33	58.607
513.67	58.881
514.02	58.753
514.36	58.463
514.70	59.520
515.05	60.202
515.39	60.307
515.74	60.361
516.08	59.259
516.42	60.984
516.77	60.053
517.11	59.360
517.46	59.052
517.80	58.383
518.14	59.606
518.49	59.647
518.83	58.571
519.17	59.401
519.52	60.076
519.86	59.564
520.20	59.562
520.55	59.016
520.89	60.517
521.23	60.339
521.58	59.667
521.92	60.525
522.26	58.709
522.61	59.477
522.95	60.781
523.29	60.058
523.64	59.133
523.98	59.272
524.32	58.939
524.66	59.420
525.01	58.225
525.35	60.695
525.69	60.506
526.04	60.500
526.38	59.564
526.72	60.024
527.06	58.072
527.41	60.580
527.75	60.134
528.09	58.700
528.43	60.220
528.78	59.511
529.12	60.566
529.46	59.088
529.80	59.521
530.15	58.397
530.49	58.303
530.83	58.501
531.17	59.041
531.51	58.492
531.86	58.575
532.20	58.900
532.54	58.945
532.88	59.650
533.22	58.318
533.57	58.267
533.91	58.100
534.25	56.376
534.59	58.187
534.93	57.452
535.27	56.118
535.62	56.359
535.96	57.861
536.30	58.318
536.64	58.137
536.98	58.402
537.32	57.312
537.66	59.439
538.01	57.523
538.35	57.018
538.69	57.282
539.03	57.463
539.37	56.432
539.71	57.531
540.05	57.292
540.39	57.547
540.73	57.025
541.07	57.340
541.42	57.214
541.76	57.460
542.10	56.782
542.44	57.294
542.78	58.087
543.12	55.767
543.46	56.767
543.80	56.203
544.14	57.399
544.48	56.813
544.82	57.798
545.16	55.070
545.50	56.915
545.84	56.692
546.18	58.388
546.52	58.426
546.86	56.673
547.20	56.266
547.54	55.415
547.88	56.144
548.22	56.466
548.56	54.920
548.90	55.042
549.24	57.991
549.58	56.057
549.92	57.433
550.26	56.795
550.60	56.154
550.94	58.073
551.28	57.862
551.62	57.586
551.96	56.351
552.30	55.636
552.64	56.505
552.98	56.186
553.32	54.673
553.66	55.700
554.00	55.277
554.34	57.989
554.68	56.384
555.02	56.008
555.36	55.053
555.69	55.236
556.03	54.522
556.37	55.641
556.71	56.910
557.05	54.325
557.39	55.400
557.73	56.334
558.07	56.003
558.41	55.175
558.75	54.993
559.08	56.183
559.42	57.480
559.76	55.239
560.10	56.435
560.44	54.280
560.78	55.691
561.12	55.245
561.45	55.006
561.79	54.307
562.13	55.212
562.47	54.835
562.81	55.368
563.15	55.010
563.48	53.665
563.82	54.835
564.16	55.224
564.50	53.225
564.84	55.562
565.17	53.298
565.51	54.988
565.85	55.336
566.19	53.393
566.52	54.753
566.86	53.882
567.20	53.090
567.54	51.965
567.88	53.312
568.21	51.573
568.55	51.946
568.89	51.323
569.23	51.812
569.56	51.158
569.90	50.090
570.24	50.358
570.57	49.481
570.91	49.204
571.25	48.517
571.59	48.393
571.92	47.551
572.26	47.466
572.60	47.515
572.93	48.505
573.27	48.018
573.61	48.349
573.95	47.560
574.28	48.061
574.62	47.066
574.96	46.496
575.29	46.570
575.63	46.478
575.97	46.568
576.30	46.495
576.64	47.142
576.98	46.738
577.31	47.144
577.65	46.647
577.98	46.527
578.32	46.499
578.66	46.093
578.99	45.962
579.33	46.031
579.67	46.504
580.00	46.366
580.34	46.334
580.67	46.398
581.01	47.005
581.35	46.512
581.68	45.859
582.02	45.882
582.35	45.324
582.69	45.621
583.02	45.734
583.36	46.277
583.70	46.783
584.03	47.576
584.37	47.653
584.70	46.653
585.04	46.395
585.37	45.875
585.71	46.742
586.04	46.032
586.38	46.684
586.72	46.332
587.05	47.221
587.39	47.054
587.72	46.524
588.06	46.213
588.39	46.315
588.73	46.663
589.06	46.367
589.40	48.388
589.73	47.099
590.07	48.010
590.40	48.990
590.73	49.100
591.07	49.260
591.40	48.942
591.74	48.133
592.07	47.712
592.41	47.042
592.74	47.492
593.08	46.908
593.41	46.619
593.75	46.061
594.08	46.474
594.41	46.465
594.75	46.952
595.08	47.428
595.42	47.136
595.75	46.792
596.09	47.028
596.42	46.795
596.75	47.997
597.09	47.173
597.42	47.388
597.75	47.140
598.09	46.697
598.42	47.205
598.76	46.530
599.09	46.966
599.42	46.505
599.76	46.303
600.09	45.017
600.42	46.340
600.76	46.057
601.09	46.186
601.42	45.864
601.76	45.865
602.09	46.210
602.42	46.100
602.76	46.679
603.09	47.775
603.42	46.679
603.76	45.445
604.09	46.507
604.42	47.043
604.76	47.373
605.09	46.245
605.42	46.648
605.75	46.190
606.09	46.251
606.42	46.374
606.75	46.133
607.09	45.914
607.42	46.525
607.75	46.855
608.08	45.938
608.42	46.938
608.75	46.769
609.08	46.854
609.41	46.818
609.75	47.482
610.08	47.617
610.41	47.519
610.74	46.364
611.07	47.158
611.41	47.359
611.74	47.036
612.07	47.399
612.40	47.466
612.73	48.677
613.07	47.339
613.40	48.271
613.73	47.928
614.06	47.700
614.39	47.778
614.72	47.363
615.06	45.500
615.39	47.376
615.72	46.515
616.05	46.760
616.38	46.119
616.71	47.477
617.05	47.776
617.38	48.258
617.71	48.763
618.04	48.626
618.37	48.082
618.70	48.499
619.03	48.291
619.36	49.121
619.69	48.417
620.03	50.750
620.36	48.683
620.69	49.361
621.02	50.204
621.35	49.570
621.68	50.295
622.01	50.332
622.34	51.129
622.67	49.157
623.00	48.809
623.33	49.460
623.66	48.902
623.99	50.753
624.32	48.238
624.65	48.190
624.99	49.966
625.32	49.432
625.65	48.759
625.98	47.978
626.31	49.629
626.64	49.051
626.97	49.503
627.30	50.078
627.63	51.177
627.96	50.626
628.29	51.568
628.62	49.872
628.95	50.887
629.28	51.008
629.61	52.285
629.94	51.340
630.26	50.780
630.59	52.039
630.92	50.583
631.25	49.864
631.58	53.520
631.91	50.904
632.24	51.020
632.57	49.804
632.90	54.658
633.23	54.669
633.56	52.687
633.89	53.162
634.22	55.328
634.55	52.043
634.88	51.479
635.20	54.260
635.53	55.401
635.86	53.356
636.19	52.525
636.52	52.432
636.85	51.672
637.18	52.654
637.51	53.184
637.83	51.144
638.16	54.865
638.49	53.533
638.82	52.465
639.15	51.704
639.48	54.858
639.81	54.457
640.13	53.742
640.46	54.362
640.79	53.316
641.12	53.806
641.45	54.722
641.77	54.425
642.10	56.225
642.43	56.757
642.76	54.119
643.09	53.026
643.41	55.400
643.74	56.835
644.07	55.310
644.40	55.621
644.73	56.757
645.05	55.721
645.38	57.427
645.71	56.601
646.04	54.962
646.36	56.338
646.69	55.840
647.02	57.440
647.35	54.173
647.67	56.564
648.00	56.026
648.33	54.135
648.66	55.606
648.98	54.058
649.31	50.742
649.64	51.867
649.96	53.201
650.29	52.143
650.62	54.197
650.94	54.066
651.27	57.416
651.60	54.460
651.92	54.531
652.25	54.488
652.58	51.064
652.90	55.988
653.23	53.914
653.56	53.412
653.88	52.717
654.21	53.226
654.54	50.952
654.86	53.245
655.19	52.111
655.52	44.634
655.84	38.358
656.17	44.284
656.49	62.279
656.82	70.474
657.15	56.002
657.47	42.145
657.80	31.557
658.13	25.278
658.45	34.330
658.78	41.390
659.10	42.574
659.43	43.484
659.75	44.172
660.08	46.366
660.41	48.367
660.73	53.952
661.06	54.505
661.38	57.240
661.71	57.014
662.03	56.274
662.36	57.143
662.68	53.818
663.01	54.595
663.33	54.906
663.66	55.621
663.98	59.325
664.31	53.358
664.63	56.513
664.96	58.161
665.28	56.309
665.61	57.170
665.93	55.849
666.26	56.636
666.58	55.229
666.91	55.405
667.23	53.012
667.56	57.906
667.88	55.809
668.21	56.352
668.53	54.234
668.86	57.515
669.18	56.212
669.50	57.645
669.83	57.495
670.15	56.757
670.48	53.711
670.80	54.183
671.13	57.171
671.45	58.717
671.77	58.071
672.10	53.680
672.42	52.796
672.75	52.848
673.07	50.715
673.39	51.917
673.72	54.152
674.04	52.688
674.37	53.902
674.69	55.204
675.01	52.052
675.34	53.682
675.66	54.883
675.98	57.396
676.31	53.800
676.63	54.274
676.95	55.556
677.28	53.550
677.60	53.924
677.92	52.183
678.25	54.457
678.57	52.886
678.89	53.345
679.22	53.676
679.54	52.491
679.86	53.054
680.18	54.306
680.51	48.425
680.83	50.507
681.15	52.860
681.48	53.125
681.80	53.415
682.12	49.827
682.44	48.829
682.77	52.135
683.09	52.816
683.41	56.735
683.73	53.150
684.06	53.373
684.38	55.426
684.70	51.079
685.02	49.132
685.34	53.873
685.67	52.894
685.99	49.425
686.31	47.612
686.63	48.780
686.96	51.471
687.28	49.497
687.60	51.195
687.92	50.754
688.24	53.103
688.56	50.712
688.89	50.287
689.21	53.372
689.53	55.336
689.85	51.829
690.17	52.816
690.49	52.016
690.82	50.000
691.14	55.354
691.46	53.799
691.78	51.852
692.10	52.290
692.42	53.176
692.74	53.876
693.06	51.550
693.39	49.802
693.71	52.063
694.03	55.030
694.35	52.209
694.67	50.713
694.99	51.441
695.31	55.180
695.63	52.715
695.95	54.525
696.27	54.425
696.59	55.131
696.91	53.418
697.23	55.656
697.56	49.378
697.88	49.900
698.20	49.811
698.52	49.611
698.84	49.281
699.16	53.305
699.48	52.966
699.80	53.377
700.12	55.889
700.44	49.766
700.76	54.177
701.08	57.441
701.40	53.247
701.72	57.487
702.04	56.369
702.36	56.183
702.68	54.787
703.00	52.130
703.32	54.591
703.64	54.660
703.96	55.990
704.28	53.175
704.60	58.592
704.91	59.664
705.23	56.534
705.55	58.457
705.87	60.635
706.19	57.367
706.51	60.815
706.83	56.047
707.15	55.080
707.47	52.785
707.79	53.333
708.11	53.515
708.43	54.607
708.74	48.869
709.06	51.860
709.38	53.846
709.70	54.496
710.02	54.348
710.34	55.525
710.66	55.833
710.98	54.098
711.29	52.368
711.61	55.153
711.93	53.799
712.25	56.024
712.57	60.129
712.89	55.152
713.20	59.425
713.52	55.452
713.84	55.589
714.16	52.174
714.48	51.585
714.80	49.593
715.11	50.798
715.43	51.676
715.75	54.930
716.07	51.156
716.39	56.571
716.70	58.879
717.02	62.290
717.34	61.511
717.66	63.194
717.97	62.121
718.29	59.507
718.61	51.014
718.93	55.709
719.24	61.409
719.56	55.517
719.88	50.318
720.20	58.065
720.51	56.536
720.83	55.853
721.15	61.565
721.46	55.137
721.78	55.052
722.10	57.292
722.42	57.525
722.73	53.430
723.05	58.246
723.37	60.071
723.68	57.422
724.00	57.955
724.32	61.217
724.63	55.769
724.95	59.608
725.27	57.249
725.58	60.662
725.90	55.634
726.22	56.849
726.53	56.522
726.85	56.026
727.16	60.738
727.48	57.143
727.80	59.353
728.11	57.857
728.43	52.899
728.74	52.448
729.06	53.405
729.38	56.842
729.69	56.000
730.01	53.289
730.32	56.040
730.64	53.821
730.96	50.751
731.27	51.682
731.59	47.701
731.90	49.582
732.22	48.857
732.53	50.997
732.85	52.924
733.16	53.313
733.48	52.978
733.80	56.812
734.11	53.988
734.43	52.047
734.74	53.083
735.06	52.910
735.37	49.227
735.69	53.913
736.00	54.740
736.32	46.364
736.63	51.735
736.95	53.416
737.26	55.488
737.58	54.908
737.89	53.614
738.21	54.305
738.52	53.512
738.83	58.608
739.15	56.098
739.46	54.138
739.78	56.122
740.09	54.227
740.41	51.840
740.72	56.190
741.04	56.643
741.35	57.031
741.66	54.941
741.98	54.077
742.29	66.667
742.61	58.850
742.92	53.390
743.23	56.000
743.55	55.472
743.86	54.902
744.18	58.898
744.49	59.504
744.80	65.438
745.12	57.143
745.43	67.757
745.74	59.111
746.06	57.895
746.37	56.744
746.68	67.699
747.00	61.435
747.31	55.042
747.62	54.918
747.94	58.798
748.25	50.195
748.56	59.746
748.88	63.393
749.19	59.535
749.50	61.187
749.82	57.613
750.13	56.917
750.44	54.667
750.75	55.705
751.07	56.250
751.38	54.125
751.69	54.545
752.01	54.545
752.32	52.492
752.63	59.396
752.94	54.895
753.26	58.203
753.57	54.475
753.88	58.052
754.19	52.708
754.51	55.482
754.82	49.329
755.13	50.000
755.44	52.593
755.75	58.076
756.07	53.767
756.38	51.634
756.69	48.750
757.00	53.412
757.31	51.268
757.63	45.730
757.94	46.277
758.25	50.242
758.56	45.767
758.87	48.371
759.18	49.128
759.50	48.632
759.81	49.555
760.12	51.685
760.43	47.339
760.74	50.380
761.05	50.398
761.36	50.000
761.67	50.135
761.99	49.296
762.30	53.698
762.61	54.167
762.92	50.379
763.23	56.604
763.54	52.692
763.85	50.195
764.16	52.083
764.47	51.014
764.78	48.534
765.10	50.915
765.41	46.591
765.72	48.619
766.03	49.547
766.34	50.523
766.65	52.852
766.96	59.919
767.27	58.879
767.58	62.871
767.89	65.746
768.20	75.000
768.51	59.694
768.82	51.754
769.13	54.510
769.44	53.759
769.75	47.940
770.06	57.143
770.37	56.579
770.68	55.111
770.99	58.051
771.30	58.577
771.61	52.308
771.92	54.962
772.23	51.210
772.54	58.667
772.85	59.901
773.16	60.326
773.47	57.222
773.78	59.406
774.09	62.500
774.39	60.000
774.70	60.588
775.01	57.895
775.32	58.385
775.63	71.918
775.94	59.877
776.25	68.276
776.56	67.176
776.87	74.046
777.18	77.273
777.48	74.016
777.79	70.000
778.10	71.212
778.41	73.134
778.72	65.414
779.03	53.846
779.34	64.189
779.65	69.565
779.95	64.596
780.26	63.690
780.57	69.388
780.88	65.248
781.19	74.167
781.50	60.947
781.80	62.842
782.11	56.614
782.42	54.023
782.73	57.627
783.04	58.065
783.34	62.791
783.65	62.585
783.96	63.871
784.27	62.252
784.57	59.868
784.88	60.145
785.19	75.833
785.50	73.276
785.81	78.295
786.11	68.148
786.42	66.929
786.73	79.279
787.04	70.755
787.34	72.358
787.65	68.939
787.96	65.152
788.26	70.079
788.57	70.803
788.88	69.014
789.19	71.756
789.49	72.297
789.80	64.844
790.11	69.421
790.41	82.407
790.72	74.074
791.03	70.192
791.33	64.646
791.64	74.737
791.95	89.474
792.25	72.917
792.56	77.000
792.87	90.244
793.17	73.864
793.48	85.882
793.79	80.460
794.09	89.773
794.40	78.448
794.70	64.286
795.01	70.769
795.32	65.649
795.62	67.521
795.93	73.950
796.23	73.171
796.54	81.633
796.85	86.364
797.15	110.390
797.46	92.683
797.76	77.500
798.07	81.333
798.37	88.750
798.68	88.750
798.99	79.268
799.29	92.000
799.60	67.442
799.90	76.316
800.21	107.576
800.51	91.549
800.82	100.000
801.12	90.769
801.43	98.667
801.73	101.724
802.04	68.831
802.34	84.932
802.65	92.157
802.95	113.043
803.26	106.452
803.56	116.667
803.87	105.970
804.17	96.825
804.48	101.887
804.78	81.944
805.09	103.030
805.39	106.349
805.70	112.281
806.00	70.000
806.30	90.625
806.61	87.059
806.91	80.000
807.22	68.478
807.52	77.632
807.83	98.684
808.13	100.000
808.43	100.000
808.74	87.671
809.04	103.571
809.35	89.706
809.65	84.848
809.95	111.765
810.26	107.407
810.56	100.000
810.86	106.122
811.17	107.018
811.47	104.348
811.77	98.276
812.08	79.310
812.38	92.857
812.69	128.571
812.99	104.444
813.29	122.857
813.59	154.839
813.90	89.655
814.20	96.721
814.50	102.000
814.81	78.947
815.11	109.259
815.41	105.357
815.72	123.214
816.02	112.000
816.32	129.268
816.62	110.345
816.93	145.455
817.23	146.341
817.53	114.286
817.84	106.667
818.14	116.667
818.44	116.667
818.74	111.321
819.04	117.949
819.35	148.485
819.65	107.692
819.95	122.222
820.25	117.021
820.56	118.919
820.86	142.105
821.16	108.511
821.46	139.474
821.76	116.364
822.07	114.286
822.37	121.053
822.67	153.488
822.97	115.789
823.27	132.609
823.57	112.500
823.88	135.897
824.18	121.212
824.48	173.913
824.78	125.000
825.08	191.304
825.38	124.138
825.69	129.412
825.99	112.766
826.29	116.667
826.59	137.143
826.89	170.000
827.19	151.429
827.49	161.290
827.79	203.846
828.09	114.286
828.39	119.444
828.70	83.784
829.00	185.714
829.30	250.000
829.60	127.778
829.90	154.839
830.20	136.364
830.50	154.054
830.80	212.500
831.10	173.077
831.40	209.524
831.70	191.667
832.00	160.000
832.30	247.826
832.60	195.833
832.90	190.909
833.20	185.000
833.50	142.105
833.80	147.059
834.10	118.421
834.40	205.263
834.70	146.667
835.00	184.000
835.30	116.216
835.60	143.750
835.90	135.135
836.20	150.000
836.50	145.455
836.80	131.707
837.10	191.304
837.40	384.615
837.70	157.895
838.00	163.333
838.30	170.833
838.60	164.000
838.90	350.000
839.19	275.000
839.49	156.667
839.79	155.172
840.09	192.308
840.39	280.000
840.69	215.789
840.99	161.905
841.29	230.435
841.59	225.000
841.88	188.000
842.18	400.000
842.48	192.857
842.78	188.889
843.08	269.231
843.38	172.727
843.68	271.429
843.97	600.000
844.27	213.043
844.57	1250.000
844.87	342.857
845.17	183.333
845.47	161.905
845.76	208.333
846.06	614.286
846.36	205.882
846.66	284.615
846.96	306.250
847.25	292.308
847.55	215.789
847.85	177.778
848.15	700.000
848.44	272.727
848.74	166.667
849.04	175.000
849.34	229.412
849.63	281.250
849.93	187.500
850.23	933.333
850.53	350.000
850.82	345.455
851.12	223.529
851.42	200.000
851.71	268.750
852.01	0.000
852.31	241.176
852.61	440.000
852.90	154.167
853.20	355.556
853.50	-2900.000
853.79	176.000
854.09	156.250
854.39	131.034
854.68	179.310
854.98	219.048
855.28	151.613
855.57	342.857
855.87	211.111
856.17	151.852
856.46	226.316
856.76	164.516
857.05	276.471
857.35	354.545
857.65	230.769
857.94	190.000
858.24	388.889
858.53	314.286
858.83	585.714
859.13	252.174
859.42	255.556
859.72	362.500
860.01	300.000
860.31	1250.000
860.60	380.000
860.90	312.500
861.20	330.769
861.49	428.571
861.79	-4200.000
862.08	571.429
862.38	344.444
862.67	242.857
862.97	330.000
863.26	180.000
863.56	1050.000
863.85	284.615
864.15	241.176
864.44	277.778
864.74	316.667
865.03	318.182
865.33	437.500
865.62	226.667
865.92	616.667
866.21	925.000
866.51	500.000
866.80	188.889
867.10	1000.000
867.39	3600.000
867.69	660.000
867.98	800.000
868.27	180.952
868.57	306.667
868.86	975.000
869.16	152.381
869.45	4600.000
869.75	-616.667
870.04	875.000
870.33	720.000
870.63	550.000
870.92	252.941
871.22	800.000
871.51	571.429
871.80	333.333
872.10	376.923
>>>>>End Processed Spectral Data<<<<<
