SpectraSuite Data File
++++++++++++++++++++++++++++++++++++
Date: Tue May 12 16:47:39 PDT 2015
User: schluterlab
Dark Spectrum Present: Yes
Reference Spectrum Present: Yes
Number of Sampled Component Spectra: 1
Spectrometers: USB2E3373
Integration Time (usec): 3000 (USB2E3373)
Spectra Averaged: 3 (USB2E3373)
Boxcar Smoothing: 0 (USB2E3373)
Correct for Electrical Dark: No (USB2E3373)
Strobe/Lamp Enabled: No (USB2E3373)
Correct for Detector Non-linearity: No (USB2E3373)
Correct for Stray Light: No (USB2E3373)
Number of Pixels in Processed Spectrum: 2048
>>>>>Begin Processed Spectral Data<<<<<
178.53	0.000
178.91	-225.000
179.29	-725.000
179.67	-3600.000
180.04	-186.667
180.42	700.000
180.80	1150.000
181.18	0.000
181.56	-312.500
181.94	0.000
182.31	1100.000
182.69	-3500.000
183.07	528.571
183.45	-4400.000
183.83	-1450.000
184.20	410.000
184.58	371.429
184.96	-261.538
185.34	-175.000
185.72	2050.000
186.09	-875.000
186.47	-3100.000
186.85	900.000
187.23	540.000
187.61	1450.000
187.98	462.500
188.36	185.714
188.74	308.333
189.12	333.333
189.49	900.000
189.87	0.000
190.25	362.500
190.63	3200.000
191.00	-225.000
191.38	-4200.000
191.76	-650.000
192.14	662.500
192.51	-3800.000
192.89	2000.000
193.27	1333.333
193.65	-1333.333
194.02	-800.000
194.40	685.714
194.78	-271.429
195.15	246.667
195.53	-4000.000
195.91	-560.000
196.29	4000.000
196.66	225.000
197.04	800.000
197.42	-1400.000
197.79	550.000
198.17	266.667
198.55	0.000
198.92	500.000
199.30	1133.333
199.68	1850.000
200.05	666.667
200.43	-533.333
200.81	222.222
201.18	2800.000
201.56	300.000
201.94	-575.000
202.31	-337.500
202.69	-500.000
203.07	3100.000
203.44	-600.000
203.82	283.333
204.19	660.000
204.57	-1400.000
204.95	-675.000
205.32	-640.000
205.70	516.667
206.08	800.000
206.45	-1000.000
206.83	433.333
207.20	168.421
207.58	266.667
207.96	640.000
208.33	0.000
208.71	714.286
209.08	600.000
209.46	-3200.000
209.84	-625.000
210.21	840.000
210.59	-700.000
210.96	391.667
211.34	-750.000
211.71	409.091
212.09	875.000
212.46	1200.000
212.84	-350.000
213.22	422.222
213.59	-3000.000
213.97	310.000
214.34	1075.000
214.72	1033.333
215.09	1066.667
215.47	-3000.000
215.84	-290.000
216.22	-500.000
216.59	0.000
216.97	0.000
217.34	1300.000
217.72	-1550.000
218.09	1033.333
218.47	450.000
218.84	675.000
219.22	1266.667
219.59	1133.333
219.97	471.429
220.34	466.667
220.72	1800.000
221.09	3500.000
221.47	391.667
221.84	1066.667
222.22	260.000
222.59	266.667
222.97	242.857
223.34	287.500
223.72	-1250.000
224.09	1333.333
224.46	284.615
224.84	-750.000
225.21	411.111
225.59	266.667
225.96	1800.000
226.34	-520.000
226.71	-600.000
227.08	-560.000
227.46	0.000
227.83	-616.667
228.21	-1850.000
228.58	358.333
228.95	825.000
229.33	377.778
229.70	1125.000
230.08	315.385
230.45	2800.000
230.82	-725.000
231.20	-766.667
231.57	-666.667
231.95	620.000
232.32	366.667
232.69	600.000
233.07	200.000
233.44	-1500.000
233.81	213.333
234.19	155.556
234.56	200.000
234.93	170.588
235.31	160.000
235.68	193.750
236.05	150.000
236.43	144.444
236.80	185.714
237.17	120.690
237.55	90.625
237.92	95.000
238.29	106.061
238.67	103.125
239.04	102.439
239.41	70.833
239.79	72.500
240.16	81.250
240.53	72.131
240.91	68.116
241.28	71.186
241.65	56.061
242.02	56.338
242.40	52.857
242.77	47.253
243.14	48.101
243.51	56.566
243.89	39.252
244.26	35.514
244.63	36.634
245.00	43.119
245.38	29.661
245.75	33.333
246.12	37.037
246.49	27.660
246.87	23.770
247.24	32.000
247.61	25.000
247.98	28.571
248.36	21.818
248.73	30.612
249.10	26.190
249.47	27.000
249.84	24.876
250.22	20.541
250.59	23.500
250.96	24.051
251.33	21.395
251.70	25.000
252.08	24.370
252.45	20.717
252.82	21.293
253.19	24.111
253.56	20.385
253.94	22.826
254.31	18.992
254.68	21.254
255.05	22.069
255.42	19.343
255.79	20.195
256.16	21.356
256.54	19.156
256.91	17.974
257.28	17.057
257.65	17.241
258.02	17.109
258.39	19.484
258.76	21.159
259.14	13.429
259.51	19.242
259.88	17.629
260.25	13.736
260.62	15.068
260.99	15.978
261.36	18.942
261.73	15.160
262.10	20.157
262.47	15.750
262.85	16.267
263.22	16.967
263.59	18.670
263.96	17.043
264.33	15.802
264.70	15.725
265.07	15.122
265.44	15.826
265.81	15.802
266.18	12.815
266.55	15.839
266.92	15.884
267.29	15.132
267.66	12.332
268.03	12.332
268.40	14.376
268.77	14.317
269.14	13.883
269.51	14.254
269.88	16.939
270.25	11.663
270.62	15.236
270.99	16.633
271.36	14.837
271.73	12.788
272.10	13.737
272.47	11.310
272.84	14.571
273.21	14.669
273.58	14.372
273.95	13.552
274.32	15.759
274.69	15.748
275.06	14.754
275.43	14.751
275.80	13.774
276.17	13.787
276.54	14.579
276.91	14.179
277.28	14.234
277.65	13.838
278.02	13.603
278.39	14.209
278.76	14.655
279.13	14.057
279.50	13.455
279.87	13.594
280.23	12.155
280.60	14.416
280.97	12.586
281.34	12.706
281.71	15.304
282.08	13.333
282.45	13.176
282.82	11.706
283.19	12.878
283.56	12.727
283.92	11.564
284.29	11.481
284.66	13.445
285.03	12.604
285.40	11.240
285.77	12.346
286.14	13.313
286.51	12.270
286.87	9.652
287.24	9.910
287.61	11.550
287.98	12.687
288.35	11.852
288.72	11.684
289.08	12.763
289.45	12.043
289.82	10.781
290.19	12.006
290.56	12.664
290.93	11.655
291.29	12.017
291.66	10.876
292.03	11.220
292.40	11.111
292.77	10.864
293.13	10.842
293.50	10.796
293.87	10.705
294.24	13.007
294.60	12.651
294.97	11.748
295.34	10.890
295.71	10.907
296.08	11.200
296.44	10.673
296.81	10.298
297.18	7.985
297.55	10.099
297.91	8.498
298.28	10.266
298.65	9.816
299.02	10.012
299.38	9.952
299.75	9.146
300.12	10.780
300.48	9.719
300.85	10.608
301.22	10.349
301.59	8.726
301.95	8.401
302.32	10.594
302.69	9.163
303.05	10.101
303.42	9.193
303.79	10.076
304.15	10.561
304.52	9.514
304.89	10.235
305.25	10.011
305.62	8.849
305.99	8.478
306.35	8.526
306.72	9.886
307.09	8.903
307.45	9.081
307.82	8.025
308.19	8.454
308.55	8.700
308.92	10.697
309.29	10.651
309.65	10.010
310.02	9.432
310.38	9.771
310.75	8.486
311.12	9.291
311.48	11.004
311.85	9.447
312.22	9.933
312.58	8.358
312.95	10.291
313.31	9.644
313.68	8.349
314.05	9.982
314.41	9.497
314.78	8.049
315.14	9.858
315.51	9.745
315.87	9.307
316.24	8.777
316.61	9.311
316.97	8.440
317.34	10.063
317.70	10.097
318.07	9.253
318.43	9.315
318.80	9.019
319.16	9.003
319.53	8.938
319.89	7.348
320.26	9.497
320.62	9.432
320.99	9.914
321.35	9.462
321.72	10.626
322.08	9.234
322.45	8.992
322.81	10.156
323.18	9.769
323.54	10.192
323.91	9.882
324.27	9.372
324.64	7.872
325.00	9.483
325.37	10.118
325.73	9.275
326.10	10.356
326.46	9.166
326.83	8.880
327.19	9.398
327.56	9.265
327.92	10.246
328.29	9.574
328.65	11.045
329.01	9.495
329.38	10.068
329.74	9.735
330.11	9.123
330.47	9.378
330.84	9.232
331.20	9.137
331.56	10.449
331.93	10.693
332.29	9.439
332.66	8.759
333.02	8.935
333.38	9.162
333.75	10.092
334.11	9.144
334.48	10.000
334.84	8.868
335.20	9.410
335.57	9.656
335.93	9.251
336.29	9.867
336.66	9.777
337.02	8.982
337.38	9.114
337.75	9.966
338.11	9.283
338.47	8.637
338.84	10.076
339.20	8.312
339.56	10.177
339.93	7.943
340.29	8.319
340.65	10.059
341.02	9.654
341.38	9.524
341.74	8.970
342.11	8.431
342.47	8.450
342.83	10.090
343.20	9.216
343.56	7.705
343.92	9.166
344.28	8.214
344.65	9.535
345.01	8.889
345.37	8.173
345.73	8.810
346.10	8.526
346.46	9.330
346.82	8.410
347.19	9.892
347.55	8.431
347.91	8.459
348.27	8.521
348.63	8.861
349.00	8.759
349.36	9.261
349.72	8.104
350.08	9.317
350.45	8.682
350.81	9.633
351.17	8.243
351.53	8.314
351.89	8.469
352.26	8.466
352.62	7.692
352.98	8.512
353.34	9.091
353.70	8.104
354.07	9.000
354.43	8.909
354.79	8.808
355.15	8.652
355.51	8.308
355.87	9.187
356.24	9.007
356.60	8.143
356.96	7.885
357.32	8.666
357.68	9.104
358.04	8.055
358.40	8.546
358.77	9.391
359.13	7.808
359.49	7.784
359.85	8.861
360.21	8.024
360.57	9.197
360.93	8.009
361.29	9.452
361.66	9.396
362.02	7.457
362.38	8.153
362.74	8.280
363.10	9.116
363.46	8.356
363.82	8.906
364.18	7.824
364.54	7.511
364.90	8.835
365.26	8.536
365.62	7.320
365.98	8.052
366.35	7.517
366.71	7.911
367.07	8.191
367.43	8.126
367.79	7.979
368.15	7.734
368.51	8.408
368.87	7.473
369.23	8.316
369.59	7.755
369.95	7.902
370.31	7.803
370.67	7.911
371.03	8.543
371.39	7.825
371.75	7.955
372.11	8.158
372.47	8.493
372.83	8.022
373.19	8.773
373.55	8.179
373.91	7.666
374.27	8.466
374.63	8.542
374.99	7.884
375.35	7.258
375.71	8.245
376.07	7.626
376.42	7.289
376.78	8.221
377.14	7.798
377.50	8.052
377.86	7.303
378.22	7.922
378.58	7.990
378.94	7.785
379.30	7.520
379.66	7.465
380.02	8.387
380.38	7.084
380.74	8.016
381.09	7.886
381.45	7.457
381.81	7.565
382.17	7.265
382.53	7.678
382.89	7.037
383.25	7.164
383.61	7.550
383.97	7.019
384.32	7.776
384.68	8.021
385.04	8.030
385.40	8.304
385.76	7.490
386.12	7.607
386.48	6.869
386.83	6.907
387.19	7.479
387.55	7.774
387.91	7.968
388.27	7.912
388.62	7.453
388.98	7.055
389.34	7.198
389.70	7.311
390.06	7.500
390.42	7.094
390.77	7.494
391.13	7.423
391.49	7.743
391.85	7.015
392.20	7.867
392.56	8.005
392.92	7.468
393.28	6.951
393.64	6.594
393.99	7.054
394.35	7.769
394.71	7.298
395.07	6.813
395.42	6.967
395.78	8.328
396.14	7.831
396.50	7.220
396.85	7.195
397.21	7.160
397.57	7.591
397.92	6.239
398.28	7.115
398.64	7.504
399.00	6.681
399.35	6.549
399.71	7.395
400.07	7.705
400.42	7.403
400.78	6.686
401.14	7.164
401.49	6.624
401.85	7.995
402.21	7.030
402.57	7.002
402.92	6.909
403.28	6.444
403.63	7.357
403.99	7.117
404.35	7.210
404.70	7.324
405.06	6.850
405.42	7.002
405.77	7.056
406.13	7.592
406.49	6.254
406.84	7.163
407.20	7.192
407.55	6.769
407.91	6.828
408.27	6.671
408.62	7.274
408.98	6.742
409.34	6.429
409.69	6.472
410.05	7.156
410.40	6.184
410.76	6.525
411.11	6.161
411.47	6.852
411.83	6.620
412.18	6.643
412.54	6.727
412.89	6.785
413.25	6.842
413.60	7.126
413.96	6.882
414.31	6.612
414.67	7.511
415.03	7.152
415.38	7.129
415.74	6.443
416.09	7.245
416.45	7.369
416.80	8.275
417.16	6.238
417.51	6.624
417.87	7.259
418.22	6.926
418.58	6.561
418.93	7.020
419.29	6.100
419.64	6.663
420.00	7.399
420.35	6.098
420.71	6.593
421.06	6.592
421.42	6.678
421.77	7.329
422.12	7.222
422.48	6.728
422.83	7.366
423.19	6.156
423.54	7.296
423.90	6.455
424.25	6.549
424.61	7.429
424.96	6.606
425.31	6.130
425.67	6.453
426.02	6.618
426.38	6.826
426.73	6.593
427.09	7.355
427.44	6.866
427.79	6.346
428.15	7.720
428.50	7.429
428.85	7.407
429.21	6.807
429.56	6.979
429.92	7.011
430.27	6.676
430.62	6.902
430.98	6.437
431.33	6.401
431.68	6.074
432.04	6.674
432.39	7.025
432.74	7.319
433.10	7.032
433.45	6.031
433.80	7.557
434.16	6.989
434.51	6.708
434.86	7.295
435.22	6.699
435.57	6.520
435.92	7.627
436.28	7.949
436.63	7.023
436.98	7.264
437.34	7.591
437.69	6.047
438.04	7.527
438.39	6.538
438.75	7.294
439.10	7.717
439.45	6.953
439.81	6.651
440.16	7.540
440.51	7.432
440.86	6.895
441.22	7.251
441.57	6.929
441.92	6.861
442.27	6.804
442.63	7.012
442.98	6.573
443.33	7.338
443.68	6.992
444.03	6.598
444.39	7.203
444.74	6.625
445.09	7.004
445.44	7.014
445.79	6.871
446.15	7.158
446.50	6.909
446.85	6.773
447.20	6.468
447.55	6.253
447.91	7.565
448.26	7.188
448.61	6.910
448.96	8.007
449.31	6.161
449.66	7.475
450.02	7.563
450.37	7.385
450.72	6.612
451.07	7.737
451.42	7.469
451.77	7.446
452.12	6.920
452.47	7.230
452.83	6.986
453.18	6.967
453.53	8.289
453.88	7.600
454.23	7.786
454.58	7.634
454.93	7.664
455.28	6.793
455.63	7.210
455.98	8.065
456.34	7.720
456.69	7.561
457.04	7.518
457.39	6.629
457.74	8.164
458.09	6.625
458.44	7.558
458.79	6.844
459.14	7.092
459.49	7.191
459.84	7.554
460.19	7.119
460.54	7.863
460.89	7.889
461.24	7.732
461.59	8.163
461.94	7.801
462.29	7.952
462.64	7.538
462.99	7.550
463.34	8.684
463.69	8.711
464.04	7.887
464.39	7.670
464.74	7.210
465.09	7.197
465.44	7.780
465.79	7.077
466.14	7.631
466.49	7.705
466.84	7.581
467.19	8.260
467.54	7.628
467.89	7.923
468.24	7.064
468.59	7.798
468.94	7.911
469.29	8.064
469.64	9.196
469.99	8.355
470.34	7.464
470.68	7.724
471.03	8.005
471.38	7.550
471.73	7.315
472.08	7.697
472.43	8.504
472.78	8.067
473.13	6.946
473.48	7.885
473.83	7.597
474.17	7.781
474.52	7.524
474.87	8.130
475.22	7.596
475.57	7.608
475.92	7.256
476.27	6.801
476.61	7.131
476.96	7.524
477.31	7.506
477.66	7.354
478.01	7.633
478.36	7.878
478.70	7.692
479.05	6.747
479.40	7.589
479.75	7.646
480.10	7.551
480.45	7.376
480.79	7.512
481.14	7.323
481.49	7.136
481.84	7.476
482.19	7.293
482.53	7.510
482.88	7.124
483.23	7.217
483.58	7.496
483.92	8.364
484.27	7.149
484.62	7.725
484.97	7.246
485.31	6.557
485.66	6.247
486.01	6.120
486.36	5.919
486.70	5.787
487.05	6.193
487.40	6.268
487.75	6.691
488.09	6.733
488.44	7.202
488.79	6.803
489.13	7.242
489.48	7.072
489.83	6.881
490.17	7.391
490.52	7.278
490.87	7.457
491.22	7.314
491.56	7.817
491.91	7.168
492.26	7.394
492.60	7.244
492.95	7.975
493.30	7.416
493.64	7.323
493.99	7.111
494.34	7.082
494.68	7.393
495.03	7.544
495.37	7.744
495.72	7.646
496.07	7.502
496.41	7.515
496.76	7.429
497.11	7.626
497.45	7.628
497.80	7.229
498.14	7.952
498.49	7.753
498.84	8.084
499.18	7.404
499.53	7.395
499.87	7.547
500.22	7.600
500.56	7.846
500.91	8.488
501.26	7.947
501.60	7.696
501.95	7.527
502.29	7.600
502.64	7.719
502.98	7.337
503.33	7.706
503.67	7.726
504.02	7.344
504.36	7.919
504.71	7.663
505.06	8.024
505.40	7.674
505.75	6.876
506.09	7.886
506.44	7.472
506.78	7.750
507.13	7.416
507.47	7.812
507.82	8.321
508.16	8.280
508.51	8.068
508.85	7.787
509.19	8.174
509.54	7.568
509.88	8.404
510.23	8.039
510.57	7.288
510.92	8.142
511.26	7.681
511.61	8.223
511.95	8.263
512.30	8.300
512.64	7.477
512.98	7.996
513.33	8.504
513.67	7.613
514.02	7.792
514.36	7.944
514.70	7.733
515.05	7.991
515.39	8.169
515.74	8.147
516.08	7.952
516.42	8.798
516.77	7.733
517.11	7.893
517.46	8.405
517.80	7.701
518.14	8.563
518.49	7.828
518.83	7.747
519.17	8.708
519.52	8.684
519.86	8.120
520.20	8.986
520.55	7.971
520.89	8.218
521.23	8.236
521.58	8.262
521.92	8.280
522.26	8.235
522.61	8.378
522.95	8.949
523.29	8.655
523.64	8.035
523.98	7.864
524.32	8.131
524.66	8.406
525.01	7.811
525.35	8.014
525.69	9.091
526.04	8.685
526.38	8.417
526.72	7.936
527.06	8.870
527.41	9.190
527.75	8.156
528.09	8.549
528.43	8.298
528.78	8.587
529.12	8.790
529.46	8.065
529.80	8.995
530.15	8.898
530.49	7.641
530.83	8.714
531.17	8.487
531.51	8.155
531.86	8.816
532.20	8.344
532.54	8.161
532.88	8.057
533.22	9.141
533.57	8.054
533.91	7.576
534.25	8.021
534.59	8.070
534.93	8.077
535.27	7.911
535.62	7.235
535.96	8.865
536.30	9.080
536.64	8.261
536.98	7.804
537.32	9.063
537.66	8.737
538.01	8.669
538.35	8.422
538.69	8.070
539.03	7.711
539.37	7.828
539.71	8.827
540.05	8.615
540.39	7.925
540.73	8.924
541.07	8.218
541.42	8.520
541.76	8.755
542.10	8.076
542.44	8.666
542.78	8.118
543.12	7.546
543.46	8.459
543.80	7.895
544.14	7.988
544.48	8.090
544.82	8.379
545.16	8.136
545.50	8.359
545.84	8.649
546.18	8.453
546.52	8.197
546.86	8.640
547.20	8.140
547.54	8.296
547.88	8.333
548.22	8.743
548.56	7.602
548.90	8.007
549.24	8.528
549.58	8.441
549.92	8.382
550.26	8.181
550.60	8.117
550.94	8.480
551.28	9.517
551.62	9.172
551.96	9.257
552.30	8.372
552.64	9.126
552.98	7.732
553.32	8.067
553.66	7.883
554.00	8.816
554.34	9.387
554.68	8.737
555.02	8.961
555.36	7.979
555.69	8.573
556.03	8.025
556.37	9.114
556.71	8.996
557.05	8.191
557.39	7.933
557.73	9.097
558.07	9.121
558.41	9.116
558.75	8.550
559.08	9.006
559.42	8.733
559.76	9.337
560.10	7.502
560.44	8.162
560.78	9.655
561.12	8.392
561.45	7.697
561.79	8.302
562.13	8.339
562.47	7.982
562.81	8.198
563.15	8.274
563.48	7.391
563.82	9.046
564.16	8.644
564.50	8.137
564.84	8.207
565.17	8.437
565.51	9.052
565.85	9.254
566.19	8.155
566.52	7.702
566.86	8.990
567.20	8.034
567.54	8.242
567.88	8.451
568.21	7.489
568.55	7.733
568.89	7.847
569.23	7.248
569.56	7.388
569.90	7.151
570.24	7.564
570.57	7.300
570.91	7.145
571.25	6.821
571.59	6.627
571.92	6.647
572.26	6.226
572.60	6.443
572.93	6.555
573.27	6.663
573.61	6.551
573.95	6.350
574.28	6.762
574.62	6.451
574.96	6.555
575.29	6.181
575.63	6.502
575.97	6.207
576.30	6.454
576.64	6.641
576.98	6.408
577.31	6.361
577.65	6.435
577.98	6.254
578.32	6.026
578.66	6.260
578.99	6.587
579.33	6.766
579.67	6.300
580.00	6.237
580.34	6.348
580.67	6.264
581.01	6.715
581.35	6.341
581.68	6.040
582.02	6.352
582.35	6.107
582.69	6.269
583.02	6.242
583.36	6.349
583.70	6.364
584.03	6.537
584.37	6.790
584.70	6.668
585.04	6.591
585.37	6.289
585.71	6.652
586.04	6.579
586.38	6.512
586.72	6.512
587.05	6.897
587.39	6.877
587.72	6.538
588.06	6.829
588.39	6.499
588.73	6.946
589.06	6.886
589.40	7.355
589.73	6.981
590.07	7.584
590.40	7.003
590.73	7.639
591.07	7.970
591.40	7.385
591.74	7.183
592.07	7.654
592.41	7.274
592.74	7.067
593.08	7.064
593.41	6.643
593.75	6.735
594.08	7.361
594.41	7.006
594.75	7.603
595.08	7.099
595.42	7.867
595.75	6.943
596.09	7.299
596.42	7.210
596.75	7.612
597.09	7.924
597.42	6.857
597.75	7.424
598.09	7.058
598.42	7.222
598.76	7.633
599.09	6.730
599.42	7.405
599.76	7.293
600.09	7.051
600.42	7.217
600.76	6.798
601.09	7.076
601.42	7.427
601.76	7.304
602.09	7.101
602.42	7.246
602.76	7.211
603.09	7.428
603.42	7.560
603.76	6.905
604.09	6.768
604.42	7.382
604.76	7.349
605.09	7.510
605.42	7.355
605.75	7.975
606.09	7.460
606.42	7.554
606.75	7.384
607.09	7.304
607.42	7.151
607.75	7.643
608.08	7.636
608.42	7.844
608.75	7.745
609.08	7.347
609.41	7.955
609.75	7.921
610.08	7.554
610.41	7.466
610.74	7.706
611.07	7.412
611.41	7.970
611.74	7.170
612.07	7.996
612.40	8.041
612.73	7.688
613.07	8.059
613.40	7.569
613.73	7.788
614.06	7.100
614.39	7.879
614.72	7.685
615.06	7.221
615.39	7.178
615.72	7.696
616.05	7.735
616.38	7.763
616.71	7.596
617.05	8.127
617.38	7.697
617.71	8.099
618.04	8.020
618.37	8.004
618.70	7.506
619.03	8.425
619.36	8.291
619.69	7.784
620.03	8.871
620.36	8.542
620.69	8.812
621.02	8.899
621.35	8.238
621.68	8.628
622.01	10.037
622.34	8.157
622.67	8.497
623.00	8.713
623.33	9.244
623.66	8.317
623.99	9.041
624.32	8.537
624.65	8.887
624.99	8.046
625.32	8.684
625.65	7.517
625.98	8.577
626.31	7.493
626.64	7.973
626.97	8.263
627.30	9.006
627.63	8.948
627.96	8.607
628.29	8.746
628.62	9.239
628.95	8.599
629.28	9.465
629.61	9.666
629.94	9.075
630.26	9.792
630.59	9.663
630.92	8.879
631.25	10.245
631.58	10.222
631.91	8.278
632.24	9.427
632.57	8.841
632.90	9.834
633.23	9.759
633.56	10.537
633.89	9.325
634.22	10.549
634.55	10.538
634.88	11.172
635.20	10.538
635.53	10.685
635.86	10.291
636.19	10.213
636.52	10.270
636.85	9.061
637.18	11.809
637.51	8.380
637.83	10.755
638.16	9.379
638.49	10.539
638.82	11.385
639.15	10.458
639.48	13.033
639.81	9.768
640.13	9.448
640.46	10.240
640.79	10.793
641.12	9.055
641.45	12.160
641.77	11.229
642.10	10.040
642.43	11.095
642.76	11.790
643.09	10.807
643.41	10.519
643.74	12.662
644.07	11.357
644.40	11.095
644.73	10.811
645.05	12.333
645.38	11.332
645.71	11.381
646.04	13.893
646.36	10.798
646.69	10.240
647.02	11.680
647.35	11.811
647.67	10.373
648.00	11.238
648.33	13.083
648.66	8.788
648.98	11.159
649.31	8.907
649.64	9.405
649.96	9.957
650.29	10.714
650.62	11.635
650.94	13.705
651.27	11.802
651.60	11.581
651.92	12.596
652.25	12.126
652.58	13.191
652.90	10.629
653.23	12.112
653.56	11.573
653.88	10.720
654.21	11.730
654.54	12.299
654.86	11.504
655.19	10.818
655.52	7.922
655.84	5.352
656.17	5.805
656.49	8.376
656.82	9.777
657.15	7.907
657.47	6.040
657.80	4.541
658.13	3.673
658.45	5.116
658.78	6.255
659.10	6.215
659.43	7.068
659.75	7.274
660.08	8.083
660.41	8.802
660.73	11.167
661.06	12.462
661.38	12.436
661.71	10.432
662.03	11.977
662.36	14.286
662.68	12.291
663.01	14.234
663.33	12.264
663.66	13.807
663.98	13.492
664.31	16.045
664.63	13.410
664.96	13.696
665.28	11.299
665.61	11.887
665.93	14.340
666.26	12.150
666.58	16.330
666.91	13.900
667.23	12.651
667.56	12.115
667.88	14.108
668.21	14.549
668.53	12.500
668.86	14.228
669.18	13.849
669.50	11.777
669.83	13.142
670.15	13.929
670.48	11.328
670.80	13.745
671.13	12.749
671.45	11.022
671.77	12.616
672.10	11.490
672.42	12.829
672.75	10.601
673.07	10.652
673.39	11.981
673.72	11.938
674.04	11.290
674.37	12.341
674.69	12.825
675.01	11.567
675.34	13.372
675.66	11.914
675.98	12.426
676.31	13.600
676.63	11.730
676.95	11.905
677.28	12.576
677.60	11.871
677.92	11.508
678.25	11.628
678.57	12.663
678.89	12.839
679.22	12.132
679.54	11.744
679.86	12.042
680.18	11.248
680.51	9.619
680.83	10.135
681.15	10.399
681.48	13.368
681.80	12.084
682.12	11.938
682.44	9.910
682.77	11.388
683.09	12.427
683.41	13.265
683.73	15.551
684.06	12.103
684.38	13.953
684.70	12.950
685.02	10.069
685.34	11.972
685.67	13.505
685.99	12.151
686.31	10.632
686.63	10.894
686.96	11.928
687.28	11.074
687.60	9.727
687.92	11.223
688.24	12.931
688.56	12.989
688.89	10.899
689.21	13.680
689.53	13.043
689.85	11.585
690.17	12.621
690.49	15.121
690.82	11.765
691.14	15.556
691.46	14.374
691.78	12.476
692.10	12.214
692.42	10.889
692.74	14.535
693.06	13.372
693.39	10.474
693.71	13.163
694.03	13.215
694.35	14.458
694.67	13.238
694.99	13.969
695.31	16.892
695.63	15.158
695.95	15.158
696.27	14.823
696.59	14.081
696.91	10.633
697.23	14.706
697.56	10.996
697.88	12.575
698.20	13.019
698.52	10.506
698.84	14.374
699.16	14.286
699.48	11.864
699.80	14.815
700.12	15.012
700.44	15.187
700.76	16.945
701.08	16.188
701.40	12.727
701.72	14.973
702.04	17.344
702.36	18.817
702.68	15.426
703.00	15.288
703.32	15.136
703.64	15.113
703.96	13.281
704.28	13.757
704.60	16.056
704.91	15.406
705.23	19.034
705.55	17.211
705.87	15.873
706.19	17.868
706.51	16.301
706.83	18.289
707.15	16.845
707.47	15.496
707.79	14.713
708.11	13.152
708.43	13.708
708.74	13.801
709.06	13.488
709.38	14.888
709.70	14.441
710.02	15.217
710.34	15.746
710.66	15.556
710.98	16.120
711.29	13.649
711.61	15.877
711.93	17.021
712.25	16.566
712.57	17.042
712.89	16.970
713.20	19.169
713.52	13.707
713.84	14.502
714.16	11.014
714.48	12.680
714.80	17.073
715.11	15.957
715.43	15.922
715.75	14.366
716.07	13.295
716.39	19.429
716.70	16.511
717.02	15.825
717.34	19.065
717.66	21.875
717.97	20.455
718.29	17.958
718.61	14.865
718.93	18.339
719.24	17.114
719.56	15.862
719.88	13.694
720.20	14.839
720.51	18.301
720.83	17.391
721.15	20.748
721.46	16.781
721.78	16.028
722.10	15.278
722.42	20.401
722.73	17.329
723.05	17.193
723.37	15.194
723.68	16.797
724.00	17.424
724.32	20.152
724.63	15.000
724.95	20.784
725.27	17.472
725.58	18.382
725.90	12.676
726.22	17.466
726.53	17.391
726.85	18.567
727.16	20.805
727.48	15.615
727.80	21.223
728.11	18.571
728.43	17.754
728.74	19.930
729.06	17.563
729.38	20.000
729.69	19.333
730.01	18.421
730.32	17.114
730.64	15.615
730.96	16.216
731.27	12.232
731.59	14.655
731.90	14.485
732.22	14.571
732.53	11.966
732.85	16.374
733.16	13.554
733.48	18.495
733.80	17.391
734.11	18.098
734.43	13.743
734.74	15.013
735.06	12.698
735.37	15.464
735.69	13.043
736.00	17.737
736.32	14.848
736.63	13.565
736.95	14.596
737.26	16.463
737.58	15.644
737.89	16.867
738.21	16.887
738.52	18.060
738.83	19.780
739.15	16.376
739.46	11.724
739.78	14.286
740.09	17.201
740.41	16.871
740.72	21.270
741.04	18.881
741.35	20.313
741.66	19.763
741.98	18.884
742.29	18.981
742.61	17.257
742.92	19.915
743.23	21.600
743.55	16.604
743.86	16.863
744.18	18.644
744.49	17.355
744.80	16.590
745.12	19.643
745.43	21.963
745.74	20.000
746.06	18.860
746.37	20.000
746.68	24.779
747.00	21.076
747.31	20.168
747.62	14.344
747.94	19.742
748.25	15.953
748.56	18.220
748.88	20.982
749.19	21.395
749.50	17.808
749.82	23.457
750.13	17.787
750.44	14.667
750.75	16.107
751.07	18.092
751.38	18.482
751.69	16.835
752.01	18.182
752.32	14.618
752.63	21.141
752.94	18.531
753.26	16.406
753.57	16.732
753.88	16.854
754.19	17.690
754.51	19.601
754.82	11.409
755.13	20.946
755.44	17.407
755.75	21.993
756.07	20.890
756.38	15.033
756.69	17.500
757.00	17.804
757.31	16.620
757.63	13.499
757.94	13.830
758.25	15.700
758.56	14.645
758.87	16.541
759.18	15.698
759.50	15.805
759.81	17.211
760.12	16.854
760.43	14.846
760.74	15.949
761.05	13.528
761.36	11.719
761.67	14.825
761.99	14.648
762.30	16.399
762.61	16.667
762.92	23.106
763.23	15.472
763.54	21.538
763.85	16.732
764.16	19.097
764.47	19.932
764.78	14.007
765.10	15.854
765.41	11.932
765.72	16.851
766.03	12.387
766.34	15.331
766.65	16.350
766.96	22.672
767.27	21.495
767.58	28.218
767.89	28.729
768.20	29.878
768.51	17.347
768.82	18.860
769.13	18.824
769.44	16.541
769.75	16.105
770.06	15.546
770.37	20.614
770.68	20.000
770.99	23.729
771.30	19.665
771.61	20.000
771.92	19.084
772.23	13.710
772.54	23.111
772.85	26.238
773.16	26.087
773.47	25.000
773.78	24.752
774.09	26.705
774.39	24.242
774.70	25.882
775.01	19.737
775.32	25.466
775.63	32.877
775.94	33.951
776.25	34.483
776.56	30.534
776.87	35.115
777.18	37.879
777.48	40.945
777.79	32.308
778.10	31.818
778.41	38.806
778.72	27.820
779.03	16.026
779.34	28.378
779.65	26.708
779.95	19.876
780.26	29.762
780.57	28.571
780.88	24.113
781.19	36.667
781.50	23.669
781.80	26.776
782.11	29.101
782.42	18.391
782.73	27.684
783.04	25.806
783.34	24.031
783.65	21.769
783.96	29.032
784.27	22.517
784.57	21.711
784.88	30.435
785.19	33.333
785.50	30.172
785.81	38.760
786.11	34.815
786.42	35.433
786.73	38.739
787.04	29.245
787.34	29.268
787.65	40.152
787.96	28.030
788.26	36.220
788.57	29.927
788.88	28.169
789.19	31.298
789.49	38.514
789.80	39.062
790.11	29.752
790.41	43.519
790.72	31.481
791.03	43.269
791.33	38.384
791.64	43.158
791.95	44.211
792.25	37.500
792.56	43.000
792.87	37.805
793.17	34.091
793.48	38.824
793.79	37.931
794.09	45.455
794.40	38.793
794.70	29.365
795.01	33.077
795.32	29.771
795.62	31.624
795.93	37.815
796.23	31.707
796.54	39.796
796.85	44.318
797.15	50.649
797.46	52.439
797.76	36.250
798.07	49.333
798.37	46.250
798.68	50.000
798.99	63.415
799.29	52.000
799.60	41.860
799.90	39.474
800.21	59.091
800.51	52.113
800.82	41.379
801.12	61.538
801.43	54.667
801.73	46.552
802.04	51.948
802.34	52.055
802.65	68.627
802.95	58.696
803.26	70.968
803.56	63.333
803.87	61.194
804.17	63.492
804.48	64.151
804.78	54.167
805.09	69.697
805.39	55.556
805.70	91.228
806.00	57.143
806.30	60.937
806.61	52.941
806.91	50.000
807.22	39.130
807.52	40.789
807.83	65.789
808.13	55.072
808.43	46.774
808.74	50.685
809.04	48.214
809.35	73.529
809.65	54.545
809.95	66.667
810.26	87.037
810.56	79.688
810.86	73.469
811.17	80.702
811.47	76.087
811.77	68.966
812.08	43.103
812.38	69.048
812.69	78.571
812.99	71.111
813.29	88.571
813.59	112.903
813.90	68.966
814.20	70.492
814.50	76.000
814.81	68.421
815.11	70.370
815.41	78.571
815.72	78.571
816.02	74.000
816.32	85.366
816.62	86.207
816.93	69.697
817.23	102.439
817.53	80.357
817.84	86.667
818.14	92.857
818.44	95.833
818.74	71.698
819.04	48.718
819.35	81.818
819.65	92.308
819.95	85.185
820.25	95.745
820.56	91.892
820.86	94.737
821.16	65.957
821.46	86.842
821.76	80.000
822.07	54.762
822.37	86.842
822.67	113.953
822.97	92.105
823.27	95.652
823.57	93.750
823.88	97.436
824.18	112.121
824.48	152.174
824.78	108.333
825.08	139.130
825.38	117.241
825.69	108.824
825.99	85.106
826.29	75.000
826.59	102.857
826.89	126.667
827.19	62.857
827.49	112.903
827.79	107.692
828.09	78.571
828.39	105.556
828.70	67.568
829.00	121.429
829.30	200.000
829.60	105.556
829.90	96.774
830.20	81.818
830.50	140.541
830.80	158.333
831.10	142.308
831.40	119.048
831.70	125.000
832.00	130.000
832.30	143.478
832.60	150.000
832.90	139.394
833.20	190.000
833.50	110.526
833.80	88.235
834.10	78.947
834.40	68.421
834.70	106.667
835.00	136.000
835.30	94.595
835.60	118.750
835.90	129.730
836.20	123.077
836.50	127.273
836.80	95.122
837.10	173.913
837.40	284.615
837.70	136.842
838.00	93.333
838.30	133.333
838.60	148.000
838.90	290.000
839.19	181.250
839.49	126.667
839.79	124.138
840.09	165.385
840.39	186.667
840.69	152.632
840.99	109.524
841.29	108.696
841.59	190.000
841.88	188.000
842.18	200.000
842.48	171.429
842.78	144.444
843.08	161.538
843.38	177.273
843.68	235.714
843.97	428.571
844.27	160.870
844.57	1250.000
844.87	221.429
845.17	216.667
845.47	95.238
845.76	158.333
846.06	442.857
846.36	141.176
846.66	269.231
846.96	206.250
847.25	253.846
847.55	152.632
847.85	188.889
848.15	540.000
848.44	254.545
848.74	200.000
849.04	150.000
849.34	129.412
849.63	243.750
849.93	262.500
850.23	1100.000
850.53	275.000
850.82	290.909
851.12	252.941
851.42	200.000
851.71	237.500
852.01	0.000
852.31	182.353
852.61	320.000
852.90	154.167
853.20	355.556
853.50	-900.000
853.79	124.000
854.09	121.875
854.39	137.931
854.68	127.586
854.98	185.714
855.28	141.935
855.57	142.857
855.87	233.333
856.17	148.148
856.46	168.421
856.76	96.774
857.05	217.647
857.35	254.545
857.65	253.846
857.94	195.000
858.24	388.889
858.53	285.714
858.83	471.429
859.13	165.217
859.42	188.889
859.72	437.500
860.01	258.333
860.31	875.000
860.60	400.000
860.90	387.500
861.20	300.000
861.49	342.857
861.79	-2900.000
862.08	500.000
862.38	255.556
862.67	228.571
862.97	380.000
863.26	153.333
863.56	750.000
863.85	338.462
864.15	264.706
864.44	227.778
864.74	308.333
865.03	363.636
865.33	287.500
865.62	246.667
865.92	500.000
866.21	650.000
866.51	620.000
866.80	200.000
867.10	1200.000
867.39	3900.000
867.69	600.000
867.98	775.000
868.27	171.429
868.57	320.000
868.86	675.000
869.16	180.952
869.45	3000.000
869.75	-383.333
870.04	825.000
870.33	720.000
870.63	312.500
870.92	182.353
871.22	650.000
871.51	371.429
871.80	283.333
872.10	269.231
>>>>>End Processed Spectral Data<<<<<
