SpectraSuite Data File
++++++++++++++++++++++++++++++++++++
Date: Tue May 12 17:13:11 PDT 2015
User: schluterlab
Dark Spectrum Present: Yes
Reference Spectrum Present: Yes
Number of Sampled Component Spectra: 1
Spectrometers: USB2E3373
Integration Time (usec): 3000 (USB2E3373)
Spectra Averaged: 3 (USB2E3373)
Boxcar Smoothing: 0 (USB2E3373)
Correct for Electrical Dark: No (USB2E3373)
Strobe/Lamp Enabled: No (USB2E3373)
Correct for Detector Non-linearity: No (USB2E3373)
Correct for Stray Light: No (USB2E3373)
Number of Pixels in Processed Spectrum: 2048
>>>>>Begin Processed Spectral Data<<<<<
178.53	0.000
178.91	-216.667
179.29	-500.000
179.67	-3600.000
180.04	-53.333
180.42	800.000
180.80	1700.000
181.18	0.000
181.56	-275.000
181.94	0.000
182.31	933.333
182.69	-3200.000
183.07	642.857
183.45	-3100.000
183.83	-1650.000
184.20	310.000
184.58	571.429
184.96	-230.769
185.34	-291.667
185.72	1800.000
186.09	-775.000
186.47	-4200.000
186.85	966.667
187.23	560.000
187.61	1600.000
187.98	525.000
188.36	185.714
188.74	375.000
189.12	266.667
189.49	950.000
189.87	0.000
190.25	537.500
190.63	3400.000
191.00	-225.000
191.38	-3900.000
191.76	-625.000
192.14	525.000
192.51	-3000.000
192.89	1450.000
193.27	900.000
193.65	-933.333
194.02	-660.000
194.40	471.429
194.78	-235.714
195.15	293.333
195.53	-3200.000
195.91	-460.000
196.29	3800.000
196.66	250.000
197.04	475.000
197.42	-1050.000
197.79	625.000
198.17	308.333
198.55	0.000
198.92	471.429
199.30	1133.333
199.68	1950.000
200.05	633.333
200.43	-450.000
200.81	227.778
201.18	2800.000
201.56	266.667
201.94	-800.000
202.31	-287.500
202.69	-520.000
203.07	3300.000
203.44	-316.667
203.82	275.000
204.19	680.000
204.57	-1150.000
204.95	-800.000
205.32	-580.000
205.70	533.333
206.08	825.000
206.45	-700.000
206.83	288.889
207.20	178.947
207.58	233.333
207.96	680.000
208.33	0.000
208.71	514.286
209.08	740.000
209.46	-2600.000
209.84	-675.000
210.21	720.000
210.59	-520.000
210.96	341.667
211.34	-700.000
211.71	381.818
212.09	875.000
212.46	1850.000
212.84	-416.667
213.22	422.222
213.59	-2800.000
213.97	280.000
214.34	875.000
214.72	1133.333
215.09	933.333
215.47	-2800.000
215.84	-260.000
216.22	-412.500
216.59	0.000
216.97	0.000
217.34	1400.000
217.72	-1250.000
218.09	1233.333
218.47	312.500
218.84	725.000
219.22	1200.000
219.59	933.333
219.97	442.857
220.34	355.556
220.72	1450.000
221.09	3500.000
221.47	225.000
221.84	800.000
222.22	340.000
222.59	227.778
222.97	221.429
223.34	200.000
223.72	-1150.000
224.09	1233.333
224.46	238.462
224.84	-800.000
225.21	344.444
225.59	226.667
225.96	1200.000
226.34	-560.000
226.71	-625.000
227.08	-660.000
227.46	0.000
227.83	-416.667
228.21	-1050.000
228.58	325.000
228.95	925.000
229.33	411.111
229.70	1050.000
230.08	361.538
230.45	2800.000
230.82	-950.000
231.20	-1133.333
231.57	-966.667
231.95	440.000
232.32	300.000
232.69	500.000
233.07	275.000
233.44	-1400.000
233.81	226.667
234.19	177.778
234.56	175.000
234.93	123.529
235.31	200.000
235.68	225.000
236.05	117.857
236.43	148.148
236.80	164.286
237.17	110.345
237.55	78.125
237.92	100.000
238.29	103.030
238.67	134.375
239.04	85.366
239.41	72.917
239.79	87.500
240.16	66.667
240.53	62.295
240.91	66.667
241.28	71.186
241.65	54.545
242.02	70.423
242.40	60.000
242.77	49.451
243.14	45.570
243.51	52.525
243.89	43.925
244.26	23.364
244.63	37.624
245.00	28.440
245.38	23.729
245.75	30.303
246.12	35.556
246.49	28.369
246.87	26.230
247.24	30.000
247.61	31.250
247.98	27.211
248.36	24.242
248.73	29.082
249.10	19.643
249.47	20.000
249.84	20.398
250.22	20.541
250.59	21.000
250.96	21.941
251.33	21.395
251.70	20.982
252.08	26.050
252.45	21.116
252.82	15.970
253.19	16.996
253.56	17.692
253.94	15.217
254.31	16.667
254.68	17.422
255.05	15.517
255.42	17.883
255.79	20.521
256.16	14.237
256.54	19.156
256.91	15.686
257.28	15.719
257.65	13.166
258.02	13.274
258.39	17.479
258.76	15.362
259.14	11.714
259.51	17.493
259.88	14.590
260.25	12.088
260.62	16.986
260.99	10.193
261.36	15.599
261.73	11.968
262.10	16.230
262.47	16.250
262.85	12.267
263.22	11.825
263.59	12.020
263.96	15.539
264.33	10.370
264.70	13.268
265.07	12.683
265.44	14.908
265.81	12.264
266.18	12.128
266.55	11.348
266.92	12.528
267.29	12.061
267.66	9.865
268.03	9.417
268.40	12.685
268.77	12.775
269.14	11.497
269.51	12.027
269.88	13.265
270.25	10.151
270.62	11.588
270.99	11.765
271.36	13.415
271.73	9.644
272.10	10.101
272.47	9.524
272.84	12.974
273.21	10.950
273.58	11.741
273.95	9.035
274.32	13.813
274.69	13.386
275.06	11.840
275.43	11.111
275.80	10.755
276.17	12.500
276.54	11.963
276.91	12.127
277.28	10.766
277.65	12.731
278.02	11.213
278.39	9.173
278.76	11.724
279.13	11.388
279.50	9.091
279.87	8.566
280.23	9.024
280.60	10.584
280.97	10.690
281.34	10.561
281.71	10.435
282.08	12.308
282.45	9.459
282.82	10.870
283.19	11.765
283.56	8.430
283.92	9.935
284.29	10.815
284.66	9.244
285.03	11.443
285.40	9.421
285.77	9.568
286.14	12.229
286.51	11.963
286.87	7.120
287.24	9.159
287.61	8.359
287.98	10.597
288.35	10.074
288.72	9.712
289.08	10.060
289.45	10.671
289.82	9.844
290.19	11.274
290.56	12.664
290.93	9.784
291.29	11.050
291.66	10.311
292.03	9.677
292.40	10.163
292.77	8.357
293.13	11.270
293.50	9.042
293.87	9.756
294.24	13.007
294.60	12.248
294.97	11.189
295.34	11.819
295.71	9.987
296.08	12.000
296.44	12.071
296.81	10.050
297.18	10.013
297.55	12.069
297.91	10.099
298.28	10.749
298.65	11.411
299.02	11.821
299.38	10.671
299.75	10.610
300.12	13.417
300.48	12.178
300.85	12.157
301.22	11.512
301.59	11.203
301.95	12.019
302.32	12.107
302.69	12.783
303.05	13.019
303.42	11.996
303.79	11.809
304.15	11.441
304.52	13.108
304.89	12.900
305.25	12.903
305.62	13.753
305.99	12.283
306.35	12.737
306.72	13.840
307.09	12.526
307.45	11.721
307.82	13.272
308.19	12.474
308.55	12.700
308.92	13.248
309.29	14.497
309.65	14.371
310.02	14.604
310.38	13.659
310.75	13.308
311.12	14.847
311.48	15.444
311.85	15.744
312.22	16.523
312.58	15.646
312.95	14.951
313.31	16.199
313.68	15.197
314.05	17.674
314.41	17.318
314.78	16.288
315.14	17.820
315.51	17.786
315.87	17.245
316.24	17.274
316.61	16.473
316.97	18.165
317.34	18.419
317.70	18.437
318.07	19.217
318.43	17.926
318.80	19.615
319.16	19.580
319.53	19.558
319.89	19.265
320.26	20.577
320.62	20.788
320.99	20.496
321.35	20.779
321.72	21.157
322.08	21.699
322.45	21.072
322.81	22.049
323.18	23.712
323.54	23.955
323.91	23.753
324.27	22.458
324.64	24.048
325.00	24.483
325.37	24.621
325.73	24.789
326.10	26.512
326.46	25.764
326.83	26.000
327.19	26.586
327.56	26.358
327.92	27.951
328.29	28.151
328.65	28.938
329.01	28.999
329.38	28.003
329.74	28.266
330.11	28.584
330.47	29.241
330.84	27.869
331.20	29.272
331.56	29.275
331.93	29.512
332.29	27.041
332.66	29.422
333.02	28.007
333.38	28.098
333.75	30.025
334.11	29.111
334.48	29.316
334.84	29.307
335.20	30.796
335.57	28.128
335.93	29.521
336.29	29.353
336.66	30.274
337.02	29.085
337.38	28.719
337.75	29.054
338.11	29.536
338.47	29.128
338.84	27.180
339.20	29.177
339.56	29.773
339.93	28.930
340.29	27.647
340.65	29.086
341.02	28.721
341.38	28.654
341.74	28.156
342.11	27.546
342.47	26.169
342.83	29.040
343.20	29.103
343.56	28.197
343.92	28.076
344.28	29.346
344.65	29.258
345.01	27.698
345.37	26.923
345.73	28.333
346.10	27.888
346.46	29.346
346.82	27.160
347.19	28.284
347.55	27.479
347.91	26.813
348.27	27.111
348.63	28.006
349.00	27.494
349.36	27.315
349.72	27.905
350.08	28.804
350.45	27.342
350.81	28.746
351.17	28.428
351.53	27.483
351.89	26.573
352.26	27.967
352.62	27.903
352.98	28.067
353.34	27.427
353.70	26.911
354.07	27.615
354.43	27.343
354.79	27.259
355.15	28.254
355.51	26.208
355.87	28.087
356.24	27.021
356.60	27.473
356.96	25.853
357.32	26.903
357.68	26.285
358.04	27.812
358.40	27.211
358.77	27.874
359.13	27.553
359.49	27.131
359.85	26.955
360.21	27.043
360.57	27.007
360.93	26.840
361.29	27.633
361.66	28.412
362.02	26.349
362.38	26.335
362.74	25.973
363.10	27.560
363.46	25.829
363.82	26.718
364.18	26.316
364.54	26.967
364.90	26.573
365.26	27.342
365.62	26.519
365.98	25.946
366.35	24.897
366.71	26.440
367.07	27.031
367.43	26.259
367.79	26.795
368.15	25.373
368.51	27.429
368.87	26.155
369.23	25.572
369.59	26.500
369.95	26.224
370.31	25.530
370.67	25.815
371.03	26.541
371.39	26.731
371.75	25.960
372.11	26.377
372.47	26.027
372.83	26.173
373.19	26.182
373.55	26.460
373.91	24.033
374.27	25.595
374.63	26.169
374.99	26.213
375.35	26.210
375.71	26.451
376.07	25.464
376.42	25.192
376.78	25.626
377.14	25.033
377.50	25.343
377.86	25.817
378.22	26.264
378.58	26.695
378.94	25.528
379.30	25.106
379.66	26.129
380.02	25.279
380.38	24.415
380.74	26.182
381.09	24.708
381.45	25.434
381.81	23.877
382.17	25.214
382.53	24.895
382.89	24.956
383.25	24.748
383.61	24.899
383.97	25.855
384.32	25.497
384.68	25.490
385.04	25.381
385.40	25.860
385.76	24.927
386.12	25.541
386.48	25.532
386.83	25.122
387.19	25.088
387.55	24.971
387.91	24.827
388.27	25.223
388.62	25.000
388.98	24.956
389.34	24.390
389.70	23.939
390.06	24.573
390.42	24.923
390.77	24.754
391.13	25.166
391.49	24.259
391.85	25.477
392.20	24.195
392.56	25.269
392.92	23.695
393.28	23.767
393.64	23.337
393.99	24.718
394.35	23.779
394.71	23.884
395.07	23.662
395.42	24.649
395.78	24.306
396.14	24.578
396.50	24.669
396.85	24.756
397.21	24.729
397.57	23.790
397.92	23.166
398.28	23.331
398.64	24.258
399.00	23.303
399.35	23.188
399.71	23.068
400.07	23.630
400.42	23.224
400.78	24.340
401.14	23.312
401.49	23.906
401.85	23.986
402.21	24.077
402.57	23.639
402.92	23.212
403.28	22.912
403.63	23.838
403.99	23.583
404.35	22.919
404.70	23.331
405.06	23.077
405.42	23.639
405.77	22.767
406.13	22.668
406.49	21.774
406.84	23.068
407.20	23.231
407.55	22.708
407.91	23.740
408.27	23.590
408.62	22.649
408.98	23.182
409.34	21.625
409.69	22.153
410.05	22.779
410.40	22.497
410.76	21.122
411.11	22.986
411.47	22.222
411.83	21.910
412.18	21.920
412.54	22.282
412.89	21.652
413.25	22.178
413.60	22.780
413.96	22.202
414.31	22.491
414.67	22.843
415.03	22.925
415.38	22.713
415.74	22.489
416.09	22.299
416.45	23.012
416.80	22.963
417.16	21.897
417.51	22.611
417.87	21.339
418.22	22.722
418.58	23.439
418.93	22.606
419.29	21.565
419.64	23.380
420.00	22.912
420.35	21.951
420.71	21.995
421.06	22.425
421.42	22.510
421.77	21.544
422.12	23.043
422.48	22.548
422.83	22.768
423.19	21.922
423.54	22.545
423.90	22.650
424.25	21.959
424.61	23.215
424.96	21.965
425.31	22.441
425.67	22.054
426.02	22.210
426.38	21.879
426.73	21.747
427.09	22.657
427.44	21.328
427.79	21.841
428.15	23.041
428.50	22.686
428.85	22.986
429.21	22.150
429.56	22.682
429.92	22.029
430.27	21.432
430.62	21.341
430.98	21.756
431.33	21.371
431.68	21.235
432.04	21.417
432.39	21.899
432.74	23.068
433.10	22.370
433.45	22.860
433.80	23.276
434.16	22.176
434.51	22.033
434.86	22.646
435.22	22.258
435.57	23.059
435.92	22.197
436.28	22.581
436.63	21.880
436.98	23.198
437.34	23.059
437.69	21.725
438.04	22.742
438.39	22.534
438.75	22.327
439.10	22.504
439.45	22.951
439.81	22.383
440.16	22.675
440.51	21.622
440.86	22.507
441.22	21.645
441.57	22.467
441.92	22.606
442.27	21.289
442.63	21.799
442.98	22.737
443.33	22.282
443.68	23.038
444.03	22.149
444.39	21.516
444.74	22.153
445.09	21.906
445.44	21.998
445.79	21.735
446.15	22.053
446.50	22.099
446.85	21.265
447.20	21.692
447.55	21.316
447.91	22.749
448.26	21.778
448.61	22.554
448.96	22.331
449.31	22.222
449.66	22.370
450.02	21.340
450.37	22.543
450.72	21.873
451.07	22.513
451.42	23.118
451.77	22.566
452.12	21.611
452.47	22.600
452.83	22.366
453.18	22.102
453.53	22.913
453.88	22.286
454.23	22.429
454.58	22.203
454.93	21.950
455.28	22.215
455.63	22.104
455.98	22.448
456.34	22.857
456.69	22.561
457.04	21.062
457.39	21.771
457.74	22.297
458.09	21.392
458.44	22.070
458.79	22.599
459.14	21.768
459.49	22.310
459.84	21.630
460.19	21.864
460.54	21.652
460.89	21.855
461.24	22.337
461.59	21.825
461.94	21.868
462.29	22.426
462.64	22.299
462.99	21.881
463.34	22.618
463.69	22.081
464.04	21.762
464.39	21.236
464.74	20.809
465.09	21.300
465.44	21.273
465.79	20.904
466.14	21.198
466.49	20.619
466.84	21.628
467.19	22.144
467.54	21.622
467.89	22.359
468.24	21.135
468.59	21.845
468.94	20.833
469.29	21.197
469.64	21.865
469.99	21.722
470.34	21.442
470.68	21.655
471.03	21.948
471.38	22.185
471.73	21.424
472.08	22.309
472.43	20.670
472.78	21.639
473.13	21.089
473.48	21.027
473.83	21.319
474.17	21.824
474.52	21.031
474.87	20.352
475.22	21.302
475.57	20.986
475.92	20.542
476.27	19.913
476.61	20.858
476.96	20.794
477.31	21.028
477.66	21.095
478.01	20.835
478.36	21.679
478.70	20.149
479.05	19.822
479.40	20.685
479.75	20.457
480.10	20.958
480.45	19.981
480.79	20.138
481.14	19.971
481.49	19.716
481.84	20.053
482.19	19.956
482.53	19.982
482.88	20.116
483.23	20.027
483.58	20.826
483.92	20.978
484.27	19.521
484.62	20.543
484.97	19.673
485.31	18.696
485.66	18.556
486.01	18.211
486.36	17.928
486.70	17.935
487.05	18.294
487.40	18.210
487.75	19.061
488.09	18.636
488.44	18.834
488.79	19.403
489.13	19.560
489.48	19.736
489.83	19.600
490.17	19.653
490.52	19.767
490.87	19.828
491.22	19.991
491.56	20.158
491.91	19.848
492.26	20.045
492.60	20.091
492.95	19.710
493.30	19.381
493.64	19.362
493.99	19.275
494.34	19.901
494.68	19.256
495.03	19.847
495.37	19.586
495.72	19.907
496.07	19.901
496.41	18.897
496.76	19.291
497.11	19.623
497.45	19.553
497.80	19.416
498.14	19.233
498.49	19.406
498.84	19.720
499.18	18.830
499.53	19.247
499.87	19.137
500.22	19.116
500.56	19.313
500.91	20.223
501.26	19.706
501.60	19.035
501.95	19.176
502.29	19.067
502.64	18.703
502.98	18.808
503.33	18.619
503.67	18.985
504.02	18.406
504.36	18.643
504.71	19.347
505.06	18.395
505.40	18.952
505.75	18.148
506.09	19.272
506.44	19.032
506.78	18.951
507.13	18.856
507.47	18.680
507.82	19.513
508.16	19.451
508.51	18.599
508.85	19.088
509.19	19.236
509.54	18.115
509.88	19.294
510.23	18.480
510.57	18.340
510.92	18.981
511.26	18.675
511.61	18.267
511.95	18.815
512.30	19.000
512.64	18.795
512.98	19.682
513.33	19.057
513.67	19.213
514.02	18.857
514.36	18.432
514.70	18.827
515.05	18.327
515.39	19.518
515.74	19.027
516.08	19.281
516.42	19.617
516.77	18.507
517.11	18.827
517.46	19.181
517.80	18.296
518.14	19.155
518.49	18.523
518.83	18.352
519.17	19.190
519.52	18.951
519.86	18.474
520.20	18.466
520.55	18.711
520.89	19.483
521.23	19.626
521.58	18.015
521.92	18.717
522.26	19.076
522.61	18.122
522.95	18.799
523.29	18.772
523.64	18.150
523.98	18.603
524.32	17.993
524.66	18.841
525.01	18.402
525.35	18.444
525.69	18.904
526.04	18.501
526.38	19.188
526.72	18.138
527.06	17.918
527.41	19.105
527.75	18.990
528.09	18.603
528.43	18.365
528.78	18.843
529.12	19.085
529.46	18.177
529.80	18.575
530.15	19.151
530.49	17.930
530.83	17.307
531.17	18.204
531.51	18.455
531.86	19.746
532.20	17.738
532.54	18.267
532.88	18.551
533.22	18.221
533.57	18.548
533.91	18.065
534.25	18.407
534.59	17.778
534.93	17.747
535.27	16.847
535.62	17.620
535.96	17.612
536.30	18.099
536.64	17.205
536.98	17.873
537.32	18.062
537.66	16.837
538.01	17.709
538.35	18.091
538.69	17.536
539.03	17.475
539.37	16.808
539.71	16.975
540.05	16.923
540.39	17.925
540.73	17.532
541.07	17.127
541.42	17.351
541.76	17.448
542.10	18.681
542.44	17.955
542.78	17.244
543.12	17.791
543.46	17.043
543.80	17.857
544.14	18.204
544.48	17.032
544.82	17.615
545.16	17.183
545.50	17.763
545.84	17.551
546.18	18.140
546.52	19.082
546.86	17.666
547.20	17.313
547.54	16.846
547.88	17.032
548.22	16.879
548.56	16.264
548.90	17.023
549.24	17.435
549.58	16.624
549.92	16.699
550.26	18.120
550.60	17.365
550.94	17.232
551.28	17.448
551.62	18.000
551.96	17.568
552.30	16.678
552.64	17.735
552.98	16.817
553.32	16.389
553.66	17.459
554.00	16.731
554.34	18.043
554.68	16.868
555.02	17.923
555.36	16.356
555.69	17.147
556.03	16.433
556.37	16.444
556.71	17.471
557.05	16.383
557.39	16.933
557.73	17.588
558.07	17.103
558.41	15.559
558.75	17.579
559.08	17.941
559.42	17.538
559.76	17.177
560.10	16.930
560.44	16.058
560.78	17.136
561.12	16.084
561.45	16.208
561.79	16.417
562.13	15.477
562.47	16.288
562.81	17.046
563.15	16.807
563.48	16.398
563.82	16.407
564.16	16.978
564.50	17.058
564.84	15.502
565.17	16.578
565.51	16.687
565.85	16.471
566.19	16.548
566.52	16.185
566.86	16.871
567.20	16.124
567.54	15.884
567.88	15.597
568.21	14.678
568.55	15.613
568.89	15.328
569.23	14.884
569.56	14.696
569.90	14.912
570.24	14.651
570.57	14.244
570.91	13.978
571.25	14.413
571.59	14.072
571.92	14.155
572.26	13.235
572.60	13.829
572.93	14.376
573.27	14.015
573.61	13.725
573.95	14.143
574.28	14.009
574.62	13.577
574.96	13.382
575.29	13.380
575.63	13.145
575.97	13.364
576.30	13.288
576.64	13.403
576.98	13.304
577.31	13.707
577.65	13.578
577.98	13.258
578.32	12.878
578.66	13.355
578.99	13.447
579.33	13.442
579.67	13.363
580.00	12.704
580.34	13.165
580.67	13.177
581.01	13.232
581.35	13.437
581.68	12.893
582.02	13.021
582.35	13.083
582.69	12.885
583.02	13.209
583.36	12.888
583.70	13.442
584.03	13.572
584.37	13.503
584.70	13.038
585.04	12.800
585.37	13.007
585.71	13.079
586.04	13.045
586.38	13.096
586.72	13.539
587.05	13.304
587.39	13.224
587.72	13.101
588.06	13.236
588.39	13.767
588.73	13.402
589.06	13.569
589.40	13.302
589.73	13.537
590.07	13.590
590.40	14.007
590.73	14.690
591.07	14.421
591.40	13.932
591.74	13.961
592.07	13.727
592.41	14.149
592.74	13.658
593.08	13.216
593.41	13.016
593.75	13.031
594.08	13.797
594.41	13.750
594.75	13.836
595.08	13.306
595.42	13.562
595.75	14.018
596.09	13.208
596.42	13.948
596.75	14.223
597.09	14.280
597.42	13.796
597.75	13.063
598.09	13.459
598.42	13.668
598.76	13.261
599.09	13.792
599.42	12.803
599.76	13.026
600.09	12.949
600.42	13.536
600.76	13.460
601.09	13.773
601.42	13.692
601.76	13.319
602.09	13.355
602.42	13.161
602.76	13.548
603.09	13.839
603.42	13.835
603.76	12.798
604.09	13.029
604.42	13.107
604.76	14.105
605.09	13.551
605.42	13.694
605.75	13.620
606.09	13.389
606.42	13.717
606.75	13.875
607.09	13.541
607.42	13.299
607.75	13.654
608.08	12.754
608.42	13.716
608.75	13.179
609.08	13.374
609.41	13.455
609.75	14.057
610.08	13.129
610.41	13.614
610.74	13.853
611.07	13.779
611.41	13.994
611.74	13.767
612.07	14.306
612.40	14.133
612.73	13.580
613.07	13.685
613.40	13.634
613.73	14.578
614.06	13.200
614.39	14.141
614.72	14.214
615.06	13.304
615.39	13.564
615.72	13.746
616.05	13.461
616.38	13.546
616.71	12.859
617.05	13.454
617.38	14.157
617.71	15.073
618.04	13.517
618.37	13.674
618.70	14.203
619.03	14.530
619.36	14.761
619.69	13.786
620.03	15.003
620.36	14.515
620.69	14.240
621.02	15.489
621.35	14.470
621.68	13.717
622.01	15.424
622.34	13.911
622.67	15.590
623.00	14.908
623.33	14.035
623.66	15.436
623.99	14.521
624.32	14.024
624.65	14.088
624.99	14.199
625.32	15.030
625.65	14.138
625.98	13.877
626.31	14.095
626.64	14.655
626.97	14.231
627.30	14.674
627.63	14.364
627.96	13.380
628.29	15.842
628.62	14.457
628.95	15.603
629.28	15.513
629.61	15.993
629.94	14.175
630.26	15.251
630.59	16.135
630.92	14.888
631.25	16.228
631.58	16.104
631.91	15.414
632.24	15.646
632.57	15.128
632.90	15.942
633.23	17.104
633.56	15.595
633.89	16.292
634.22	16.254
634.55	16.882
634.88	16.867
635.20	15.919
635.53	16.492
635.86	17.562
636.19	16.274
636.52	16.649
636.85	14.563
637.18	17.226
637.51	14.972
637.83	15.675
638.16	16.764
638.49	16.168
638.82	16.784
639.15	14.571
639.48	18.365
639.81	15.751
640.13	17.546
640.46	17.446
640.79	16.255
641.12	14.961
641.45	17.982
641.77	16.513
642.10	16.867
642.43	16.358
642.76	16.761
643.09	17.723
643.41	16.269
643.74	19.568
644.07	16.814
644.40	16.420
644.73	17.417
645.05	16.493
645.38	16.845
645.71	19.272
646.04	18.015
646.36	17.058
646.69	18.560
647.02	18.240
647.35	17.165
647.67	15.559
648.00	18.567
648.33	17.895
648.66	17.727
648.98	17.681
649.31	15.789
649.64	14.246
649.96	15.932
650.29	14.000
650.62	18.262
650.94	19.127
651.27	18.979
651.60	17.997
651.92	16.743
652.25	17.008
652.58	16.028
652.90	17.216
653.23	16.839
653.56	15.727
653.88	15.712
654.21	16.862
654.54	15.959
654.86	15.487
655.19	17.018
655.52	13.203
655.84	9.896
656.17	11.279
656.49	16.234
656.82	18.849
657.15	15.347
657.47	11.698
657.80	8.564
658.13	6.778
658.45	8.792
658.78	10.966
659.10	10.741
659.43	11.328
659.75	12.708
660.08	13.471
660.41	13.612
660.73	17.691
661.06	15.165
661.38	19.932
661.71	17.086
662.03	18.631
662.36	18.095
662.68	18.063
663.01	18.378
663.33	19.811
663.66	18.343
663.98	16.865
664.31	19.776
664.63	18.391
664.96	20.826
665.28	16.384
665.61	17.925
665.93	17.925
666.26	18.879
666.58	20.183
666.91	17.954
667.23	18.675
667.56	20.123
667.88	20.539
668.21	19.057
668.53	19.355
668.86	20.441
669.18	20.978
669.50	17.562
669.83	19.507
670.15	17.256
670.48	15.820
670.80	21.514
671.13	19.124
671.45	19.639
671.77	21.521
672.10	19.210
672.42	15.954
672.75	16.297
673.07	19.078
673.39	17.412
673.72	17.647
674.04	17.384
674.37	17.967
674.69	17.100
675.01	13.246
675.34	17.054
675.66	17.188
675.98	19.329
676.31	19.200
676.63	16.103
676.95	18.056
677.28	17.444
677.60	18.310
677.92	15.675
678.25	19.186
678.57	18.436
678.89	20.072
679.22	17.096
679.54	15.658
679.86	16.405
680.18	16.696
680.51	15.423
680.83	15.541
681.15	16.638
681.48	19.097
681.80	17.863
682.12	18.858
682.44	15.676
682.77	18.861
683.09	19.612
683.41	18.367
683.73	19.685
684.06	14.881
684.38	17.248
684.70	16.727
685.02	15.104
685.34	17.077
685.67	17.042
685.99	16.913
686.31	16.641
686.63	14.309
686.96	17.320
687.28	16.946
687.60	16.553
687.92	17.420
688.24	17.069
688.56	17.438
688.89	15.296
689.21	15.992
689.53	20.553
689.85	14.634
690.17	16.893
690.49	19.556
690.82	17.017
691.14	18.586
691.46	18.480
691.78	17.934
692.10	15.649
692.42	16.334
692.74	18.023
693.06	15.891
693.39	17.787
693.71	17.485
694.03	22.091
694.35	18.876
694.67	17.719
694.99	21.064
695.31	19.820
695.63	18.778
695.95	17.873
696.27	23.230
696.59	19.093
696.91	19.494
697.23	21.719
697.56	18.672
697.88	16.567
698.20	16.415
698.52	15.175
698.84	17.659
699.16	18.977
699.48	19.703
699.80	19.390
700.12	23.557
700.44	18.458
700.76	20.525
701.08	22.454
701.40	18.961
701.72	21.658
702.04	21.680
702.36	21.774
702.68	18.883
703.00	15.789
703.32	20.099
703.64	20.907
703.96	21.615
704.28	21.164
704.60	19.155
704.91	20.728
705.23	20.455
705.55	22.552
705.87	19.048
706.19	22.884
706.51	22.884
706.83	18.879
707.15	19.786
707.47	20.581
707.79	20.460
708.11	19.274
708.43	17.079
708.74	16.063
709.06	19.535
709.38	22.333
709.70	17.984
710.02	19.293
710.34	18.232
710.66	21.111
710.98	19.672
711.29	21.170
711.61	23.398
711.93	23.100
712.25	21.687
712.57	20.579
712.89	22.121
713.20	19.808
713.52	20.249
713.84	19.335
714.16	21.159
714.48	16.427
714.80	20.054
715.11	19.681
715.43	20.391
715.75	17.465
716.07	20.520
716.39	21.429
716.70	17.134
717.02	21.549
717.34	21.942
717.66	24.653
717.97	26.515
718.29	22.887
718.61	20.608
718.93	23.183
719.24	22.483
719.56	21.379
719.88	18.790
720.20	20.645
720.51	17.320
720.83	22.742
721.15	21.769
721.46	21.918
721.78	22.300
722.10	22.222
722.42	26.087
722.73	21.300
723.05	22.456
723.37	23.322
723.68	23.437
724.00	23.864
724.32	20.532
724.63	23.462
724.95	21.569
725.27	22.677
725.58	20.956
725.90	21.831
726.22	19.521
726.53	21.070
726.85	21.173
727.16	23.490
727.48	19.269
727.80	27.338
728.11	22.500
728.43	18.478
728.74	21.329
729.06	17.204
729.38	26.316
729.69	22.000
730.01	22.039
730.32	21.812
730.64	20.930
730.96	19.820
731.27	15.596
731.59	20.115
731.90	18.942
732.22	19.429
732.53	19.943
732.85	20.760
733.16	21.084
733.48	21.003
733.80	21.739
734.11	23.006
734.43	17.251
734.74	17.158
735.06	18.783
735.37	18.814
735.69	19.420
736.00	19.572
736.32	15.758
736.63	14.511
736.95	19.255
737.26	20.732
737.58	21.166
737.89	20.482
738.21	16.887
738.52	20.067
738.83	24.176
739.15	20.557
739.46	18.276
739.78	20.408
740.09	19.534
740.41	21.166
740.72	20.635
741.04	24.825
741.35	21.094
741.66	24.506
741.98	27.897
742.29	25.926
742.61	22.124
742.92	20.763
743.23	22.000
743.55	21.509
743.86	21.569
744.18	23.305
744.49	27.686
744.80	23.502
745.12	24.107
745.43	24.299
745.74	25.778
746.06	21.053
746.37	20.465
746.68	30.088
747.00	24.215
747.31	23.529
747.62	23.770
747.94	25.322
748.25	24.125
748.56	23.729
748.88	26.786
749.19	23.721
749.50	23.744
749.82	21.811
750.13	23.320
750.44	18.000
750.75	21.141
751.07	21.711
751.38	21.782
751.69	20.875
752.01	17.483
752.32	21.927
752.63	20.470
752.94	22.727
753.26	26.172
753.57	21.401
753.88	19.850
754.19	25.271
754.51	20.930
754.82	19.463
755.13	19.257
755.44	20.741
755.75	23.711
756.07	18.836
756.38	18.954
756.69	17.812
757.00	18.101
757.31	19.155
757.63	18.182
757.94	14.362
758.25	17.150
758.56	16.476
758.87	17.043
759.18	16.570
759.50	20.061
759.81	20.178
760.12	17.135
760.43	16.527
760.74	18.481
761.05	16.976
761.36	15.625
761.67	20.485
761.99	20.563
762.30	17.685
762.61	15.972
762.92	24.242
763.23	21.509
763.54	22.308
763.85	19.455
764.16	20.833
764.47	23.311
764.78	16.612
765.10	18.902
765.41	16.761
765.72	16.575
766.03	17.221
766.34	17.770
766.65	19.392
766.96	21.053
767.27	23.364
767.58	26.733
767.89	29.282
768.20	29.268
768.51	23.469
768.82	27.632
769.13	22.353
769.44	25.188
769.75	19.850
770.06	20.168
770.37	17.544
770.68	22.667
770.99	24.153
771.30	19.665
771.61	25.000
771.92	15.267
772.23	22.581
772.54	24.889
772.85	29.703
773.16	22.826
773.47	22.778
773.78	25.743
774.09	33.523
774.39	26.061
774.70	27.059
775.01	26.316
775.32	27.329
775.63	34.247
775.94	35.802
776.25	33.793
776.56	37.405
776.87	35.115
777.18	31.061
777.48	39.370
777.79	30.769
778.10	35.606
778.41	39.552
778.72	31.579
779.03	33.333
779.34	26.351
779.65	29.814
779.95	29.193
780.26	26.786
780.57	36.735
780.88	32.624
781.19	25.833
781.50	30.769
781.80	30.055
782.11	29.101
782.42	27.011
782.73	27.119
783.04	26.452
783.34	24.031
783.65	31.973
783.96	30.323
784.27	25.166
784.57	25.000
784.88	31.159
785.19	34.167
785.50	39.655
785.81	39.535
786.11	23.704
786.42	31.496
786.73	31.532
787.04	33.019
787.34	34.146
787.65	39.394
787.96	34.091
788.26	38.583
788.57	36.496
788.88	33.803
789.19	32.824
789.49	36.486
789.80	36.719
790.11	34.711
790.41	41.667
790.72	42.593
791.03	33.654
791.33	44.444
791.64	34.737
791.95	45.263
792.25	29.167
792.56	38.000
792.87	35.366
793.17	36.364
793.48	38.824
793.79	41.379
794.09	39.773
794.40	38.793
794.70	32.540
795.01	27.692
795.32	36.641
795.62	29.060
795.93	42.017
796.23	30.894
796.54	47.959
796.85	48.864
797.15	57.143
797.46	58.537
797.76	40.000
798.07	53.333
798.37	60.000
798.68	42.500
798.99	57.317
799.29	56.000
799.60	33.721
799.90	40.789
800.21	48.485
800.51	64.789
800.82	58.621
801.12	63.077
801.43	50.667
801.73	55.172
802.04	50.649
802.34	36.986
802.65	70.588
802.95	52.174
803.26	69.355
803.56	55.000
803.87	67.164
804.17	57.143
804.48	69.811
804.78	54.167
805.09	65.152
805.39	66.667
805.70	61.404
806.00	44.286
806.30	56.250
806.61	51.765
806.91	56.667
807.22	42.391
807.52	50.000
807.83	55.263
808.13	52.174
808.43	58.065
808.74	63.014
809.04	51.786
809.35	47.059
809.65	57.576
809.95	64.706
810.26	74.074
810.56	70.313
810.86	77.551
811.17	66.667
811.47	76.087
811.77	55.172
812.08	55.172
812.38	92.857
812.69	109.524
812.99	66.667
813.29	105.714
813.59	103.226
813.90	50.000
814.20	75.410
814.50	46.000
814.81	80.702
815.11	96.296
815.41	85.714
815.72	82.143
816.02	78.000
816.32	107.317
816.62	82.759
816.93	115.152
817.23	60.976
817.53	66.071
817.84	82.222
818.14	61.905
818.44	83.333
818.74	83.019
819.04	76.923
819.35	96.970
819.65	98.077
819.95	87.037
820.25	76.596
820.56	121.622
820.86	71.053
821.16	70.213
821.46	94.737
821.76	100.000
822.07	64.286
822.37	92.105
822.67	102.326
822.97	65.789
823.27	86.957
823.57	84.375
823.88	92.308
824.18	87.879
824.48	143.478
824.78	108.333
825.08	134.783
825.38	93.103
825.69	105.882
825.99	72.340
826.29	69.444
826.59	80.000
826.89	113.333
827.19	108.571
827.49	103.226
827.79	130.769
828.09	95.238
828.39	75.000
828.70	105.405
829.00	175.000
829.30	131.250
829.60	108.333
829.90	106.452
830.20	90.909
830.50	118.919
830.80	137.500
831.10	130.769
831.40	142.857
831.70	137.500
832.00	100.000
832.30	156.522
832.60	166.667
832.90	142.424
833.20	155.000
833.50	118.421
833.80	85.294
834.10	92.105
834.40	126.316
834.70	113.333
835.00	164.000
835.30	94.595
835.60	125.000
835.90	83.784
836.20	126.923
836.50	118.182
836.80	100.000
837.10	104.348
837.40	207.692
837.70	100.000
838.00	146.667
838.30	141.667
838.60	136.000
838.90	340.000
839.19	225.000
839.49	123.333
839.79	120.690
840.09	142.308
840.39	166.667
840.69	189.474
840.99	180.952
841.29	165.217
841.59	155.000
841.88	164.000
842.18	311.111
842.48	135.714
842.78	151.852
843.08	192.308
843.38	177.273
843.68	278.571
843.97	371.429
844.27	113.043
844.57	1050.000
844.87	264.286
845.17	155.556
845.47	119.048
845.76	116.667
846.06	585.714
846.36	135.294
846.66	176.923
846.96	168.750
847.25	169.231
847.55	184.211
847.85	150.000
848.15	420.000
848.44	227.273
848.74	138.095
849.04	145.833
849.34	200.000
849.63	193.750
849.93	212.500
850.23	866.667
850.53	412.500
850.82	300.000
851.12	176.471
851.42	195.833
851.71	225.000
852.01	0.000
852.31	182.353
852.61	360.000
852.90	170.833
853.20	355.556
853.50	-2500.000
853.79	132.000
854.09	115.625
854.39	124.138
854.68	141.379
854.98	185.714
855.28	135.484
855.57	221.429
855.87	194.444
856.17	144.444
856.46	178.947
856.76	122.581
857.05	205.882
857.35	145.455
857.65	176.923
857.94	170.000
858.24	455.556
858.53	257.143
858.83	528.571
859.13	126.087
859.42	311.111
859.72	275.000
860.01	225.000
860.31	675.000
860.60	340.000
860.90	500.000
861.20	200.000
861.49	314.286
861.79	-2300.000
862.08	471.429
862.38	355.556
862.67	221.429
862.97	370.000
863.26	123.333
863.56	675.000
863.85	269.231
864.15	200.000
864.44	177.778
864.74	316.667
865.03	254.545
865.33	350.000
865.62	260.000
865.92	583.333
866.21	725.000
866.51	660.000
866.80	216.667
867.10	633.333
867.39	2000.000
867.69	520.000
867.98	775.000
868.27	152.381
868.57	253.333
868.86	675.000
869.16	157.143
869.45	3200.000
869.75	-450.000
870.04	525.000
870.33	720.000
870.63	350.000
870.92	194.118
871.22	975.000
871.51	528.571
871.80	216.667
872.10	253.846
>>>>>End Processed Spectral Data<<<<<
