SpectraSuite Data File
++++++++++++++++++++++++++++++++++++
Date: Tue May 12 17:22:33 PDT 2015
User: schluterlab
Dark Spectrum Present: Yes
Reference Spectrum Present: Yes
Number of Sampled Component Spectra: 1
Spectrometers: USB2E3373
Integration Time (usec): 3000 (USB2E3373)
Spectra Averaged: 3 (USB2E3373)
Boxcar Smoothing: 0 (USB2E3373)
Correct for Electrical Dark: No (USB2E3373)
Strobe/Lamp Enabled: No (USB2E3373)
Correct for Detector Non-linearity: No (USB2E3373)
Correct for Stray Light: No (USB2E3373)
Number of Pixels in Processed Spectrum: 2048
>>>>>Begin Processed Spectral Data<<<<<
178.53	0.000
178.91	-225.000
179.29	-625.000
179.67	-3700.000
180.04	-120.000
180.42	775.000
180.80	1450.000
181.18	0.000
181.56	-287.500
181.94	0.000
182.31	966.667
182.69	-4000.000
183.07	585.714
183.45	-3100.000
183.83	-1750.000
184.20	400.000
184.58	500.000
184.96	-169.231
185.34	-233.333
185.72	1450.000
186.09	-825.000
186.47	-3100.000
186.85	1133.333
187.23	560.000
187.61	1200.000
187.98	600.000
188.36	292.857
188.74	341.667
189.12	366.667
189.49	825.000
189.87	0.000
190.25	487.500
190.63	3300.000
191.00	-183.333
191.38	-3700.000
191.76	-800.000
192.14	562.500
192.51	-3300.000
192.89	1450.000
193.27	1033.333
193.65	-966.667
194.02	-820.000
194.40	571.429
194.78	-192.857
195.15	266.667
195.53	-2700.000
195.91	-480.000
196.29	3600.000
196.66	281.250
197.04	775.000
197.42	-1400.000
197.79	750.000
198.17	233.333
198.55	0.000
198.92	485.714
199.30	1166.667
199.68	1750.000
200.05	700.000
200.43	-633.333
200.81	272.222
201.18	4500.000
201.56	275.000
201.94	-675.000
202.31	-387.500
202.69	-500.000
203.07	3200.000
203.44	-550.000
203.82	383.333
204.19	820.000
204.57	-1550.000
204.95	-650.000
205.32	-740.000
205.70	516.667
206.08	600.000
206.45	-866.667
206.83	422.222
207.20	210.526
207.58	283.333
207.96	720.000
208.33	0.000
208.71	614.286
209.08	680.000
209.46	-3200.000
209.84	-575.000
210.21	720.000
210.59	-600.000
210.96	333.333
211.34	-800.000
211.71	427.273
212.09	1000.000
212.46	1850.000
212.84	-466.667
213.22	288.889
213.59	-2000.000
213.97	380.000
214.34	950.000
214.72	1033.333
215.09	1033.333
215.47	-2700.000
215.84	-310.000
216.22	-387.500
216.59	0.000
216.97	0.000
217.34	1150.000
217.72	-1500.000
218.09	1333.333
218.47	487.500
218.84	650.000
219.22	1066.667
219.59	1400.000
219.97	485.714
220.34	433.333
220.72	1500.000
221.09	2700.000
221.47	300.000
221.84	1100.000
222.22	270.000
222.59	288.889
222.97	185.714
223.34	237.500
223.72	-1800.000
224.09	1166.667
224.46	284.615
224.84	-575.000
225.21	377.778
225.59	313.333
225.96	1466.667
226.34	-620.000
226.71	-600.000
227.08	-560.000
227.46	0.000
227.83	-516.667
228.21	-1450.000
228.58	350.000
228.95	850.000
229.33	388.889
229.70	850.000
230.08	330.769
230.45	3900.000
230.82	-900.000
231.20	-600.000
231.57	-1000.000
231.95	460.000
232.32	291.667
232.69	600.000
233.07	258.333
233.44	-1550.000
233.81	320.000
234.19	200.000
234.56	262.500
234.93	211.765
235.31	190.000
235.68	268.750
236.05	157.143
236.43	159.259
236.80	271.429
237.17	162.069
237.55	96.875
237.92	130.000
238.29	163.636
238.67	162.500
239.04	134.146
239.41	110.417
239.79	105.000
240.16	137.500
240.53	83.607
240.91	85.507
241.28	93.220
241.65	92.424
242.02	102.817
242.40	105.714
242.77	83.516
243.14	77.215
243.51	85.859
243.89	76.636
244.26	68.224
244.63	70.297
245.00	77.064
245.38	61.017
245.75	68.182
246.12	68.148
246.49	61.702
246.87	57.377
247.24	74.000
247.61	62.500
247.98	57.823
248.36	60.606
248.73	58.163
249.10	57.738
249.47	62.500
249.84	52.239
250.22	55.676
250.59	54.000
250.96	54.008
251.33	48.372
251.70	56.696
252.08	52.101
252.45	53.386
252.82	47.148
253.19	55.336
253.56	50.769
253.94	53.261
254.31	52.326
254.68	52.265
255.05	54.138
255.42	52.555
255.79	53.746
256.16	53.898
256.54	53.571
256.91	49.346
257.28	49.498
257.65	44.828
258.02	48.673
258.39	49.284
258.76	49.565
259.14	45.429
259.51	51.312
259.88	55.319
260.25	46.154
260.62	48.493
260.99	49.036
261.36	46.240
261.73	48.404
262.10	47.906
262.47	45.000
262.85	46.133
263.22	49.357
263.59	47.826
263.96	46.867
264.33	43.704
264.70	46.929
265.07	49.268
265.44	47.248
265.81	44.575
266.18	47.597
266.55	46.572
266.92	46.532
267.29	46.930
267.66	45.067
268.03	43.498
268.40	45.877
268.77	46.916
269.14	46.855
269.51	46.102
269.88	45.918
270.25	44.708
270.62	44.850
270.99	45.436
271.36	45.325
271.73	45.702
272.10	45.253
272.47	45.238
272.84	42.914
273.21	46.074
273.58	44.737
273.95	45.996
274.32	44.747
274.69	46.457
275.06	43.898
275.43	43.103
275.80	44.340
276.17	42.463
276.54	44.112
276.91	44.030
277.28	43.248
277.65	46.863
278.02	44.669
278.39	43.705
278.76	43.103
279.13	41.459
279.50	44.364
279.87	42.086
280.23	43.278
280.60	42.153
280.97	43.621
281.34	41.584
281.71	40.174
282.08	43.419
282.45	41.047
282.82	42.308
283.19	42.766
283.56	40.992
283.92	41.694
284.29	40.100
284.66	40.336
285.03	42.952
285.40	40.992
285.77	38.889
286.14	39.938
286.51	40.951
286.87	37.975
287.24	36.336
287.61	40.426
287.98	39.552
288.35	38.370
288.72	38.998
289.08	41.291
289.45	38.262
289.82	39.062
290.19	39.971
290.56	36.827
290.93	39.424
291.29	37.707
291.66	37.994
292.03	38.289
292.40	35.772
292.77	36.212
293.13	37.803
293.50	36.572
293.87	34.146
294.24	36.224
294.60	37.147
294.97	35.804
295.34	36.388
295.71	36.268
296.08	36.667
296.44	33.164
296.81	34.615
297.18	34.474
297.55	35.837
297.91	33.128
298.28	34.058
298.65	32.761
299.02	33.534
299.38	34.053
299.75	33.537
300.12	34.977
300.48	34.895
300.85	34.327
301.22	33.488
301.59	33.726
301.95	33.139
302.32	32.945
302.69	33.032
303.05	35.241
303.42	31.839
303.79	34.020
304.15	32.563
304.52	31.501
304.89	34.542
305.25	34.705
305.62	32.516
305.99	33.152
306.35	33.053
306.72	34.651
307.09	33.644
307.45	34.952
307.82	33.230
308.19	35.464
308.55	34.100
308.92	34.642
309.29	35.996
309.65	36.373
310.02	36.511
310.38	35.494
310.75	34.619
311.12	36.590
311.48	38.031
311.85	37.118
312.22	39.637
312.58	38.678
312.95	38.738
313.31	37.828
313.68	38.837
314.05	40.751
314.41	40.410
314.78	42.140
315.14	43.318
315.51	44.087
315.87	42.336
316.24	43.884
316.61	45.121
316.97	44.404
317.34	46.721
317.70	46.795
318.07	49.644
318.43	49.649
318.80	50.613
319.16	51.311
319.53	51.416
319.89	52.419
320.26	55.587
320.62	54.396
320.99	56.149
321.35	56.494
321.72	57.970
322.08	57.710
322.45	59.128
322.81	61.391
323.18	63.499
323.54	64.111
323.91	67.180
324.27	66.755
324.64	67.388
325.00	72.586
325.37	73.524
325.73	72.091
326.10	76.636
326.46	77.704
326.83	76.480
327.19	77.992
327.56	79.712
327.92	82.377
328.29	83.633
328.65	84.161
329.01	84.859
329.38	85.279
329.74	85.141
330.11	88.705
330.47	89.173
330.84	87.921
331.20	89.171
331.56	91.623
331.93	93.071
332.29	92.092
332.66	93.282
333.02	92.784
333.38	95.375
333.75	93.995
334.11	94.463
334.48	97.009
334.84	94.003
335.20	96.322
335.57	95.550
335.93	96.047
336.29	95.439
336.66	100.686
337.02	98.204
337.38	98.710
337.75	99.493
338.11	99.747
338.47	100.423
338.84	97.714
339.20	102.684
339.56	100.421
339.93	98.579
340.29	98.824
340.65	100.671
341.02	100.885
341.38	101.970
341.74	102.907
342.11	102.922
342.47	102.215
342.83	103.527
343.20	100.970
343.56	100.635
343.92	103.799
344.28	102.153
344.65	105.216
345.01	101.984
345.37	103.686
345.73	103.889
346.10	102.948
346.46	105.183
346.82	103.009
347.19	103.555
347.55	105.543
347.91	102.946
348.27	103.718
348.63	105.934
349.00	105.255
349.36	104.436
349.72	106.193
350.08	104.270
350.45	104.570
350.81	105.887
351.17	105.162
351.53	105.543
351.89	104.507
352.26	104.762
352.62	105.354
352.98	106.518
353.34	105.547
353.70	106.193
354.07	106.538
354.43	106.682
354.79	103.797
355.15	107.044
355.51	108.308
355.87	104.593
356.24	107.467
356.60	106.012
356.96	109.174
357.32	105.350
357.68	106.094
358.04	108.359
358.40	105.997
358.77	106.612
359.13	107.808
359.49	105.856
359.85	108.637
360.21	107.207
360.57	108.321
360.93	108.225
361.29	108.658
361.66	109.396
362.02	105.824
362.38	108.658
362.74	108.280
363.10	106.381
363.46	106.423
363.82	104.909
364.18	107.966
364.54	108.369
364.90	107.296
365.26	109.715
365.62	107.804
365.98	108.121
366.35	108.966
366.71	107.842
367.07	108.123
367.43	106.783
367.79	107.580
368.15	107.802
368.51	108.270
368.87	107.745
369.23	109.078
369.59	107.013
369.95	111.119
370.31	108.556
370.67	108.050
371.03	108.193
371.39	108.587
371.75	109.281
372.11	107.342
372.47	107.808
372.83	109.517
373.19	108.362
373.55	108.522
373.91	107.666
374.27	108.598
374.63	108.814
374.99	109.569
375.35	109.879
375.71	108.509
376.07	108.024
376.42	106.969
376.78	110.597
377.14	110.813
377.50	108.489
377.86	110.570
378.22	109.445
378.58	109.383
378.94	108.811
379.30	110.249
379.66	109.151
380.02	110.029
380.38	108.372
380.74	109.112
381.09	108.002
381.45	107.977
381.81	109.220
382.17	109.463
382.53	108.818
382.89	107.983
383.25	109.118
383.61	108.818
383.97	109.178
384.32	110.488
384.68	110.220
385.04	109.672
385.40	108.956
385.76	108.367
386.12	109.771
386.48	110.578
386.83	108.924
387.19	108.775
387.55	107.833
387.91	108.949
388.27	110.054
388.62	107.101
388.98	106.997
389.34	107.436
389.70	107.783
390.06	110.000
390.42	109.068
390.77	106.695
391.13	108.208
391.49	107.320
391.85	108.431
392.20	106.496
392.56	106.392
392.92	105.559
393.28	106.726
393.64	105.103
393.99	105.276
394.35	105.886
394.71	105.127
395.07	106.813
395.42	105.562
395.78	107.465
396.14	106.627
396.50	106.258
396.85	104.634
397.21	106.739
397.57	105.260
397.92	104.159
398.28	104.633
398.64	105.585
399.00	102.672
399.35	103.811
399.71	102.539
400.07	104.224
400.42	104.657
400.78	103.988
401.14	103.758
401.49	103.399
401.85	103.187
402.21	104.101
402.57	104.788
402.92	103.758
403.28	101.432
403.63	101.471
403.99	101.206
404.35	102.638
404.70	104.548
405.06	102.246
405.42	102.334
405.77	100.717
406.13	99.892
406.49	101.251
406.84	98.421
407.20	102.340
407.55	101.108
407.91	101.213
408.27	100.849
408.62	99.882
408.98	99.645
409.34	97.662
409.69	98.942
410.05	98.271
410.40	97.939
410.76	97.481
411.11	98.874
411.47	97.593
411.83	94.669
412.18	98.128
412.54	97.838
412.89	95.811
413.25	96.693
413.60	97.839
413.96	96.828
414.31	97.166
414.67	98.572
415.03	97.701
415.38	97.287
415.74	98.358
416.09	97.689
416.45	95.798
416.80	98.204
417.16	94.398
417.51	95.796
417.87	95.432
418.22	94.168
418.58	96.433
418.93	95.360
419.29	93.777
419.64	92.974
420.00	95.107
420.35	95.470
420.71	94.457
421.06	93.114
421.42	94.819
421.77	93.726
422.12	94.928
422.48	94.093
422.83	93.248
423.19	93.413
423.54	92.320
423.90	93.431
424.25	93.506
424.61	93.442
424.96	93.506
425.31	91.571
425.67	95.174
426.02	91.980
426.38	91.015
426.73	93.117
427.09	94.009
427.44	92.065
427.79	92.967
428.15	93.223
428.50	92.457
428.85	91.299
429.21	91.356
429.56	89.731
429.92	91.696
430.27	88.873
430.62	89.232
430.98	89.521
431.33	90.272
431.68	88.543
432.04	88.826
432.39	90.011
432.74	89.461
433.10	89.812
433.45	90.121
433.80	89.630
434.16	88.702
434.51	88.029
434.86	88.296
435.22	89.843
435.57	89.330
435.92	88.446
436.28	90.092
436.63	88.277
436.98	89.640
437.34	87.272
437.69	87.682
438.04	87.796
438.39	87.741
438.75	86.915
439.10	87.426
439.45	85.642
439.81	86.582
440.16	87.232
440.51	85.248
440.86	85.869
441.22	84.686
441.57	85.617
441.92	84.946
442.27	86.134
442.63	85.925
442.98	84.429
443.33	85.431
443.68	85.412
444.03	84.072
444.39	84.557
444.74	84.834
445.09	85.466
445.44	83.316
445.79	83.674
446.15	84.211
446.50	83.333
446.85	83.914
447.20	82.736
447.55	84.611
447.91	83.431
448.26	83.014
448.61	84.135
448.96	83.170
449.31	82.673
449.66	83.555
450.02	81.361
450.37	83.009
450.72	84.573
451.07	81.268
451.42	80.854
451.77	82.932
452.12	82.133
452.47	81.349
452.83	81.127
453.18	81.802
453.53	81.350
453.88	80.914
454.23	80.883
454.58	79.487
454.93	79.522
455.28	79.253
455.63	80.674
455.98	77.214
456.34	79.818
456.69	80.671
457.04	79.893
457.39	79.200
457.74	78.547
458.09	78.944
458.44	76.889
458.79	77.454
459.14	78.996
459.49	78.199
459.84	78.641
460.19	77.119
460.54	78.575
460.89	78.092
461.24	76.002
461.59	79.422
461.94	76.655
462.29	75.915
462.64	77.952
462.99	76.775
463.34	76.021
463.69	75.983
464.04	76.914
464.39	75.272
464.74	75.850
465.09	75.334
465.44	75.027
465.79	74.197
466.14	73.450
466.49	75.583
466.84	74.805
467.19	73.638
467.54	73.814
467.89	73.768
468.24	74.638
468.59	75.179
468.94	74.034
469.29	74.465
469.64	72.990
469.99	73.265
470.34	74.383
470.68	74.138
471.03	73.716
471.38	73.179
471.73	72.828
472.08	73.712
472.43	73.619
472.78	72.919
473.13	71.527
473.48	72.127
473.83	72.144
474.17	73.131
474.52	70.912
474.87	71.234
475.22	70.017
475.57	69.675
475.92	70.056
476.27	69.151
476.61	69.705
476.96	69.645
477.31	70.746
477.66	70.853
478.01	69.985
478.36	69.464
478.70	68.635
479.05	69.456
479.40	69.444
479.75	70.060
480.10	70.039
480.45	68.347
480.79	67.742
481.14	69.377
481.49	67.521
481.84	67.238
482.19	67.729
482.53	66.842
482.88	68.056
483.23	68.020
483.58	68.582
483.92	68.510
484.27	67.252
484.62	67.997
484.97	65.407
485.31	65.504
485.66	65.129
486.01	64.453
486.36	63.787
486.70	64.409
487.05	64.528
487.40	65.670
487.75	65.742
488.09	64.858
488.44	64.946
488.79	65.116
489.13	65.136
489.48	64.922
489.83	64.887
490.17	64.533
490.52	65.676
490.87	64.483
491.22	64.583
491.56	63.768
491.91	64.606
492.26	64.588
492.60	63.690
492.95	64.884
493.30	62.830
493.64	64.690
493.99	63.238
494.34	63.066
494.68	63.878
495.03	63.853
495.37	62.990
495.72	64.476
496.07	63.342
496.41	61.903
496.76	62.727
497.11	62.511
497.45	62.341
497.80	62.512
498.14	61.720
498.49	61.653
498.84	63.598
499.18	61.152
499.53	61.828
499.87	62.264
500.22	61.723
500.56	61.699
500.91	62.662
501.26	62.058
501.60	63.069
501.95	61.559
502.29	61.644
502.64	60.785
502.98	59.715
503.33	61.247
503.67	60.177
504.02	60.502
504.36	60.860
504.71	61.495
505.06	59.878
505.40	60.459
505.75	60.711
506.09	59.776
506.44	59.727
506.78	59.924
507.13	61.076
507.47	59.631
507.82	60.438
508.16	59.824
508.51	60.628
508.85	59.259
509.19	60.597
509.54	58.838
509.88	59.075
510.23	58.725
510.57	56.853
510.92	59.890
511.26	59.187
511.61	57.016
511.95	58.686
512.30	58.050
512.64	58.775
512.98	58.380
513.33	58.709
513.67	57.639
514.02	58.545
514.36	58.307
514.70	58.347
515.05	58.178
515.39	59.430
515.74	59.486
516.08	58.279
516.42	60.437
516.77	57.280
517.11	56.960
517.46	57.651
517.80	56.909
518.14	59.268
518.49	56.836
518.83	55.989
519.17	56.961
519.52	57.564
519.86	57.875
520.20	57.534
520.55	55.229
520.89	56.552
521.23	58.119
521.58	56.397
521.92	57.085
522.26	57.938
522.61	57.279
522.95	58.318
523.29	57.485
523.64	55.491
523.98	56.925
524.32	55.594
524.66	58.203
525.01	56.036
525.35	56.394
525.69	57.014
526.04	56.930
526.38	55.562
526.72	56.623
527.06	56.416
527.41	57.074
527.75	56.239
528.09	54.907
528.43	55.705
528.78	56.351
529.12	56.833
529.46	54.939
529.80	55.374
530.15	55.922
530.49	55.295
530.83	55.576
531.17	55.720
531.51	55.917
531.86	54.106
532.20	54.821
532.54	55.179
532.88	55.528
533.22	54.174
533.57	55.400
533.91	53.555
534.25	53.491
534.59	55.848
534.93	52.901
535.27	53.386
535.62	53.384
535.96	53.132
536.30	55.149
536.64	54.658
536.98	53.304
537.32	53.250
537.66	54.974
538.01	54.551
538.35	53.774
538.69	52.427
539.03	53.234
539.37	51.578
539.71	53.210
540.05	52.677
540.39	53.019
540.73	54.051
541.07	51.882
541.42	52.425
541.76	52.528
542.10	52.466
542.44	52.431
542.78	53.241
543.12	51.534
543.46	52.068
543.80	52.256
544.14	52.693
544.48	50.791
544.82	53.823
545.16	50.516
545.50	52.182
545.84	53.093
546.18	53.381
546.52	51.869
546.86	52.160
547.20	52.261
547.54	50.602
547.88	50.243
548.22	51.973
548.56	51.208
548.90	50.119
549.24	51.421
549.58	51.482
549.92	52.456
550.26	51.589
550.60	51.830
550.94	51.221
551.28	51.517
551.62	51.103
551.96	52.095
552.30	49.110
552.64	52.168
552.98	50.966
553.32	50.128
553.66	50.293
554.00	49.614
554.34	51.065
554.68	51.075
555.02	51.392
555.36	50.000
555.69	48.887
556.03	49.554
556.37	50.351
556.71	50.391
557.05	48.755
557.39	49.600
557.73	49.191
558.07	49.497
558.41	50.788
558.75	50.821
559.08	50.322
559.42	49.893
559.76	51.033
560.10	49.897
560.44	49.900
560.78	49.105
561.12	50.922
561.45	50.438
561.79	49.251
562.13	49.463
562.47	48.799
562.81	49.317
563.15	49.321
563.48	48.137
563.82	50.405
564.16	49.316
564.50	48.222
564.84	49.544
565.17	47.772
565.51	49.631
565.85	49.476
566.19	48.690
566.52	48.616
566.86	49.095
567.20	48.652
567.54	48.472
567.88	48.513
568.21	47.678
568.55	48.200
568.89	48.084
569.23	47.541
569.56	48.283
569.90	46.389
570.24	47.768
570.57	47.826
570.91	45.647
571.25	46.323
571.59	45.770
571.92	45.963
572.26	45.957
572.60	45.487
572.93	46.377
573.27	47.272
573.61	45.181
573.95	46.290
574.28	46.413
574.62	46.507
574.96	45.208
575.29	45.483
575.63	45.253
575.97	44.742
576.30	45.103
576.64	45.244
576.98	45.438
577.31	45.398
577.65	45.252
577.98	45.180
578.32	45.147
578.66	45.140
578.99	44.955
579.33	45.286
579.67	45.350
580.00	44.967
580.34	44.636
580.67	44.743
581.01	44.788
581.35	44.921
581.68	44.575
582.02	44.181
582.35	44.337
582.69	44.959
583.02	45.810
583.36	45.729
583.70	45.239
584.03	45.911
584.37	45.230
584.70	44.762
585.04	45.230
585.37	44.229
585.71	45.303
586.04	44.314
586.38	45.344
586.72	44.865
587.05	44.931
587.39	45.133
587.72	44.767
588.06	44.301
588.39	44.831
588.73	44.021
589.06	44.704
589.40	44.726
589.73	44.969
590.07	45.607
590.40	45.714
590.73	45.575
591.07	45.199
591.40	44.750
591.74	45.252
592.07	43.844
592.41	44.245
592.74	44.196
593.08	44.076
593.41	44.524
593.75	43.777
594.08	43.579
594.41	43.500
594.75	44.075
595.08	44.547
595.42	44.075
595.75	43.797
596.09	44.734
596.42	44.064
596.75	44.431
597.09	44.119
597.42	44.204
597.75	43.327
598.09	43.783
598.42	43.125
598.76	43.485
599.09	43.509
599.42	43.010
599.76	42.944
600.09	42.576
600.42	43.025
600.76	43.100
601.09	43.079
601.42	43.224
601.76	43.681
602.09	43.304
602.42	43.290
602.76	43.150
603.09	43.929
603.42	42.936
603.76	42.733
604.09	42.237
604.42	42.750
604.76	43.461
605.09	42.653
605.42	43.113
605.75	43.229
606.09	42.999
606.42	42.653
606.75	43.568
607.09	42.321
607.42	43.270
607.75	42.914
608.08	43.379
608.42	42.743
608.75	42.704
609.08	42.631
609.41	43.091
609.75	43.269
610.08	43.525
610.41	42.776
610.74	43.074
611.07	42.929
611.41	42.308
611.74	42.925
612.07	42.534
612.40	42.057
612.73	42.986
613.07	43.082
613.40	42.757
613.73	42.836
614.06	42.300
614.39	43.384
614.72	42.541
615.06	41.494
615.39	42.772
615.72	42.014
616.05	42.943
616.38	42.872
616.71	42.051
617.05	42.175
617.38	41.685
617.71	42.688
618.04	42.681
618.37	42.690
618.70	41.744
619.03	41.697
619.36	42.714
619.69	41.755
620.03	44.031
620.36	42.839
620.69	42.976
621.02	44.090
621.35	42.192
621.68	43.289
622.01	43.911
622.34	43.627
622.67	42.697
623.00	42.342
623.33	42.443
623.66	43.846
623.99	41.781
624.32	42.818
624.65	42.989
624.99	43.543
625.32	42.218
625.65	41.724
625.98	41.213
626.31	42.953
626.64	41.989
626.97	41.699
627.30	42.857
627.63	43.093
627.96	42.175
628.29	42.079
628.62	42.515
628.95	43.351
629.28	43.208
629.61	42.794
629.94	44.080
630.26	42.201
630.59	42.819
630.92	41.525
631.25	42.248
631.58	43.298
631.91	42.055
632.24	42.371
632.57	42.141
632.90	44.617
633.23	44.071
633.56	41.728
633.89	43.408
634.22	42.196
634.55	41.828
634.88	43.264
635.20	42.937
635.53	43.438
635.86	42.953
636.19	41.863
636.52	40.324
636.85	41.532
637.18	42.145
637.51	42.570
637.83	42.792
638.16	42.087
638.49	41.317
638.82	42.840
639.15	42.656
639.48	42.654
639.81	41.758
640.13	41.595
640.46	43.236
640.79	41.873
641.12	41.732
641.45	42.820
641.77	42.933
642.10	42.570
642.43	44.097
642.76	41.619
643.09	43.084
643.41	42.076
643.74	44.029
644.07	44.100
644.40	42.012
644.73	42.643
645.05	43.239
645.38	45.176
645.71	44.461
646.04	42.443
646.36	43.975
646.69	40.640
647.02	42.560
647.35	41.417
647.67	42.626
648.00	43.648
648.33	42.406
648.66	43.182
648.98	42.029
649.31	41.026
649.64	41.909
649.96	42.674
650.29	40.143
650.62	42.268
650.94	42.771
651.27	42.903
651.60	43.975
651.92	44.240
652.25	44.252
652.58	40.567
652.90	41.467
653.23	42.541
653.56	40.208
653.88	41.850
654.21	41.496
654.54	40.556
654.86	42.330
655.19	41.029
655.52	38.842
655.84	36.059
656.17	42.459
656.49	60.115
656.82	67.835
657.15	53.729
657.47	40.940
657.80	30.750
658.13	24.430
658.45	32.737
658.78	39.133
659.10	38.635
659.43	38.940
659.75	39.176
660.08	38.910
660.41	40.653
660.73	40.652
661.06	40.991
661.38	41.738
661.71	39.748
662.03	42.586
662.36	41.333
662.68	40.223
663.01	43.063
663.33	40.000
663.66	41.026
663.98	42.857
664.31	44.030
664.63	44.444
664.96	44.278
665.28	42.185
665.61	42.453
665.93	42.075
666.26	42.991
666.58	42.936
666.91	39.961
667.23	42.570
667.56	43.121
667.88	43.361
668.21	42.418
668.53	44.960
668.86	42.685
669.18	46.232
669.50	41.529
669.83	43.737
670.15	42.620
670.48	39.453
670.80	43.625
671.13	42.032
671.45	42.886
671.77	44.156
672.10	42.549
672.42	41.776
672.75	40.348
673.07	40.064
673.39	39.936
673.72	40.830
674.04	41.577
674.37	41.198
674.69	40.706
675.01	38.993
675.34	39.729
675.66	42.383
675.98	41.815
676.31	45.000
676.63	40.557
676.95	42.857
677.28	41.582
677.60	40.443
677.92	40.873
678.25	41.860
678.57	42.086
678.89	44.846
679.22	41.912
679.54	41.637
679.86	42.234
680.18	42.355
680.51	40.464
680.83	41.047
681.15	39.341
681.48	39.410
681.80	39.755
682.12	42.907
682.44	39.640
682.77	42.527
683.09	40.388
683.41	40.816
683.73	40.748
684.06	40.873
684.38	40.891
684.70	38.849
685.02	40.104
685.34	40.669
685.67	42.283
685.99	42.036
686.31	40.370
686.63	40.000
686.96	40.196
687.28	40.604
687.60	41.638
687.92	38.693
688.24	40.345
688.56	40.391
688.89	37.476
689.21	39.499
689.53	40.119
689.85	39.228
690.17	39.417
690.49	41.532
690.82	40.756
691.14	41.212
691.46	42.300
691.78	41.910
692.10	39.122
692.42	38.475
692.74	42.054
693.06	41.279
693.39	39.921
693.71	41.257
694.03	42.406
694.35	40.562
694.67	39.715
694.99	41.242
695.31	42.793
695.63	42.308
695.95	42.308
696.27	44.027
696.59	41.050
696.91	43.544
697.23	39.593
697.56	37.759
697.88	39.122
698.20	40.189
698.52	37.938
698.84	40.657
699.16	43.284
699.48	39.407
699.80	40.523
700.12	42.956
700.44	42.991
700.76	40.811
701.08	41.775
701.40	43.636
701.72	47.326
702.04	44.444
702.36	46.774
702.68	42.819
703.00	42.857
703.32	38.462
703.64	41.814
703.96	40.104
704.28	40.476
704.60	42.254
704.91	42.577
705.23	43.466
705.55	41.543
705.87	40.000
706.19	43.887
706.51	47.022
706.83	45.428
707.15	42.513
707.47	42.615
707.79	41.839
708.11	39.683
708.43	39.101
708.74	42.081
709.06	41.395
709.38	41.687
709.70	41.962
710.02	38.587
710.34	43.370
710.66	44.167
710.98	43.716
711.29	39.833
711.61	42.340
711.93	40.426
712.25	43.072
712.57	41.801
712.89	47.576
713.20	45.367
713.52	45.171
713.84	44.411
714.16	42.609
714.48	37.464
714.80	41.192
715.11	43.085
715.43	41.061
715.75	42.535
716.07	42.486
716.39	40.286
716.70	40.810
717.02	42.761
717.34	48.201
717.66	43.056
717.97	45.455
718.29	46.127
718.61	40.878
718.93	46.367
719.24	46.644
719.56	42.414
719.88	42.675
720.20	42.258
720.51	42.157
720.83	41.806
721.15	47.619
721.46	45.548
721.78	44.251
722.10	46.181
722.42	45.819
722.73	42.599
723.05	42.456
723.37	46.290
723.68	46.484
724.00	47.348
724.32	46.388
724.63	43.462
724.95	43.137
725.27	43.123
725.58	44.853
725.90	45.423
726.22	43.836
726.53	43.144
726.85	44.951
727.16	45.302
727.48	42.525
727.80	43.885
728.11	42.857
728.43	42.029
728.74	45.455
729.06	43.728
729.38	42.105
729.69	45.333
730.01	48.355
730.32	45.638
730.64	46.844
730.96	39.640
731.27	38.532
731.59	39.368
731.90	38.719
732.22	42.857
732.53	37.892
732.85	44.152
733.16	43.675
733.48	38.871
733.80	40.580
734.11	42.638
734.43	42.690
734.74	39.946
735.06	40.212
735.37	39.433
735.69	41.449
736.00	40.673
736.32	41.212
736.63	36.278
736.95	41.615
737.26	41.159
737.58	42.025
737.89	40.361
738.21	42.715
738.52	42.809
738.83	46.154
739.15	44.948
739.46	40.345
739.78	40.136
740.09	44.898
740.41	44.479
740.72	42.857
741.04	48.951
741.35	44.922
741.66	37.549
741.98	48.927
742.29	50.463
742.61	43.363
742.92	47.034
743.23	41.600
743.55	41.509
743.86	43.922
744.18	42.373
744.49	48.347
744.80	43.779
745.12	45.982
745.43	49.533
745.74	46.667
746.06	46.491
746.37	46.047
746.68	47.788
747.00	47.534
747.31	40.756
747.62	43.443
747.94	47.210
748.25	42.412
748.56	44.068
748.88	43.750
749.19	45.581
749.50	47.032
749.82	43.210
750.13	45.455
750.44	40.000
750.75	44.295
751.07	43.092
751.38	42.574
751.69	42.424
752.01	44.755
752.32	42.193
752.63	45.973
752.94	42.308
753.26	43.359
753.57	42.023
753.88	43.071
754.19	43.682
754.51	42.857
754.82	39.933
755.13	40.878
755.44	45.556
755.75	43.643
756.07	43.836
756.38	40.523
756.69	40.000
757.00	45.697
757.31	41.127
757.63	39.945
757.94	41.489
758.25	39.130
758.56	38.444
758.87	40.852
759.18	42.151
759.50	41.641
759.81	39.763
760.12	42.697
760.43	41.176
760.74	42.025
761.05	37.931
761.36	38.021
761.67	42.049
761.99	39.155
762.30	43.408
762.61	38.889
762.92	43.561
763.23	42.642
763.54	48.846
763.85	39.689
764.16	41.319
764.47	39.527
764.78	42.345
765.10	40.549
765.41	39.773
765.72	40.608
766.03	43.505
766.34	36.585
766.65	46.388
766.96	46.154
767.27	48.131
767.58	50.000
767.89	51.381
768.20	62.805
768.51	45.918
768.82	46.930
769.13	42.745
769.44	43.233
769.75	40.449
770.06	42.017
770.37	41.667
770.68	41.333
770.99	42.373
771.30	42.678
771.61	43.846
771.92	43.130
772.23	41.935
772.54	44.444
772.85	50.990
773.16	43.478
773.47	52.222
773.78	48.515
774.09	51.705
774.39	43.030
774.70	51.765
775.01	46.711
775.32	49.689
775.63	60.959
775.94	54.938
776.25	55.172
776.56	49.618
776.87	56.489
777.18	56.818
777.48	59.055
777.79	62.308
778.10	46.212
778.41	58.209
778.72	51.128
779.03	41.667
779.34	54.730
779.65	54.037
779.95	55.280
780.26	41.667
780.57	55.782
780.88	53.901
781.19	63.333
781.50	48.521
781.80	50.820
782.11	44.974
782.42	47.126
782.73	46.328
783.04	47.097
783.34	52.713
783.65	48.980
783.96	50.323
784.27	53.642
784.57	50.658
784.88	50.000
785.19	52.500
785.50	62.931
785.81	69.767
786.11	54.815
786.42	61.417
786.73	55.856
787.04	55.660
787.34	45.528
787.65	53.788
787.96	58.333
788.26	61.417
788.57	59.854
788.88	50.704
789.19	53.435
789.49	51.351
789.80	60.938
790.11	52.893
790.41	60.185
790.72	55.556
791.03	58.654
791.33	69.697
791.64	66.316
791.95	58.947
792.25	46.875
792.56	61.000
792.87	76.829
793.17	63.636
793.48	69.412
793.79	62.069
794.09	50.000
794.40	68.966
794.70	53.968
795.01	45.385
795.32	61.832
795.62	53.846
795.93	52.941
796.23	54.472
796.54	64.286
796.85	63.636
797.15	77.922
797.46	71.951
797.76	72.500
798.07	70.667
798.37	85.000
798.68	73.750
798.99	73.171
799.29	74.667
799.60	46.512
799.90	56.579
800.21	69.697
800.51	59.155
800.82	77.586
801.12	90.769
801.43	70.667
801.73	93.103
802.04	81.818
802.34	67.123
802.65	86.275
802.95	65.217
803.26	103.226
803.56	103.333
803.87	77.612
804.17	90.476
804.48	84.906
804.78	76.389
805.09	81.818
805.39	80.952
805.70	80.702
806.00	67.143
806.30	71.875
806.61	76.471
806.91	68.889
807.22	58.696
807.52	69.737
807.83	71.053
808.13	71.014
808.43	79.032
808.74	83.562
809.04	76.786
809.35	98.529
809.65	71.212
809.95	109.804
810.26	88.889
810.56	98.438
810.86	116.327
811.17	89.474
811.47	97.826
811.77	77.586
812.08	79.310
812.38	88.095
812.69	80.952
812.99	100.000
813.29	111.429
813.59	158.065
813.90	91.379
814.20	77.049
814.50	94.000
814.81	78.947
815.11	92.593
815.41	73.214
815.72	105.357
816.02	90.000
816.32	90.244
816.62	94.828
816.93	139.394
817.23	141.463
817.53	98.214
817.84	102.222
818.14	104.762
818.44	116.667
818.74	92.453
819.04	92.308
819.35	121.212
819.65	132.692
819.95	105.556
820.25	114.894
820.56	143.243
820.86	107.895
821.16	82.979
821.46	131.579
821.76	81.818
822.07	85.714
822.37	131.579
822.67	125.581
822.97	94.737
823.27	78.261
823.57	156.250
823.88	115.385
824.18	121.212
824.48	160.870
824.78	94.444
825.08	121.739
825.38	134.483
825.69	117.647
825.99	95.745
826.29	86.111
826.59	128.571
826.89	130.000
827.19	111.429
827.49	164.516
827.79	173.077
828.09	116.667
828.39	119.444
828.70	108.108
829.00	160.714
829.30	187.500
829.60	127.778
829.90	158.065
830.20	103.030
830.50	148.649
830.80	125.000
831.10	200.000
831.40	180.952
831.70	175.000
832.00	130.000
832.30	169.565
832.60	195.833
832.90	133.333
833.20	240.000
833.50	113.158
833.80	111.765
834.10	94.737
834.40	126.316
834.70	113.333
835.00	172.000
835.30	91.892
835.60	131.250
835.90	113.514
836.20	165.385
836.50	163.636
836.80	97.561
837.10	186.957
837.40	369.231
837.70	136.842
838.00	146.667
838.30	162.500
838.60	148.000
838.90	300.000
839.19	200.000
839.49	123.333
839.79	144.828
840.09	153.846
840.39	220.000
840.69	189.474
840.99	214.286
841.29	165.217
841.59	205.000
841.88	192.000
842.18	333.333
842.48	139.286
842.78	162.963
843.08	376.923
843.38	190.909
843.68	228.571
843.97	328.571
844.27	139.130
844.57	1250.000
844.87	285.714
845.17	222.222
845.47	138.095
845.76	158.333
846.06	485.714
846.36	158.824
846.66	261.538
846.96	225.000
847.25	238.462
847.55	194.737
847.85	205.556
848.15	740.000
848.44	381.818
848.74	142.857
849.04	162.500
849.34	164.706
849.63	206.250
849.93	287.500
850.23	900.000
850.53	350.000
850.82	363.636
851.12	188.235
851.42	145.833
851.71	287.500
852.01	0.000
852.31	241.176
852.61	430.000
852.90	175.000
853.20	266.667
853.50	-2100.000
853.79	132.000
854.09	137.500
854.39	124.138
854.68	141.379
854.98	190.476
855.28	125.806
855.57	321.429
855.87	133.333
856.17	107.407
856.46	168.421
856.76	145.161
857.05	247.059
857.35	309.091
857.65	223.077
857.94	160.000
858.24	366.667
858.53	221.429
858.83	585.714
859.13	213.043
859.42	377.778
859.72	275.000
860.01	300.000
860.31	950.000
860.60	390.000
860.90	350.000
861.20	284.615
861.49	471.429
861.79	-3100.000
862.08	385.714
862.38	333.333
862.67	228.571
862.97	370.000
863.26	130.000
863.56	850.000
863.85	284.615
864.15	264.706
864.44	233.333
864.74	308.333
865.03	318.182
865.33	275.000
865.62	213.333
865.92	550.000
866.21	875.000
866.51	560.000
866.80	200.000
867.10	900.000
867.39	2800.000
867.69	580.000
867.98	725.000
868.27	233.333
868.57	220.000
868.86	800.000
869.16	166.667
869.45	3600.000
869.75	-616.667
870.04	800.000
870.33	720.000
870.63	362.500
870.92	182.353
871.22	775.000
871.51	528.571
871.80	341.667
872.10	330.769
>>>>>End Processed Spectral Data<<<<<
