SpectraSuite Data File
++++++++++++++++++++++++++++++++++++
Date: Tue May 12 17:22:19 PDT 2015
User: schluterlab
Dark Spectrum Present: Yes
Reference Spectrum Present: Yes
Number of Sampled Component Spectra: 1
Spectrometers: USB2E3373
Integration Time (usec): 3000 (USB2E3373)
Spectra Averaged: 3 (USB2E3373)
Boxcar Smoothing: 0 (USB2E3373)
Correct for Electrical Dark: No (USB2E3373)
Strobe/Lamp Enabled: No (USB2E3373)
Correct for Detector Non-linearity: No (USB2E3373)
Correct for Stray Light: No (USB2E3373)
Number of Pixels in Processed Spectrum: 2048
>>>>>Begin Processed Spectral Data<<<<<
178.53	0.000
178.91	-275.000
179.29	-800.000
179.67	-4200.000
180.04	-206.667
180.42	925.000
180.80	1700.000
181.18	0.000
181.56	-275.000
181.94	0.000
182.31	1066.667
182.69	-2700.000
183.07	542.857
183.45	-3500.000
183.83	-1200.000
184.20	340.000
184.58	485.714
184.96	-246.154
185.34	-225.000
185.72	1900.000
186.09	-650.000
186.47	-3200.000
186.85	1000.000
187.23	640.000
187.61	1900.000
187.98	425.000
188.36	228.571
188.74	366.667
189.12	341.667
189.49	825.000
189.87	0.000
190.25	650.000
190.63	2500.000
191.00	-258.333
191.38	-3400.000
191.76	-600.000
192.14	537.500
192.51	-2900.000
192.89	1600.000
193.27	766.667
193.65	-766.667
194.02	-800.000
194.40	457.143
194.78	-207.143
195.15	293.333
195.53	-4600.000
195.91	-660.000
196.29	4000.000
196.66	281.250
197.04	975.000
197.42	-1600.000
197.79	600.000
198.17	400.000
198.55	0.000
198.92	542.857
199.30	1200.000
199.68	2150.000
200.05	833.333
200.43	-483.333
200.81	177.778
201.18	3600.000
201.56	316.667
201.94	-750.000
202.31	-325.000
202.69	-520.000
203.07	3400.000
203.44	-400.000
203.82	233.333
204.19	820.000
204.57	-1700.000
204.95	-725.000
205.32	-740.000
205.70	433.333
206.08	775.000
206.45	-766.667
206.83	377.778
207.20	200.000
207.58	325.000
207.96	680.000
208.33	0.000
208.71	514.286
209.08	820.000
209.46	-3100.000
209.84	-925.000
210.21	640.000
210.59	-700.000
210.96	350.000
211.34	-925.000
211.71	345.455
212.09	875.000
212.46	1600.000
212.84	-400.000
213.22	444.444
213.59	-2400.000
213.97	420.000
214.34	950.000
214.72	1300.000
215.09	800.000
215.47	-4000.000
215.84	-310.000
216.22	-437.500
216.59	0.000
216.97	0.000
217.34	1700.000
217.72	-1300.000
218.09	1166.667
218.47	587.500
218.84	825.000
219.22	866.667
219.59	1000.000
219.97	614.286
220.34	422.222
220.72	1450.000
221.09	3300.000
221.47	275.000
221.84	1266.667
222.22	360.000
222.59	283.333
222.97	207.143
223.34	175.000
223.72	-1500.000
224.09	1233.333
224.46	292.308
224.84	-975.000
225.21	455.556
225.59	273.333
225.96	1400.000
226.34	-580.000
226.71	-700.000
227.08	-680.000
227.46	0.000
227.83	-500.000
228.21	-1950.000
228.58	425.000
228.95	850.000
229.33	311.111
229.70	1125.000
230.08	338.462
230.45	5000.000
230.82	-825.000
231.20	-566.667
231.57	-1066.667
231.95	520.000
232.32	325.000
232.69	683.333
233.07	291.667
233.44	-1700.000
233.81	266.667
234.19	211.111
234.56	268.750
234.93	123.529
235.31	215.000
235.68	306.250
236.05	171.429
236.43	177.778
236.80	285.714
237.17	182.759
237.55	137.500
237.92	112.500
238.29	178.788
238.67	137.500
239.04	134.146
239.41	110.417
239.79	140.000
240.16	89.583
240.53	95.082
240.91	88.406
241.28	84.746
241.65	77.273
242.02	84.507
242.40	87.143
242.77	74.725
243.14	75.949
243.51	83.838
243.89	63.551
244.26	66.355
244.63	68.317
245.00	69.725
245.38	49.153
245.75	62.121
246.12	66.667
246.49	51.773
246.87	64.754
247.24	65.333
247.61	59.375
247.98	61.905
248.36	52.121
248.73	57.653
249.10	58.929
249.47	58.000
249.84	56.716
250.22	52.973
250.59	54.500
250.96	54.008
251.33	52.558
251.70	51.339
252.08	58.824
252.45	48.606
252.82	46.388
253.19	53.755
253.56	46.154
253.94	47.101
254.31	51.550
254.68	48.780
255.05	48.621
255.42	50.000
255.79	49.837
256.16	54.237
256.54	48.701
256.91	50.327
257.28	51.505
257.65	44.514
258.02	48.083
258.39	44.986
258.76	47.536
259.14	43.143
259.51	52.187
259.88	48.024
260.25	45.330
260.62	47.397
260.99	46.281
261.36	49.582
261.73	45.479
262.10	45.288
262.47	46.750
262.85	41.600
263.22	45.501
263.59	50.384
263.96	44.612
264.33	44.444
264.70	44.963
265.07	46.098
265.44	45.413
265.81	44.575
266.18	45.080
266.55	44.208
266.92	44.072
267.29	44.079
267.66	44.395
268.03	43.946
268.40	44.609
268.77	43.172
269.14	42.950
269.51	41.648
269.88	43.673
270.25	42.981
270.62	45.494
270.99	44.219
271.36	42.886
271.73	42.348
272.10	41.212
272.47	44.643
272.84	40.719
273.21	42.562
273.58	43.927
273.95	45.585
274.32	42.607
274.69	43.307
275.06	43.716
275.43	41.379
275.80	41.509
276.17	39.338
276.54	43.178
276.91	42.724
277.28	41.423
277.65	41.697
278.02	41.544
278.39	40.827
278.76	41.379
279.13	38.078
279.50	42.364
279.87	40.410
280.23	40.884
280.60	43.431
280.97	40.345
281.34	40.099
281.71	40.348
282.08	42.735
282.45	37.500
282.82	41.806
283.19	36.725
283.56	41.157
283.92	43.648
284.29	41.431
284.66	39.664
285.03	38.972
285.40	40.661
285.77	36.728
286.14	38.545
286.51	39.571
286.87	36.867
287.24	35.736
287.61	37.386
287.98	36.269
288.35	37.481
288.72	37.178
289.08	38.739
289.45	39.024
289.82	38.906
290.19	36.457
290.56	37.263
290.93	36.115
291.29	36.326
291.66	36.158
292.03	33.520
292.40	34.011
292.77	35.794
293.13	35.235
293.50	35.088
293.87	32.927
294.24	36.364
294.60	35.935
294.97	35.944
295.34	33.732
295.71	32.720
296.08	33.600
296.44	34.689
296.81	33.747
297.18	32.826
297.55	32.635
297.91	31.773
298.28	32.850
298.65	32.393
299.02	31.604
299.38	32.854
299.75	33.171
300.12	31.766
300.48	33.021
300.85	33.731
301.22	31.279
301.59	30.660
301.95	31.972
302.32	32.596
302.69	34.163
303.05	33.558
303.42	30.605
303.79	32.178
304.15	33.003
304.52	31.501
304.89	32.623
305.25	33.593
305.62	32.090
305.99	33.370
306.35	30.105
306.72	31.842
307.09	30.952
307.45	32.207
307.82	31.893
308.19	33.299
308.55	31.400
308.92	31.501
309.29	32.840
309.65	32.210
310.02	33.874
310.38	33.101
310.75	32.787
311.12	33.238
311.48	36.390
311.85	34.256
312.22	34.862
312.58	34.694
312.95	34.951
313.31	36.330
313.68	35.366
314.05	36.264
314.41	36.034
314.78	38.636
315.14	38.009
315.51	39.167
315.87	38.412
316.24	39.216
316.61	38.854
316.97	40.183
317.34	41.779
317.70	40.386
318.07	42.349
318.43	42.267
318.80	44.046
319.16	42.920
319.53	43.805
319.89	44.086
320.26	48.324
320.62	47.619
320.99	47.569
321.35	46.197
321.72	48.387
322.08	49.677
322.45	51.135
322.81	52.150
323.18	51.066
323.54	53.833
323.91	55.485
324.27	55.880
324.64	57.180
325.00	59.310
325.37	58.432
325.73	59.275
326.10	60.563
326.46	61.519
326.83	60.960
327.19	63.133
327.56	63.259
327.92	64.508
328.29	66.530
328.65	67.637
329.01	67.579
329.38	68.528
329.74	67.037
330.11	70.287
330.47	68.457
330.84	68.852
331.20	71.151
331.56	71.503
331.93	71.600
332.29	72.704
332.66	72.704
333.02	70.704
333.38	73.298
333.75	73.394
334.11	73.238
334.48	74.786
334.84	71.959
335.20	74.679
335.57	72.796
335.93	73.591
336.29	71.642
336.66	76.329
337.02	74.508
337.38	73.947
337.75	75.338
338.11	75.865
338.47	75.614
338.84	74.682
339.20	76.364
339.56	73.423
339.93	75.334
340.29	72.689
340.65	75.272
341.02	73.049
341.38	74.959
341.74	76.827
342.11	75.876
342.47	75.144
342.83	78.097
343.20	74.454
343.56	74.662
343.92	76.135
344.28	76.077
344.65	77.506
345.01	75.000
345.37	75.641
345.73	75.635
346.10	77.052
346.46	76.715
346.82	76.620
347.19	77.434
347.55	76.737
347.91	76.511
348.27	74.826
348.63	76.741
349.00	75.781
349.36	77.899
349.72	78.287
350.08	77.484
350.45	77.380
350.81	76.682
351.17	76.194
351.53	77.444
351.89	77.312
352.26	77.475
352.62	78.808
352.98	77.147
353.34	77.273
353.70	76.988
354.07	79.231
354.43	77.496
354.79	76.993
355.15	79.020
355.51	77.039
355.87	78.916
356.24	77.983
356.60	77.854
356.96	79.530
357.32	79.427
357.68	77.533
358.04	80.091
358.40	79.235
358.77	79.865
359.13	78.979
359.49	78.503
359.85	78.555
360.21	78.603
360.57	78.102
360.93	78.355
361.29	79.221
361.66	79.866
362.02	79.403
362.38	79.654
362.74	80.538
363.10	79.243
363.46	78.936
363.82	79.804
364.18	81.223
364.54	81.688
364.90	78.581
365.26	80.847
365.62	80.525
365.98	78.114
366.35	77.793
366.71	80.985
367.07	81.775
367.43	81.128
367.79	78.457
368.15	79.919
368.51	79.462
368.87	81.522
369.23	80.665
369.59	79.973
369.95	81.678
370.31	80.287
370.67	79.112
371.03	80.252
371.39	80.540
371.75	79.344
372.11	80.557
372.47	79.041
372.83	80.557
373.19	80.260
373.55	80.619
373.91	79.972
374.27	80.225
374.63	79.932
374.99	81.469
375.35	81.317
375.71	81.135
376.07	81.631
376.42	79.348
376.78	82.274
377.14	81.324
377.50	81.461
377.86	80.269
378.22	81.292
378.58	81.780
378.94	80.869
379.30	82.232
379.66	82.962
380.02	81.056
380.38	80.562
380.74	82.122
381.09	81.484
381.45	79.711
381.81	80.142
382.17	81.013
382.53	80.504
382.89	80.012
383.25	80.580
383.61	79.885
383.97	80.264
384.32	80.289
384.68	80.154
385.04	80.363
385.40	80.368
385.76	79.169
386.12	80.519
386.48	81.277
386.83	81.051
387.19	79.682
387.55	80.506
387.91	80.774
388.27	81.737
388.62	79.167
388.98	78.776
389.34	79.952
389.70	78.479
390.06	80.244
390.42	79.581
390.77	79.975
391.13	79.240
391.49	77.979
391.85	80.308
392.20	79.321
392.56	78.793
392.92	78.608
393.28	78.643
393.64	78.670
393.99	79.135
394.35	76.986
394.71	77.382
395.07	77.981
395.42	78.454
395.78	77.668
396.14	78.916
396.50	77.437
396.85	77.988
397.21	77.858
397.57	77.645
397.92	76.141
398.28	78.103
398.64	77.545
399.00	74.987
399.35	75.523
399.71	77.042
400.07	75.057
400.42	77.851
400.78	75.836
401.14	75.690
401.49	75.922
401.85	76.535
402.21	76.040
402.57	76.302
402.92	75.212
403.28	73.866
403.63	75.397
403.99	75.694
404.35	75.850
404.70	75.074
405.06	73.217
405.42	74.626
405.77	74.035
406.13	72.560
406.49	73.451
406.84	73.209
407.20	74.600
407.55	74.462
407.91	74.410
408.27	73.438
408.62	72.915
408.98	72.501
409.34	70.602
409.69	73.180
410.05	72.809
410.40	72.144
410.76	72.639
411.11	72.038
411.47	72.716
411.83	72.642
412.18	72.464
412.54	71.652
412.89	71.268
413.25	71.779
413.60	70.444
413.96	71.933
414.31	71.488
414.67	73.929
415.03	72.861
415.38	73.186
415.74	74.163
416.09	73.704
416.45	72.915
416.80	74.150
417.16	73.011
417.51	73.121
417.87	73.780
418.22	72.357
418.58	73.503
418.93	72.992
419.29	72.643
419.64	72.986
420.00	72.971
420.35	74.913
420.71	73.104
421.06	72.749
421.42	73.115
421.77	74.514
422.12	73.705
422.48	73.806
422.83	75.056
423.19	73.758
423.54	73.560
423.90	74.236
424.25	75.014
424.61	74.985
424.96	74.929
425.31	75.041
425.67	76.375
426.02	74.481
426.38	74.212
426.73	75.246
427.09	75.801
427.44	75.239
427.79	76.615
428.15	76.488
428.50	76.343
428.85	76.720
429.21	76.013
429.56	75.025
429.92	75.932
430.27	75.762
430.62	74.156
430.98	75.200
431.33	74.748
431.68	74.568
432.04	76.927
432.39	76.180
432.74	77.518
433.10	76.190
433.45	77.829
433.80	76.999
434.16	75.828
434.51	76.574
434.86	77.246
435.22	76.823
435.57	78.601
435.92	77.746
436.28	79.435
436.63	77.688
436.98	80.236
437.34	77.511
437.69	76.988
438.04	76.505
438.39	77.700
438.75	77.060
439.10	77.982
439.45	77.332
439.81	76.923
440.16	77.986
440.51	76.858
440.86	79.259
441.22	76.461
441.57	78.898
441.92	77.147
442.27	78.196
442.63	77.642
442.98	77.371
443.33	77.933
443.68	77.767
444.03	77.144
444.39	77.966
444.74	77.226
445.09	78.410
445.44	78.480
445.79	78.752
446.15	78.158
446.50	77.268
446.85	77.241
447.20	78.657
447.55	79.772
447.91	80.021
448.26	78.062
448.61	79.160
448.96	79.902
449.31	79.538
449.66	78.904
450.02	78.552
450.37	79.400
450.72	81.433
451.07	79.174
451.42	79.312
451.77	78.866
452.12	80.147
452.47	79.587
452.83	79.324
453.18	79.760
453.53	79.751
453.88	78.400
454.23	79.314
454.58	79.662
454.93	79.522
455.28	81.395
455.63	80.556
455.98	77.439
456.34	80.973
456.69	79.756
457.04	78.341
457.39	78.914
457.74	80.462
458.09	78.214
458.44	78.313
458.79	79.735
459.14	78.669
459.49	79.785
459.84	81.196
460.19	78.927
460.54	78.917
460.89	79.211
461.24	77.778
461.59	80.329
461.94	78.428
462.29	79.176
462.64	79.585
462.99	79.335
463.34	80.622
463.69	79.552
464.04	80.426
464.39	79.107
464.74	77.257
465.09	77.945
465.44	77.639
465.79	79.042
466.14	77.266
466.49	79.598
466.84	79.208
467.19	77.504
467.54	78.799
467.89	79.049
468.24	80.371
468.59	77.381
468.94	80.374
469.29	77.886
469.64	78.907
469.99	79.177
470.34	78.115
470.68	79.241
471.03	80.120
471.38	79.338
471.73	79.817
472.08	80.757
472.43	79.888
472.78	79.577
473.13	77.534
473.48	78.851
473.83	79.446
474.17	80.182
474.52	78.021
474.87	78.511
475.22	79.897
475.57	78.174
475.92	78.436
476.27	77.639
476.61	78.070
476.96	77.534
477.31	80.566
477.66	79.227
478.01	77.978
478.36	78.785
478.70	77.469
479.05	80.021
479.40	77.431
479.75	77.855
480.10	78.025
480.45	78.198
480.79	77.788
481.14	78.745
481.49	76.532
481.84	77.441
482.19	77.729
482.53	76.812
482.88	78.808
483.23	77.176
483.58	77.828
483.92	79.479
484.27	76.413
484.62	77.547
484.97	75.263
485.31	75.933
485.66	74.038
486.01	71.912
486.36	72.410
486.70	72.037
487.05	73.543
487.40	74.074
487.75	74.870
488.09	74.318
488.44	74.920
488.79	76.501
489.13	76.484
489.48	77.227
489.83	76.647
490.17	75.970
490.52	77.562
490.87	76.681
491.22	77.881
491.56	77.866
491.91	76.792
492.26	77.327
492.60	77.995
492.95	77.526
493.30	77.070
493.64	77.358
493.99	75.805
494.34	76.782
494.68	76.715
495.03	76.875
495.37	77.082
495.72	78.228
496.07	77.269
496.41	75.673
496.76	76.066
497.11	76.050
497.45	75.318
497.80	76.923
498.14	76.745
498.49	76.648
498.84	77.710
499.18	76.005
499.53	76.803
499.87	75.921
500.22	77.522
500.56	76.602
500.91	76.809
501.26	76.757
501.60	76.867
501.95	75.045
502.29	75.733
502.64	74.636
502.98	75.145
503.33	75.412
503.67	75.585
504.02	75.549
504.36	75.294
504.71	77.483
505.06	75.692
505.40	76.228
505.75	75.444
506.09	77.322
506.44	77.444
506.78	77.410
507.13	77.024
507.47	77.341
507.82	76.399
508.16	77.756
508.51	77.005
508.85	75.831
509.19	77.484
509.54	75.293
509.88	77.772
510.23	75.931
510.57	74.662
510.92	77.822
511.26	76.506
511.61	75.677
511.95	76.356
512.30	76.050
512.64	77.362
512.98	76.525
513.33	76.691
513.67	76.023
514.02	77.662
514.36	75.753
514.70	77.120
515.05	77.730
515.39	79.989
515.74	78.568
516.08	78.268
516.42	80.000
516.77	75.893
517.11	77.067
517.46	75.754
517.80	77.226
518.14	78.254
518.49	76.736
518.83	76.868
519.17	77.759
519.52	78.755
519.86	79.019
520.20	77.041
520.55	77.501
520.89	76.149
521.23	77.687
521.58	78.084
521.92	78.426
522.26	77.429
522.61	79.382
522.95	78.919
523.29	78.304
523.64	75.896
523.98	78.697
524.32	75.952
524.66	77.913
525.01	78.047
525.35	76.606
525.69	77.724
526.04	77.870
526.38	77.928
526.72	78.520
527.06	75.991
527.41	78.114
527.75	77.480
528.09	77.243
528.43	78.096
528.78	77.162
529.12	77.664
529.46	75.511
529.80	76.577
530.15	76.959
530.49	77.136
530.83	76.722
531.17	78.167
531.51	77.560
531.86	75.483
532.20	76.020
532.54	76.208
532.88	76.952
533.22	75.503
533.57	76.327
533.91	73.776
534.25	74.207
534.59	76.082
534.93	74.061
535.27	74.559
535.62	74.737
535.96	75.827
536.30	76.904
536.64	75.776
536.98	76.149
537.32	75.250
537.66	76.276
538.01	75.356
538.35	75.234
538.69	73.483
539.03	74.316
539.37	73.847
539.71	75.000
540.05	75.262
540.39	75.220
540.73	76.582
541.07	74.028
541.42	74.440
541.76	74.908
542.10	74.291
542.44	75.000
542.78	74.890
543.12	74.233
543.46	73.559
543.80	75.125
544.14	75.666
544.48	73.844
544.82	75.168
545.16	72.253
545.50	74.186
545.84	74.684
546.18	76.333
546.52	75.016
546.86	73.694
547.20	75.065
547.54	73.654
547.88	72.506
548.22	73.467
548.56	74.425
548.90	73.369
549.24	73.910
549.58	72.874
549.92	75.442
550.26	75.592
550.60	73.387
550.94	75.645
551.28	75.586
551.62	76.000
551.96	75.000
552.30	73.566
552.64	74.757
552.98	74.227
553.32	73.303
553.66	74.137
554.00	73.295
554.34	74.501
554.68	73.656
555.02	74.678
555.36	73.205
555.69	74.411
556.03	72.420
556.37	72.020
556.71	74.185
557.05	73.001
557.39	73.200
557.73	73.113
558.07	74.245
558.41	74.229
558.75	74.897
559.08	76.483
559.42	75.089
559.76	76.194
560.10	73.916
560.44	72.462
560.78	73.849
561.12	74.571
561.45	74.406
561.79	72.472
562.13	73.152
562.47	73.134
562.81	74.040
563.15	73.174
563.48	70.497
563.82	73.674
564.16	73.507
564.50	71.007
564.84	73.252
565.17	70.588
565.51	72.906
565.85	73.473
566.19	72.500
566.52	72.262
566.86	72.913
567.20	71.685
567.54	72.052
567.88	72.040
568.21	68.947
568.55	70.039
568.89	69.617
569.23	68.507
569.56	68.690
569.90	67.086
570.24	66.985
570.57	66.613
570.91	66.646
571.25	65.866
571.59	65.369
571.92	65.231
572.26	64.394
572.60	64.926
572.93	66.130
573.27	65.652
573.61	65.024
573.95	64.741
574.28	65.245
574.62	64.206
574.96	63.653
575.29	63.029
575.63	62.827
575.97	63.023
576.30	62.921
576.64	63.196
576.98	63.362
577.31	63.987
577.65	63.286
577.98	63.248
578.32	62.643
578.66	63.142
578.99	62.870
579.33	63.396
579.67	62.705
580.00	63.105
580.34	63.143
580.67	62.685
581.01	63.573
581.35	62.512
581.68	61.501
582.02	61.837
582.35	62.255
582.69	62.789
583.02	62.817
583.36	63.784
583.70	63.431
584.03	64.877
584.37	64.286
584.70	63.150
585.04	63.193
585.37	62.444
585.71	64.247
586.04	62.627
586.38	63.275
586.72	63.938
587.05	63.664
587.39	63.793
587.72	63.698
588.06	63.174
588.39	64.202
588.73	64.151
589.06	64.867
589.40	64.538
589.73	64.012
590.07	65.305
590.40	65.714
590.73	66.875
591.07	66.300
591.40	66.188
591.74	65.584
592.07	66.140
592.41	65.787
592.74	64.482
593.08	64.453
593.41	63.525
593.75	62.372
594.08	64.275
594.41	63.441
594.75	63.356
595.08	64.472
595.42	64.384
595.75	64.890
596.09	64.442
596.42	64.712
596.75	66.226
597.09	65.827
597.42	64.286
597.75	64.544
598.09	64.177
598.42	64.463
598.76	64.379
599.09	64.288
599.42	63.356
599.76	63.229
600.09	62.881
600.42	63.881
600.76	64.480
601.09	63.445
601.42	63.780
601.76	64.590
602.09	64.349
602.42	63.697
602.76	63.909
603.09	64.404
603.42	64.440
603.76	63.196
604.09	63.916
604.42	64.143
604.76	64.836
605.09	64.286
605.42	64.567
605.75	63.877
606.09	63.007
606.42	63.848
606.75	64.050
607.09	63.561
607.42	63.600
607.75	63.495
608.08	63.769
608.42	63.884
608.75	63.928
609.08	63.924
609.41	64.000
609.75	66.117
610.08	64.973
610.41	63.329
610.74	64.416
611.07	64.393
611.41	65.153
611.74	65.535
612.07	65.366
612.40	65.448
612.73	65.502
613.07	65.535
613.40	66.065
613.73	65.552
614.06	63.800
614.39	66.667
614.72	64.088
615.06	63.600
615.39	64.752
615.72	63.069
616.05	64.490
616.38	64.079
616.71	65.328
617.05	65.239
617.38	64.551
617.71	66.423
618.04	65.788
618.37	64.480
618.70	65.416
619.03	66.728
619.36	65.578
619.69	66.689
620.03	67.515
620.36	68.144
620.69	68.072
621.02	67.595
621.35	65.974
621.68	68.068
622.01	68.708
622.34	67.444
622.67	67.065
623.00	66.236
623.33	66.937
623.66	66.334
623.99	67.123
624.32	66.260
624.65	66.162
624.99	66.937
625.32	67.401
625.65	64.966
625.98	66.388
626.31	68.769
626.64	67.122
626.97	67.559
627.30	68.478
627.63	68.603
627.96	68.232
628.29	69.719
628.62	69.033
628.95	69.947
629.28	69.588
629.61	69.420
629.94	70.700
630.26	69.757
630.59	68.972
630.92	69.148
631.25	69.628
631.58	69.431
631.91	70.409
632.24	70.165
632.57	70.039
632.90	71.429
633.23	72.088
633.56	71.128
633.89	74.384
634.22	72.982
634.55	72.151
634.88	71.194
635.20	71.525
635.53	74.100
635.86	71.588
636.19	72.166
636.52	68.865
636.85	72.276
637.18	71.939
637.51	70.615
637.83	69.908
638.16	73.154
638.49	72.455
638.82	71.479
639.15	70.270
639.48	70.972
639.81	73.748
640.13	71.779
640.46	72.314
640.79	74.382
641.12	72.047
641.45	73.351
641.77	74.373
642.10	74.833
642.43	77.525
642.76	72.017
643.09	75.216
643.41	74.053
643.74	74.388
644.07	76.106
644.40	75.000
644.73	74.625
645.05	74.740
645.38	77.182
645.71	74.659
646.04	76.641
646.36	77.465
646.69	76.320
647.02	75.680
647.35	75.906
647.67	74.878
648.00	76.221
648.33	73.534
648.66	76.364
648.98	72.899
649.31	69.096
649.64	69.571
649.96	72.404
650.29	71.571
650.62	74.669
650.94	72.289
651.27	77.033
651.60	72.144
651.92	73.733
652.25	75.433
652.58	71.206
652.90	73.204
653.23	73.264
653.56	71.365
653.88	70.485
654.21	68.915
654.54	70.571
654.86	70.649
655.19	69.129
655.52	60.903
655.84	52.693
656.17	59.705
656.49	84.318
656.82	95.298
657.15	76.389
657.47	58.280
657.80	43.787
658.13	34.804
658.45	47.009
658.78	56.394
659.10	57.695
659.43	57.463
659.75	60.429
660.08	61.028
660.41	64.973
660.73	69.385
661.06	71.021
661.38	75.639
661.71	75.540
662.03	74.525
662.36	76.190
662.68	73.184
663.01	72.973
663.33	73.208
663.66	77.318
663.98	76.587
664.31	71.642
664.63	72.031
664.96	75.422
665.28	75.330
665.61	73.019
665.93	76.792
666.26	76.075
666.58	74.679
666.91	75.097
667.23	76.908
667.56	78.439
667.88	78.216
668.21	75.205
668.53	76.210
668.86	72.345
669.18	73.727
669.50	72.934
669.83	74.743
670.15	74.012
670.48	70.898
670.80	75.299
671.13	75.896
671.45	73.347
671.77	72.913
672.10	71.095
672.42	68.914
672.75	69.462
673.07	69.793
673.39	67.252
673.72	71.107
674.04	71.326
674.37	69.691
674.69	69.517
675.01	68.843
675.34	69.961
675.66	74.414
675.98	71.992
676.31	74.400
676.63	71.173
676.95	72.222
677.28	71.400
677.60	73.441
677.92	68.651
678.25	72.674
678.57	71.508
678.89	71.609
679.22	69.301
679.54	69.395
679.86	68.586
680.18	69.772
680.51	66.667
680.83	65.372
681.15	68.458
681.48	68.403
681.80	68.126
682.12	66.263
682.44	68.829
682.77	68.861
683.09	70.291
683.41	72.041
683.73	71.457
684.06	69.246
684.38	69.961
684.70	67.446
685.02	65.972
685.34	71.127
685.67	66.077
685.99	67.323
686.31	65.177
686.63	67.805
686.96	67.484
687.28	66.275
687.60	65.870
687.92	63.652
688.24	67.586
688.56	68.861
688.89	66.539
689.21	68.015
689.53	67.589
689.85	68.293
690.17	66.990
690.49	68.347
690.82	71.639
691.14	69.899
691.46	70.021
691.78	64.912
692.10	67.939
692.42	66.969
692.74	66.279
693.06	67.054
693.39	67.589
693.71	67.976
694.03	70.414
694.35	68.876
694.67	65.173
694.99	70.067
695.31	70.721
695.63	72.172
695.95	70.588
696.27	71.239
696.59	69.212
696.91	70.127
697.23	68.552
697.56	64.315
697.88	64.271
698.20	63.208
698.52	62.257
698.84	65.503
699.16	65.885
699.48	67.797
699.80	68.410
700.12	71.824
700.44	67.991
700.76	69.928
701.08	68.930
701.40	68.571
701.72	71.123
702.04	71.274
702.36	69.624
702.68	71.809
703.00	65.915
703.32	63.524
703.64	67.758
703.96	72.135
704.28	70.899
704.60	73.239
704.91	71.429
705.23	72.159
705.55	74.184
705.87	75.238
706.19	77.116
706.51	74.922
706.83	69.912
707.15	66.043
707.47	66.828
707.79	66.437
708.11	67.347
708.43	66.292
708.74	64.253
709.06	63.721
709.38	66.005
709.70	71.117
710.02	67.935
710.34	70.442
710.66	67.222
710.98	71.038
711.29	68.802
711.61	67.688
711.93	73.860
712.25	72.289
712.57	75.241
712.89	67.273
713.20	72.843
713.52	68.536
713.84	67.069
714.16	64.928
714.48	63.977
714.80	65.583
715.11	63.032
715.43	70.391
715.75	68.732
716.07	68.497
716.39	67.143
716.70	67.290
717.02	76.094
717.34	72.662
717.66	72.569
717.97	80.682
718.29	73.239
718.61	66.216
718.93	74.740
719.24	73.490
719.56	69.310
719.88	69.108
720.20	69.032
720.51	67.974
720.83	70.569
721.15	67.687
721.46	71.918
721.78	71.080
722.10	68.056
722.42	73.579
722.73	69.314
723.05	69.474
723.37	70.671
723.68	75.391
724.00	71.591
724.32	71.863
724.63	68.077
724.95	74.902
725.27	71.004
725.58	67.647
725.90	66.549
726.22	70.548
726.53	66.221
726.85	66.124
727.16	72.483
727.48	66.113
727.80	70.144
728.11	71.071
728.43	71.377
728.74	65.734
729.06	65.950
729.38	70.877
729.69	66.333
730.01	68.750
730.32	68.456
730.64	68.106
730.96	60.961
731.27	60.245
731.59	60.920
731.90	61.560
732.22	66.000
732.53	61.823
732.85	62.865
733.16	64.157
733.48	62.382
733.80	61.159
734.11	66.871
734.43	62.281
734.74	60.590
735.06	65.344
735.37	59.021
735.69	61.739
736.00	66.361
736.32	61.515
736.63	66.246
736.95	63.665
737.26	67.683
737.58	64.110
737.89	59.036
738.21	67.219
738.52	63.211
738.83	69.231
739.15	68.641
739.46	66.897
739.78	71.429
740.09	64.140
740.41	62.883
740.72	69.841
741.04	67.483
741.35	73.047
741.66	64.822
741.98	70.386
742.29	75.463
742.61	66.814
742.92	67.373
743.23	67.600
743.55	62.642
743.86	64.314
744.18	70.339
744.49	69.421
744.80	70.507
745.12	68.304
745.43	76.168
745.74	72.444
746.06	72.807
746.37	68.837
746.68	74.336
747.00	73.094
747.31	68.487
747.62	66.393
747.94	70.386
748.25	62.646
748.56	72.881
748.88	68.750
749.19	71.163
749.50	70.320
749.82	72.428
750.13	68.379
750.44	62.667
750.75	66.443
751.07	62.171
751.38	62.706
751.69	65.320
752.01	64.685
752.32	63.787
752.63	64.094
752.94	62.937
753.26	70.703
753.57	63.424
753.88	62.172
754.19	67.509
754.51	64.784
754.82	57.047
755.13	60.135
755.44	67.037
755.75	64.261
756.07	63.356
756.38	57.516
756.69	60.000
757.00	60.534
757.31	57.465
757.63	60.055
757.94	56.117
758.25	57.246
758.56	52.632
758.87	58.897
759.18	61.628
759.50	58.663
759.81	61.424
760.12	59.831
760.43	63.866
760.74	59.494
761.05	58.090
761.36	56.771
761.67	59.030
761.99	55.493
762.30	63.987
762.61	54.861
762.92	64.773
763.23	63.774
763.54	62.692
763.85	65.759
764.16	61.458
764.47	61.149
764.78	54.072
765.10	55.488
765.41	56.818
765.72	57.182
766.03	58.610
766.34	63.066
766.65	61.977
766.96	69.231
767.27	71.028
767.58	65.347
767.89	74.033
768.20	79.268
768.51	68.367
768.82	58.772
769.13	65.490
769.44	61.278
769.75	61.049
770.06	62.185
770.37	55.702
770.68	62.667
770.99	60.593
771.30	62.343
771.61	64.231
771.92	64.504
772.23	59.274
772.54	65.333
772.85	66.337
773.16	66.304
773.47	66.111
773.78	66.337
774.09	72.727
774.39	76.970
774.70	66.471
775.01	63.158
775.32	67.081
775.63	78.082
775.94	79.012
776.25	75.862
776.56	77.099
776.87	77.863
777.18	74.242
777.48	88.189
777.79	78.462
778.10	84.848
778.41	73.881
778.72	73.684
779.03	68.590
779.34	68.243
779.65	74.534
779.95	79.503
780.26	70.238
780.57	83.673
780.88	70.922
781.19	86.667
781.50	69.822
781.80	63.934
782.11	60.317
782.42	62.644
782.73	61.582
783.04	71.613
783.34	76.744
783.65	69.388
783.96	69.677
784.27	70.861
784.57	69.737
784.88	76.812
785.19	68.333
785.50	75.862
785.81	76.744
786.11	70.370
786.42	76.378
786.73	76.577
787.04	78.302
787.34	59.350
787.65	86.364
787.96	74.242
788.26	85.827
788.57	75.182
788.88	66.197
789.19	70.992
789.49	72.973
789.80	69.531
790.11	70.248
790.41	75.926
790.72	78.704
791.03	81.731
791.33	91.919
791.64	83.158
791.95	86.316
792.25	75.000
792.56	75.000
792.87	91.463
793.17	84.091
793.48	63.529
793.79	91.954
794.09	88.636
794.40	80.172
794.70	77.778
795.01	69.231
795.32	64.122
795.62	73.504
795.93	73.109
796.23	78.049
796.54	77.551
796.85	75.000
797.15	97.403
797.46	96.341
797.76	98.750
798.07	93.333
798.37	102.500
798.68	111.250
798.99	81.707
799.29	97.333
799.60	76.744
799.90	86.842
800.21	115.152
800.51	90.141
800.82	117.241
801.12	109.231
801.43	96.000
801.73	100.000
802.04	96.104
802.34	98.630
802.65	94.118
802.95	102.174
803.26	111.290
803.56	121.667
803.87	101.493
804.17	107.937
804.48	128.302
804.78	90.278
805.09	92.424
805.39	84.127
805.70	119.298
806.00	81.429
806.30	98.437
806.61	81.176
806.91	84.444
807.22	77.174
807.52	76.316
807.83	101.316
808.13	111.594
808.43	108.065
808.74	84.932
809.04	110.714
809.35	102.941
809.65	106.061
809.95	125.490
810.26	116.667
810.56	120.313
810.86	122.449
811.17	124.561
811.47	121.739
811.77	117.241
812.08	105.172
812.38	142.857
812.69	109.524
812.99	120.000
813.29	157.143
813.59	151.613
813.90	77.586
814.20	104.918
814.50	104.000
814.81	103.509
815.11	116.667
815.41	119.643
815.72	139.286
816.02	106.000
816.32	141.463
816.62	108.621
816.93	151.515
817.23	139.024
817.53	96.429
817.84	115.556
818.14	114.286
818.44	133.333
818.74	92.453
819.04	110.256
819.35	154.545
819.65	117.308
819.95	122.222
820.25	136.170
820.56	156.757
820.86	142.105
821.16	100.000
821.46	139.474
821.76	116.364
822.07	107.143
822.37	121.053
822.67	125.581
822.97	100.000
823.27	113.043
823.57	128.125
823.88	112.821
824.18	112.121
824.48	156.522
824.78	111.111
825.08	152.174
825.38	165.517
825.69	158.824
825.99	121.277
826.29	113.889
826.59	120.000
826.89	180.000
827.19	151.429
827.49	177.419
827.79	207.692
828.09	123.810
828.39	136.111
828.70	135.135
829.00	142.857
829.30	212.500
829.60	133.333
829.90	145.161
830.20	136.364
830.50	154.054
830.80	208.333
831.10	184.615
831.40	242.857
831.70	212.500
832.00	123.333
832.30	182.609
832.60	220.833
832.90	139.394
833.20	230.000
833.50	144.737
833.80	150.000
834.10	134.211
834.40	252.632
834.70	146.667
835.00	192.000
835.30	116.216
835.60	156.250
835.90	127.027
836.20	153.846
836.50	181.818
836.80	131.707
837.10	182.609
837.40	369.231
837.70	184.211
838.00	156.667
838.30	200.000
838.60	196.000
838.90	410.000
839.19	206.250
839.49	163.333
839.79	172.414
840.09	180.769
840.39	246.667
840.69	263.158
840.99	138.095
841.29	226.087
841.59	200.000
841.88	156.000
842.18	388.889
842.48	164.286
842.78	181.481
843.08	292.308
843.38	209.091
843.68	278.571
843.97	585.714
844.27	186.957
844.57	1750.000
844.87	350.000
845.17	200.000
845.47	138.095
845.76	183.333
846.06	514.286
846.36	241.176
846.66	292.308
846.96	262.500
847.25	246.154
847.55	194.737
847.85	205.556
848.15	720.000
848.44	336.364
848.74	214.286
849.04	183.333
849.34	223.529
849.63	262.500
849.93	218.750
850.23	1166.667
850.53	550.000
850.82	327.273
851.12	182.353
851.42	195.833
851.71	331.250
852.01	0.000
852.31	229.412
852.61	440.000
852.90	183.333
853.20	377.778
853.50	-2300.000
853.79	148.000
854.09	181.250
854.39	155.172
854.68	168.966
854.98	266.667
855.28	125.806
855.57	335.714
855.87	227.778
856.17	114.815
856.46	205.263
856.76	141.935
857.05	235.294
857.35	345.455
857.65	292.308
857.94	215.000
858.24	388.889
858.53	278.571
858.83	642.857
859.13	169.565
859.42	400.000
859.72	425.000
860.01	258.333
860.31	800.000
860.60	300.000
860.90	550.000
861.20	300.000
861.49	514.286
861.79	-4100.000
862.08	628.571
862.38	388.889
862.67	221.429
862.97	440.000
863.26	160.000
863.56	1125.000
863.85	453.846
864.15	288.235
864.44	255.556
864.74	375.000
865.03	363.636
865.33	337.500
865.62	300.000
865.92	650.000
866.21	1200.000
866.51	760.000
866.80	211.111
867.10	1333.333
867.39	3200.000
867.69	700.000
867.98	900.000
868.27	157.143
868.57	260.000
868.86	1075.000
869.16	157.143
869.45	4800.000
869.75	-550.000
870.04	900.000
870.33	660.000
870.63	425.000
870.92	200.000
871.22	900.000
871.51	528.571
871.80	358.333
872.10	392.308
>>>>>End Processed Spectral Data<<<<<
