SpectraSuite Data File
++++++++++++++++++++++++++++++++++++
Date: Wed May 13 21:52:08 PDT 2015
User: schluterlab
Dark Spectrum Present: Yes
Reference Spectrum Present: Yes
Number of Sampled Component Spectra: 1
Spectrometers: USB2E3373
Integration Time (usec): 3000 (USB2E3373)
Spectra Averaged: 3 (USB2E3373)
Boxcar Smoothing: 0 (USB2E3373)
Correct for Electrical Dark: No (USB2E3373)
Strobe/Lamp Enabled: No (USB2E3373)
Correct for Detector Non-linearity: No (USB2E3373)
Correct for Stray Light: No (USB2E3373)
Number of Pixels in Processed Spectrum: 2048
>>>>>Begin Processed Spectral Data<<<<<
178.53	0.000
178.91	800.000
179.29	241.667
179.67	-850.000
180.04	-266.667
180.42	340.000
180.80	1700.000
181.18	383.333
181.56	-550.000
181.94	-150.000
182.31	9.091
182.69	200.000
183.07	-400.000
183.45	333.333
183.83	277.778
184.20	200.000
184.58	0.000
184.96	533.333
185.34	171.429
185.72	0.000
186.09	-600.000
186.47	-520.000
186.85	340.000
187.23	-650.000
187.61	400.000
187.98	2100.000
188.36	-125.000
188.74	0.000
189.12	-54.545
189.49	40.000
189.87	183.333
190.25	500.000
190.63	1400.000
191.00	-120.000
191.38	360.000
191.76	325.000
192.14	133.333
192.51	-21.053
192.89	700.000
193.27	275.000
193.65	-220.000
194.02	236.364
194.40	230.000
194.78	-1500.000
195.15	460.000
195.53	-420.000
195.91	-12.500
196.29	-333.333
196.66	0.000
197.04	250.000
197.42	-60.000
197.79	20.000
198.17	-200.000
198.55	-333.333
198.92	125.000
199.30	-200.000
199.68	10.000
200.05	500.000
200.43	166.667
200.81	-1400.000
201.18	-360.000
201.56	-83.333
201.94	800.000
202.31	-43.478
202.69	-42.857
203.07	-400.000
203.44	-220.000
203.82	-366.667
204.19	0.000
204.57	0.000
204.95	-216.667
205.32	0.000
205.70	-400.000
206.08	-200.000
206.45	-50.000
206.83	350.000
207.20	-200.000
207.58	-140.000
207.96	-2200.000
208.33	-300.000
208.71	-600.000
209.08	237.500
209.46	300.000
209.84	0.000
210.21	110.000
210.59	1200.000
210.96	120.000
211.34	300.000
211.71	-700.000
212.09	-300.000
212.46	-200.000
212.84	0.000
213.22	-25.000
213.59	-1300.000
213.97	-500.000
214.34	-650.000
214.72	-69.231
215.09	262.500
215.47	244.444
215.84	650.000
216.22	-62.500
216.59	-300.000
216.97	966.667
217.34	233.333
217.72	0.000
218.09	400.000
218.47	-1400.000
218.84	-185.714
219.22	-137.500
219.59	-466.667
219.97	-75.000
220.34	-12.500
220.72	-120.000
221.09	0.000
221.47	-166.667
221.84	0.000
222.22	0.000
222.59	1900.000
222.97	-333.333
223.34	-16.667
223.72	-2100.000
224.09	-600.000
224.46	-63.636
224.84	-75.000
225.21	-171.429
225.59	-250.000
225.96	-216.667
226.34	-100.000
226.71	-242.857
227.08	800.000
227.46	-112.500
227.83	-800.000
228.21	-18.750
228.58	-575.000
228.95	-52.941
229.33	-25.000
229.70	-87.500
230.08	-84.615
230.45	-112.500
230.82	-58.333
231.20	228.571
231.57	-400.000
231.95	1600.000
232.32	-41.667
232.69	-11.765
233.07	-1400.000
233.44	-47.826
233.81	-1100.000
234.19	-29.167
234.56	-120.000
234.93	-60.000
235.31	-26.316
235.68	-76.923
236.05	-100.000
236.43	-11.111
236.80	-36.364
237.17	-86.667
237.55	-94.118
237.92	-41.379
238.29	-59.259
238.67	0.000
239.04	-29.032
239.41	-2.128
239.79	21.277
240.16	11.628
240.53	0.000
240.91	12.500
241.28	0.000
241.65	8.065
242.02	2.632
242.40	-2.899
242.77	-5.797
243.14	5.128
243.51	18.085
243.89	8.654
244.26	18.868
244.63	6.731
245.00	10.417
245.38	11.765
245.75	13.934
246.12	13.534
246.49	13.008
246.87	9.244
247.24	12.838
247.61	8.609
247.98	16.026
248.36	11.834
248.73	8.427
249.10	15.657
249.47	16.667
249.84	16.842
250.22	18.408
250.59	14.953
250.96	20.000
251.33	11.962
251.70	18.828
252.08	15.063
252.45	16.049
252.82	19.011
253.19	18.677
253.56	15.827
253.94	20.996
254.31	14.789
254.68	17.450
255.05	15.842
255.42	16.783
255.79	18.405
256.16	23.028
256.54	16.825
256.91	18.354
257.28	18.553
257.65	14.968
258.02	17.595
258.39	18.713
258.76	16.570
259.14	22.443
259.51	18.539
259.88	18.157
260.25	18.333
260.62	19.101
260.99	21.485
261.36	19.689
261.73	21.481
262.10	18.066
262.47	17.284
262.85	19.154
263.22	19.744
263.59	18.182
263.96	18.978
264.33	18.510
264.70	21.628
265.07	17.593
265.44	20.000
265.81	18.078
266.18	18.223
266.55	19.432
266.92	16.525
267.29	17.901
267.66	20.807
268.03	22.222
268.40	16.949
268.77	19.835
269.14	22.041
269.51	22.587
269.88	16.701
270.25	18.432
270.62	20.492
270.99	17.520
271.36	22.222
271.73	18.474
272.10	23.048
272.47	15.547
272.84	19.291
273.21	20.939
273.58	19.672
273.95	18.868
274.32	16.978
274.69	21.858
275.06	19.611
275.43	19.397
275.80	19.149
276.17	19.890
276.54	17.229
276.91	19.686
277.28	17.690
277.65	20.804
278.02	21.071
278.39	19.538
278.76	19.064
279.13	19.039
279.50	20.172
279.87	18.841
280.23	18.198
280.60	18.166
280.97	19.318
281.34	20.662
281.71	17.724
282.08	20.000
282.45	18.197
282.82	18.211
283.19	20.579
283.56	19.531
283.92	18.654
284.29	17.941
284.66	19.605
285.03	19.381
285.40	19.184
285.77	19.520
286.14	18.997
286.51	20.990
286.87	18.308
287.24	18.437
287.61	18.072
287.98	18.382
288.35	18.033
288.72	17.647
289.08	19.658
289.45	18.209
289.82	19.818
290.19	19.074
290.56	17.472
290.93	17.403
291.29	18.605
291.66	16.530
292.03	18.529
292.40	17.497
292.77	19.277
293.13	17.015
293.50	18.170
293.87	16.000
294.24	15.741
294.60	18.336
294.97	17.063
295.34	16.623
295.71	16.557
296.08	16.492
296.44	16.071
296.81	15.225
297.18	16.500
297.55	15.094
297.91	16.273
298.28	17.676
298.65	15.394
299.02	16.606
299.38	15.951
299.75	16.226
300.12	14.186
300.48	14.620
300.85	16.513
301.22	15.679
301.59	15.493
301.95	15.679
302.32	15.869
302.69	14.463
303.05	14.839
303.42	16.477
303.79	16.614
304.15	15.444
304.52	16.344
304.89	14.729
305.25	17.234
305.62	15.510
305.99	17.084
306.35	17.764
306.72	16.277
307.09	16.475
307.45	17.891
307.82	15.895
308.19	14.838
308.55	16.888
308.92	17.878
309.29	16.617
309.65	16.284
310.02	15.408
310.38	18.191
310.75	17.456
311.12	16.715
311.48	17.310
311.85	17.815
312.22	17.698
312.58	16.715
312.95	16.418
313.31	17.539
313.68	17.366
314.05	17.486
314.41	18.540
314.78	19.260
315.14	20.278
315.51	19.315
315.87	17.887
316.24	18.916
316.61	19.543
316.97	19.167
317.34	19.964
317.70	20.161
318.07	22.360
318.43	20.596
318.80	19.023
319.16	20.424
319.53	21.237
319.89	20.867
320.26	21.257
320.62	21.038
320.99	22.190
321.35	21.141
321.72	21.944
322.08	23.616
322.45	24.052
322.81	24.030
323.18	23.166
323.54	25.000
323.91	23.668
324.27	23.762
324.64	24.042
325.00	24.059
325.37	25.683
325.73	25.084
326.10	24.306
326.46	25.084
326.83	25.000
327.19	26.179
327.56	26.591
327.92	25.744
328.29	27.629
328.65	27.432
329.01	26.121
329.38	28.174
329.74	26.609
330.11	26.871
330.47	25.260
330.84	27.166
331.20	26.644
331.56	27.355
331.93	27.821
332.29	29.192
332.66	26.441
333.02	26.933
333.38	27.105
333.75	26.877
334.11	27.431
334.48	27.899
334.84	28.004
335.20	27.702
335.57	27.502
335.93	27.320
336.29	27.671
336.66	28.376
337.02	26.783
337.38	27.589
337.75	27.735
338.11	26.473
338.47	25.942
338.84	27.577
339.20	27.337
339.56	27.218
339.93	27.571
340.29	27.839
340.65	27.032
341.02	27.454
341.38	28.970
341.74	27.647
342.11	26.012
342.47	27.531
342.83	27.124
343.20	27.834
343.56	27.964
343.92	27.051
344.28	27.597
344.65	27.429
345.01	26.877
345.37	27.714
345.73	27.859
346.10	27.689
346.46	27.642
346.82	28.010
347.19	27.215
347.55	28.029
347.91	27.280
348.27	26.656
348.63	28.045
349.00	27.909
349.36	27.630
349.72	27.688
350.08	28.003
350.45	27.016
350.81	27.387
351.17	29.022
351.53	28.280
351.89	27.482
352.26	26.795
352.62	28.527
352.98	27.716
353.34	29.871
353.70	27.336
354.07	28.392
354.43	27.760
354.79	27.804
355.15	28.028
355.51	27.563
355.87	27.600
356.24	27.929
356.60	26.974
356.96	27.629
357.32	27.554
357.68	29.030
358.04	28.161
358.40	28.295
358.77	28.135
359.13	27.938
359.49	28.312
359.85	28.582
360.21	27.911
360.57	28.517
360.93	28.983
361.29	28.645
361.66	28.094
362.02	27.798
362.38	28.508
362.74	28.499
363.10	28.633
363.46	28.026
363.82	28.086
364.18	27.846
364.54	28.957
364.90	28.014
365.26	28.309
365.62	28.054
365.98	28.327
366.35	28.652
366.71	28.174
367.07	29.199
367.43	27.735
367.79	29.534
368.15	28.270
368.51	28.903
368.87	30.216
369.23	28.612
369.59	28.753
369.95	29.463
370.31	29.428
370.67	29.544
371.03	29.176
371.39	29.524
371.75	29.571
372.11	29.345
372.47	29.921
372.83	28.571
373.19	29.353
373.55	29.913
373.91	30.410
374.27	28.562
374.63	29.090
374.99	29.805
375.35	30.616
375.71	29.144
376.07	29.609
376.42	29.545
376.78	29.789
377.14	29.424
377.50	29.596
377.86	29.084
378.22	29.646
378.58	29.319
378.94	30.063
379.30	29.794
379.66	30.826
380.02	29.596
380.38	28.855
380.74	30.066
381.09	29.493
381.45	29.565
381.81	29.883
382.17	29.616
382.53	29.477
382.89	29.674
383.25	29.506
383.61	29.722
383.97	29.000
384.32	28.733
384.68	29.426
385.04	29.566
385.40	29.328
385.76	29.075
386.12	30.084
386.48	28.777
386.83	29.036
387.19	28.933
387.55	28.878
387.91	29.151
388.27	29.223
388.62	28.277
388.98	29.412
389.34	29.386
389.70	28.327
390.06	28.500
390.42	29.961
390.77	27.931
391.13	28.788
391.49	28.147
391.85	28.882
392.20	27.882
392.56	28.889
392.92	28.321
393.28	28.530
393.64	28.257
393.99	27.968
394.35	28.580
394.71	29.103
395.07	26.101
395.42	28.580
395.78	27.928
396.14	28.345
396.50	28.472
396.85	27.533
397.21	27.466
397.57	27.267
397.92	26.647
398.28	27.186
398.64	27.322
399.00	27.567
399.35	27.980
399.71	26.907
400.07	27.229
400.42	26.395
400.78	26.828
401.14	26.977
401.49	27.262
401.85	26.843
402.21	26.006
402.57	27.652
402.92	27.222
403.28	26.767
403.63	27.154
403.99	26.360
404.35	25.436
404.70	26.284
405.06	26.600
405.42	26.319
405.77	26.325
406.13	25.429
406.49	26.064
406.84	26.618
407.20	25.636
407.55	25.130
407.91	25.678
408.27	25.390
408.62	25.476
408.98	25.709
409.34	25.433
409.69	26.121
410.05	25.560
410.40	25.076
410.76	25.391
411.11	25.808
411.47	26.410
411.83	24.891
412.18	23.804
412.54	25.752
412.89	25.078
413.25	24.366
413.60	24.953
413.96	25.156
414.31	24.661
414.67	25.206
415.03	24.560
415.38	24.240
415.74	24.691
416.09	24.983
416.45	24.060
416.80	25.638
417.16	26.113
417.51	25.988
417.87	25.198
418.22	25.275
418.58	24.179
418.93	25.361
419.29	26.403
419.64	24.555
420.00	24.254
420.35	24.268
420.71	24.741
421.06	24.662
421.42	24.635
421.77	24.566
422.12	24.814
422.48	25.082
422.83	24.867
423.19	25.072
423.54	25.501
423.90	24.703
424.25	25.592
424.61	24.892
424.96	25.488
425.31	25.294
425.67	25.456
426.02	26.266
426.38	25.684
426.73	24.496
427.09	24.578
427.44	25.543
427.79	25.950
428.15	25.138
428.50	24.834
428.85	25.400
429.21	24.086
429.56	25.452
429.92	24.727
430.27	25.562
430.62	24.764
430.98	25.013
431.33	24.772
431.68	26.731
432.04	25.859
432.39	25.635
432.74	25.506
433.10	26.612
433.45	24.201
433.80	25.575
434.16	25.451
434.51	25.326
434.86	25.677
435.22	26.372
435.57	25.430
435.92	25.392
436.28	25.105
436.63	25.635
436.98	26.381
437.34	26.862
437.69	25.148
438.04	25.241
438.39	26.650
438.75	25.983
439.10	26.605
439.45	25.666
439.81	26.601
440.16	27.594
440.51	26.694
440.86	26.082
441.22	26.104
441.57	26.844
441.92	26.387
442.27	26.136
442.63	25.996
442.98	26.505
443.33	27.370
443.68	26.147
444.03	26.577
444.39	27.169
444.74	27.443
445.09	27.478
445.44	26.930
445.79	27.362
446.15	27.399
446.50	27.258
446.85	26.991
447.20	28.228
447.55	28.539
447.91	26.348
448.26	27.216
448.61	28.078
448.96	28.474
449.31	27.470
449.66	27.415
450.02	27.572
450.37	27.673
450.72	26.980
451.07	27.273
451.42	26.513
451.77	27.328
452.12	26.560
452.47	28.276
452.83	27.594
453.18	27.689
453.53	26.356
453.88	27.590
454.23	27.441
454.58	28.064
454.93	27.133
455.28	27.553
455.63	27.199
455.98	27.572
456.34	27.146
456.69	27.093
457.04	27.307
457.39	27.180
457.74	27.947
458.09	27.429
458.44	27.203
458.79	26.634
459.14	26.798
459.49	28.537
459.84	27.396
460.19	26.711
460.54	27.920
460.89	28.097
461.24	26.572
461.59	27.657
461.94	28.003
462.29	27.328
462.64	26.913
462.99	27.767
463.34	28.591
463.69	27.191
464.04	26.891
464.39	27.761
464.74	26.474
465.09	26.906
465.44	27.273
465.79	27.372
466.14	27.822
466.49	27.742
466.84	27.794
467.19	28.153
467.54	28.257
467.89	28.410
468.24	28.150
468.59	27.279
468.94	28.608
469.29	28.817
469.64	28.243
469.99	28.069
470.34	28.051
470.68	27.361
471.03	27.080
471.38	28.025
471.73	28.326
472.08	27.904
472.43	27.902
472.78	27.451
473.13	27.770
473.48	28.115
473.83	28.060
474.17	28.060
474.52	27.832
474.87	27.744
475.22	27.899
475.57	28.555
475.92	28.626
476.27	28.147
476.61	28.256
476.96	27.927
477.31	27.508
477.66	27.797
478.01	26.319
478.36	27.956
478.70	28.733
479.05	28.357
479.40	28.029
479.75	28.427
480.10	28.047
480.45	27.170
480.79	29.019
481.14	28.875
481.49	28.318
481.84	28.275
482.19	28.578
482.53	28.048
482.88	27.756
483.23	27.815
483.58	28.072
483.92	28.599
484.27	27.264
484.62	27.341
484.97	28.204
485.31	27.328
485.66	26.238
486.01	26.015
486.36	26.374
486.70	27.486
487.05	28.250
487.40	28.875
487.75	29.831
488.09	29.747
488.44	29.793
488.79	29.182
489.13	29.225
489.48	28.645
489.83	28.674
490.17	28.370
490.52	29.827
490.87	28.141
491.22	28.545
491.56	28.558
491.91	28.709
492.26	28.385
492.60	28.090
492.95	28.474
493.30	28.052
493.64	27.674
493.99	27.681
494.34	27.938
494.68	28.449
495.03	27.273
495.37	28.078
495.72	28.271
496.07	28.203
496.41	27.188
496.76	27.834
497.11	28.216
497.45	28.551
497.80	28.925
498.14	29.270
498.49	27.887
498.84	28.796
499.18	28.422
499.53	28.311
499.87	28.433
500.22	28.721
500.56	28.586
500.91	29.024
501.26	28.621
501.60	26.912
501.95	28.174
502.29	27.864
502.64	29.026
502.98	28.757
503.33	28.321
503.67	28.384
504.02	28.775
504.36	28.826
504.71	29.319
505.06	29.394
505.40	29.072
505.75	29.502
506.09	29.586
506.44	30.040
506.78	28.593
507.13	29.470
507.47	29.905
507.82	28.938
508.16	29.288
508.51	29.649
508.85	29.705
509.19	29.894
509.54	30.456
509.88	29.462
510.23	29.579
510.57	30.614
510.92	29.957
511.26	29.978
511.61	30.955
511.95	30.265
512.30	30.261
512.64	31.612
512.98	29.307
513.33	31.211
513.67	30.380
514.02	31.186
514.36	30.449
514.70	31.409
515.05	31.422
515.39	31.781
515.74	31.616
516.08	30.501
516.42	30.760
516.77	30.756
517.11	31.511
517.46	32.713
517.80	32.748
518.14	31.047
518.49	32.188
518.83	31.563
519.17	31.928
519.52	32.630
519.86	33.576
520.20	32.080
520.55	31.903
520.89	33.017
521.23	33.269
521.58	33.818
521.92	32.998
522.26	32.010
522.61	33.872
522.95	33.290
523.29	32.635
523.64	34.139
523.98	33.926
524.32	32.640
524.66	34.416
525.01	34.338
525.35	34.167
525.69	33.930
526.04	33.746
526.38	33.588
526.72	33.662
527.06	33.462
527.41	33.488
527.75	33.445
528.09	34.990
528.43	33.514
528.78	34.884
529.12	33.894
529.46	34.101
529.80	34.498
530.15	33.848
530.49	35.310
530.83	35.545
531.17	35.479
531.51	34.592
531.86	33.875
532.20	34.045
532.54	34.621
532.88	35.194
533.22	34.949
533.57	35.430
533.91	36.000
534.25	36.393
534.59	34.556
534.93	33.610
535.27	35.350
535.62	36.184
535.96	36.109
536.30	35.572
536.64	34.997
536.98	34.688
537.32	36.299
537.66	35.896
538.01	35.437
538.35	35.083
538.69	34.849
539.03	34.497
539.37	34.608
539.71	34.584
540.05	34.750
540.39	35.169
540.73	35.754
541.07	35.578
541.42	35.219
541.76	35.386
542.10	34.733
542.44	35.204
542.78	35.670
543.12	34.973
543.46	35.107
543.80	35.574
544.14	36.063
544.48	34.837
544.82	35.844
545.16	36.241
545.50	36.732
545.84	36.115
546.18	34.642
546.52	35.498
546.86	35.053
547.20	35.168
547.54	35.668
547.88	35.223
548.22	35.896
548.56	36.091
548.90	35.927
549.24	36.111
549.58	36.228
549.92	37.124
550.26	37.122
550.60	35.586
550.94	36.493
551.28	36.109
551.62	35.865
551.96	35.871
552.30	34.934
552.64	35.311
552.98	36.364
553.32	37.563
553.66	35.877
554.00	36.213
554.34	35.238
554.68	35.570
555.02	35.629
555.36	36.536
555.69	35.615
556.03	35.311
556.37	34.708
556.71	35.809
557.05	36.236
557.39	36.021
557.73	35.477
558.07	35.720
558.41	35.958
558.75	36.952
559.08	36.247
559.42	37.293
559.76	36.086
560.10	36.587
560.44	36.478
560.78	35.180
561.12	35.249
561.45	35.918
561.79	36.795
562.13	36.217
562.47	36.286
562.81	35.426
563.15	35.269
563.48	35.444
563.82	36.389
564.16	36.561
564.50	35.346
564.84	35.878
565.17	37.152
565.51	35.561
565.85	35.376
566.19	35.298
566.52	34.862
566.86	34.829
567.20	34.698
567.54	34.600
567.88	34.658
568.21	34.383
568.55	34.794
568.89	34.197
569.23	34.464
569.56	34.710
569.90	33.742
570.24	33.357
570.57	33.129
570.91	33.555
571.25	33.153
571.59	33.073
571.92	33.617
572.26	33.799
572.60	34.524
572.93	34.021
573.27	33.070
573.61	33.631
573.95	33.395
574.28	32.998
574.62	32.708
574.96	32.776
575.29	33.501
575.63	33.114
575.97	33.723
576.30	33.205
576.64	33.403
576.98	33.703
577.31	33.168
577.65	32.560
577.98	32.568
578.32	32.284
578.66	32.938
578.99	33.498
579.33	33.158
579.67	33.147
580.00	33.665
580.34	32.986
580.67	33.782
581.01	33.559
581.35	32.832
581.68	32.482
582.02	32.811
582.35	33.094
582.69	33.082
583.02	33.601
583.36	34.558
583.70	34.231
584.03	34.834
584.37	34.973
584.70	34.248
585.04	33.625
585.37	33.876
585.71	33.285
586.04	33.709
586.38	34.386
586.72	34.223
587.05	33.982
587.39	34.021
587.72	34.202
588.06	33.953
588.39	33.865
588.73	34.236
589.06	34.465
589.40	34.434
589.73	33.992
590.07	34.524
590.40	34.608
590.73	35.251
591.07	35.019
591.40	33.913
591.74	35.260
592.07	34.459
592.41	34.835
592.74	33.140
593.08	32.821
593.41	34.265
593.75	33.140
594.08	34.266
594.41	34.406
594.75	33.433
595.08	34.727
595.42	33.536
595.75	34.635
596.09	35.104
596.42	34.069
596.75	34.928
597.09	34.531
597.42	35.352
597.75	34.400
598.09	34.927
598.42	35.034
598.76	33.963
599.09	33.733
599.42	33.346
599.76	34.510
600.09	34.036
600.42	33.861
600.76	34.294
601.09	34.426
601.42	34.261
601.76	33.436
602.09	34.657
602.42	35.080
602.76	34.144
603.09	34.251
603.42	34.626
603.76	34.217
604.09	33.518
604.42	33.445
604.76	34.439
605.09	34.844
605.42	35.178
605.75	33.876
606.09	33.609
606.42	34.580
606.75	34.416
607.09	34.220
607.42	34.019
607.75	33.829
608.08	33.679
608.42	34.114
608.75	35.069
609.08	34.738
609.41	35.519
609.75	34.846
610.08	34.073
610.41	34.208
610.74	33.927
611.07	33.968
611.41	34.545
611.74	34.317
612.07	33.351
612.40	34.919
612.73	35.181
613.07	33.204
613.40	34.967
613.73	34.182
614.06	34.052
614.39	34.408
614.72	34.870
615.06	34.056
615.39	34.106
615.72	33.369
616.05	34.009
616.38	34.479
616.71	34.433
617.05	34.828
617.38	34.935
617.71	33.885
618.04	34.552
618.37	33.817
618.70	35.252
619.03	34.845
619.36	35.516
619.69	34.649
620.03	33.781
620.36	35.351
620.69	33.191
621.02	35.231
621.35	35.159
621.68	35.697
622.01	35.437
622.34	35.289
622.67	34.769
623.00	34.954
623.33	34.555
623.66	34.424
623.99	35.259
624.32	33.969
624.65	34.421
624.99	33.725
625.32	34.130
625.65	33.643
625.98	34.123
626.31	35.347
626.64	34.480
626.97	33.564
627.30	36.356
627.63	34.775
627.96	34.372
628.29	35.442
628.62	35.010
628.95	34.168
629.28	35.074
629.61	35.024
629.94	33.656
630.26	35.764
630.59	35.265
630.92	34.438
631.25	34.295
631.58	35.760
631.91	34.571
632.24	35.456
632.57	35.222
632.90	35.473
633.23	34.053
633.56	36.091
633.89	37.201
634.22	35.807
634.55	36.297
634.88	35.662
635.20	36.125
635.53	34.367
635.86	34.872
636.19	33.127
636.52	34.024
636.85	35.585
637.18	34.348
637.51	33.333
637.83	34.465
638.16	35.333
638.49	33.244
638.82	35.294
639.15	35.106
639.48	34.225
639.81	33.889
640.13	35.915
640.46	36.582
640.79	34.388
641.12	35.207
641.45	34.789
641.77	34.757
642.10	35.098
642.43	35.849
642.76	35.174
643.09	34.185
643.41	36.204
643.74	33.764
644.07	35.113
644.40	33.002
644.73	36.102
645.05	34.729
645.38	32.558
645.71	35.714
646.04	31.313
646.36	35.417
646.69	32.168
647.02	35.883
647.35	36.746
647.67	34.381
648.00	35.507
648.33	34.915
648.66	31.052
648.98	30.901
649.31	33.282
649.64	33.490
649.96	33.965
650.29	33.824
650.62	34.102
650.94	33.621
651.27	34.806
651.60	38.462
651.92	34.588
652.25	31.993
652.58	36.469
652.90	31.987
653.23	32.598
653.56	34.711
653.88	31.399
654.21	34.471
654.54	33.056
654.86	32.195
655.19	30.952
655.52	32.431
655.84	28.285
656.17	33.557
656.49	44.959
656.82	46.026
657.15	36.529
657.47	28.177
657.80	21.376
658.13	23.275
658.45	35.219
658.78	35.634
659.10	36.529
659.43	36.273
659.75	36.088
660.08	35.655
660.41	33.266
660.73	36.226
661.06	34.864
661.38	33.140
661.71	35.041
662.03	37.421
662.36	32.301
662.68	32.258
663.01	33.475
663.33	31.317
663.66	31.707
663.98	33.933
664.31	32.967
664.63	30.856
664.96	35.011
665.28	34.979
665.61	30.886
665.93	32.976
666.26	34.177
666.58	31.263
666.91	37.668
667.23	33.641
667.56	32.184
667.88	33.645
668.21	32.143
668.53	31.954
668.86	35.252
669.18	34.043
669.50	34.101
669.83	30.788
670.15	34.762
670.48	33.333
670.80	35.667
671.13	32.037
671.45	31.507
671.77	30.172
672.10	31.189
672.42	32.443
672.75	31.607
673.07	31.091
673.39	33.396
673.72	32.335
674.04	34.631
674.37	32.317
674.69	31.893
675.01	29.915
675.34	33.260
675.66	33.551
675.98	32.965
676.31	31.222
676.63	32.653
676.95	28.706
677.28	29.358
677.60	33.088
677.92	35.033
678.25	33.623
678.57	31.772
678.89	30.917
679.22	31.056
679.54	33.469
679.86	30.859
680.18	31.923
680.51	30.000
680.83	29.630
681.15	32.220
681.48	31.062
681.80	30.675
682.12	29.583
682.44	29.376
682.77	29.263
683.09	27.679
683.41	31.860
683.73	30.357
684.06	27.655
684.38	29.274
684.70	30.754
685.02	32.025
685.34	31.311
685.67	31.520
685.99	27.936
686.31	33.276
686.63	29.412
686.96	30.427
687.28	28.343
687.60	33.270
687.92	28.794
688.24	30.000
688.56	31.579
688.89	29.621
689.21	28.700
689.53	29.730
689.85	29.888
690.17	32.747
690.49	28.019
690.82	33.413
691.14	31.643
691.46	27.842
691.78	30.110
692.10	32.059
692.42	28.352
692.74	33.043
693.06	27.640
693.39	29.040
693.71	31.333
694.03	31.818
694.35	31.757
694.67	29.000
694.99	30.928
695.31	31.266
695.63	29.512
695.95	30.280
696.27	29.315
696.59	28.495
696.91	26.536
697.23	27.919
697.56	30.456
697.88	28.274
698.20	32.613
698.52	29.907
698.84	31.100
699.16	27.660
699.48	30.864
699.80	28.682
700.12	30.295
700.44	27.887
700.76	30.337
701.08	25.982
701.40	27.246
701.72	29.231
702.04	27.044
702.36	25.915
702.68	27.439
703.00	30.702
703.32	24.791
703.64	29.518
703.96	27.566
704.28	30.422
704.60	27.439
704.91	24.138
705.23	25.316
705.55	26.897
705.87	31.690
706.19	23.443
706.51	25.352
706.83	25.159
707.15	28.963
707.47	25.344
707.79	25.381
708.11	24.165
708.43	26.396
708.74	26.596
709.06	25.668
709.38	25.937
709.70	29.730
710.02	29.595
710.34	27.333
710.66	25.081
710.98	26.625
711.29	30.195
711.61	25.806
711.93	25.806
712.25	27.972
712.57	26.667
712.89	27.473
713.20	29.787
713.52	24.453
713.84	24.194
714.16	23.625
714.48	23.101
714.80	23.323
715.11	25.872
715.43	26.087
715.75	25.776
716.07	26.506
716.39	26.936
716.70	28.417
717.02	19.608
717.34	26.515
717.66	24.138
717.97	26.190
718.29	29.921
718.61	24.464
718.93	22.093
719.24	28.782
719.56	22.097
719.88	23.507
720.20	29.249
720.51	30.469
720.83	26.070
721.15	22.764
721.46	22.519
721.78	24.303
722.10	26.693
722.42	22.177
722.73	25.869
723.05	23.673
723.37	26.471
723.68	22.400
724.00	22.553
724.32	23.849
724.63	27.160
724.95	23.077
725.27	32.911
725.58	26.749
725.90	27.197
726.22	23.551
726.53	23.529
726.85	26.277
727.16	24.815
727.48	27.203
727.80	25.781
728.11	26.230
728.43	25.391
728.74	25.397
729.06	21.600
729.38	25.296
729.69	23.488
730.01	24.907
730.32	24.723
730.64	24.242
730.96	25.524
731.27	20.401
731.59	24.762
731.90	20.065
732.22	20.513
732.53	23.649
732.85	23.490
733.16	27.723
733.48	22.973
733.80	24.324
734.11	25.338
734.43	24.149
734.74	25.225
735.06	24.496
735.37	27.660
735.69	22.654
736.00	25.743
736.32	24.468
736.63	21.034
736.95	23.288
737.26	21.034
737.58	26.389
737.89	19.244
738.21	19.929
738.52	25.475
738.83	23.673
739.15	21.941
739.46	22.179
739.78	16.197
740.09	21.575
740.41	19.643
740.72	25.177
741.04	20.400
741.35	21.053
741.66	25.778
741.98	25.962
742.29	20.297
742.61	19.024
742.92	27.193
743.23	21.698
743.55	24.324
743.86	21.973
744.18	23.039
744.49	28.934
744.80	26.531
745.12	22.430
745.43	16.588
745.74	24.324
746.06	22.897
746.37	24.312
746.68	23.077
747.00	24.402
747.31	22.115
747.62	25.229
747.94	24.017
748.25	24.771
748.56	28.000
748.88	27.230
749.19	20.952
749.50	16.990
749.82	23.005
750.13	16.250
750.44	25.000
750.75	22.509
751.07	25.267
751.38	22.340
751.69	22.008
752.01	23.047
752.32	21.154
752.63	20.896
752.94	22.800
753.26	20.921
753.57	20.000
753.88	21.457
754.19	21.116
754.51	21.429
754.82	21.612
755.13	16.522
755.44	22.358
755.75	23.200
756.07	21.402
756.38	19.065
756.69	24.573
757.00	23.364
757.31	23.301
757.63	22.840
757.94	20.621
758.25	25.397
758.56	23.641
758.87	24.107
759.18	26.498
759.50	23.906
759.81	22.408
760.12	20.615
760.43	19.643
760.74	18.927
761.05	21.547
761.36	20.917
761.67	20.544
761.99	19.588
762.30	19.708
762.61	21.811
762.92	25.641
763.23	26.639
763.54	21.212
763.85	22.449
764.16	20.732
764.47	20.000
764.78	21.429
765.10	22.951
765.41	18.845
765.72	19.255
766.03	22.442
766.34	22.308
766.65	25.941
766.96	20.188
767.27	19.802
767.58	10.674
767.89	18.519
768.20	22.099
768.51	22.613
768.82	21.154
769.13	22.124
769.44	23.849
769.75	14.530
770.06	18.834
770.37	23.529
770.68	19.903
770.99	17.476
771.30	19.328
771.61	20.408
771.92	22.407
772.23	19.820
772.54	16.022
772.85	18.605
773.16	24.339
773.47	8.284
773.78	21.264
774.09	11.875
774.39	26.087
774.70	27.211
775.01	14.483
775.32	23.571
775.63	9.023
775.94	9.774
776.25	16.000
776.56	19.008
776.87	14.286
777.18	13.514
777.48	11.712
777.79	16.535
778.10	21.101
778.41	6.140
778.72	21.849
779.03	4.930
779.34	19.595
779.65	11.268
779.95	19.868
780.26	8.633
780.57	13.669
780.88	14.085
781.19	0.000
781.50	16.779
781.80	18.713
782.11	13.953
782.42	21.384
782.73	21.569
783.04	15.172
783.34	11.450
783.65	14.094
783.96	21.538
784.27	15.714
784.57	13.475
784.88	5.769
785.19	25.455
785.50	15.455
785.81	8.571
786.11	14.286
786.42	18.584
786.73	12.264
787.04	11.927
787.34	8.911
787.65	15.833
787.96	13.223
788.26	17.391
788.57	16.667
788.88	15.447
789.19	15.200
789.49	12.977
789.80	21.970
790.11	13.208
790.41	15.842
790.72	11.702
791.03	4.348
791.33	3.529
791.64	9.877
791.95	13.043
792.25	20.455
792.56	25.641
792.87	5.128
793.17	-5.128
793.48	2.381
793.79	13.750
794.09	24.038
794.40	6.250
794.70	23.423
795.01	14.063
795.32	13.913
795.62	-6.522
795.93	2.830
796.23	12.121
796.54	9.756
796.85	4.762
797.15	10.606
797.46	5.797
797.76	6.579
798.07	6.818
798.37	20.732
798.68	-9.677
798.99	9.459
799.29	14.458
799.60	8.974
799.90	15.385
800.21	13.636
800.51	-1.333
800.82	14.667
801.12	-31.250
801.43	-3.333
801.73	5.405
802.04	21.429
802.34	-1.639
802.65	10.448
802.95	12.727
803.26	12.069
803.56	9.231
803.87	20.755
804.17	16.129
804.48	1.471
804.78	-14.634
805.09	14.493
805.39	-5.882
805.70	-2.128
806.00	15.789
806.30	8.974
806.61	15.789
806.91	17.568
807.22	-3.947
807.52	5.682
807.83	-15.254
808.13	-15.152
808.43	5.000
808.74	-25.862
809.04	7.937
809.35	4.082
809.65	-5.000
809.95	-18.367
810.26	15.493
810.56	-6.250
810.86	6.122
811.17	5.769
811.47	-4.255
811.77	-20.833
812.08	-15.094
812.38	-21.875
812.69	-12.727
812.99	-19.512
813.29	-13.514
813.59	-40.541
813.90	-3.636
814.20	-1.818
814.50	-18.333
814.81	7.273
815.11	1.754
815.41	-6.977
815.72	-22.500
816.02	-17.143
816.32	2.703
816.62	14.583
816.93	-13.333
817.23	-40.000
817.53	-25.000
817.84	-16.216
818.14	-2.439
818.44	30.000
818.74	0.000
819.04	2.439
819.35	-19.444
819.65	9.091
819.95	-83.333
820.25	-21.212
820.56	-14.286
820.86	-41.667
821.16	-2.273
821.46	-2.174
821.76	-12.069
822.07	4.348
822.37	12.121
822.67	17.073
822.97	0.000
823.27	5.714
823.57	17.241
823.88	5.882
824.18	-30.556
824.48	-2.857
824.78	14.286
825.08	0.000
825.38	-25.926
825.69	6.452
825.99	0.000
826.29	-18.519
826.59	-40.625
826.89	-9.677
827.19	-78.261
827.49	-30.556
827.79	-73.913
828.09	-6.452
828.39	-6.250
828.70	-31.250
829.00	-31.034
829.30	10.811
829.60	-41.667
829.90	-14.815
830.20	21.875
830.50	-9.091
830.80	-88.235
831.10	-13.636
831.40	-29.412
831.70	-19.231
832.00	-9.091
832.30	-5.882
832.60	2.703
832.90	800.000
833.20	-14.286
833.50	-65.000
833.80	-7.895
834.10	-29.167
834.40	-68.182
834.70	-146.667
835.00	-220.000
835.30	-25.000
835.60	-33.333
835.90	-28.571
836.20	-36.000
836.50	-12.500
836.80	-84.211
837.10	21.622
837.40	-3.333
837.70	-39.130
838.00	16.667
838.30	10.526
838.60	0.000
838.90	-190.000
839.19	-108.333
839.49	-92.308
839.79	-31.579
840.09	-216.667
840.39	-40.000
840.69	-45.455
840.99	-19.048
841.29	-66.667
841.59	-130.769
841.88	-66.667
842.18	-64.286
842.48	26.667
842.78	-300.000
843.08	-150.000
843.38	-162.500
843.68	-62.500
843.97	14.286
844.27	-222.222
844.57	-100.000
844.87	-80.000
845.17	-4.545
845.47	1000.000
845.76	-53.333
846.06	-175.000
846.36	-1250.000
846.66	-31.579
846.96	-18.182
847.25	-83.333
847.55	-188.889
847.85	-85.714
848.15	-61.538
848.44	-150.000
848.74	-108.333
849.04	-61.538
849.34	-400.000
849.63	-190.909
849.93	-164.286
850.23	0.000
850.53	-200.000
850.82	-61.111
851.12	-53.333
851.42	-64.706
851.71	-62.500
852.01	-35.294
852.31	-92.308
852.61	800.000
852.90	5.882
853.20	0.000
853.50	-75.000
853.79	-164.286
854.09	-175.000
854.39	-65.000
854.68	-10.000
854.98	-42.857
855.28	-36.000
855.57	8.333
855.87	-4.167
856.17	-4.000
856.46	-34.375
856.76	15.000
857.05	-4.000
857.35	-83.333
857.65	-70.588
857.94	-141.667
858.24	-116.667
858.53	-45.000
858.83	-90.909
859.13	-12.000
859.42	-85.714
859.72	-225.000
860.01	8.333
860.31	-175.000
860.60	-43.750
860.90	-116.667
861.20	-83.333
861.49	-33.333
861.79	-50.000
862.08	450.000
862.38	33.333
862.67	371.429
862.97	375.000
863.26	-81.818
863.56	-36.364
863.85	0.000
864.15	-52.941
864.44	-120.000
864.74	-160.000
865.03	-66.667
865.33	-64.286
865.62	164.286
865.92	-52.632
866.21	-61.111
866.51	-63.636
866.80	-100.000
867.10	-150.000
867.39	-18.750
867.69	-73.333
867.98	-60.000
868.27	-41.176
868.57	0.000
868.86	950.000
869.16	-400.000
869.45	-128.571
869.75	400.000
870.04	-80.000
870.33	-1100.000
870.63	-5.263
870.92	-66.667
871.22	-1600.000
871.51	-228.571
871.80	-133.333
872.10	-125.000
>>>>>End Processed Spectral Data<<<<<
