SpectraSuite Data File
++++++++++++++++++++++++++++++++++++
Date: Tue May 12 16:06:08 PDT 2015
User: schluterlab
Dark Spectrum Present: Yes
Reference Spectrum Present: Yes
Number of Sampled Component Spectra: 1
Spectrometers: USB2E3373
Integration Time (usec): 3000 (USB2E3373)
Spectra Averaged: 3 (USB2E3373)
Boxcar Smoothing: 0 (USB2E3373)
Correct for Electrical Dark: No (USB2E3373)
Strobe/Lamp Enabled: No (USB2E3373)
Correct for Detector Non-linearity: No (USB2E3373)
Correct for Stray Light: No (USB2E3373)
Number of Pixels in Processed Spectrum: 2048
>>>>>Begin Processed Spectral Data<<<<<
178.53	0.000
178.91	-233.333
179.29	-650.000
179.67	-4000.000
180.04	-160.000
180.42	650.000
180.80	1650.000
181.18	0.000
181.56	-250.000
181.94	0.000
182.31	1000.000
182.69	-2700.000
183.07	585.714
183.45	-4400.000
183.83	-1650.000
184.20	440.000
184.58	528.571
184.96	-253.846
185.34	-250.000
185.72	1900.000
186.09	-750.000
186.47	-3300.000
186.85	1100.000
187.23	700.000
187.61	2300.000
187.98	600.000
188.36	250.000
188.74	366.667
189.12	366.667
189.49	1075.000
189.87	0.000
190.25	537.500
190.63	3300.000
191.00	-275.000
191.38	-4200.000
191.76	-900.000
192.14	612.500
192.51	-2600.000
192.89	2200.000
193.27	1466.667
193.65	-1200.000
194.02	-740.000
194.40	571.429
194.78	-257.143
195.15	273.333
195.53	-3200.000
195.91	-660.000
196.29	4400.000
196.66	275.000
197.04	1000.000
197.42	-1550.000
197.79	700.000
198.17	316.667
198.55	0.000
198.92	428.571
199.30	1333.333
199.68	2350.000
200.05	650.000
200.43	-583.333
200.81	216.667
201.18	3200.000
201.56	300.000
201.94	-800.000
202.31	-400.000
202.69	-680.000
203.07	4000.000
203.44	-650.000
203.82	383.333
204.19	920.000
204.57	-1850.000
204.95	-975.000
205.32	-640.000
205.70	733.333
206.08	1050.000
206.45	-1100.000
206.83	455.556
207.20	210.526
207.58	358.333
207.96	840.000
208.33	0.000
208.71	657.143
209.08	760.000
209.46	-3200.000
209.84	-675.000
210.21	960.000
210.59	-500.000
210.96	433.333
211.34	-1150.000
211.71	400.000
212.09	925.000
212.46	1750.000
212.84	-350.000
213.22	411.111
213.59	-3700.000
213.97	360.000
214.34	975.000
214.72	1100.000
215.09	1100.000
215.47	-3400.000
215.84	-420.000
216.22	-487.500
216.59	0.000
216.97	0.000
217.34	1500.000
217.72	-1750.000
218.09	1533.333
218.47	512.500
218.84	1000.000
219.22	1066.667
219.59	800.000
219.97	585.714
220.34	488.889
220.72	1800.000
221.09	3800.000
221.47	308.333
221.84	1066.667
222.22	320.000
222.59	283.333
222.97	264.286
223.34	256.250
223.72	-1950.000
224.09	966.667
224.46	276.923
224.84	-900.000
225.21	544.444
225.59	253.333
225.96	1100.000
226.34	-820.000
226.71	-1025.000
227.08	-540.000
227.46	0.000
227.83	-650.000
228.21	-2000.000
228.58	358.333
228.95	1075.000
229.33	366.667
229.70	1050.000
230.08	346.154
230.45	3900.000
230.82	-1075.000
231.20	-766.667
231.57	-1233.333
231.95	640.000
232.32	350.000
232.69	766.667
233.07	216.667
233.44	-1700.000
233.81	306.667
234.19	192.593
234.56	306.250
234.93	229.412
235.31	225.000
235.68	325.000
236.05	160.714
236.43	177.778
236.80	250.000
237.17	168.966
237.55	153.125
237.92	117.500
238.29	145.455
238.67	156.250
239.04	109.756
239.41	116.667
239.79	152.500
240.16	127.083
240.53	81.967
240.91	88.406
241.28	111.864
241.65	83.333
242.02	98.592
242.40	95.714
242.77	82.418
243.14	67.089
243.51	83.838
243.89	78.505
244.26	74.766
244.63	82.178
245.00	73.394
245.38	62.712
245.75	71.212
246.12	69.630
246.49	63.830
246.87	57.377
247.24	58.000
247.61	65.000
247.98	63.265
248.36	56.970
248.73	56.122
249.10	57.143
249.47	52.500
249.84	61.194
250.22	62.162
250.59	53.500
250.96	54.008
251.33	59.070
251.70	53.571
252.08	52.101
252.45	51.394
252.82	49.430
253.19	53.755
253.56	51.154
253.94	49.275
254.31	51.938
254.68	50.174
255.05	55.862
255.42	52.555
255.79	49.837
256.16	54.915
256.54	51.623
256.91	50.980
257.28	47.492
257.65	48.276
258.02	48.673
258.39	49.857
258.76	47.826
259.14	46.000
259.51	50.437
259.88	52.584
260.25	45.055
260.62	47.123
260.99	43.251
261.36	47.911
261.73	47.340
262.10	46.859
262.47	48.000
262.85	47.467
263.22	49.100
263.59	45.013
263.96	47.619
264.33	44.691
264.70	44.226
265.07	48.049
265.44	44.037
265.81	46.226
266.18	44.622
266.55	48.463
266.92	45.861
267.29	44.956
267.66	46.637
268.03	45.516
268.40	44.186
268.77	48.018
269.14	43.384
269.51	47.216
269.88	43.061
270.25	43.844
270.62	43.348
270.99	45.233
271.36	45.528
271.73	44.235
272.10	41.616
272.47	46.032
272.84	42.914
273.21	42.769
273.58	42.105
273.95	44.353
274.32	43.385
274.69	45.276
275.06	41.348
275.43	44.061
275.80	44.151
276.17	42.096
276.54	41.869
276.91	43.657
277.28	42.883
277.65	42.251
278.02	43.750
278.39	42.806
278.76	42.586
279.13	45.018
279.50	42.000
279.87	42.644
280.23	40.700
280.60	41.788
280.97	42.414
281.34	42.904
281.71	41.391
282.08	41.709
282.45	40.034
282.82	42.308
283.19	41.812
283.56	40.496
283.92	43.160
284.29	40.932
284.66	41.008
285.03	41.791
285.40	42.645
285.77	37.500
286.14	40.248
286.51	42.178
286.87	38.766
287.24	39.940
287.61	40.426
287.98	41.493
288.35	41.037
288.72	40.364
289.08	40.541
289.45	40.244
289.82	39.688
290.19	40.703
290.56	43.959
290.93	38.993
291.29	41.575
291.66	40.537
292.03	41.234
292.40	39.702
292.77	41.365
293.13	40.942
293.50	41.161
293.87	39.024
294.24	41.259
294.60	41.723
294.97	42.238
295.34	42.364
295.71	39.947
296.08	42.933
296.44	41.804
296.81	41.191
297.18	40.051
297.55	40.394
297.91	39.286
298.28	41.063
298.65	42.086
299.02	41.858
299.38	42.926
299.75	40.244
300.12	41.399
300.48	42.389
300.85	42.431
301.22	41.512
301.59	43.042
301.95	42.590
302.32	41.676
302.69	43.326
303.05	43.996
303.42	41.592
303.79	43.445
304.15	42.244
304.52	41.860
304.89	41.578
305.25	44.494
305.62	43.390
305.99	42.935
306.35	44.000
306.72	43.496
307.09	42.340
307.45	43.506
307.82	41.975
308.19	44.742
308.55	42.700
308.92	42.787
309.29	44.675
309.65	43.905
310.02	45.030
310.38	45.464
310.75	44.937
311.12	44.157
311.48	45.174
311.85	44.084
312.22	45.463
312.58	44.412
312.95	46.117
313.31	46.536
313.68	45.591
314.05	47.253
314.41	48.603
314.78	48.011
315.14	48.720
315.51	48.250
315.87	47.263
316.24	49.020
316.61	47.896
316.97	47.798
317.34	48.787
317.70	47.498
318.07	48.843
318.43	49.033
318.80	49.562
319.16	49.476
319.53	50.531
319.89	51.254
320.26	52.048
320.62	51.557
320.99	52.240
321.35	50.742
321.72	53.605
322.08	53.555
322.45	54.042
322.81	52.882
323.18	54.440
323.54	54.704
323.91	55.848
324.27	54.642
324.64	55.882
325.00	57.328
325.37	56.577
325.73	57.167
326.10	58.989
326.46	57.803
326.83	58.240
327.19	59.277
327.56	58.786
327.92	60.000
328.29	60.065
328.65	61.301
329.01	60.393
329.38	60.152
329.74	61.144
330.11	61.251
330.47	61.807
330.84	58.930
331.20	60.406
331.56	62.003
331.93	61.334
332.29	61.139
332.66	62.075
333.02	60.825
333.38	62.565
333.75	61.718
334.11	61.661
334.48	62.137
334.84	59.291
335.20	61.506
335.57	59.530
335.93	60.976
336.29	58.955
336.66	61.664
337.02	60.821
337.38	60.705
337.75	61.402
338.11	60.844
338.47	61.558
338.84	59.441
339.20	60.779
339.56	60.807
339.93	59.783
340.29	59.244
340.65	60.771
341.02	60.016
341.38	59.442
341.74	60.631
342.11	58.848
342.47	59.885
342.83	61.444
343.20	60.226
343.56	58.936
343.92	61.189
344.28	58.692
344.65	61.043
345.01	59.524
345.37	58.333
345.73	60.159
346.10	57.610
346.46	60.207
346.82	59.259
347.19	59.042
347.55	59.094
347.91	58.761
348.27	58.404
348.63	59.652
349.00	59.939
349.36	59.377
349.72	58.563
350.08	60.171
350.45	58.492
350.81	59.251
351.17	58.398
351.53	58.122
351.89	58.974
352.26	58.352
352.62	57.843
352.98	59.893
353.34	59.091
353.70	57.722
354.07	58.692
354.43	57.066
354.79	57.707
355.15	58.576
355.51	58.912
355.87	60.241
356.24	59.507
356.60	57.839
356.96	59.136
357.32	58.402
357.68	57.636
358.04	60.030
358.40	58.471
358.77	59.279
359.13	58.934
359.49	58.340
359.85	59.717
360.21	58.915
360.57	58.540
360.93	59.740
361.29	59.163
361.66	59.135
362.02	57.884
362.38	59.019
362.74	58.528
363.10	59.607
363.46	56.837
363.82	59.327
364.18	57.966
364.54	59.371
364.90	58.367
365.26	59.473
365.62	59.323
365.98	57.880
366.35	58.483
366.71	58.917
367.07	58.567
367.43	58.764
367.79	59.309
368.15	58.752
368.51	59.132
368.87	58.696
369.23	58.559
369.59	57.653
369.95	60.559
370.31	57.563
370.67	59.334
371.03	59.174
371.39	59.695
371.75	59.316
372.11	59.483
372.47	60.342
372.83	58.736
373.19	59.973
373.55	59.519
373.91	59.323
374.27	58.598
374.63	58.915
374.99	59.501
375.35	60.215
375.71	60.026
376.07	59.814
376.42	58.504
376.78	60.629
377.14	59.961
377.50	58.801
377.86	60.282
378.22	58.988
378.58	60.533
378.94	59.988
379.30	60.522
379.66	60.325
380.02	59.531
380.38	59.836
380.74	60.554
381.09	59.871
381.45	59.306
381.81	59.338
382.17	59.402
382.53	61.428
382.89	60.438
383.25	59.680
383.61	59.539
383.97	60.768
384.32	60.880
384.68	61.200
385.04	60.023
385.40	58.956
385.76	60.679
386.12	61.410
386.48	61.702
386.83	61.002
387.19	60.188
387.55	60.836
387.91	60.566
388.27	60.916
388.62	60.505
388.98	60.466
389.34	59.369
389.70	61.380
390.06	60.854
390.42	59.901
390.77	61.486
391.13	60.048
391.49	60.859
391.85	62.154
392.20	61.263
392.56	61.171
392.92	62.044
393.28	61.043
393.64	60.206
393.99	61.292
394.35	61.154
394.71	60.072
395.07	60.584
395.42	60.012
395.78	62.184
396.14	60.663
396.50	61.011
396.85	60.915
397.21	61.552
397.57	60.909
397.92	59.908
398.28	60.673
398.64	61.838
399.00	59.754
399.35	59.742
399.71	60.265
400.07	60.160
400.42	60.537
400.78	60.880
401.14	60.188
401.49	61.175
401.85	60.487
402.21	60.281
402.57	61.281
402.92	60.970
403.28	59.189
403.63	59.564
403.99	61.279
404.35	60.492
404.70	61.488
405.06	60.584
405.42	60.682
405.77	60.970
406.13	59.056
406.49	58.613
406.84	59.616
407.20	59.532
407.55	60.492
407.91	61.391
408.27	59.430
408.62	60.083
408.98	59.018
409.34	59.556
409.69	60.734
410.05	58.974
410.40	60.188
410.76	60.332
411.11	59.182
411.47	60.247
411.83	59.110
412.18	59.541
412.54	59.760
412.89	59.764
413.25	60.661
413.60	59.171
413.96	60.203
414.31	60.508
414.67	61.949
415.03	59.834
415.38	60.631
415.74	61.023
416.09	60.837
416.45	61.280
416.80	61.129
417.16	59.325
417.51	60.255
417.87	60.576
418.22	60.328
418.58	61.274
418.93	61.452
419.29	60.382
419.64	60.690
420.00	60.203
420.35	60.859
420.71	60.385
421.06	60.447
421.42	60.852
421.77	61.133
422.12	60.695
422.48	59.219
422.83	62.667
423.19	60.205
423.54	60.230
423.90	62.174
424.25	61.365
424.61	60.534
424.96	61.321
425.31	61.412
425.67	63.075
426.02	61.526
426.38	60.793
426.73	62.117
427.09	62.633
427.44	61.227
427.79	63.236
428.15	62.522
428.50	63.429
428.85	63.139
429.21	62.453
429.56	61.815
429.92	61.959
430.27	60.958
430.62	59.520
430.98	61.727
431.33	61.946
431.68	59.951
432.04	62.390
432.39	63.557
432.74	64.813
433.10	63.400
433.45	64.273
433.80	64.699
434.16	62.743
434.51	63.983
434.86	63.745
435.22	62.669
435.57	63.723
435.92	65.282
436.28	64.919
436.63	63.533
436.98	65.484
437.34	63.299
437.69	62.990
438.04	65.108
438.39	63.806
438.75	63.808
439.10	64.868
439.45	62.917
439.81	64.777
440.16	64.337
440.51	64.189
440.86	66.496
441.22	63.799
441.57	65.144
441.92	63.425
442.27	64.433
442.63	64.075
442.98	64.116
443.33	64.328
443.68	64.135
444.03	64.232
444.39	65.301
444.74	64.286
445.09	66.245
445.44	64.187
445.79	66.033
446.15	65.105
446.50	65.084
446.85	65.388
447.20	63.930
447.55	66.504
447.91	65.424
448.26	65.442
448.61	66.556
448.96	66.776
449.31	65.677
449.66	65.725
450.02	64.668
450.37	66.297
450.72	66.116
451.07	65.445
451.42	65.382
451.77	67.297
452.12	66.194
452.47	66.950
452.83	66.085
453.18	66.967
453.53	66.726
453.88	66.971
454.23	66.531
454.58	65.967
454.93	66.217
455.28	66.769
455.63	67.553
455.98	66.667
456.34	68.085
456.69	67.195
457.04	66.587
457.39	66.057
457.74	67.005
458.09	65.525
458.44	66.375
458.79	66.101
459.14	66.230
459.49	67.327
459.84	66.522
460.19	65.593
460.54	66.781
460.89	66.738
461.24	65.006
461.59	67.347
461.94	65.662
462.29	67.391
462.64	67.211
462.99	65.963
463.34	66.883
463.69	66.667
464.04	67.185
464.39	66.342
464.74	67.116
465.09	67.034
465.44	65.778
465.79	65.705
466.14	65.183
466.49	66.251
466.84	65.998
467.19	66.491
467.54	65.706
467.89	67.782
468.24	67.748
468.59	67.857
468.94	67.633
469.29	67.318
469.64	67.974
469.99	66.131
470.34	67.679
470.68	68.414
471.03	70.247
471.38	67.483
471.73	67.342
472.08	68.558
472.43	67.660
472.78	67.414
473.13	66.208
473.48	67.421
473.83	66.902
474.17	68.207
474.52	67.180
474.87	66.174
475.22	67.733
475.57	66.317
475.92	65.917
476.27	65.724
476.61	66.971
476.96	66.405
477.31	67.404
477.66	69.243
478.01	67.096
478.36	68.435
478.70	67.295
479.05	66.893
479.40	66.865
479.75	65.988
480.10	67.764
480.45	65.686
480.79	66.959
481.14	67.760
481.49	66.194
481.84	66.711
482.19	67.205
482.53	65.481
482.88	66.308
483.23	66.125
483.58	67.460
483.92	68.464
484.27	66.481
484.62	68.379
484.97	66.225
485.31	65.330
485.66	65.024
486.01	63.225
486.36	62.389
486.70	61.598
487.05	62.294
487.40	63.058
487.75	63.874
488.09	63.295
488.44	64.532
488.79	64.700
489.13	66.368
489.48	66.680
489.83	66.264
490.17	65.731
490.52	67.829
490.87	64.957
491.22	67.863
491.56	67.194
491.91	66.980
492.26	66.102
492.60	68.200
492.95	67.195
493.30	67.061
493.64	68.733
493.99	66.816
494.34	66.203
494.68	67.021
495.03	67.670
495.37	66.862
495.72	68.392
496.07	67.161
496.41	66.203
496.76	66.146
497.11	67.052
497.45	66.681
497.80	66.358
498.14	67.221
498.49	67.317
498.84	66.729
499.18	66.956
499.53	67.203
499.87	66.442
500.22	66.928
500.56	67.734
500.91	67.440
501.26	67.019
501.60	66.302
501.95	66.353
502.29	66.133
502.64	66.784
502.98	66.385
503.33	66.904
503.67	65.563
504.02	65.428
504.36	66.425
504.71	67.928
505.06	67.949
505.40	67.525
505.75	66.604
506.09	66.309
506.44	66.729
506.78	67.344
507.13	66.311
507.47	66.279
507.82	67.835
508.16	66.340
508.51	68.019
508.85	67.949
509.19	68.771
509.54	67.627
509.88	67.777
510.23	66.961
510.57	65.637
510.92	69.730
511.26	69.026
511.61	66.913
511.95	67.596
512.30	67.000
512.64	68.432
512.98	68.580
513.33	68.391
513.67	67.892
514.02	67.740
514.36	68.120
514.70	68.053
515.05	68.887
515.39	70.230
515.74	70.093
516.08	69.009
516.42	69.563
516.77	69.120
517.11	68.800
517.46	68.265
517.80	67.723
518.14	69.915
518.49	68.467
518.83	67.692
519.17	68.441
519.52	70.180
519.86	69.809
520.20	69.863
520.55	68.626
520.89	69.655
521.23	69.626
521.58	69.306
521.92	69.563
522.26	70.024
522.61	71.717
522.95	71.291
523.29	68.772
523.64	68.902
523.98	70.305
524.32	69.319
524.66	69.507
525.01	69.822
525.35	69.122
525.69	70.680
526.04	69.482
526.38	70.630
526.72	68.556
527.06	67.771
527.41	70.133
527.75	69.811
528.09	68.031
528.43	69.738
528.78	70.781
529.12	71.343
529.46	69.550
529.80	68.633
530.15	67.943
530.49	68.712
530.83	69.531
531.17	69.619
531.51	68.853
531.86	68.539
532.20	68.171
532.54	69.994
532.88	69.831
533.22	68.617
533.57	69.616
533.91	68.590
534.25	68.148
534.59	69.064
534.93	66.837
535.27	67.388
535.62	66.744
535.96	67.199
536.30	69.653
536.64	69.068
536.98	69.226
537.32	68.688
537.66	68.048
538.01	68.854
538.35	67.873
538.69	68.689
539.03	67.226
539.37	67.597
539.71	67.778
540.05	68.185
540.39	68.365
540.73	68.734
541.07	68.695
541.42	67.910
541.76	67.941
542.10	68.496
542.44	66.833
542.78	68.597
543.12	66.994
543.46	66.792
543.80	69.424
544.14	67.492
544.48	67.214
544.82	68.135
545.16	67.456
545.50	67.732
545.84	68.245
546.18	68.661
546.52	68.131
546.86	67.054
547.20	66.925
547.54	67.574
547.88	67.275
548.22	67.274
548.56	65.056
548.90	65.955
549.24	68.604
549.58	66.237
549.92	68.893
550.26	68.966
550.60	67.465
550.94	69.064
551.28	67.931
551.62	68.828
551.96	67.568
552.30	66.777
552.64	68.803
552.98	66.817
553.32	67.350
553.66	65.472
554.00	66.474
554.34	68.975
554.68	69.153
555.02	67.346
555.36	65.758
555.69	66.492
556.03	66.115
556.37	66.985
556.71	67.797
557.05	65.531
557.39	67.467
557.73	67.790
558.07	67.069
558.41	68.334
558.75	65.937
559.08	69.049
559.42	69.435
559.76	68.282
560.10	66.690
560.44	66.357
560.78	66.816
561.12	66.497
561.45	66.834
561.79	65.668
562.13	64.750
562.47	67.489
562.81	66.428
563.15	66.710
563.48	64.348
563.82	66.875
564.16	65.609
564.50	65.160
564.84	65.714
565.17	63.458
565.51	66.626
565.85	66.811
566.19	64.881
566.52	64.862
566.86	64.740
567.20	65.449
567.54	63.701
567.88	64.319
568.21	62.856
568.55	61.527
568.89	63.367
569.23	61.432
569.56	61.701
569.90	59.720
570.24	59.693
570.57	59.539
570.91	59.158
571.25	58.867
571.59	58.037
571.92	57.158
572.26	56.146
572.60	57.567
572.93	58.626
573.27	58.558
573.61	58.311
573.95	57.271
574.28	57.974
574.62	56.917
574.96	56.103
575.29	55.626
575.63	56.678
575.97	55.404
576.30	56.492
576.64	57.091
576.98	56.234
577.31	57.088
577.65	56.393
577.98	56.148
578.32	55.115
578.66	56.143
578.99	56.451
579.33	55.728
579.67	55.943
580.00	56.478
580.34	55.007
580.67	55.861
581.01	56.682
581.35	55.893
581.68	55.009
582.02	55.468
582.35	55.044
582.69	54.832
583.02	55.602
583.36	56.106
583.70	56.237
584.03	57.494
584.37	56.663
584.70	56.755
585.04	56.127
585.37	55.861
585.71	56.427
586.04	54.759
586.38	55.734
586.72	55.624
587.05	55.687
587.39	56.131
587.72	56.599
588.06	56.370
588.39	56.218
588.73	55.925
589.06	56.989
589.40	58.216
589.73	56.441
590.07	58.133
590.40	57.944
590.73	58.098
591.07	59.393
591.40	57.924
591.74	58.320
592.07	57.529
592.41	58.313
592.74	57.268
593.08	56.738
593.41	56.822
593.75	56.281
594.08	55.929
594.41	56.077
594.75	56.027
595.08	56.344
595.42	56.287
595.75	55.874
596.09	56.274
596.42	57.210
596.75	57.572
597.09	57.532
597.42	58.531
597.75	57.404
598.09	56.750
598.42	57.160
598.76	56.631
599.09	56.896
599.42	55.467
599.76	55.393
600.09	55.085
600.42	56.595
600.76	54.861
601.09	56.679
601.42	55.790
601.76	56.570
602.09	55.445
602.42	56.007
602.76	56.774
603.09	57.919
603.42	55.853
603.76	56.435
604.09	56.678
604.42	55.706
604.76	57.290
605.09	56.286
605.42	56.278
605.75	56.810
606.09	55.930
606.42	56.144
606.75	55.616
607.09	55.507
607.42	55.605
607.75	56.369
608.08	56.093
608.42	56.502
608.75	56.483
609.08	56.797
609.41	57.545
609.75	56.914
610.08	57.239
610.41	55.687
610.74	56.147
611.07	57.981
611.41	57.414
611.74	56.979
612.07	56.744
612.40	57.212
612.73	57.813
613.07	56.766
613.40	58.246
613.73	58.063
614.06	55.850
614.39	56.818
614.72	56.404
615.06	55.589
615.39	56.535
615.72	56.196
616.05	57.007
616.38	55.809
616.71	56.864
617.05	56.398
617.38	56.629
617.71	58.324
618.04	56.758
618.37	56.809
618.70	56.697
619.03	57.448
619.36	59.045
619.69	59.894
620.03	59.165
620.36	59.216
620.69	58.685
621.02	60.598
621.35	58.166
621.68	58.997
622.01	59.852
622.34	59.578
622.67	59.059
623.00	58.067
623.33	57.625
623.66	59.082
623.99	58.699
624.32	59.350
624.65	57.801
624.99	59.905
625.32	58.317
625.65	57.931
625.98	56.485
626.31	59.496
626.64	60.213
626.97	59.679
627.30	59.394
627.63	60.204
627.96	59.624
628.29	60.561
628.62	59.196
628.95	61.436
629.28	62.489
629.61	61.863
629.94	58.513
630.26	61.352
630.59	62.145
630.92	60.987
631.25	60.834
631.58	62.295
631.91	61.560
632.24	61.613
632.57	60.118
632.90	64.286
633.23	63.064
633.56	62.803
633.89	62.594
634.22	62.863
634.55	63.118
634.88	62.760
635.20	64.013
635.53	63.995
635.86	64.206
636.19	62.402
636.52	60.324
636.85	60.518
637.18	64.030
637.51	62.011
637.83	62.929
638.16	64.713
638.49	64.790
638.82	63.732
639.15	64.512
639.48	65.166
639.81	64.591
640.13	64.785
640.46	66.625
640.79	64.369
641.12	62.467
641.45	63.260
641.77	66.050
642.10	63.186
642.43	67.141
642.76	64.631
643.09	64.553
643.41	63.114
643.74	64.892
644.07	66.372
644.40	64.645
644.73	66.517
645.05	67.608
645.38	66.003
645.71	66.009
646.04	67.786
646.36	67.449
646.69	66.560
647.02	68.640
647.35	63.780
647.67	64.344
648.00	67.264
648.33	61.805
648.66	64.091
648.98	61.594
649.31	60.189
649.64	60.581
649.96	62.020
650.29	60.571
650.62	66.127
650.94	63.705
651.27	66.826
651.60	64.319
651.92	63.441
652.25	66.772
652.58	61.702
652.90	63.772
653.23	62.186
653.56	63.056
653.88	60.793
654.21	63.636
654.54	62.079
654.86	62.242
655.19	59.894
655.52	54.685
655.84	42.709
656.17	49.546
656.49	70.816
656.82	81.253
657.15	64.673
657.47	48.931
657.80	36.598
658.13	28.866
658.45	39.516
658.78	47.585
659.10	48.764
659.43	49.479
659.75	53.506
660.08	55.952
660.41	59.165
660.73	63.739
661.06	64.715
661.38	66.440
661.71	66.007
662.03	67.110
662.36	64.190
662.68	62.756
663.01	65.766
663.33	63.585
663.66	66.864
663.98	65.873
664.31	64.179
664.63	63.793
664.96	65.478
665.28	64.783
665.61	66.226
665.93	65.472
666.26	64.299
666.58	64.587
666.91	63.707
667.23	63.052
667.56	67.351
667.88	66.183
668.21	64.549
668.53	65.927
668.86	65.331
669.18	66.395
669.50	63.636
669.83	66.940
670.15	65.904
670.48	61.328
670.80	64.143
671.13	62.749
671.45	63.727
671.77	63.451
672.10	62.657
672.42	58.388
672.75	59.494
673.07	59.300
673.39	58.307
673.72	60.208
674.04	61.828
674.37	61.887
674.69	62.082
675.01	60.448
675.34	62.984
675.66	63.086
675.98	63.314
676.31	62.000
676.63	62.624
676.95	63.095
677.28	62.475
677.60	63.581
677.92	61.706
678.25	62.403
678.57	62.756
678.89	61.664
679.22	60.110
679.54	58.719
679.86	59.511
680.18	59.930
680.51	57.877
680.83	57.601
681.15	59.445
681.48	60.938
681.80	58.319
682.12	60.035
682.44	58.919
682.77	57.473
683.09	60.777
683.41	62.245
683.73	59.646
684.06	60.913
684.38	61.822
684.70	57.014
685.02	56.771
685.34	59.859
685.67	57.074
685.99	56.814
686.31	55.778
686.63	56.098
686.96	56.209
687.28	55.034
687.60	58.191
687.92	55.779
688.24	57.069
688.56	56.762
688.89	57.361
689.21	60.501
689.53	62.253
689.85	57.927
690.17	60.000
690.49	60.685
690.82	61.765
691.14	57.172
691.46	60.575
691.78	58.480
692.10	59.160
692.42	55.354
692.74	59.496
693.06	59.690
693.39	61.067
693.71	58.546
694.03	58.383
694.35	59.839
694.67	57.637
694.99	59.645
695.31	58.333
695.63	61.538
695.95	59.955
696.27	59.735
696.59	59.905
696.91	61.519
697.23	61.312
697.56	55.809
697.88	55.689
698.20	54.151
698.52	56.420
698.84	57.495
699.16	58.209
699.48	58.051
699.80	61.656
700.12	60.508
700.44	58.411
700.76	62.053
701.08	59.008
701.40	60.779
701.72	62.567
702.04	63.957
702.36	61.290
702.68	63.830
703.00	58.647
703.32	58.313
703.64	62.217
703.96	59.375
704.28	62.434
704.60	65.634
704.91	61.625
705.23	62.784
705.55	65.579
705.87	65.397
706.19	64.263
706.51	68.339
706.83	62.242
707.15	60.428
707.47	60.048
707.79	56.322
708.11	59.184
708.43	55.281
708.74	57.240
709.06	56.744
709.38	56.328
709.70	57.766
710.02	57.880
710.34	64.641
710.66	60.833
710.98	61.749
711.29	58.496
711.61	57.382
711.93	61.702
712.25	58.434
712.57	64.630
712.89	58.788
713.20	65.176
713.52	62.305
713.84	63.142
714.16	57.101
714.48	57.349
714.80	57.995
715.11	55.851
715.43	58.939
715.75	55.775
716.07	59.538
716.39	59.714
716.70	59.502
717.02	64.646
717.34	63.669
717.66	62.500
717.97	68.561
718.29	64.437
718.61	56.419
718.93	56.401
719.24	64.430
719.56	60.000
719.88	55.732
720.20	57.742
720.51	61.765
720.83	56.522
721.15	58.163
721.46	61.301
721.78	63.763
722.10	60.764
722.42	61.538
722.73	62.455
723.05	60.351
723.37	60.777
723.68	60.937
724.00	60.606
724.32	60.456
724.63	63.462
724.95	63.137
725.27	62.082
725.58	62.868
725.90	61.620
726.22	59.247
726.53	62.542
726.85	56.678
727.16	63.423
727.48	59.468
727.80	60.791
728.11	63.571
728.43	59.783
728.74	59.091
729.06	56.272
729.38	61.053
729.69	60.333
730.01	60.197
730.32	59.396
730.64	64.452
730.96	56.456
731.27	51.376
731.59	53.736
731.90	52.368
732.22	52.571
732.53	53.276
732.85	57.602
733.16	53.012
733.48	57.367
733.80	50.725
734.11	60.429
734.43	55.848
734.74	51.475
735.06	55.291
735.37	50.773
735.69	54.783
736.00	55.352
736.32	56.667
736.63	54.574
736.95	53.106
737.26	55.488
737.58	55.521
737.89	52.410
738.21	54.305
738.52	59.197
738.83	62.271
739.15	54.355
739.46	50.690
739.78	58.844
740.09	57.143
740.41	53.067
740.72	56.190
741.04	62.587
741.35	59.375
741.66	60.079
741.98	61.803
742.29	63.426
742.61	56.637
742.92	60.169
743.23	58.800
743.55	56.604
743.86	55.686
744.18	60.593
744.49	55.372
744.80	62.673
745.12	63.393
745.43	66.355
745.74	64.444
746.06	57.018
746.37	60.930
746.68	68.584
747.00	58.744
747.31	55.462
747.62	54.508
747.94	63.948
748.25	59.533
748.56	61.017
748.88	62.054
749.19	60.000
749.50	57.078
749.82	58.436
750.13	55.731
750.44	51.333
750.75	53.356
751.07	53.289
751.38	55.116
751.69	53.872
752.01	54.545
752.32	56.811
752.63	55.705
752.94	56.643
753.26	58.984
753.57	57.198
753.88	56.929
754.19	57.401
754.51	54.485
754.82	53.020
755.13	55.068
755.44	60.370
755.75	56.014
756.07	56.164
756.38	52.941
756.69	50.313
757.00	50.148
757.31	52.676
757.63	47.934
757.94	48.670
758.25	46.377
758.56	46.911
758.87	49.875
759.18	55.233
759.50	55.015
759.81	50.148
760.12	49.719
760.43	50.700
760.74	49.367
761.05	49.072
761.36	50.521
761.67	52.291
761.99	53.239
762.30	50.804
762.61	53.125
762.92	53.788
763.23	56.226
763.54	52.308
763.85	51.362
764.16	54.514
764.47	49.324
764.78	52.117
765.10	52.744
765.41	48.011
765.72	47.790
766.03	50.755
766.34	56.794
766.65	58.175
766.96	55.466
767.27	62.150
767.58	61.881
767.89	64.641
768.20	73.171
768.51	56.122
768.82	64.474
769.13	52.941
769.44	50.376
769.75	47.191
770.06	55.462
770.37	56.140
770.68	58.222
770.99	55.932
771.30	55.230
771.61	53.462
771.92	51.145
772.23	52.823
772.54	55.111
772.85	61.881
773.16	59.783
773.47	61.667
773.78	59.406
774.09	63.068
774.39	66.061
774.70	64.118
775.01	62.500
775.32	65.839
775.63	63.699
775.94	69.753
776.25	70.345
776.56	70.992
776.87	70.992
777.18	70.455
777.48	82.677
777.79	64.615
778.10	78.030
778.41	74.627
778.72	72.932
779.03	58.333
779.34	60.811
779.65	58.385
779.95	62.112
780.26	60.119
780.57	69.388
780.88	69.504
781.19	77.500
781.50	69.231
781.80	60.656
782.11	65.608
782.42	59.770
782.73	58.192
783.04	63.226
783.34	67.442
783.65	59.184
783.96	61.290
784.27	55.629
784.57	59.211
784.88	72.464
785.19	65.833
785.50	75.862
785.81	70.543
786.11	62.222
786.42	68.504
786.73	74.775
787.04	75.472
787.34	65.041
787.65	67.424
787.96	67.424
788.26	66.929
788.57	73.723
788.88	60.563
789.19	65.649
789.49	65.541
789.80	66.406
790.11	69.421
790.41	68.519
790.72	68.519
791.03	80.769
791.33	79.798
791.64	81.053
791.95	75.789
792.25	84.375
792.56	75.000
792.87	84.146
793.17	81.818
793.48	81.176
793.79	83.908
794.09	80.682
794.40	72.414
794.70	68.254
795.01	56.154
795.32	64.885
795.62	60.684
795.93	68.067
796.23	63.415
796.54	71.429
796.85	80.682
797.15	101.299
797.46	87.805
797.76	77.500
798.07	98.667
798.37	85.000
798.68	86.250
798.99	90.244
799.29	78.667
799.60	66.279
799.90	96.053
800.21	86.364
800.51	91.549
800.82	112.069
801.12	93.846
801.43	94.667
801.73	87.931
802.04	102.597
802.34	83.562
802.65	103.922
802.95	115.217
803.26	108.065
803.56	120.000
803.87	85.075
804.17	93.651
804.48	109.434
804.78	91.667
805.09	95.455
805.39	90.476
805.70	114.035
806.00	74.286
806.30	100.000
806.61	83.529
806.91	83.333
807.22	71.739
807.52	81.579
807.83	86.842
808.13	92.754
808.43	95.161
808.74	90.411
809.04	117.857
809.35	98.529
809.65	96.970
809.95	129.412
810.26	133.333
810.56	104.688
810.86	118.367
811.17	107.018
811.47	104.348
811.77	98.276
812.08	84.483
812.38	121.429
812.69	114.286
812.99	93.333
813.29	148.571
813.59	174.194
813.90	103.448
814.20	96.721
814.50	112.000
814.81	110.526
815.11	118.519
815.41	100.000
815.72	101.786
816.02	122.000
816.32	124.390
816.62	108.621
816.93	145.455
817.23	104.878
817.53	114.286
817.84	108.889
818.14	130.952
818.44	127.083
818.74	103.774
819.04	125.641
819.35	151.515
819.65	115.385
819.95	133.333
820.25	119.149
820.56	135.135
820.86	131.579
821.16	95.745
821.46	118.421
821.76	103.636
822.07	111.905
822.37	118.421
822.67	139.535
822.97	94.737
823.27	113.043
823.57	162.500
823.88	143.590
824.18	142.424
824.48	217.391
824.78	138.889
825.08	169.565
825.38	210.345
825.69	129.412
825.99	106.383
826.29	102.778
826.59	174.286
826.89	180.000
827.19	125.714
827.49	132.258
827.79	146.154
828.09	133.333
828.39	130.556
828.70	105.405
829.00	167.857
829.30	281.250
829.60	130.556
829.90	167.742
830.20	115.152
830.50	151.351
830.80	241.667
831.10	173.077
831.40	214.286
831.70	183.333
832.00	150.000
832.30	191.304
832.60	208.333
832.90	175.758
833.20	230.000
833.50	142.105
833.80	152.941
834.10	113.158
834.40	173.684
834.70	136.667
835.00	192.000
835.30	129.730
835.60	156.250
835.90	154.054
836.20	150.000
836.50	168.182
836.80	104.878
837.10	178.261
837.40	300.000
837.70	215.789
838.00	166.667
838.30	208.333
838.60	212.000
838.90	330.000
839.19	225.000
839.49	176.667
839.79	182.759
840.09	153.846
840.39	286.667
840.69	210.526
840.99	147.619
841.29	169.565
841.59	245.000
841.88	204.000
842.18	433.333
842.48	189.286
842.78	196.296
843.08	300.000
843.38	190.909
843.68	271.429
843.97	428.571
844.27	130.435
844.57	1550.000
844.87	257.143
845.17	238.889
845.47	209.524
845.76	212.500
846.06	557.143
846.36	211.765
846.66	307.692
846.96	237.500
847.25	338.462
847.55	242.105
847.85	266.667
848.15	660.000
848.44	400.000
848.74	166.667
849.04	187.500
849.34	235.294
849.63	225.000
849.93	275.000
850.23	1100.000
850.53	500.000
850.82	245.455
851.12	229.412
851.42	187.500
851.71	231.250
852.01	0.000
852.31	211.765
852.61	420.000
852.90	154.167
853.20	377.778
853.50	-3100.000
853.79	172.000
854.09	143.750
854.39	141.379
854.68	158.621
854.98	247.619
855.28	138.710
855.57	357.143
855.87	222.222
856.17	166.667
856.46	226.316
856.76	109.677
857.05	270.588
857.35	381.818
857.65	238.462
857.94	155.000
858.24	488.889
858.53	357.143
858.83	657.143
859.13	195.652
859.42	333.333
859.72	550.000
860.01	283.333
860.31	1050.000
860.60	440.000
860.90	487.500
861.20	315.385
861.49	457.143
861.79	-3300.000
862.08	528.571
862.38	511.111
862.67	250.000
862.97	380.000
863.26	150.000
863.56	875.000
863.85	307.692
864.15	270.588
864.44	261.111
864.74	300.000
865.03	281.818
865.33	525.000
865.62	293.333
865.92	566.667
866.21	925.000
866.51	680.000
866.80	216.667
867.10	1400.000
867.39	4700.000
867.69	820.000
867.98	850.000
868.27	171.429
868.57	280.000
868.86	1000.000
869.16	161.905
869.45	3000.000
869.75	-500.000
870.04	1000.000
870.33	840.000
870.63	537.500
870.92	258.824
871.22	1000.000
871.51	542.857
871.80	408.333
872.10	338.462
>>>>>End Processed Spectral Data<<<<<
