SpectraSuite Data File
++++++++++++++++++++++++++++++++++++
Date: Wed May 13 21:50:18 PDT 2015
User: schluterlab
Dark Spectrum Present: Yes
Reference Spectrum Present: Yes
Number of Sampled Component Spectra: 1
Spectrometers: USB2E3373
Integration Time (usec): 3000 (USB2E3373)
Spectra Averaged: 3 (USB2E3373)
Boxcar Smoothing: 0 (USB2E3373)
Correct for Electrical Dark: No (USB2E3373)
Strobe/Lamp Enabled: No (USB2E3373)
Correct for Detector Non-linearity: No (USB2E3373)
Correct for Stray Light: No (USB2E3373)
Number of Pixels in Processed Spectrum: 2048
>>>>>Begin Processed Spectral Data<<<<<
178.53	0.000
178.91	150.000
179.29	175.000
179.67	-650.000
180.04	-433.333
180.42	220.000
180.80	1700.000
181.18	233.333
181.56	-375.000
181.94	-225.000
182.31	0.000
182.69	76.923
183.07	-200.000
183.45	333.333
183.83	88.889
184.20	242.857
184.58	-33.333
184.96	366.667
185.34	185.714
185.72	0.000
186.09	-1300.000
186.47	-280.000
186.85	-0.000
187.23	-300.000
187.61	300.000
187.98	1500.000
188.36	-37.500
188.74	0.000
189.12	-109.091
189.49	-20.000
189.87	108.333
190.25	480.000
190.63	1000.000
191.00	-180.000
191.38	300.000
191.76	325.000
192.14	158.333
192.51	-21.053
192.89	366.667
193.27	450.000
193.65	-160.000
194.02	172.727
194.40	200.000
194.78	-400.000
195.15	220.000
195.53	-160.000
195.91	-50.000
196.29	-400.000
196.66	0.000
197.04	650.000
197.42	-40.000
197.79	-70.000
198.17	-187.500
198.55	-433.333
198.92	125.000
199.30	-133.333
199.68	20.000
200.05	600.000
200.43	266.667
200.81	-1200.000
201.18	-340.000
201.56	-200.000
201.94	500.000
202.31	13.043
202.69	-42.857
203.07	-533.333
203.44	-140.000
203.82	-633.333
204.19	-70.000
204.57	0.000
204.95	-233.333
205.32	0.000
205.70	-450.000
206.08	-450.000
206.45	-100.000
206.83	500.000
207.20	-500.000
207.58	-120.000
207.96	-1200.000
208.33	-71.429
208.71	-1200.000
209.08	50.000
209.46	275.000
209.84	0.000
210.21	80.000
210.59	1100.000
210.96	200.000
211.34	1700.000
211.71	-750.000
212.09	-150.000
212.46	-120.000
212.84	-100.000
213.22	-200.000
213.59	-1200.000
213.97	-850.000
214.34	-400.000
214.72	23.077
215.09	237.500
215.47	188.889
215.84	1100.000
216.22	-112.500
216.59	-300.000
216.97	833.333
217.34	133.333
217.72	0.000
218.09	633.333
218.47	-400.000
218.84	-200.000
219.22	-150.000
219.59	-366.667
219.97	-300.000
220.34	-87.500
220.72	-20.000
221.09	0.000
221.47	0.000
221.84	-300.000
222.22	0.000
222.59	800.000
222.97	-266.667
223.34	-108.333
223.72	-600.000
224.09	-800.000
224.46	-72.727
224.84	-62.500
225.21	-85.714
225.59	-250.000
225.96	-116.667
226.34	-20.000
226.71	-71.429
227.08	850.000
227.46	-50.000
227.83	-500.000
228.21	-12.500
228.58	-325.000
228.95	-11.765
229.33	-43.750
229.70	-62.500
230.08	-38.462
230.45	-87.500
230.82	-83.333
231.20	114.286
231.57	-475.000
231.95	1600.000
232.32	-25.000
232.69	-35.294
233.07	-2400.000
233.44	-34.783
233.81	-400.000
234.19	0.000
234.56	6.667
234.93	-40.000
235.31	-5.263
235.68	-100.000
236.05	-76.923
236.43	-33.333
236.80	0.000
237.17	-26.667
237.55	23.529
237.92	-17.241
238.29	-7.407
238.67	-11.111
239.04	-22.581
239.41	0.000
239.79	2.128
240.16	6.977
240.53	5.357
240.91	7.143
241.28	7.143
241.65	17.742
242.02	13.158
242.40	30.435
242.77	5.797
243.14	23.077
243.51	13.830
243.89	15.385
244.26	19.811
244.63	12.500
245.00	23.958
245.38	20.168
245.75	27.869
246.12	27.820
246.49	11.382
246.87	21.849
247.24	26.351
247.61	21.854
247.98	21.154
248.36	21.893
248.73	16.292
249.10	22.222
249.47	21.505
249.84	25.263
250.22	26.368
250.59	25.234
250.96	23.636
251.33	16.746
251.70	24.268
252.08	23.013
252.45	26.337
252.82	27.376
253.19	22.957
253.56	21.942
253.94	29.181
254.31	23.239
254.68	25.503
255.05	24.752
255.42	24.476
255.79	26.380
256.16	25.868
256.54	25.079
256.91	20.570
257.28	26.101
257.65	24.204
258.02	21.114
258.39	25.146
258.76	23.547
259.14	24.716
259.51	23.034
259.88	25.474
260.25	28.056
260.62	25.281
260.99	27.056
261.36	26.943
261.73	25.926
262.10	27.735
262.47	27.160
262.85	25.622
263.22	24.872
263.59	26.753
263.96	27.251
264.33	25.481
264.70	26.744
265.07	25.694
265.44	30.345
265.81	25.400
266.18	28.246
266.55	26.201
266.92	26.907
267.29	25.103
267.66	27.813
268.03	27.778
268.40	23.941
268.77	28.306
269.14	24.082
269.51	26.694
269.88	23.218
270.25	25.636
270.62	26.025
270.99	27.756
271.36	25.198
271.73	27.108
272.10	23.238
272.47	26.296
272.84	26.772
273.21	27.202
273.58	25.205
273.95	26.226
274.32	25.373
274.69	26.958
275.06	27.739
275.43	26.930
275.80	24.823
276.17	24.309
276.54	25.577
276.91	26.132
277.28	23.466
277.65	25.699
278.02	26.786
278.39	24.334
278.76	25.920
279.13	24.528
279.50	27.586
279.87	25.000
280.23	26.847
280.60	27.682
280.97	26.136
281.34	27.918
281.71	25.854
282.08	26.154
282.45	26.066
282.82	25.240
283.19	26.524
283.56	26.563
283.92	25.382
284.29	25.429
284.66	27.183
285.03	25.081
285.40	24.018
285.77	26.276
286.14	24.316
286.51	27.886
286.87	25.077
287.24	24.041
287.61	24.096
287.98	24.559
288.35	23.249
288.72	25.968
289.08	26.211
289.45	23.789
289.82	26.778
290.19	24.123
290.56	23.011
290.93	21.961
291.29	22.572
291.66	23.770
292.03	22.343
292.40	21.803
292.77	23.427
293.13	22.594
293.50	24.052
293.87	23.600
294.24	21.296
294.60	22.757
294.97	23.148
295.34	21.108
295.71	22.339
296.08	20.288
296.44	22.321
296.81	21.072
297.18	23.875
297.55	22.642
297.91	21.242
298.28	22.276
298.65	20.320
299.02	21.856
299.38	22.822
299.75	19.952
300.12	19.535
300.48	21.053
300.85	19.746
301.22	20.790
301.59	21.479
301.95	19.164
302.32	21.937
302.69	19.209
303.05	19.491
303.42	20.114
303.79	20.715
304.15	21.687
304.52	21.720
304.89	20.930
305.25	19.210
305.62	19.957
305.99	20.131
306.35	20.585
306.72	19.939
307.09	21.689
307.45	19.702
307.82	21.368
308.19	20.063
308.55	21.085
308.92	21.709
309.29	21.021
309.65	21.179
310.02	20.676
310.38	21.341
310.75	20.020
311.12	22.060
311.48	21.958
311.85	21.949
312.22	23.017
312.58	22.609
312.95	23.184
313.31	22.498
313.68	21.756
314.05	24.008
314.41	22.863
314.78	24.099
315.14	21.759
315.51	24.167
315.87	23.818
316.24	24.702
316.61	25.297
316.97	25.370
317.34	24.421
317.70	26.048
318.07	25.998
318.43	26.558
318.80	25.480
319.16	26.172
319.53	27.330
319.89	26.739
320.26	28.189
320.62	27.155
320.99	27.519
321.35	28.344
321.72	29.644
322.08	30.258
322.45	30.342
322.81	29.482
323.18	29.070
323.54	30.866
323.91	31.075
324.27	31.053
324.64	29.878
325.00	31.496
325.37	32.167
325.73	31.145
326.10	31.876
326.46	33.110
326.83	33.576
327.19	33.171
327.56	34.166
327.92	33.146
328.29	34.891
328.65	33.830
329.01	34.741
329.38	34.435
329.74	33.906
330.11	34.175
330.47	33.767
330.84	34.477
331.20	34.500
331.56	35.598
331.93	34.798
332.29	36.924
332.66	34.661
333.02	34.579
333.38	35.614
333.75	34.300
334.11	34.549
334.48	36.356
334.84	34.717
335.20	34.220
335.57	35.509
335.93	34.794
336.29	35.639
336.66	34.957
337.02	35.391
337.38	34.465
337.75	34.109
338.11	34.159
338.47	34.161
338.84	35.223
339.20	35.979
339.56	35.666
339.93	34.399
340.29	33.903
340.65	35.843
341.02	34.110
341.38	36.486
341.74	33.025
342.11	36.086
342.47	35.397
342.83	34.804
343.20	35.448
343.56	35.159
343.92	35.418
344.28	34.984
344.65	35.510
345.01	33.818
345.37	36.020
345.73	35.539
346.10	34.912
346.46	35.285
346.82	35.152
347.19	34.335
347.55	34.572
347.91	34.996
348.27	34.227
348.63	34.776
349.00	34.670
349.36	35.793
349.72	33.333
350.08	33.697
350.45	35.709
350.81	35.603
351.17	35.335
351.53	34.014
351.89	34.551
352.26	33.205
352.62	34.341
352.98	35.942
353.34	34.783
353.70	36.059
354.07	34.039
354.43	34.370
354.79	35.176
355.15	36.180
355.51	34.624
355.87	35.496
356.24	35.233
356.60	34.089
356.96	34.689
357.32	34.288
357.68	36.058
358.04	34.833
358.40	35.349
358.77	34.251
359.13	35.331
359.49	35.276
359.85	33.738
360.21	34.773
360.57	35.133
360.93	35.053
361.29	35.751
361.66	36.295
362.02	34.470
362.38	34.638
362.74	34.010
363.10	34.779
363.46	34.582
363.82	36.364
364.18	34.735
364.54	34.209
364.90	34.843
365.26	34.536
365.62	34.801
365.98	35.018
366.35	35.319
366.71	34.522
367.07	35.365
367.43	35.331
367.79	35.441
368.15	35.302
368.51	34.318
368.87	34.822
369.23	34.093
369.59	35.025
369.95	35.486
370.31	34.658
370.67	34.540
371.03	35.709
371.39	35.415
371.75	35.143
372.11	34.615
372.47	34.463
372.83	34.882
373.19	35.540
373.55	35.043
373.91	34.724
374.27	33.887
374.63	34.922
374.99	34.401
375.35	35.342
375.71	34.986
376.07	35.915
376.42	35.695
376.78	35.205
377.14	36.475
377.50	35.398
377.86	35.126
378.22	34.387
378.58	34.678
378.94	36.312
379.30	36.415
379.66	34.155
380.02	34.681
380.38	34.578
380.74	35.266
381.09	34.982
381.45	35.973
381.81	35.983
382.17	34.342
382.53	34.769
382.89	35.585
383.25	36.111
383.61	35.835
383.97	34.875
384.32	34.216
384.68	35.904
385.04	34.392
385.40	35.928
385.76	35.949
386.12	35.507
386.48	35.172
386.83	34.668
387.19	35.534
387.55	35.500
387.91	35.670
388.27	35.635
388.62	35.331
388.98	35.857
389.34	36.090
389.70	35.165
390.06	35.500
390.42	35.374
390.77	36.003
391.13	35.354
391.49	34.535
391.85	35.399
392.20	34.649
392.56	35.238
392.92	35.284
393.28	34.863
393.64	36.758
393.99	34.272
394.35	34.630
394.71	34.744
395.07	33.459
395.42	35.405
395.78	34.170
396.14	34.940
396.50	35.574
396.85	36.138
397.21	35.643
397.57	34.410
397.92	33.832
398.28	34.518
398.64	33.940
399.00	34.877
399.35	34.279
399.71	35.236
400.07	34.217
400.42	35.361
400.78	34.924
401.14	33.906
401.49	33.313
401.85	34.521
402.21	35.356
402.57	34.580
402.92	35.294
403.28	34.897
403.63	33.664
403.99	33.397
404.35	33.978
404.70	33.958
405.06	34.880
405.42	34.171
405.77	34.274
406.13	34.286
406.49	34.572
406.84	34.066
407.20	34.103
407.55	34.740
407.91	34.216
408.27	32.626
408.62	34.991
408.98	33.909
409.34	33.911
409.69	34.568
410.05	33.396
410.40	33.658
410.76	33.454
411.11	34.080
411.47	35.435
411.83	33.624
412.18	33.060
412.54	33.772
412.89	33.480
413.25	33.333
413.60	33.793
413.96	33.770
414.31	34.834
414.67	34.857
415.03	34.100
415.38	33.554
415.74	33.788
416.09	34.633
416.45	34.723
416.80	33.490
417.16	33.873
417.51	34.762
417.87	34.259
418.22	33.872
418.58	33.509
418.93	34.526
419.29	34.719
419.64	33.461
420.00	34.730
420.35	33.772
420.71	33.943
421.06	34.071
421.42	35.341
421.77	34.277
422.12	34.327
422.48	34.624
422.83	35.027
423.19	34.963
423.54	35.100
423.90	34.264
424.25	35.586
424.61	35.059
424.96	35.009
425.31	34.212
425.67	34.685
426.02	33.569
426.38	35.012
426.73	34.453
427.09	35.084
427.44	34.175
427.79	35.214
428.15	35.168
428.50	34.562
428.85	35.055
429.21	33.877
429.56	35.388
429.92	35.450
430.27	34.560
430.62	35.414
430.98	36.224
431.33	35.895
431.68	35.996
432.04	34.704
432.39	34.873
432.74	35.009
433.10	35.793
433.45	35.444
433.80	35.862
434.16	34.681
434.51	35.598
434.86	36.867
435.22	36.333
435.57	35.749
435.92	35.887
436.28	35.375
436.63	35.970
436.98	36.016
437.34	36.935
437.69	36.068
438.04	34.975
438.39	36.301
438.75	36.293
439.10	36.032
439.45	35.412
439.81	35.899
440.16	36.174
440.51	36.266
440.86	36.277
441.22	36.259
441.57	37.093
441.92	36.910
442.27	36.742
442.63	37.621
442.98	35.995
443.33	36.005
443.68	35.213
444.03	36.314
444.39	36.440
444.74	37.714
445.09	35.022
445.44	36.563
445.79	36.448
446.15	36.439
446.50	36.399
446.85	35.863
447.20	36.958
447.55	36.486
447.91	36.067
448.26	35.963
448.61	36.536
448.96	36.162
449.31	36.836
449.66	36.206
450.02	37.067
450.37	36.486
450.72	36.510
451.07	35.862
451.42	36.432
451.77	37.188
452.12	36.423
452.47	36.217
452.83	36.616
453.18	37.110
453.53	36.066
453.88	36.928
454.23	35.909
454.58	35.784
454.93	36.562
455.28	37.508
455.63	36.806
455.98	38.284
456.34	36.618
456.69	36.038
457.04	35.913
457.39	37.823
457.74	36.625
458.09	37.085
458.44	36.310
458.79	36.079
459.14	35.730
459.49	37.622
459.84	36.471
460.19	35.234
460.54	36.253
460.89	36.937
461.24	36.683
461.59	36.473
461.94	37.105
462.29	36.336
462.64	37.269
462.99	37.357
463.34	38.260
463.69	37.049
464.04	35.414
464.39	36.852
464.74	35.811
465.09	36.082
465.44	36.251
465.79	36.343
466.14	36.089
466.49	37.654
466.84	36.820
467.19	36.433
467.54	37.589
467.89	37.398
468.24	37.246
468.59	36.456
468.94	36.973
469.29	35.426
469.64	37.029
469.99	36.828
470.34	36.480
470.68	36.877
471.03	36.671
471.38	36.648
471.73	36.831
472.08	37.045
472.43	36.478
472.78	37.255
473.13	35.488
473.48	36.269
473.83	35.782
474.17	37.500
474.52	36.828
474.87	36.429
475.22	35.990
475.57	37.702
475.92	36.369
476.27	35.781
476.61	36.523
476.96	37.122
477.31	36.516
477.66	37.175
478.01	36.209
478.36	36.076
478.70	36.412
479.05	37.236
479.40	37.129
479.75	36.823
480.10	36.614
480.45	36.439
480.79	37.033
481.14	37.133
481.49	37.839
481.84	36.569
482.19	36.174
482.53	36.952
482.88	35.858
483.23	35.900
483.58	36.106
483.92	36.770
484.27	36.185
484.62	35.952
484.97	36.831
485.31	36.568
485.66	35.059
486.01	36.071
486.36	36.147
486.70	37.631
487.05	37.529
487.40	37.204
487.75	37.066
488.09	36.972
488.44	36.768
488.79	36.980
489.13	35.109
489.48	36.640
489.83	36.534
490.17	36.768
490.52	36.886
490.87	35.883
491.22	37.918
491.56	37.374
491.91	36.918
492.26	36.702
492.60	36.604
492.95	36.540
493.30	36.095
493.64	36.019
493.99	37.005
494.34	37.139
494.68	36.468
495.03	36.413
495.37	36.545
495.72	37.093
496.07	35.801
496.41	36.500
496.76	36.700
497.11	36.854
497.45	36.625
497.80	36.749
498.14	37.733
498.49	36.359
498.84	37.045
499.18	36.784
499.53	36.731
499.87	36.536
500.22	38.079
500.56	37.111
500.91	37.173
501.26	36.749
501.60	36.667
501.95	37.422
502.29	37.184
502.64	37.898
502.98	36.175
503.33	37.226
503.67	37.731
504.02	37.059
504.36	37.395
504.71	37.449
505.06	37.596
505.40	37.629
505.75	37.386
506.09	37.506
506.44	36.744
506.78	37.481
507.13	36.798
507.47	36.903
507.82	37.206
508.16	37.045
508.51	36.983
508.85	36.910
509.19	37.407
509.54	37.105
509.88	37.151
510.23	36.895
510.57	37.129
510.92	37.500
511.26	37.569
511.61	37.980
511.95	37.817
512.30	37.535
512.64	38.309
512.98	37.839
513.33	37.690
513.67	37.195
514.02	37.514
514.36	37.135
514.70	37.067
515.05	38.327
515.39	37.795
515.74	36.945
516.08	36.637
516.42	36.290
516.77	36.321
517.11	36.802
517.46	38.655
517.80	38.801
518.14	37.048
518.49	37.251
518.83	37.112
519.17	37.952
519.52	37.394
519.86	38.191
520.20	36.507
520.55	37.313
520.89	37.761
521.23	38.269
521.58	38.432
521.92	36.141
522.26	36.825
522.61	37.298
522.95	37.953
523.29	36.762
523.64	38.017
523.98	38.945
524.32	37.618
524.66	37.857
525.01	38.794
525.35	38.249
525.69	37.111
526.04	37.264
526.38	37.731
526.72	38.067
527.06	36.686
527.41	37.326
527.75	37.116
528.09	39.278
528.43	37.924
528.78	37.145
529.12	37.387
529.46	37.812
529.80	37.994
530.15	36.744
530.49	37.871
530.83	37.576
531.17	38.767
531.51	38.301
531.86	36.856
532.20	38.939
532.54	37.517
532.88	38.870
533.22	37.576
533.57	37.748
533.91	38.710
534.25	38.672
534.59	37.709
534.93	37.372
535.27	37.134
535.62	38.618
535.96	38.386
536.30	38.165
536.64	36.842
536.98	37.071
537.32	37.794
537.66	38.999
538.01	38.488
538.35	36.809
538.69	36.589
539.03	36.242
539.37	36.955
539.71	36.698
540.05	36.640
540.39	36.545
540.73	37.779
541.07	36.531
541.42	37.845
541.76	37.145
542.10	36.154
542.44	37.076
542.78	37.821
543.12	38.073
543.46	36.904
543.80	37.407
544.14	37.853
544.48	37.027
544.82	37.458
545.16	38.066
545.50	37.812
545.84	37.728
546.18	36.185
546.52	37.332
546.86	36.396
547.20	37.813
547.54	37.455
547.88	38.124
548.22	36.743
548.56	36.624
548.90	37.415
549.24	37.847
549.58	37.438
549.92	39.618
550.26	39.041
550.60	37.613
550.94	37.836
551.28	37.245
551.62	38.045
551.96	38.433
552.30	36.827
552.64	36.935
552.98	38.494
553.32	38.212
553.66	38.225
554.00	37.437
554.34	37.875
554.68	38.330
555.02	37.575
555.36	37.670
555.69	37.291
556.03	37.098
556.37	38.407
556.71	37.421
557.05	37.638
557.39	38.206
557.73	36.838
558.07	38.206
558.41	38.834
558.75	37.567
559.08	36.407
559.42	38.474
559.76	37.232
560.10	37.971
560.44	38.762
560.78	38.489
561.12	38.542
561.45	37.279
561.79	37.345
562.13	38.397
562.47	38.929
562.81	38.312
563.15	38.669
563.48	36.958
563.82	37.756
564.16	37.508
564.50	38.535
564.84	38.108
565.17	37.616
565.51	38.369
565.85	37.175
566.19	38.411
566.52	37.615
566.86	36.662
567.20	38.302
567.54	37.536
567.88	37.178
568.21	37.425
568.55	37.820
568.89	37.338
569.23	37.672
569.56	36.921
569.90	37.270
570.24	36.895
570.57	37.291
570.91	37.716
571.25	36.720
571.59	37.072
571.92	37.254
572.26	37.363
572.60	37.542
572.93	37.082
573.27	36.562
573.61	37.403
573.95	37.441
574.28	37.020
574.62	36.732
574.96	37.426
575.29	37.362
575.63	36.960
575.97	37.690
576.30	36.977
576.64	37.752
576.98	37.311
577.31	36.966
577.65	36.536
577.98	36.954
578.32	37.188
578.66	36.775
578.99	37.606
579.33	37.106
579.67	37.271
580.00	37.068
580.34	36.840
580.67	37.874
581.01	37.057
581.35	36.944
581.68	36.759
582.02	36.973
582.35	37.394
582.69	37.082
583.02	37.460
583.36	37.762
583.70	37.696
584.03	37.503
584.37	37.077
584.70	37.443
585.04	37.998
585.37	37.740
585.71	37.024
586.04	37.393
586.38	37.885
586.72	37.173
587.05	38.776
587.39	37.605
587.72	37.660
588.06	37.921
588.39	37.699
588.73	37.515
589.06	37.892
589.40	37.393
589.73	37.837
590.07	37.769
590.40	37.486
590.73	38.574
591.07	38.195
591.40	37.957
591.74	38.284
592.07	38.339
592.41	38.996
592.74	38.117
593.08	37.709
593.41	38.118
593.75	38.566
594.08	38.100
594.41	38.501
594.75	38.568
595.08	37.603
595.42	37.366
595.75	37.889
596.09	38.106
596.42	38.358
596.75	38.394
597.09	38.399
597.42	38.537
597.75	38.578
598.09	37.887
598.42	38.658
598.76	37.867
599.09	39.056
599.42	38.708
599.76	39.204
600.09	38.140
600.42	38.569
600.76	38.064
601.09	38.456
601.42	37.868
601.76	37.413
602.09	38.306
602.42	38.919
602.76	38.171
603.09	38.111
603.42	38.984
603.76	38.075
604.09	38.972
604.42	38.552
604.76	38.106
605.09	38.695
605.42	38.866
605.75	37.645
606.09	38.907
606.42	38.820
606.75	37.965
607.09	38.475
607.42	38.573
607.75	37.593
608.08	38.413
608.42	39.128
608.75	38.796
609.08	39.294
609.41	38.500
609.75	37.721
610.08	38.067
610.41	38.727
610.74	38.547
611.07	39.128
611.41	39.150
611.74	38.665
612.07	37.467
612.40	39.946
612.73	38.364
613.07	39.135
613.40	39.207
613.73	39.166
614.06	39.193
614.39	39.022
614.72	39.756
615.06	39.111
615.39	39.073
615.72	38.391
616.05	39.189
616.38	39.061
616.71	38.512
617.05	40.049
617.38	38.447
617.71	38.419
618.04	38.635
618.37	39.748
618.70	39.263
619.03	38.144
619.36	38.577
619.69	38.889
620.03	38.092
620.36	38.900
620.69	37.473
621.02	38.385
621.35	38.675
621.68	38.794
622.01	39.159
622.34	40.523
622.67	38.215
623.00	39.514
623.33	38.594
623.66	37.918
623.99	39.985
624.32	39.252
624.65	39.540
624.99	39.236
625.32	40.254
625.65	39.070
625.98	39.494
626.31	39.265
626.64	38.521
626.97	38.322
627.30	39.350
627.63	39.273
627.96	36.537
628.29	40.837
628.62	38.878
628.95	38.978
629.28	40.493
629.61	39.043
629.94	39.942
630.26	40.296
630.59	39.361
630.92	37.952
631.25	38.723
631.58	39.829
631.91	38.388
632.24	38.749
632.57	36.667
632.90	40.373
633.23	38.609
633.56	40.528
633.89	40.670
634.22	40.754
634.55	40.682
634.88	40.564
635.20	40.250
635.53	39.535
635.86	42.179
636.19	39.330
636.52	39.512
636.85	39.686
637.18	39.586
637.51	38.077
637.83	38.903
638.16	40.667
638.49	39.653
638.82	40.654
639.15	39.229
639.48	39.973
639.81	38.611
640.13	39.437
640.46	39.266
640.79	40.719
641.12	39.645
641.45	38.865
641.77	39.764
642.10	42.057
642.43	38.994
642.76	39.590
643.09	40.575
643.41	40.829
643.74	39.903
644.07	39.320
644.40	40.133
644.73	36.441
645.05	39.442
645.38	35.714
645.71	38.605
646.04	36.532
646.36	40.104
646.69	39.685
647.02	40.437
647.35	40.219
647.67	39.187
648.00	38.406
648.33	40.169
648.66	40.234
648.98	40.217
649.31	36.963
649.64	38.498
649.96	40.916
650.29	37.908
650.62	39.539
650.94	39.483
651.27	39.223
651.60	40.385
651.92	40.681
652.25	41.541
652.58	37.954
652.90	40.404
653.23	38.031
653.56	39.835
653.88	36.519
654.21	38.055
654.54	39.867
654.86	38.537
655.19	38.796
655.52	42.489
655.84	38.942
656.17	46.562
656.49	62.078
656.82	61.362
657.15	45.989
657.47	34.475
657.80	25.612
658.13	26.573
658.45	39.084
658.78	38.340
659.10	37.748
659.43	37.565
659.75	37.115
660.08	36.552
660.41	36.511
660.73	35.813
661.06	36.054
661.38	38.953
661.71	38.115
662.03	37.209
662.36	39.823
662.68	37.419
663.01	39.831
663.33	40.173
663.66	36.807
663.98	41.573
664.31	38.681
664.63	36.036
664.96	42.013
665.28	42.918
665.61	38.445
665.93	38.972
666.26	41.139
666.58	35.974
666.91	41.480
667.23	40.783
667.56	37.931
667.88	38.318
668.21	39.063
668.53	36.092
668.86	42.446
669.18	39.480
669.50	39.631
669.83	39.857
670.15	35.238
670.48	38.391
670.80	39.387
671.13	37.529
671.45	39.041
671.77	40.302
672.10	35.283
672.42	37.405
672.75	37.857
673.07	35.455
673.39	41.045
673.72	38.523
674.04	39.959
674.37	39.634
674.69	36.008
675.01	39.744
675.34	38.512
675.66	38.562
675.98	40.929
676.31	38.462
676.63	38.776
676.95	36.941
677.28	35.780
677.60	41.176
677.92	40.576
678.25	38.612
678.57	39.715
678.89	39.232
679.22	36.439
679.54	40.408
679.86	36.914
680.18	37.692
680.51	37.500
680.83	39.766
681.15	37.525
681.48	37.074
681.80	35.378
682.12	36.875
682.44	37.223
682.77	36.211
683.09	34.821
683.41	37.674
683.73	37.054
684.06	41.150
684.38	35.684
684.70	35.642
685.02	40.909
685.34	39.335
685.67	40.338
685.99	38.790
686.31	38.621
686.63	38.235
686.96	37.106
687.28	37.325
687.60	38.941
687.92	35.214
688.24	38.400
688.56	42.544
688.89	36.526
689.21	35.874
689.53	34.459
689.85	40.225
690.17	40.220
690.49	40.338
690.82	35.322
691.14	37.923
691.46	40.139
691.78	37.143
692.10	37.580
692.42	35.165
692.74	37.391
693.06	37.528
693.39	37.471
693.71	38.889
694.03	39.318
694.35	36.036
694.67	43.250
694.99	40.206
695.31	38.243
695.63	40.488
695.95	34.606
696.27	33.973
696.59	36.290
696.91	32.961
697.23	36.294
697.56	39.808
697.88	38.877
698.20	38.877
698.52	36.916
698.84	36.364
699.16	34.043
699.48	37.284
699.80	40.568
700.12	38.070
700.44	40.000
700.76	36.236
701.08	36.556
701.40	41.916
701.72	34.769
702.04	36.792
702.36	37.195
702.68	37.195
703.00	40.936
703.32	34.262
703.64	37.952
703.96	35.777
704.28	34.940
704.60	38.415
704.91	37.931
705.23	38.608
705.55	40.690
705.87	41.549
706.19	32.234
706.51	32.394
706.83	35.350
707.15	33.537
707.47	38.017
707.79	38.579
708.11	38.046
708.43	39.086
708.74	36.436
709.06	36.631
709.38	40.058
709.70	33.634
710.02	38.318
710.34	36.000
710.66	39.739
710.98	36.842
711.29	36.688
711.61	35.806
711.93	37.097
712.25	37.762
712.57	35.789
712.89	36.264
713.20	32.270
713.52	36.496
713.84	33.548
714.16	32.686
714.48	36.392
714.80	34.824
715.11	39.244
715.43	29.814
715.75	39.130
716.07	37.048
716.39	37.710
716.70	39.568
717.02	34.510
717.34	34.848
717.66	32.328
717.97	29.365
718.29	35.433
718.61	40.343
718.93	31.008
719.24	37.269
719.56	35.581
719.88	36.940
720.20	39.130
720.51	40.625
720.83	36.965
721.15	28.455
721.46	31.679
721.78	35.060
722.10	34.661
722.42	31.855
722.73	35.135
723.05	34.286
723.37	34.034
723.68	33.200
724.00	34.043
724.32	34.728
724.63	33.745
724.95	29.060
725.27	37.553
725.58	37.037
725.90	36.820
726.22	31.522
726.53	34.902
726.85	38.321
727.16	31.852
727.48	34.483
727.80	37.891
728.11	32.377
728.43	34.375
728.74	42.460
729.06	29.600
729.38	37.154
729.69	34.875
730.01	34.944
730.32	37.269
730.64	31.818
730.96	39.510
731.27	34.114
731.59	33.651
731.90	33.333
732.22	32.372
732.53	33.108
732.85	27.181
733.16	33.333
733.48	32.770
733.80	30.068
734.11	38.514
734.43	36.223
734.74	35.435
735.06	33.141
735.37	38.298
735.69	29.450
736.00	32.013
736.32	34.752
736.63	34.483
736.95	34.247
737.26	32.069
737.58	35.069
737.89	33.333
738.21	30.605
738.52	35.741
738.83	37.959
739.15	37.975
739.46	37.354
739.78	35.563
740.09	32.192
740.41	32.143
740.72	30.851
741.04	31.200
741.35	36.842
741.66	33.778
741.98	34.615
742.29	40.099
742.61	38.537
742.92	33.333
743.23	31.604
743.55	36.036
743.86	27.803
744.18	36.765
744.49	34.010
744.80	33.673
745.12	36.916
745.43	34.123
745.74	40.991
746.06	31.308
746.37	30.275
746.68	29.808
747.00	35.885
747.31	36.058
747.62	31.193
747.94	34.061
748.25	36.697
748.56	35.556
748.88	35.681
749.19	39.524
749.50	25.728
749.82	31.925
750.13	27.500
750.44	31.923
750.75	31.734
751.07	34.520
751.38	32.624
751.69	35.135
752.01	35.547
752.32	35.769
752.63	28.358
752.94	30.400
753.26	35.146
753.57	32.917
753.88	38.057
754.19	32.271
754.51	31.203
754.82	29.304
755.13	33.478
755.44	35.366
755.75	30.400
756.07	31.734
756.38	34.532
756.69	36.519
757.00	32.399
757.31	35.275
757.63	29.321
757.94	32.203
758.25	34.921
758.56	33.424
758.87	38.393
759.18	35.016
759.50	31.650
759.81	36.789
760.12	31.692
760.43	33.631
760.74	33.051
761.05	29.834
761.36	30.086
761.67	30.514
761.99	35.052
762.30	35.036
762.61	29.218
762.92	38.034
763.23	36.066
763.54	36.364
763.85	33.061
764.16	27.236
764.47	31.200
764.78	31.429
765.10	32.787
765.41	33.739
765.72	34.472
766.03	31.023
766.34	34.231
766.65	32.218
766.96	24.413
767.27	27.723
767.58	28.090
767.89	37.654
768.20	33.149
768.51	33.166
768.82	31.250
769.13	32.301
769.44	35.983
769.75	27.350
770.06	31.390
770.37	24.020
770.68	36.893
770.99	28.155
771.30	34.034
771.61	28.163
771.92	29.046
772.23	29.730
772.54	24.862
772.85	34.302
773.16	32.804
773.47	28.994
773.78	31.034
774.09	40.000
774.39	31.677
774.70	40.816
775.01	26.207
775.32	27.857
775.63	23.308
775.94	22.556
776.25	23.200
776.56	25.620
776.87	22.222
777.18	27.027
777.48	23.423
777.79	25.197
778.10	37.615
778.41	21.930
778.72	26.891
779.03	28.169
779.34	25.676
779.65	24.648
779.95	27.152
780.26	25.899
780.57	34.532
780.88	21.127
781.19	23.529
781.50	35.570
781.80	27.485
782.11	24.419
782.42	33.962
782.73	35.294
783.04	21.379
783.34	25.954
783.65	26.174
783.96	28.462
784.27	29.286
784.57	27.660
784.88	16.346
785.19	36.364
785.50	26.364
785.81	21.905
786.11	26.891
786.42	34.513
786.73	28.302
787.04	19.266
787.34	21.782
787.65	30.833
787.96	17.355
788.26	21.014
788.57	20.635
788.88	29.268
789.19	25.600
789.49	16.794
789.80	26.515
790.11	22.642
790.41	31.683
790.72	29.787
791.03	17.391
791.33	23.529
791.64	35.802
791.95	29.348
792.25	36.364
792.56	28.205
792.87	12.821
793.17	15.385
793.48	11.905
793.79	26.250
794.09	25.000
794.40	35.417
794.70	18.018
795.01	21.875
795.32	26.087
795.62	17.391
795.93	24.528
796.23	31.313
796.54	19.512
796.85	27.381
797.15	25.758
797.46	17.391
797.76	18.421
798.07	13.636
798.37	26.829
798.68	25.806
798.99	5.405
799.29	15.663
799.60	14.103
799.90	27.692
800.21	28.788
800.51	14.667
800.82	29.333
801.12	6.250
801.43	-5.000
801.73	22.973
802.04	21.429
802.34	14.754
802.65	28.358
802.95	18.182
803.26	17.241
803.56	23.077
803.87	22.642
804.17	8.065
804.48	27.941
804.78	-4.878
805.09	20.290
805.39	10.294
805.70	4.255
806.00	1.754
806.30	19.231
806.61	32.895
806.91	20.270
807.22	18.421
807.52	29.545
807.83	-6.780
808.13	-12.121
808.43	-5.000
808.74	-10.345
809.04	4.762
809.35	6.122
809.65	16.667
809.95	10.204
810.26	28.169
810.56	18.750
810.86	18.367
811.17	44.231
811.47	17.021
811.77	22.917
812.08	22.642
812.38	-12.500
812.69	25.455
812.99	21.951
813.29	-2.703
813.59	-18.919
813.90	9.091
814.20	-1.818
814.50	16.667
814.81	30.909
815.11	0.000
815.41	23.256
815.72	5.000
816.02	17.143
816.32	-18.919
816.62	-12.500
816.93	4.444
817.23	-8.889
817.53	-16.667
817.84	-10.811
818.14	19.512
818.44	16.000
818.74	30.612
819.04	17.073
819.35	5.556
819.65	-4.545
819.95	-66.667
820.25	15.152
820.56	2.381
820.86	0.000
821.16	-15.909
821.46	4.348
821.76	-13.793
822.07	8.696
822.37	-3.030
822.67	17.073
822.97	5.405
823.27	-2.857
823.57	27.586
823.88	23.529
824.18	-5.556
824.48	2.857
824.78	14.286
825.08	10.714
825.38	11.111
825.69	25.806
825.99	19.512
826.29	3.704
826.59	9.375
826.89	0.000
827.19	-21.739
827.49	-2.778
827.79	-30.435
828.09	-3.226
828.39	2.083
828.70	-40.625
829.00	-34.483
829.30	10.811
829.60	-25.000
829.90	14.815
830.20	-18.750
830.50	4.545
830.80	-158.824
831.10	-18.182
831.40	-47.059
831.70	26.923
832.00	-9.091
832.30	11.765
832.60	5.405
832.90	600.000
833.20	-21.429
833.50	-50.000
833.80	-10.526
834.10	-37.500
834.40	-36.364
834.70	-53.333
835.00	-10.000
835.30	-29.167
835.60	4.762
835.90	0.000
836.20	-36.000
836.50	-58.333
836.80	-57.895
837.10	-2.703
837.40	20.000
837.70	-13.043
838.00	37.500
838.30	-68.421
838.60	-120.000
838.90	-190.000
839.19	-66.667
839.49	-38.462
839.79	-31.579
840.09	-166.667
840.39	-170.000
840.69	-9.091
840.99	-9.524
841.29	-41.667
841.59	7.692
841.88	-33.333
842.18	-50.000
842.48	3.333
842.78	-100.000
843.08	-85.714
843.38	-212.500
843.68	-81.250
843.97	-7.143
844.27	-144.444
844.57	-100.000
844.87	-93.333
845.17	-4.545
845.47	600.000
845.76	-46.667
846.06	-100.000
846.36	-1350.000
846.66	-68.421
846.96	-50.000
847.25	-44.444
847.55	-55.556
847.85	-23.810
848.15	-15.385
848.44	-283.333
848.74	-41.667
849.04	-23.077
849.34	-500.000
849.63	-100.000
849.93	-92.857
850.23	45.000
850.53	-225.000
850.82	-5.556
851.12	-66.667
851.42	-23.529
851.71	-75.000
852.01	11.765
852.31	-84.615
852.61	650.000
852.90	64.706
853.20	-20.000
853.50	-31.250
853.79	-42.857
854.09	-225.000
854.39	-75.000
854.68	-2.500
854.98	9.524
855.28	-32.000
855.57	-16.667
855.87	-20.833
856.17	-16.000
856.46	-37.500
856.76	-10.000
857.05	-8.000
857.35	-91.667
857.65	-11.765
857.94	-141.667
858.24	-66.667
858.53	55.000
858.83	-136.364
859.13	-8.000
859.42	-42.857
859.72	-12.500
860.01	-33.333
860.31	-150.000
860.60	-81.250
860.90	-83.333
861.20	83.333
861.49	0.000
861.79	-93.750
862.08	375.000
862.38	-150.000
862.67	257.143
862.97	425.000
863.26	-54.545
863.56	-27.273
863.85	0.000
864.15	5.882
864.44	-300.000
864.74	-130.000
865.03	-122.222
865.33	-92.857
865.62	200.000
865.92	-15.789
866.21	-27.778
866.51	-27.273
866.80	-44.444
867.10	-237.500
867.39	-56.250
867.69	-60.000
867.98	-50.000
868.27	35.294
868.57	0.000
868.86	550.000
869.16	-425.000
869.45	-300.000
869.75	650.000
870.04	-10.000
870.33	-1500.000
870.63	5.263
870.92	-108.333
871.22	-1500.000
871.51	-242.857
871.80	-166.667
872.10	-500.000
>>>>>End Processed Spectral Data<<<<<
