SpectraSuite Data File
++++++++++++++++++++++++++++++++++++
Date: Wed May 13 21:42:55 PDT 2015
User: schluterlab
Dark Spectrum Present: Yes
Reference Spectrum Present: Yes
Number of Sampled Component Spectra: 1
Spectrometers: USB2E3373
Integration Time (usec): 3000 (USB2E3373)
Spectra Averaged: 3 (USB2E3373)
Boxcar Smoothing: 0 (USB2E3373)
Correct for Electrical Dark: No (USB2E3373)
Strobe/Lamp Enabled: No (USB2E3373)
Correct for Detector Non-linearity: No (USB2E3373)
Correct for Stray Light: No (USB2E3373)
Number of Pixels in Processed Spectrum: 2048
>>>>>Begin Processed Spectral Data<<<<<
178.53	0.000
178.91	700.000
179.29	208.333
179.67	-750.000
180.04	-433.333
180.42	200.000
180.80	1700.000
181.18	266.667
181.56	-350.000
181.94	-325.000
182.31	-45.455
182.69	130.769
183.07	-160.000
183.45	183.333
183.83	200.000
184.20	357.143
184.58	0.000
184.96	500.000
185.34	242.857
185.72	0.000
186.09	-1400.000
186.47	-260.000
186.85	180.000
187.23	-50.000
187.61	600.000
187.98	1200.000
188.36	-125.000
188.74	0.000
189.12	-9.091
189.49	-10.000
189.87	75.000
190.25	300.000
190.63	800.000
191.00	-320.000
191.38	260.000
191.76	425.000
192.14	133.333
192.51	-5.263
192.89	200.000
193.27	75.000
193.65	-260.000
194.02	136.364
194.40	230.000
194.78	-500.000
195.15	80.000
195.53	20.000
195.91	50.000
196.29	-166.667
196.66	0.000
197.04	500.000
197.42	40.000
197.79	-60.000
198.17	-125.000
198.55	-466.667
198.92	175.000
199.30	-633.333
199.68	-30.000
200.05	450.000
200.43	266.667
200.81	-800.000
201.18	-100.000
201.56	-200.000
201.94	375.000
202.31	-8.696
202.69	-71.429
203.07	-466.667
203.44	-20.000
203.82	-433.333
204.19	-20.000
204.57	0.000
204.95	-150.000
205.32	0.000
205.70	-300.000
206.08	-100.000
206.45	-216.667
206.83	575.000
207.20	-366.667
207.58	-30.000
207.96	-1000.000
208.33	-171.429
208.71	-2400.000
209.08	175.000
209.46	475.000
209.84	0.000
210.21	140.000
210.59	1800.000
210.96	380.000
211.34	2000.000
211.71	-700.000
212.09	-150.000
212.46	-60.000
212.84	-100.000
213.22	-275.000
213.59	-1000.000
213.97	-650.000
214.34	-600.000
214.72	-84.615
215.09	112.500
215.47	144.444
215.84	550.000
216.22	-112.500
216.59	-250.000
216.97	433.333
217.34	144.444
217.72	0.000
218.09	366.667
218.47	-500.000
218.84	-42.857
219.22	-25.000
219.59	-233.333
219.97	-150.000
220.34	-125.000
220.72	-180.000
221.09	0.000
221.47	-233.333
221.84	-200.000
222.22	0.000
222.59	500.000
222.97	-66.667
223.34	8.333
223.72	-1000.000
224.09	-300.000
224.46	9.091
224.84	-25.000
225.21	-142.857
225.59	-150.000
225.96	-83.333
226.34	50.000
226.71	-257.143
227.08	550.000
227.46	0.000
227.83	-200.000
228.21	-50.000
228.58	-100.000
228.95	-82.353
229.33	-87.500
229.70	-137.500
230.08	7.692
230.45	-50.000
230.82	0.000
231.20	85.714
231.57	-400.000
231.95	100.000
232.32	33.333
232.69	5.882
233.07	-1300.000
233.44	-13.043
233.81	-200.000
234.19	33.333
234.56	-46.667
234.93	-33.333
235.31	0.000
235.68	-38.462
236.05	-61.538
236.43	-11.111
236.80	-27.273
237.17	-80.000
237.55	-94.118
237.92	-24.138
238.29	-33.333
238.67	2.778
239.04	-16.129
239.41	40.426
239.79	34.043
240.16	18.605
240.53	25.000
240.91	42.857
241.28	19.643
241.65	24.194
242.02	27.632
242.40	36.232
242.77	36.232
243.14	19.231
243.51	39.362
243.89	31.731
244.26	31.132
244.63	32.692
245.00	35.417
245.38	34.454
245.75	37.705
246.12	30.075
246.49	30.894
246.87	25.210
247.24	31.757
247.61	43.709
247.98	32.051
248.36	27.811
248.73	28.090
249.10	27.273
249.47	33.871
249.84	34.737
250.22	31.841
250.59	33.645
250.96	38.182
251.33	28.708
251.70	37.238
252.08	39.749
252.45	38.683
252.82	38.403
253.19	35.019
253.56	32.734
253.94	34.164
254.31	32.394
254.68	33.893
255.05	32.343
255.42	35.664
255.79	31.288
256.16	40.063
256.54	33.968
256.91	33.544
257.28	37.736
257.65	33.121
258.02	34.311
258.39	37.135
258.76	31.105
259.14	38.920
259.51	36.236
259.88	37.398
260.25	35.833
260.62	36.236
260.99	38.727
261.36	37.306
261.73	36.049
262.10	37.405
262.47	35.802
262.85	38.060
263.22	36.923
263.59	36.364
263.96	36.496
264.33	34.375
264.70	35.116
265.07	35.185
265.44	37.241
265.81	34.783
266.18	37.813
266.55	36.026
266.92	34.958
267.29	36.214
267.66	33.970
268.03	38.272
268.40	35.381
268.77	37.810
269.14	36.939
269.51	38.193
269.88	33.198
270.25	37.500
270.62	34.221
270.99	36.614
271.36	36.111
271.73	36.747
272.10	35.048
272.47	32.630
272.84	33.071
273.21	35.029
273.58	36.885
273.95	35.660
274.32	35.821
274.69	34.791
275.06	34.982
275.43	35.970
275.80	35.816
276.17	36.280
276.54	34.281
276.91	34.321
277.28	35.560
277.65	37.413
278.02	36.964
278.39	31.972
278.76	34.950
279.13	32.933
279.50	33.793
279.87	33.877
280.23	35.856
280.60	34.948
280.97	33.929
281.34	35.331
281.71	34.146
282.08	32.821
282.45	32.787
282.82	33.866
283.19	33.232
283.56	33.438
283.92	33.639
284.29	31.825
284.66	34.926
285.03	31.922
285.40	31.873
285.77	32.432
286.14	32.827
286.51	33.733
286.87	33.385
287.24	31.711
287.61	32.530
287.98	32.059
288.35	32.936
288.72	31.564
289.08	33.761
289.45	31.424
289.82	31.467
290.19	31.557
290.56	29.830
290.93	29.282
291.29	31.053
291.66	31.967
292.03	30.245
292.40	30.148
292.77	30.388
293.13	28.173
293.50	30.065
293.87	30.267
294.24	27.646
294.60	28.609
294.97	30.159
295.34	28.364
295.71	28.515
296.08	28.272
296.44	28.061
296.81	25.335
297.18	28.500
297.55	26.533
297.91	28.696
298.28	26.998
298.65	26.108
299.02	29.060
299.38	27.730
299.75	25.120
300.12	26.047
300.48	26.082
300.85	25.058
301.22	24.971
301.59	26.291
301.95	25.087
302.32	24.387
302.69	24.520
303.05	25.028
303.42	26.364
303.79	24.711
304.15	26.725
304.52	26.452
304.89	26.135
305.25	24.808
305.62	25.163
305.99	24.266
306.35	24.974
306.72	26.348
307.09	25.547
307.45	25.133
307.82	25.579
308.19	24.347
308.55	24.667
308.92	26.523
309.29	25.826
309.65	26.174
310.02	25.746
310.38	25.813
310.75	25.049
311.12	26.628
311.48	25.321
311.85	25.591
312.22	25.435
312.58	25.314
312.95	25.970
313.31	26.354
313.68	26.145
314.05	25.614
314.41	27.378
314.78	26.091
315.14	25.370
315.51	26.927
315.87	27.618
316.24	27.273
316.61	27.306
316.97	28.426
317.34	26.292
317.70	28.546
318.07	28.660
318.43	27.462
318.80	26.876
319.16	25.995
319.53	28.315
319.89	28.546
320.26	28.651
320.62	29.194
320.99	29.845
321.35	28.438
321.72	28.489
322.08	28.506
322.45	29.787
322.81	30.591
323.18	28.891
323.54	29.061
323.91	30.081
324.27	30.333
324.64	29.791
325.00	30.884
325.37	31.143
325.73	31.987
326.10	31.623
326.46	31.940
326.83	32.524
327.19	32.276
327.56	34.005
327.92	31.295
328.29	34.558
328.65	34.005
329.01	32.806
329.38	34.174
329.74	33.047
330.11	33.093
330.47	32.639
330.84	35.018
331.20	34.415
331.56	34.964
331.93	34.109
332.29	35.013
332.66	33.983
333.02	33.970
333.38	33.684
333.75	33.276
334.11	34.549
334.48	34.438
334.84	34.541
335.20	35.163
335.57	34.117
335.93	34.880
336.29	33.800
336.66	33.504
337.02	35.304
337.38	34.030
337.75	33.764
338.11	34.244
338.47	34.075
338.84	33.591
339.20	34.656
339.56	34.300
339.93	34.572
340.29	35.013
340.65	35.244
341.02	34.526
341.38	33.699
341.74	33.866
342.11	34.600
342.47	34.728
342.83	34.069
343.20	35.787
343.56	35.241
343.92	33.712
344.28	34.903
344.65	35.102
345.01	35.028
345.37	36.102
345.73	36.029
346.10	34.510
346.46	33.984
346.82	34.029
347.19	34.652
347.55	35.784
347.91	34.840
348.27	35.647
348.63	35.096
349.00	34.277
349.36	36.107
349.72	35.422
350.08	34.789
350.45	34.612
350.81	35.837
351.17	35.258
351.53	35.978
351.89	34.472
352.26	35.367
352.62	36.047
352.98	35.942
353.34	35.427
353.70	35.903
354.07	34.980
354.43	34.292
354.79	34.054
355.15	35.248
355.51	34.700
355.87	35.418
356.24	36.677
356.60	35.418
356.96	35.226
357.32	35.217
357.68	35.676
358.04	35.454
358.40	35.581
358.77	36.086
359.13	35.409
359.49	35.882
359.85	35.861
360.21	36.469
360.57	36.502
360.93	36.798
361.29	36.195
361.66	36.522
362.02	36.175
362.38	36.854
362.74	36.113
363.10	36.659
363.46	36.671
363.82	36.585
364.18	35.751
364.54	35.886
364.90	35.401
365.26	35.881
365.62	35.440
365.98	36.512
366.35	36.241
366.71	34.522
367.07	36.570
367.43	35.958
367.79	36.762
368.15	36.287
368.51	35.373
368.87	37.264
369.23	36.014
369.59	36.786
369.95	36.139
370.31	35.774
370.67	36.495
371.03	37.491
371.39	36.338
371.75	35.714
372.11	35.826
372.47	36.482
372.83	36.130
373.19	35.683
373.55	36.850
373.91	36.492
374.27	36.169
374.63	37.055
374.99	35.933
375.35	35.479
375.71	34.986
376.07	36.669
376.42	35.160
376.78	36.262
377.14	36.136
377.50	37.027
377.86	36.454
378.22	36.536
378.58	37.768
378.94	38.625
379.30	37.227
379.66	35.882
380.02	36.520
380.38	35.843
380.74	36.701
381.09	36.128
381.45	35.792
381.81	35.983
382.17	37.051
382.53	35.815
382.89	35.404
383.25	36.111
383.61	36.804
383.97	35.875
384.32	36.106
384.68	36.521
385.04	36.408
385.40	35.679
385.76	35.888
386.12	36.411
386.48	36.113
386.83	35.544
387.19	35.842
387.55	35.806
387.91	35.486
388.27	35.882
388.62	36.392
388.98	36.295
389.34	34.398
389.70	35.165
390.06	35.750
390.42	35.245
390.77	35.554
391.13	36.364
391.49	34.662
391.85	35.719
392.20	34.398
392.56	35.365
392.92	35.284
393.28	35.967
393.64	35.657
393.99	34.211
394.35	35.123
394.71	35.256
395.07	34.151
395.42	34.369
395.78	35.071
396.14	33.989
396.50	34.559
396.85	35.500
397.21	34.831
397.57	34.596
397.92	34.072
398.28	34.292
398.64	34.791
399.00	33.929
399.35	34.563
399.71	34.304
400.07	34.277
400.42	35.110
400.78	34.018
401.14	33.906
401.49	33.913
401.85	34.582
402.21	33.808
402.57	33.354
402.92	34.731
403.28	33.458
403.63	33.230
403.99	33.589
404.35	34.102
404.70	32.870
405.06	34.469
405.42	33.166
405.77	33.295
406.13	33.429
406.49	33.673
406.84	33.578
407.20	32.919
407.55	32.792
407.91	32.363
408.27	32.127
408.62	33.640
408.98	32.306
409.34	33.045
409.69	33.398
410.05	32.463
410.40	32.380
410.76	32.130
411.11	32.463
411.47	33.643
411.83	31.503
412.18	31.738
412.54	32.519
412.89	31.975
413.25	31.150
413.60	33.041
413.96	32.022
414.31	31.936
414.67	31.429
415.03	31.529
415.38	31.902
415.74	32.684
416.09	31.989
416.45	32.741
416.80	31.409
417.16	32.186
417.51	32.686
417.87	31.481
418.22	31.480
418.58	30.880
418.93	31.073
419.29	32.937
419.64	30.852
420.00	31.302
420.35	31.620
420.71	31.322
421.06	31.488
421.42	32.543
421.77	32.081
422.12	32.264
422.48	32.061
422.83	31.187
423.19	31.742
423.54	32.568
423.90	30.998
424.25	31.196
424.61	31.485
424.96	31.283
425.31	31.296
425.67	31.511
426.02	32.097
426.38	31.654
426.73	31.277
427.09	30.331
427.44	31.298
427.79	31.295
428.15	30.887
428.50	30.514
428.85	31.796
429.21	30.782
429.56	31.615
429.92	31.806
430.27	31.493
430.62	31.689
430.98	31.465
431.33	31.327
431.68	31.683
432.04	31.887
432.39	30.081
432.74	30.717
433.10	31.319
433.45	30.296
433.80	31.264
434.16	30.202
434.51	30.707
434.86	30.330
435.22	29.598
435.57	29.423
435.92	30.881
436.28	29.970
436.63	30.427
436.98	30.787
437.34	31.074
437.69	30.401
438.04	29.994
438.39	30.262
438.75	29.917
439.10	31.348
439.45	30.024
439.81	29.680
440.16	30.783
440.51	30.143
440.86	29.757
441.22	31.038
441.57	30.531
441.92	30.016
442.27	29.708
442.63	30.571
442.98	29.919
443.33	30.248
443.68	29.889
444.03	30.750
444.39	30.392
444.74	30.922
445.09	29.185
445.44	30.592
445.79	29.530
446.15	29.617
446.50	29.791
446.85	30.518
447.20	29.901
447.55	30.834
447.91	29.831
448.26	29.445
448.61	29.402
448.96	30.068
449.31	29.697
449.66	30.307
450.02	29.505
450.37	29.730
450.72	29.793
451.07	29.718
451.42	29.507
451.77	29.397
452.12	29.115
452.47	28.535
452.83	29.186
453.18	29.599
453.53	29.004
453.88	28.614
454.23	29.048
454.58	27.941
454.93	28.608
455.28	29.159
455.63	27.636
455.98	28.911
456.34	27.781
456.69	29.585
457.04	28.545
457.39	28.082
457.74	28.306
458.09	28.436
458.44	28.496
458.79	27.732
459.14	27.697
459.49	27.927
459.84	28.241
460.19	27.371
460.54	28.041
460.89	28.829
461.24	27.990
461.59	27.657
461.94	28.066
462.29	27.328
462.64	27.573
462.99	27.498
463.34	27.970
463.69	27.320
464.04	26.771
464.39	27.822
464.74	27.887
465.09	27.278
465.44	26.319
465.79	27.775
466.14	27.936
466.49	27.566
466.84	27.914
467.19	26.497
467.54	27.609
467.89	27.467
468.24	27.781
468.59	26.960
468.94	26.884
469.29	26.636
469.64	26.709
469.99	28.414
470.34	26.365
470.68	27.286
471.03	26.164
471.38	26.704
471.73	26.818
472.08	26.735
472.43	26.385
472.78	25.490
473.13	25.330
473.48	26.419
473.83	25.487
474.17	26.562
474.52	26.537
474.87	25.452
475.22	26.329
475.57	25.878
475.92	26.772
476.27	26.690
476.61	26.161
476.96	26.728
477.31	25.998
477.66	26.271
478.01	25.275
478.36	25.177
478.70	26.316
479.05	27.137
479.40	25.273
479.75	25.186
480.10	26.007
480.45	25.895
480.79	26.929
481.14	26.545
481.49	26.295
481.84	25.401
482.19	26.123
482.53	25.381
482.88	25.455
483.23	24.880
483.58	25.851
483.92	25.195
484.27	25.069
484.62	25.433
484.97	25.425
485.31	26.079
485.66	26.866
486.01	28.195
486.36	27.887
486.70	26.729
487.05	26.252
487.40	25.696
487.75	25.668
488.09	24.992
488.44	24.290
488.79	25.246
489.13	23.976
489.48	24.754
489.83	24.207
490.17	24.376
490.52	25.105
490.87	24.525
491.22	24.588
491.56	25.204
491.91	24.052
492.26	24.081
492.60	23.521
492.95	24.247
493.30	23.643
493.64	22.878
493.99	24.444
494.34	24.518
494.68	23.532
495.03	24.012
495.37	23.309
495.72	23.258
496.07	24.744
496.41	23.912
496.76	24.360
497.11	23.521
497.45	23.006
497.80	24.331
498.14	24.181
498.49	23.248
498.84	23.988
499.18	23.594
499.53	23.683
499.87	22.999
500.22	23.345
500.56	23.721
500.91	23.592
501.26	23.842
501.60	23.284
501.95	23.479
502.29	23.350
502.64	23.722
502.98	23.121
503.33	22.530
503.67	23.174
504.02	22.990
504.36	23.725
504.71	22.866
505.06	23.739
505.40	23.608
505.75	23.194
506.09	23.659
506.44	23.942
506.78	22.245
507.13	23.441
507.47	21.951
507.82	22.292
508.16	23.272
508.51	22.056
508.85	22.810
509.19	22.275
509.54	22.520
509.88	22.796
510.23	21.526
510.57	22.669
510.92	23.114
511.26	22.937
511.61	21.186
511.95	21.279
512.30	21.821
512.64	22.758
512.98	21.607
513.33	21.408
513.67	21.692
514.02	22.577
514.36	22.472
514.70	22.633
515.05	22.411
515.39	21.462
515.74	21.729
516.08	21.180
516.42	21.601
516.77	21.207
517.11	21.693
517.46	20.948
517.80	21.550
518.14	19.718
518.49	20.856
518.83	21.122
519.17	20.542
519.52	21.170
519.86	21.554
520.20	20.558
520.55	20.398
520.89	21.063
521.23	21.795
521.58	20.101
521.92	20.113
522.26	20.104
522.61	20.556
522.95	20.142
523.29	21.079
523.64	19.771
523.98	20.394
524.32	19.219
524.66	20.390
525.01	20.708
525.35	19.421
525.69	20.941
526.04	20.586
526.38	20.140
526.72	19.461
527.06	19.729
527.41	19.987
527.75	20.494
528.09	20.558
528.43	20.556
528.78	20.413
529.12	20.957
529.46	20.090
529.80	19.871
530.15	18.597
530.49	20.148
530.83	20.176
531.17	19.932
531.51	19.690
531.86	19.715
532.20	19.228
532.54	19.793
532.88	20.694
533.22	19.933
533.57	20.530
533.91	20.645
534.25	21.289
534.59	19.434
534.93	20.089
535.27	19.809
535.62	19.671
535.96	20.234
536.30	19.282
536.64	19.002
536.98	19.622
537.32	20.356
537.66	19.252
538.01	18.932
538.35	19.544
538.69	19.599
539.03	19.128
539.37	19.048
539.71	19.714
540.05	18.354
540.39	19.683
540.73	19.483
541.07	19.932
541.42	19.663
541.76	19.553
542.10	18.890
542.44	18.988
542.78	19.084
543.12	20.418
543.46	18.590
543.80	19.552
544.14	19.821
544.48	18.115
544.82	19.301
545.16	18.864
545.50	19.784
545.84	18.163
546.18	18.303
546.52	19.337
546.86	18.304
547.20	18.227
547.54	18.728
547.88	19.163
548.22	19.479
548.56	19.880
548.90	18.809
549.24	20.208
549.58	18.790
549.92	18.489
550.26	20.812
550.60	18.393
550.94	18.284
551.28	18.774
551.62	18.120
551.96	18.155
552.30	18.777
552.64	19.280
552.98	19.247
553.32	18.818
553.66	18.489
554.00	18.503
554.34	17.875
554.68	18.867
555.02	17.964
555.36	17.625
555.69	18.645
556.03	18.728
556.37	18.777
556.71	19.552
557.05	17.934
557.39	17.332
557.73	19.743
558.07	17.935
558.41	18.849
558.75	18.091
559.08	16.680
559.42	16.758
559.76	17.049
560.10	18.294
560.44	18.718
560.78	18.921
561.12	18.010
561.45	19.252
561.79	18.088
562.13	18.917
562.47	18.857
562.81	19.192
563.15	17.847
563.48	17.756
563.82	18.263
564.16	18.348
564.50	18.860
564.84	18.378
565.17	19.536
565.51	17.981
565.85	17.722
566.19	17.748
566.52	18.611
566.86	17.889
567.20	19.059
567.54	18.826
567.88	18.589
568.21	19.880
568.55	19.144
568.89	18.594
569.23	19.432
569.56	19.942
569.90	20.399
570.24	20.253
570.57	20.368
570.91	20.606
571.25	20.701
571.59	20.535
571.92	20.857
572.26	20.345
572.60	20.480
572.93	20.462
573.27	20.923
573.61	21.019
573.95	21.338
574.28	21.062
574.62	20.760
574.96	21.407
575.29	20.737
575.63	20.969
575.97	20.734
576.30	21.338
576.64	21.064
576.98	20.812
577.31	21.113
577.65	21.405
577.98	21.705
578.32	21.680
578.66	21.384
578.99	21.268
579.33	21.189
579.67	20.799
580.00	20.894
580.34	20.965
580.67	21.044
581.01	21.059
581.35	21.269
581.68	21.919
582.02	21.838
582.35	21.683
582.69	21.237
583.02	21.050
583.36	20.589
583.70	20.657
584.03	19.871
584.37	19.672
584.70	20.746
585.04	21.199
585.37	21.798
585.71	20.888
586.04	20.251
586.38	20.179
586.72	20.315
587.05	20.446
587.39	20.717
587.72	20.426
588.06	20.575
588.39	20.599
588.73	20.578
589.06	19.916
589.40	19.642
589.73	19.080
590.07	19.796
590.40	19.538
590.73	19.895
591.07	19.766
591.40	18.739
591.74	20.053
592.07	19.078
592.41	20.463
592.74	20.486
593.08	20.342
593.41	21.098
593.75	20.252
594.08	20.725
594.41	19.671
594.75	20.202
595.08	20.426
595.42	19.971
595.75	20.318
596.09	19.900
596.42	19.567
596.75	19.043
597.09	19.791
597.42	20.278
597.75	20.667
598.09	19.672
598.42	20.716
598.76	20.193
599.09	21.168
599.42	20.733
599.76	21.179
600.09	21.197
600.42	20.377
600.76	20.067
601.09	20.791
601.42	20.306
601.76	19.846
602.09	19.903
602.42	19.521
602.76	19.295
603.09	20.575
603.42	19.912
603.76	20.187
604.09	19.842
604.42	20.092
604.76	19.773
605.09	19.665
605.42	20.018
605.75	19.443
606.09	19.454
606.42	19.950
606.75	19.827
607.09	19.637
607.42	20.578
607.75	19.168
608.08	19.793
608.42	20.103
608.75	19.494
609.08	19.010
609.41	19.175
609.75	18.860
610.08	20.118
610.41	20.262
610.74	20.067
611.07	19.138
611.41	20.471
611.74	19.462
612.07	19.333
612.40	19.027
612.73	18.222
613.07	18.570
613.40	18.943
613.73	19.122
614.06	18.961
614.39	18.788
614.72	20.155
615.06	19.333
615.39	19.371
615.72	19.276
616.05	18.863
616.38	18.442
616.71	18.596
617.05	18.796
617.38	18.484
617.71	18.382
618.04	17.611
618.37	18.233
618.70	18.305
619.03	17.869
619.36	18.007
619.69	17.544
620.03	17.456
620.36	17.049
620.69	16.345
621.02	17.154
621.35	16.762
621.68	17.767
622.01	17.476
622.34	17.129
622.67	17.933
623.00	18.465
623.33	18.325
623.66	17.770
623.99	18.455
624.32	18.562
624.65	18.398
624.99	17.487
625.32	17.550
625.65	17.287
625.98	17.694
626.31	17.469
626.64	17.111
626.97	15.830
627.30	17.536
627.63	16.955
627.96	16.017
628.29	17.767
628.62	16.344
628.95	16.934
629.28	15.567
629.61	18.278
629.94	16.634
630.26	17.438
630.59	16.583
630.92	16.165
631.25	15.860
631.58	15.310
631.91	15.058
632.24	15.807
632.57	14.111
632.90	14.702
633.23	14.029
633.56	14.988
633.89	16.627
634.22	17.314
634.55	14.495
634.88	14.461
635.20	15.125
635.53	15.375
635.86	14.487
636.19	16.253
636.52	14.024
636.85	14.355
637.18	13.398
637.51	15.106
637.83	15.405
638.16	13.067
638.49	14.286
638.82	15.294
639.15	14.362
639.48	15.642
639.81	13.333
640.13	14.930
640.46	16.808
640.79	15.971
641.12	13.166
641.45	14.265
641.77	12.666
642.10	14.372
642.43	15.252
642.76	12.776
643.09	12.939
643.41	13.716
643.74	14.216
644.07	13.107
644.40	12.438
644.73	13.220
645.05	11.518
645.38	13.621
645.71	13.776
646.04	11.953
646.36	14.063
646.69	11.713
647.02	13.479
647.35	14.260
647.67	15.342
648.00	12.138
648.33	12.542
648.66	13.189
648.98	15.062
649.31	15.644
649.64	13.928
649.96	15.166
650.29	13.562
650.62	12.356
650.94	11.379
651.27	12.544
651.60	14.510
651.92	12.724
652.25	15.075
652.58	14.521
652.90	12.290
653.23	13.073
653.56	13.554
653.88	13.652
654.21	13.311
654.54	15.116
654.86	14.146
655.19	13.585
655.52	21.728
655.84	23.771
656.17	29.146
656.49	37.658
656.82	35.455
657.15	25.342
657.47	17.875
657.80	12.768
658.13	13.057
658.45	18.068
658.78	16.721
659.10	16.166
659.43	15.166
659.75	14.670
660.08	14.276
660.41	13.996
660.73	11.846
661.06	11.565
661.38	10.271
661.71	13.115
662.03	14.165
662.36	13.496
662.68	12.043
663.01	12.288
663.33	10.583
663.66	8.204
663.98	11.461
664.31	11.648
664.63	8.333
664.96	12.691
665.28	14.807
665.61	8.639
665.93	13.490
666.26	14.768
666.58	13.062
666.91	13.453
667.23	12.212
667.56	12.644
667.88	12.617
668.21	10.491
668.53	11.264
668.86	11.751
669.18	9.456
669.50	10.599
669.83	13.126
670.15	11.667
670.48	12.874
670.80	13.567
671.13	13.730
671.45	13.927
671.77	14.655
672.10	10.916
672.42	15.458
672.75	15.179
673.07	14.545
673.39	13.993
673.72	13.174
674.04	12.705
674.37	14.634
674.69	11.934
675.01	11.325
675.34	12.910
675.66	13.725
675.98	11.726
676.31	15.158
676.63	14.286
676.95	9.882
677.28	13.303
677.60	12.010
677.92	14.634
678.25	13.232
678.57	14.257
678.89	12.367
679.22	13.251
679.54	14.490
679.86	15.039
680.18	13.077
680.51	12.885
680.83	13.060
681.15	11.198
681.48	14.028
681.80	12.270
682.12	13.333
682.44	14.688
682.77	8.842
683.09	11.607
683.41	10.698
683.73	11.161
684.06	11.947
684.38	12.821
684.70	11.813
685.02	15.289
685.34	14.873
685.67	15.385
685.99	13.879
686.31	17.414
686.63	13.235
686.96	16.327
687.28	15.170
687.60	20.227
687.92	12.840
688.24	14.600
688.56	15.789
688.89	12.027
689.21	13.453
689.53	8.333
689.85	13.708
690.17	14.505
690.49	12.319
690.82	11.695
691.14	10.628
691.46	11.601
691.78	14.066
692.10	16.561
692.42	14.066
692.74	13.043
693.06	13.483
693.39	11.710
693.71	17.111
694.03	17.273
694.35	15.766
694.67	16.500
694.99	14.175
695.31	11.628
695.63	13.902
695.95	14.758
696.27	6.849
696.59	9.409
696.91	10.056
697.23	16.497
697.56	14.388
697.88	18.295
698.20	16.631
698.52	13.785
698.84	11.483
699.16	14.421
699.48	15.556
699.80	15.245
700.12	13.405
700.44	11.268
700.76	10.955
701.08	11.480
701.40	12.874
701.72	13.231
702.04	9.119
702.36	8.841
702.68	9.146
703.00	13.450
703.32	10.028
703.64	13.554
703.96	14.663
704.28	10.241
704.60	13.720
704.91	10.345
705.23	11.076
705.55	10.000
705.87	14.085
706.19	8.791
706.51	9.859
706.83	11.146
707.15	12.805
707.47	15.702
707.79	11.929
708.11	13.368
708.43	15.482
708.74	12.500
709.06	10.695
709.38	15.562
709.70	11.111
710.02	11.838
710.34	9.333
710.66	13.029
710.98	13.003
711.29	11.688
711.61	12.903
711.93	13.548
712.25	11.538
712.57	9.123
712.89	11.722
713.20	9.574
713.52	7.664
713.84	12.581
714.16	9.385
714.48	13.608
714.80	11.182
715.11	15.116
715.43	10.248
715.75	14.286
716.07	12.651
716.39	11.785
716.70	12.950
717.02	10.588
717.34	13.258
717.66	6.897
717.97	8.333
718.29	11.024
718.61	12.876
718.93	8.915
719.24	13.653
719.56	11.610
719.88	8.955
720.20	14.229
720.51	9.375
720.83	10.895
721.15	8.943
721.46	11.450
721.78	9.960
722.10	5.976
722.42	8.871
722.73	12.741
723.05	10.612
723.37	9.664
723.68	14.800
724.00	4.255
724.32	5.858
724.63	14.403
724.95	7.265
725.27	16.034
725.58	13.169
725.90	15.063
726.22	13.406
726.53	5.098
726.85	19.708
727.16	12.963
727.48	11.111
727.80	12.891
728.11	14.754
728.43	12.500
728.74	14.286
729.06	11.200
729.38	14.229
729.69	12.811
730.01	14.126
730.32	12.546
730.64	10.227
730.96	17.483
731.27	14.047
731.59	12.698
731.90	13.916
732.22	12.821
732.53	13.176
732.85	11.745
733.16	16.832
733.48	13.851
733.80	13.851
734.11	16.216
734.43	17.337
734.74	16.817
735.06	14.409
735.37	11.550
735.69	15.858
736.00	10.891
736.32	14.184
736.63	17.931
736.95	14.726
737.26	16.552
737.58	14.236
737.89	12.371
738.21	13.879
738.52	11.027
738.83	16.735
739.15	14.768
739.46	9.339
739.78	14.437
740.09	12.671
740.41	13.571
740.72	11.702
741.04	13.600
741.35	6.579
741.66	10.222
741.98	10.096
742.29	16.832
742.61	7.805
742.92	12.281
743.23	16.509
743.55	16.667
743.86	13.453
744.18	10.784
744.49	10.660
744.80	11.224
745.12	14.019
745.43	19.431
745.74	14.865
746.06	15.421
746.37	6.881
746.68	9.615
747.00	14.833
747.31	11.538
747.62	9.174
747.94	14.847
748.25	8.257
748.56	13.333
748.88	13.146
749.19	16.667
749.50	7.767
749.82	5.634
750.13	6.250
750.44	12.308
750.75	14.391
751.07	17.438
751.38	16.312
751.69	11.969
752.01	16.016
752.32	13.077
752.63	15.299
752.94	11.600
753.26	12.971
753.57	10.833
753.88	11.741
754.19	13.944
754.51	10.150
754.82	13.553
755.13	11.739
755.44	12.602
755.75	12.400
756.07	11.439
756.38	18.705
756.69	15.358
757.00	14.330
757.31	15.210
757.63	12.037
757.94	16.102
758.25	16.138
758.56	14.130
758.87	15.774
759.18	14.196
759.50	10.438
759.81	16.722
760.12	16.615
760.43	13.095
760.74	12.994
761.05	16.575
761.36	16.619
761.67	15.710
761.99	8.935
762.30	11.314
762.61	12.757
762.92	14.957
763.23	14.754
763.54	13.853
763.85	10.204
764.16	13.415
764.47	13.600
764.78	14.286
765.10	14.426
765.41	16.109
765.72	17.702
766.03	16.832
766.34	15.385
766.65	11.297
766.96	9.390
767.27	14.851
767.58	1.124
767.89	9.877
768.20	11.602
768.51	13.065
768.82	15.865
769.13	18.142
769.44	12.134
769.75	12.821
770.06	13.453
770.37	10.784
770.68	16.505
770.99	11.650
771.30	14.706
771.61	13.469
771.92	19.917
772.23	13.063
772.54	13.260
772.85	11.628
773.16	12.698
773.47	8.876
773.78	16.092
774.09	9.375
774.39	9.317
774.70	13.605
775.01	4.828
775.32	7.143
775.63	10.526
775.94	6.767
776.25	1.600
776.56	9.091
776.87	9.524
777.18	-1.802
777.48	9.910
777.79	-1.575
778.10	10.092
778.41	9.649
778.72	1.681
779.03	7.746
779.34	12.838
779.65	16.197
779.95	14.570
780.26	12.230
780.57	15.827
780.88	9.859
781.19	2.521
781.50	18.121
781.80	16.374
782.11	10.465
782.42	10.692
782.73	14.379
783.04	10.345
783.34	6.107
783.65	9.396
783.96	2.308
784.27	15.000
784.57	9.929
784.88	9.615
785.19	10.909
785.50	9.091
785.81	9.524
786.11	5.042
786.42	0.885
786.73	-2.830
787.04	-3.670
787.34	3.960
787.65	18.333
787.96	7.438
788.26	10.870
788.57	3.968
788.88	4.878
789.19	12.800
789.49	9.924
789.80	25.758
790.11	2.830
790.41	12.871
790.72	6.383
791.03	8.696
791.33	8.235
791.64	2.469
791.95	6.522
792.25	7.955
792.56	14.103
792.87	-11.538
793.17	11.538
793.48	3.571
793.79	-3.750
794.09	24.038
794.40	11.458
794.70	14.414
795.01	11.719
795.32	6.087
795.62	7.609
795.93	9.434
796.23	20.202
796.54	1.220
796.85	-3.571
797.15	4.545
797.46	7.246
797.76	14.474
798.07	11.364
798.37	1.220
798.68	9.677
798.99	12.162
799.29	8.434
799.60	5.128
799.90	1.538
800.21	-4.545
800.51	4.000
800.82	12.000
801.12	-20.833
801.43	-28.333
801.73	-2.703
802.04	12.857
802.34	6.557
802.65	-2.985
802.95	9.091
803.26	3.448
803.56	18.462
803.87	5.660
804.17	3.226
804.48	5.882
804.78	-21.951
805.09	-2.899
805.39	8.824
805.70	-17.021
806.00	-5.263
806.30	26.923
806.61	23.684
806.91	9.459
807.22	3.947
807.52	17.045
807.83	-6.780
808.13	-22.727
808.43	-5.000
808.74	-10.345
809.04	11.111
809.35	0.000
809.65	-10.000
809.95	-18.367
810.26	7.042
810.56	-20.833
810.86	8.163
811.17	19.231
811.47	-12.766
811.77	-8.333
812.08	-7.547
812.38	-18.750
812.69	-3.636
812.99	-12.195
813.29	-24.324
813.59	-29.730
813.90	-9.091
814.20	-12.727
814.50	-10.000
814.81	5.455
815.11	-12.281
815.41	11.628
815.72	15.000
816.02	-28.571
816.32	-21.622
816.62	2.083
816.93	17.778
817.23	-26.667
817.53	-36.111
817.84	-10.811
818.14	-7.317
818.44	4.000
818.74	6.122
819.04	-4.878
819.35	-33.333
819.65	-2.273
819.95	-111.111
820.25	-15.152
820.56	-19.048
820.86	-11.111
821.16	-22.727
821.46	-13.043
821.76	-1.724
822.07	15.217
822.37	18.182
822.67	19.512
822.97	13.514
823.27	-34.286
823.57	-3.448
823.88	-23.529
824.18	-11.111
824.48	-20.000
824.78	-38.095
825.08	-7.143
825.38	-44.444
825.69	-12.903
825.99	-4.878
826.29	-29.630
826.59	-21.875
826.89	-29.032
827.19	-17.391
827.49	-33.333
827.79	-52.174
828.09	0.000
828.39	8.333
828.70	-21.875
829.00	-3.448
829.30	13.514
829.60	-83.333
829.90	18.519
830.20	-25.000
830.50	13.636
830.80	-76.471
831.10	18.182
831.40	-8.824
831.70	-15.385
832.00	6.061
832.30	0.000
832.60	-21.622
832.90	2000.000
833.20	-32.143
833.50	-70.000
833.80	-23.684
834.10	-41.667
834.40	-68.182
834.70	-86.667
835.00	-30.000
835.30	-20.833
835.60	-38.095
835.90	0.000
836.20	-48.000
836.50	-54.167
836.80	-63.158
837.10	-21.622
837.40	0.000
837.70	4.348
838.00	45.833
838.30	26.316
838.60	-170.000
838.90	-170.000
839.19	-83.333
839.49	-46.154
839.79	-36.842
840.09	-216.667
840.39	-70.000
840.69	-27.273
840.99	-33.333
841.29	-8.333
841.59	-92.308
841.88	-86.667
842.18	-107.143
842.48	16.667
842.78	-328.571
843.08	-64.286
843.38	-187.500
843.68	-43.750
843.97	0.000
844.27	-133.333
844.57	-63.636
844.87	-66.667
845.17	9.091
845.47	466.667
845.76	-93.333
846.06	-83.333
846.36	-300.000
846.66	-73.684
846.96	-18.182
847.25	-72.222
847.55	-255.556
847.85	-42.857
848.15	0.000
848.44	-300.000
848.74	-50.000
849.04	-115.385
849.34	-125.000
849.63	-100.000
849.93	-164.286
850.23	-30.000
850.53	-125.000
850.82	-33.333
851.12	-6.667
851.42	-82.353
851.71	37.500
852.01	23.529
852.31	-23.077
852.61	550.000
852.90	-17.647
853.20	6.667
853.50	-62.500
853.79	-142.857
854.09	-325.000
854.39	-30.000
854.68	5.000
854.98	9.524
855.28	-12.000
855.57	20.833
855.87	16.667
856.17	-28.000
856.46	-34.375
856.76	-15.000
857.05	-12.000
857.35	-141.667
857.65	-64.706
857.94	-100.000
858.24	-8.333
858.53	-20.000
858.83	-118.182
859.13	-28.000
859.42	-121.429
859.72	-62.500
860.01	4.167
860.31	-175.000
860.60	18.750
860.90	-166.667
861.20	-50.000
861.49	-53.333
861.79	-125.000
862.08	350.000
862.38	-133.333
862.67	342.857
862.97	300.000
863.26	-100.000
863.56	-118.182
863.85	5.263
864.15	-70.588
864.44	-160.000
864.74	-130.000
865.03	-111.111
865.33	-14.286
865.62	114.286
865.92	-15.789
866.21	-94.444
866.51	-54.545
866.80	-33.333
867.10	-62.500
867.39	6.250
867.69	-40.000
867.98	-40.000
868.27	35.294
868.57	0.000
868.86	950.000
869.16	-275.000
869.45	-228.571
869.75	700.000
870.04	-50.000
870.33	-800.000
870.63	-15.789
870.92	-58.333
871.22	-300.000
871.51	-214.286
871.80	-188.889
872.10	-75.000
>>>>>End Processed Spectral Data<<<<<
