SpectraSuite Data File
++++++++++++++++++++++++++++++++++++
Date: Tue May 12 17:05:34 PDT 2015
User: schluterlab
Dark Spectrum Present: Yes
Reference Spectrum Present: Yes
Number of Sampled Component Spectra: 1
Spectrometers: USB2E3373
Integration Time (usec): 3000 (USB2E3373)
Spectra Averaged: 3 (USB2E3373)
Boxcar Smoothing: 0 (USB2E3373)
Correct for Electrical Dark: No (USB2E3373)
Strobe/Lamp Enabled: No (USB2E3373)
Correct for Detector Non-linearity: No (USB2E3373)
Correct for Stray Light: No (USB2E3373)
Number of Pixels in Processed Spectrum: 2048
>>>>>Begin Processed Spectral Data<<<<<
178.53	0.000
178.91	-225.000
179.29	-975.000
179.67	-3000.000
180.04	-120.000
180.42	450.000
180.80	1900.000
181.18	0.000
181.56	-387.500
181.94	0.000
182.31	1000.000
182.69	-2800.000
183.07	442.857
183.45	-4300.000
183.83	-1450.000
184.20	400.000
184.58	514.286
184.96	-292.308
185.34	-308.333
185.72	2150.000
186.09	-800.000
186.47	-3200.000
186.85	1033.333
187.23	580.000
187.61	1500.000
187.98	587.500
188.36	257.143
188.74	316.667
189.12	316.667
189.49	925.000
189.87	0.000
190.25	462.500
190.63	2300.000
191.00	-250.000
191.38	-3900.000
191.76	-750.000
192.14	575.000
192.51	-3300.000
192.89	1750.000
193.27	1366.667
193.65	-1100.000
194.02	-660.000
194.40	400.000
194.78	-200.000
195.15	246.667
195.53	-3200.000
195.91	-640.000
196.29	4900.000
196.66	237.500
197.04	900.000
197.42	-1600.000
197.79	550.000
198.17	350.000
198.55	0.000
198.92	500.000
199.30	1266.667
199.68	2100.000
200.05	583.333
200.43	-316.667
200.81	188.889
201.18	3800.000
201.56	291.667
201.94	-675.000
202.31	-350.000
202.69	-480.000
203.07	2700.000
203.44	-450.000
203.82	350.000
204.19	640.000
204.57	-1100.000
204.95	-750.000
205.32	-700.000
205.70	633.333
206.08	550.000
206.45	-666.667
206.83	355.556
207.20	215.789
207.58	241.667
207.96	760.000
208.33	0.000
208.71	500.000
209.08	680.000
209.46	-3200.000
209.84	-825.000
210.21	740.000
210.59	-580.000
210.96	333.333
211.34	-1050.000
211.71	354.545
212.09	1075.000
212.46	1700.000
212.84	-333.333
213.22	444.444
213.59	-2900.000
213.97	380.000
214.34	950.000
214.72	1433.333
215.09	1266.667
215.47	-2700.000
215.84	-360.000
216.22	-362.500
216.59	0.000
216.97	0.000
217.34	1250.000
217.72	-1600.000
218.09	1200.000
218.47	525.000
218.84	550.000
219.22	1266.667
219.59	1100.000
219.97	614.286
220.34	422.222
220.72	1250.000
221.09	3700.000
221.47	208.333
221.84	1233.333
222.22	390.000
222.59	222.222
222.97	235.714
223.34	218.750
223.72	-1750.000
224.09	1400.000
224.46	323.077
224.84	-825.000
225.21	422.222
225.59	266.667
225.96	1666.667
226.34	-720.000
226.71	-750.000
227.08	-480.000
227.46	0.000
227.83	-733.333
228.21	-1250.000
228.58	325.000
228.95	850.000
229.33	444.444
229.70	1025.000
230.08	361.538
230.45	4000.000
230.82	-1025.000
231.20	-1100.000
231.57	-933.333
231.95	560.000
232.32	341.667
232.69	533.333
233.07	358.333
233.44	-1700.000
233.81	240.000
234.19	129.630
234.56	250.000
234.93	170.588
235.31	225.000
235.68	287.500
236.05	178.571
236.43	159.259
236.80	271.429
237.17	165.517
237.55	121.875
237.92	140.000
238.29	115.152
238.67	125.000
239.04	109.756
239.41	87.500
239.79	102.500
240.16	87.500
240.53	81.967
240.91	78.261
241.28	79.661
241.65	81.818
242.02	91.549
242.40	80.000
242.77	57.143
243.14	58.228
243.51	72.727
243.89	56.075
244.26	55.140
244.63	59.406
245.00	59.633
245.38	45.763
245.75	44.697
246.12	53.333
246.49	46.809
246.87	37.705
247.24	48.000
247.61	50.000
247.98	46.939
248.36	45.455
248.73	53.061
249.10	40.476
249.47	41.500
249.84	43.781
250.22	47.568
250.59	46.500
250.96	41.772
251.33	42.791
251.70	38.393
252.08	36.975
252.45	42.629
252.82	39.163
253.19	35.178
253.56	40.000
253.94	40.580
254.31	39.535
254.68	36.934
255.05	39.310
255.42	36.861
255.79	40.717
256.16	38.644
256.54	42.208
256.91	34.641
257.28	37.124
257.65	33.856
258.02	38.348
258.39	34.384
258.76	37.971
259.14	33.429
259.51	36.443
259.88	36.170
260.25	32.967
260.62	38.082
260.99	31.956
261.36	33.148
261.73	30.585
262.10	39.005
262.47	33.500
262.85	33.867
263.22	32.905
263.59	35.294
263.96	35.589
264.33	32.346
264.70	34.889
265.07	34.146
265.44	33.716
265.81	34.906
266.18	34.783
266.55	33.570
266.92	34.676
267.29	33.772
267.66	34.305
268.03	33.184
268.40	32.135
268.77	29.736
269.14	31.670
269.51	34.521
269.88	33.878
270.25	28.294
270.62	33.691
270.99	32.657
271.36	33.333
271.73	33.543
272.10	30.707
272.47	29.960
272.84	29.741
273.21	30.579
273.58	30.567
273.95	33.470
274.32	34.047
274.69	33.071
275.06	31.330
275.43	30.077
275.80	32.453
276.17	32.721
276.54	30.093
276.91	32.649
277.28	28.832
277.65	29.336
278.02	31.801
278.39	29.496
278.76	31.552
279.13	26.512
279.50	31.455
279.87	28.678
280.23	27.808
280.60	29.380
280.97	28.448
281.34	29.208
281.71	29.913
282.08	30.427
282.45	28.209
282.82	29.599
283.19	30.684
283.56	29.917
283.92	30.456
284.29	29.617
284.66	29.412
285.03	28.192
285.40	30.248
285.77	27.469
286.14	28.793
286.51	26.840
286.87	26.424
287.24	27.628
287.61	27.660
287.98	27.761
288.35	27.407
288.72	26.707
289.08	26.276
289.45	27.896
289.82	27.656
290.19	26.061
290.56	27.656
290.93	24.460
291.29	27.072
291.66	25.989
292.03	25.526
292.40	26.965
292.77	23.816
293.13	26.961
293.50	23.347
293.87	24.932
294.24	25.874
294.60	25.168
294.97	25.734
295.34	24.037
295.71	22.996
296.08	25.200
296.44	25.667
296.81	22.829
297.18	23.321
297.55	23.153
297.91	22.291
298.28	23.430
298.65	23.190
299.02	22.557
299.38	22.542
299.75	21.220
300.12	23.165
300.48	22.248
300.85	22.765
301.22	22.326
301.59	21.226
301.95	21.704
302.32	22.701
302.69	22.851
303.05	22.896
303.42	20.179
303.79	23.077
304.15	21.232
304.52	20.930
304.89	21.748
305.25	21.468
305.62	20.789
305.99	21.413
306.35	20.211
306.72	21.436
307.09	20.600
307.45	21.436
307.82	19.856
308.19	21.443
308.55	20.300
308.92	20.020
309.29	22.189
309.65	20.912
310.02	19.878
310.38	20.239
310.75	19.576
311.12	20.594
311.48	21.815
311.85	21.469
312.22	20.917
312.58	19.631
312.95	21.748
313.31	21.161
313.68	19.606
314.05	19.963
314.41	21.043
314.78	20.170
315.14	19.810
315.51	20.624
315.87	20.438
316.24	21.195
316.61	20.591
316.97	19.358
317.34	20.575
317.70	20.632
318.07	21.174
318.43	20.475
318.80	19.965
319.16	19.755
319.53	20.088
319.89	19.982
320.26	21.601
320.62	21.337
320.99	21.640
321.35	20.037
321.72	20.304
322.08	20.037
322.45	19.619
322.81	20.586
323.18	20.782
323.54	21.167
323.91	21.668
324.27	21.927
324.64	18.772
325.00	20.431
325.37	19.646
325.73	20.826
326.10	20.878
326.46	20.562
326.83	19.520
327.19	20.080
327.56	20.208
327.92	21.475
328.29	21.277
328.65	20.462
329.01	21.300
329.38	21.151
329.74	20.154
330.11	20.851
330.47	21.569
330.84	20.794
331.20	20.051
331.56	20.294
331.93	20.103
332.29	18.537
332.66	21.344
333.02	19.244
333.38	20.244
333.75	20.767
334.11	19.044
334.48	19.658
334.84	19.932
335.20	19.760
335.57	20.319
335.93	20.017
336.29	19.983
336.66	21.012
337.02	20.017
337.38	19.347
337.75	19.764
338.11	19.662
338.47	19.221
338.84	19.306
339.20	19.048
339.56	18.839
339.93	19.983
340.29	18.151
340.65	19.531
341.02	19.791
341.38	19.869
341.74	20.017
342.11	18.781
342.47	19.032
342.83	19.770
343.20	19.240
343.56	18.110
343.92	18.910
344.28	19.777
344.65	19.560
345.01	19.127
345.37	18.750
345.73	18.095
346.10	18.486
346.46	19.059
346.82	18.519
347.19	20.247
347.55	18.813
347.91	18.505
348.27	17.971
348.63	18.592
349.00	19.117
349.36	18.444
349.72	18.731
350.08	18.478
350.45	18.583
350.81	18.807
351.17	17.488
351.53	18.630
351.89	19.037
352.26	18.216
352.62	18.100
352.98	18.865
353.34	18.336
353.70	17.125
354.07	19.308
354.43	18.817
354.79	18.223
355.15	17.917
355.51	18.278
355.87	19.051
356.24	18.399
356.60	18.569
356.96	18.044
357.32	18.764
357.68	19.090
358.04	17.781
358.40	18.516
358.77	18.332
359.13	18.318
359.49	17.939
359.85	18.094
360.21	17.608
360.57	17.591
360.93	19.120
361.29	18.398
361.66	18.568
362.02	17.827
362.38	18.470
362.74	17.905
363.10	17.882
363.46	17.818
363.82	18.934
364.18	17.994
364.54	19.027
364.90	18.876
365.26	17.696
365.62	17.749
365.98	17.825
366.35	17.241
366.71	17.349
367.07	17.747
367.43	18.805
367.79	17.753
368.15	17.503
368.51	17.781
368.87	17.663
369.23	17.741
369.59	16.858
369.95	17.972
370.31	17.385
370.67	17.349
371.03	17.297
371.39	17.521
371.75	17.655
372.11	17.811
372.47	16.986
372.83	16.927
373.19	17.889
373.55	18.900
373.91	16.091
374.27	18.056
374.63	17.424
374.99	17.992
375.35	17.742
375.71	17.744
376.07	17.573
376.42	16.880
376.78	17.726
377.14	17.562
377.50	18.227
377.86	18.001
378.22	17.002
378.58	18.341
378.94	17.803
379.30	16.798
379.66	17.459
380.02	18.299
380.38	16.569
380.74	19.377
381.09	18.049
381.45	17.283
381.81	16.726
382.17	16.789
382.53	17.337
382.89	18.037
383.25	17.111
383.61	17.349
383.97	17.936
384.32	17.842
384.68	17.766
385.04	17.057
385.40	18.090
385.76	17.905
386.12	17.563
386.48	17.264
386.83	17.482
387.19	17.668
387.55	17.668
387.91	17.321
388.27	18.203
388.62	17.899
388.98	16.735
389.34	17.192
389.70	16.509
390.06	17.622
390.42	16.718
390.77	18.182
391.13	18.045
391.49	17.483
391.85	18.215
392.20	18.176
392.56	18.459
392.92	16.732
393.28	17.377
393.64	16.915
393.99	17.842
394.35	17.481
394.71	17.250
395.07	18.127
395.42	17.564
395.78	17.705
396.14	18.434
396.50	17.449
396.85	17.988
397.21	17.990
397.57	17.753
397.92	17.331
398.28	17.650
398.64	17.917
399.00	16.836
399.35	16.479
399.71	17.936
400.07	17.180
400.42	17.970
400.78	17.889
401.14	17.440
401.49	17.224
401.85	17.845
402.21	16.813
402.57	18.432
402.92	17.212
403.28	17.124
403.63	16.716
403.99	18.335
404.35	18.230
404.70	18.370
405.06	17.350
405.42	17.714
405.77	17.200
406.13	17.625
406.49	16.828
406.84	17.992
407.20	18.094
407.55	17.723
407.91	18.060
408.27	18.496
408.62	18.391
408.98	18.096
409.34	17.884
409.69	16.428
410.05	17.352
410.40	17.845
410.76	17.230
411.11	17.654
411.47	17.284
411.83	17.985
412.18	16.123
412.54	17.297
412.89	16.224
413.25	17.332
413.60	17.407
413.96	17.355
414.31	17.355
414.67	18.374
415.03	18.072
415.38	18.233
415.74	17.625
416.09	18.988
416.45	17.841
416.80	17.704
417.16	18.714
417.51	18.153
417.87	17.772
418.22	18.165
418.58	18.280
418.93	17.549
419.29	16.451
419.64	18.474
420.00	18.914
420.35	17.770
420.71	17.503
421.06	17.893
421.42	18.020
421.77	17.490
422.12	17.310
422.48	17.565
422.83	17.690
423.19	17.063
423.54	17.499
423.90	17.384
424.25	17.556
424.61	18.340
424.96	17.956
425.31	17.406
425.67	18.013
426.02	17.386
426.38	17.036
426.73	17.698
427.09	17.556
427.44	17.051
427.79	17.267
428.15	18.444
428.50	18.971
428.85	17.637
429.21	17.612
429.56	17.398
429.92	18.299
430.27	17.223
430.62	17.083
430.98	17.465
431.33	17.087
431.68	16.938
432.04	17.020
432.39	18.057
432.74	18.091
433.10	17.829
433.45	18.208
433.80	18.367
434.16	18.129
434.51	17.905
434.86	18.236
435.22	17.126
435.57	18.020
435.92	17.758
436.28	18.145
436.63	17.882
436.98	18.187
437.34	18.208
437.69	17.469
438.04	17.957
438.39	18.914
438.75	18.430
439.10	17.863
439.45	18.259
439.81	17.814
440.16	18.437
440.51	17.849
440.86	18.860
441.22	18.074
441.57	18.268
441.92	17.818
442.27	18.196
442.63	17.835
442.98	17.457
443.33	18.265
443.68	18.008
444.03	18.049
444.39	18.267
444.74	18.271
445.09	17.852
445.44	18.438
445.79	18.031
446.15	18.263
446.50	18.038
446.85	17.878
447.20	17.960
447.55	17.618
447.91	18.221
448.26	18.637
448.61	19.016
448.96	17.919
449.31	18.702
449.66	20.100
450.02	18.855
450.37	18.656
450.72	18.678
451.07	18.674
451.42	19.146
451.77	19.244
452.12	18.264
452.47	19.927
452.83	19.268
453.18	19.399
453.53	19.420
453.88	19.600
454.23	19.524
454.58	18.823
454.93	19.375
455.28	19.890
455.63	19.149
455.98	19.515
456.34	20.000
456.69	19.451
457.04	18.735
457.39	19.200
457.74	19.989
458.09	18.866
458.44	18.949
458.79	19.151
459.14	19.367
459.49	19.592
459.84	19.185
460.19	18.814
460.54	19.658
460.89	19.083
461.24	19.359
461.59	19.388
461.94	19.504
462.29	19.279
462.64	20.540
462.99	18.874
463.34	21.452
463.69	19.903
464.04	20.092
464.39	19.519
464.74	18.464
465.09	19.907
465.44	19.913
465.79	18.726
466.14	19.025
466.49	18.394
466.84	19.064
467.19	19.508
467.54	20.120
467.89	19.542
468.24	18.761
468.59	19.405
468.94	20.229
469.29	21.014
469.64	21.479
469.99	21.530
470.34	20.114
470.68	20.345
471.03	20.881
471.38	20.861
471.73	19.987
472.08	21.657
472.43	20.857
472.78	20.999
473.13	20.150
473.48	20.660
473.83	20.671
474.17	20.426
474.52	20.498
474.87	19.841
475.22	20.788
475.57	19.465
475.92	19.520
476.27	19.859
476.61	19.678
476.96	20.428
477.31	20.925
477.66	20.021
478.01	20.371
478.36	20.443
478.70	20.347
479.05	20.031
479.40	20.089
479.75	20.457
480.10	20.281
480.45	19.561
480.79	20.369
481.14	19.496
481.49	18.664
481.84	19.525
482.19	19.869
482.53	19.851
482.88	19.937
483.23	19.486
483.58	20.242
483.92	21.069
484.27	20.420
484.62	19.737
484.97	19.868
485.31	18.347
485.66	16.763
486.01	16.722
486.36	16.017
486.70	15.979
487.05	16.893
487.40	17.759
487.75	18.205
488.09	18.068
488.44	19.025
488.79	19.125
489.13	19.970
489.48	19.577
489.83	19.933
490.17	19.240
490.52	20.241
490.87	20.000
491.22	20.700
491.56	20.773
491.91	20.116
492.26	20.891
492.60	20.911
492.95	20.390
493.30	20.837
493.64	20.665
493.99	21.154
494.34	20.574
494.68	20.584
495.03	20.970
495.37	20.846
495.72	21.538
496.07	20.934
496.41	20.591
496.76	20.684
497.11	21.251
497.45	21.043
497.80	20.853
498.14	21.036
498.49	20.659
498.84	21.215
499.18	20.750
499.53	21.130
499.87	21.024
500.22	21.234
500.56	20.845
500.91	21.660
501.26	21.819
501.60	20.947
501.95	20.520
502.29	21.289
502.64	21.350
502.98	20.142
503.33	21.114
503.67	20.883
504.02	21.048
504.36	20.679
504.71	21.665
505.06	21.211
505.40	21.900
505.75	21.469
506.09	21.605
506.44	22.039
506.78	21.692
507.13	21.716
507.47	21.203
507.82	21.655
508.16	22.440
508.51	21.643
508.85	21.557
509.19	21.831
509.54	22.314
509.88	22.079
510.23	21.520
510.57	21.622
510.92	22.527
511.26	21.787
511.61	22.649
511.95	22.001
512.30	22.750
512.64	21.859
512.98	22.399
513.33	22.900
513.67	22.786
514.02	22.753
514.36	22.482
514.70	22.453
515.05	22.536
515.39	23.300
515.74	23.346
516.08	23.257
516.42	23.989
516.77	22.880
517.11	23.040
517.46	23.114
517.80	23.321
518.14	24.056
518.49	22.822
518.83	22.473
519.17	24.126
519.52	23.703
519.86	23.815
520.20	24.274
520.55	23.177
520.89	23.678
521.23	24.357
521.58	24.211
521.92	24.490
522.26	24.882
522.61	25.609
522.95	25.105
523.29	25.088
523.64	23.642
523.98	23.826
524.32	23.241
524.66	24.290
525.01	23.964
525.35	23.925
525.69	24.804
526.04	25.461
526.38	24.485
526.72	24.284
527.06	24.187
527.41	24.909
527.75	24.102
528.09	23.901
528.43	25.015
528.78	25.045
529.12	24.804
529.46	24.956
529.80	24.299
530.15	24.101
530.49	24.308
530.83	24.863
531.17	24.477
531.51	25.138
531.86	24.215
532.20	24.104
532.54	24.294
532.88	24.297
533.22	24.619
533.57	24.954
533.91	23.310
534.25	23.601
534.59	24.620
534.93	23.151
535.27	23.164
535.62	23.804
535.96	23.995
536.30	24.985
536.64	23.478
536.98	23.600
537.32	25.437
537.66	23.916
538.01	24.520
538.35	23.269
538.69	23.968
539.03	23.818
539.37	23.422
539.71	23.889
540.05	23.631
540.39	24.591
540.73	23.861
541.07	23.212
541.42	25.124
541.76	24.168
542.10	24.291
542.44	23.504
542.78	24.481
543.12	24.049
543.46	23.622
543.80	24.123
544.14	23.220
544.48	22.810
544.82	23.303
545.16	23.376
545.50	23.479
545.84	24.179
546.18	24.122
546.52	25.049
546.86	24.694
547.20	24.548
547.54	24.193
547.88	23.905
548.22	23.740
548.56	23.276
548.90	23.191
549.24	24.700
549.58	23.711
549.92	24.361
550.26	24.679
550.60	23.553
550.94	25.170
551.28	26.000
551.62	24.690
551.96	24.257
552.30	23.929
552.64	24.660
552.98	23.776
553.32	22.855
553.66	23.388
554.00	24.453
554.34	24.700
554.68	24.328
555.02	24.644
555.36	24.402
555.69	24.673
556.03	24.204
556.37	24.347
556.71	24.641
557.05	23.394
557.39	25.133
557.73	24.528
558.07	24.950
558.41	24.743
558.75	24.966
559.08	26.447
559.42	23.908
559.76	26.158
560.10	24.019
560.44	24.685
560.78	24.041
561.12	23.776
561.45	23.905
561.79	24.095
562.13	23.247
562.47	24.140
562.81	23.878
563.15	24.370
563.48	22.422
563.82	24.392
564.16	23.570
564.50	23.207
564.84	23.040
565.17	23.173
565.51	24.076
565.85	23.134
566.19	23.512
566.52	22.323
566.86	23.234
567.20	23.034
567.54	21.670
567.88	22.274
568.21	21.418
568.55	21.304
568.89	21.031
569.23	19.629
569.56	20.407
569.90	19.583
570.24	18.944
570.57	18.754
570.91	18.222
571.25	18.268
571.59	17.879
571.92	17.653
572.26	17.601
572.60	17.412
572.93	17.740
573.27	18.208
573.61	17.352
573.95	17.580
574.28	17.378
574.62	16.744
574.96	17.021
575.29	16.663
575.63	16.655
575.97	16.918
576.30	16.882
576.64	17.271
576.98	16.671
577.31	17.156
577.65	16.576
577.98	16.028
578.32	16.332
578.66	16.388
578.99	16.614
579.33	16.870
579.67	16.432
580.00	16.808
580.34	16.696
580.67	16.622
581.01	16.809
581.35	16.299
581.68	16.203
582.02	15.505
582.35	15.543
582.69	16.037
583.02	16.091
583.36	16.326
583.70	17.039
584.03	17.325
584.37	17.138
584.70	16.546
585.04	16.869
585.37	16.704
585.71	16.652
586.04	16.640
586.38	16.998
586.72	16.911
587.05	17.319
587.39	16.890
587.72	16.736
588.06	16.737
588.39	17.042
588.73	17.434
589.06	17.741
589.40	17.903
589.73	17.765
590.07	18.703
590.40	18.537
590.73	19.868
591.07	19.583
591.40	18.762
591.74	19.156
592.07	18.927
592.41	18.745
592.74	18.308
593.08	17.513
593.41	17.534
593.75	17.452
594.08	17.924
594.41	17.954
594.75	17.808
595.08	18.004
595.42	18.005
595.75	17.835
596.09	18.213
596.42	17.917
596.75	19.231
597.09	18.778
597.42	19.510
597.75	18.945
598.09	19.245
598.42	19.013
598.76	18.311
599.09	18.794
599.42	18.374
599.76	18.046
600.09	18.034
600.42	18.163
600.76	17.913
601.09	18.122
601.42	17.740
601.76	18.332
602.09	18.433
602.42	18.299
602.76	18.634
603.09	18.929
603.42	19.083
603.76	18.149
604.09	18.784
604.42	17.815
604.76	19.004
605.09	19.020
605.42	19.464
605.75	18.595
606.09	18.095
606.42	18.377
606.75	18.811
607.09	18.555
607.42	18.562
607.75	19.387
608.08	18.887
608.42	19.295
608.75	18.828
609.08	18.874
609.41	19.727
609.75	19.872
610.08	19.514
610.41	19.587
610.74	19.221
611.07	19.918
611.41	20.528
611.74	20.363
612.07	19.701
612.40	19.883
612.73	20.419
613.07	20.781
613.40	20.401
613.73	20.170
614.06	19.950
614.39	20.354
614.72	19.789
615.06	19.683
615.39	19.158
615.72	19.458
616.05	20.643
616.38	20.954
616.71	19.967
617.05	20.264
617.38	20.506
617.71	20.979
618.04	19.854
618.37	20.845
618.70	20.208
619.03	21.612
619.36	22.550
619.69	21.966
620.03	23.940
620.36	22.351
620.69	22.095
621.02	22.147
621.35	22.278
621.68	22.493
622.01	23.838
622.34	23.234
622.67	23.385
623.00	22.941
623.33	22.065
623.66	22.621
623.99	23.219
624.32	22.290
624.65	22.449
624.99	22.921
625.32	22.378
625.65	21.862
625.98	22.803
626.31	23.591
626.64	23.159
626.97	24.331
627.30	23.680
627.63	23.783
627.96	23.552
628.29	24.505
628.62	24.893
628.95	26.152
629.28	26.556
629.61	23.374
629.94	23.941
630.26	26.516
630.59	26.773
630.92	25.740
631.25	26.564
631.58	27.869
631.91	25.404
632.24	25.753
632.57	26.621
632.90	28.157
633.23	28.751
633.56	26.976
633.89	28.081
634.22	28.310
634.55	29.032
634.88	27.930
635.20	28.027
635.53	29.152
635.86	29.306
636.19	28.171
636.52	26.054
636.85	26.969
637.18	27.952
637.51	27.486
637.83	28.947
638.16	28.488
638.49	29.701
638.82	28.991
639.15	28.437
639.48	29.265
639.81	28.816
640.13	29.939
640.46	29.330
640.79	29.389
641.12	28.346
641.45	31.177
641.77	28.666
642.10	30.120
642.43	29.730
642.76	31.676
643.09	30.403
643.41	31.557
643.74	31.799
644.07	32.743
644.40	31.065
644.73	33.333
645.05	31.798
645.38	32.006
645.71	32.322
646.04	32.214
646.36	33.333
646.69	30.720
647.02	32.480
647.35	32.283
647.67	32.577
648.00	32.573
648.33	31.880
648.66	32.879
648.98	29.710
649.31	27.260
649.64	28.769
649.96	27.881
650.29	29.857
650.62	31.370
650.94	31.325
651.27	32.855
651.60	30.829
651.92	32.565
652.25	31.181
652.58	30.355
652.90	28.743
653.23	30.133
653.56	29.377
653.88	30.103
654.21	30.938
654.54	29.575
654.86	29.499
655.19	28.892
655.52	21.721
655.84	13.809
656.17	15.005
656.49	21.198
656.82	23.458
657.15	18.529
657.47	14.286
657.80	10.974
658.13	8.974
658.45	12.524
658.78	15.261
659.10	15.855
659.43	16.504
659.75	18.317
660.08	19.737
660.41	22.595
660.73	26.725
661.06	29.129
661.38	32.709
661.71	35.612
662.03	34.030
662.36	32.190
662.68	32.030
663.01	35.495
663.33	33.774
663.66	33.728
663.98	35.317
664.31	33.955
664.63	35.632
664.96	35.084
665.28	31.450
665.61	31.321
665.93	33.774
666.26	34.206
666.58	37.064
666.91	33.398
667.23	33.936
667.56	33.676
667.88	36.515
668.21	35.861
668.53	35.887
668.86	35.671
669.18	32.179
669.50	32.438
669.83	38.193
670.15	34.511
670.48	31.836
670.80	34.064
671.13	33.865
671.45	34.068
671.77	35.065
672.10	31.418
672.42	28.947
672.75	30.854
673.07	30.048
673.39	28.914
673.72	31.142
674.04	30.645
674.37	32.486
674.69	32.342
675.01	31.343
675.34	33.721
675.66	34.180
675.98	33.333
676.31	31.200
676.63	29.225
676.95	33.929
677.28	32.252
677.60	33.602
677.92	32.937
678.25	31.977
678.57	34.451
678.89	30.922
679.22	31.985
679.54	29.893
679.86	29.668
680.18	30.756
680.51	28.690
680.83	27.534
681.15	29.289
681.48	30.556
681.80	31.349
682.12	29.412
682.44	29.910
682.77	28.648
683.09	32.039
683.41	33.469
683.73	30.512
684.06	31.151
684.38	31.977
684.70	30.396
685.02	28.125
685.34	29.930
685.67	29.582
685.99	26.929
686.31	28.351
686.63	28.780
686.96	27.778
687.28	29.027
687.60	28.328
687.92	30.318
688.24	28.276
688.56	29.181
688.89	29.254
689.21	29.672
689.53	32.411
689.85	29.065
690.17	31.845
690.49	33.669
690.82	30.882
691.14	32.323
691.46	33.265
691.78	29.825
692.10	29.771
692.42	28.131
692.74	32.364
693.06	29.845
693.39	28.656
693.71	29.862
694.03	30.966
694.35	33.133
694.67	33.401
694.99	35.477
695.31	33.333
695.63	33.710
695.95	31.674
696.27	31.858
696.59	33.174
696.91	33.671
697.23	34.389
697.56	27.801
697.88	26.148
698.20	28.679
698.52	29.377
698.84	29.979
699.16	31.557
699.48	32.627
699.80	33.551
700.12	33.949
700.44	33.879
700.76	34.129
701.08	35.509
701.40	36.623
701.72	37.968
702.04	38.482
702.36	36.559
702.68	35.638
703.00	32.581
703.32	36.725
703.64	32.494
703.96	32.812
704.28	34.921
704.60	36.901
704.91	34.454
705.23	34.091
705.55	35.905
705.87	38.095
706.19	36.050
706.51	40.125
706.83	34.513
707.15	34.759
707.47	31.477
707.79	33.793
708.11	29.478
708.43	30.112
708.74	28.959
709.06	30.930
709.38	30.521
709.70	34.877
710.02	33.967
710.34	34.530
710.66	35.000
710.98	32.514
711.29	32.312
711.61	35.655
711.93	34.043
712.25	37.048
712.57	37.299
712.89	37.879
713.20	35.783
713.52	38.318
713.84	37.462
714.16	34.203
714.48	28.530
714.80	34.417
715.11	30.851
715.43	29.050
715.75	31.268
716.07	32.370
716.39	38.000
716.70	36.760
717.02	39.394
717.34	41.367
717.66	40.972
717.97	43.561
718.29	39.085
718.61	34.797
718.93	37.024
719.24	37.919
719.56	32.759
719.88	35.032
720.20	34.516
720.51	33.987
720.83	35.452
721.15	36.395
721.46	33.219
721.78	37.631
722.10	36.458
722.42	41.472
722.73	38.267
723.05	37.544
723.37	35.336
723.68	39.453
724.00	40.152
724.32	41.065
724.63	36.538
724.95	38.039
725.27	36.431
725.58	38.235
725.90	30.634
726.22	33.562
726.53	34.114
726.85	31.270
727.16	39.933
727.48	32.226
727.80	36.331
728.11	35.000
728.43	34.058
728.74	34.965
729.06	33.333
729.38	38.246
729.69	37.667
730.01	33.882
730.32	34.899
730.64	33.555
730.96	33.033
731.27	30.581
731.59	29.885
731.90	28.691
732.22	32.286
732.53	30.769
732.85	32.749
733.16	27.711
733.48	31.034
733.80	32.464
734.11	30.982
734.43	30.702
734.74	29.223
735.06	32.275
735.37	27.062
735.69	31.594
736.00	33.028
736.32	28.788
736.63	30.599
736.95	30.745
737.26	31.707
737.58	30.982
737.89	29.217
738.21	32.781
738.52	32.107
738.83	36.630
739.15	30.662
739.46	31.724
739.78	33.333
740.09	34.402
740.41	32.515
740.72	36.190
741.04	36.014
741.35	36.719
741.66	34.783
741.98	38.627
742.29	39.352
742.61	38.496
742.92	31.356
743.23	32.400
743.55	37.358
743.86	36.863
744.18	33.898
744.49	39.669
744.80	42.396
745.12	38.393
745.43	41.589
745.74	43.111
746.06	37.281
746.37	42.791
746.68	41.593
747.00	40.807
747.31	34.874
747.62	31.557
747.94	39.914
748.25	34.630
748.56	40.254
748.88	39.286
749.19	42.326
749.50	35.616
749.82	36.626
750.13	35.573
750.44	32.000
750.75	30.537
751.07	34.539
751.38	32.343
751.69	31.313
752.01	32.517
752.32	32.890
752.63	35.906
752.94	30.769
753.26	37.891
753.57	34.630
753.88	37.453
754.19	32.491
754.51	34.884
754.82	28.188
755.13	32.770
755.44	33.704
755.75	33.677
756.07	33.562
756.38	29.739
756.69	32.813
757.00	32.641
757.31	31.268
757.63	28.650
757.94	27.926
758.25	27.053
758.56	23.570
758.87	29.574
759.18	28.779
759.50	29.179
759.81	33.828
760.12	31.180
760.43	27.451
760.74	26.582
761.05	27.586
761.36	25.521
761.67	28.032
761.99	31.549
762.30	29.904
762.61	30.208
762.92	34.470
763.23	32.453
763.54	36.154
763.85	30.350
764.16	34.722
764.47	30.743
764.78	29.316
765.10	28.049
765.41	28.125
765.72	28.177
766.03	25.076
766.34	31.010
766.65	34.221
766.96	31.579
767.27	41.121
767.58	45.545
767.89	43.094
768.20	41.463
768.51	38.265
768.82	37.719
769.13	30.588
769.44	32.707
769.75	32.959
770.06	35.294
770.37	34.211
770.68	31.111
770.99	37.288
771.30	33.891
771.61	31.538
771.92	31.679
772.23	31.452
772.54	39.556
772.85	39.109
773.16	41.304
773.47	42.222
773.78	36.139
774.09	46.023
774.39	43.030
774.70	35.294
775.01	29.605
775.32	40.994
775.63	47.945
775.94	48.765
776.25	44.828
776.56	47.328
776.87	45.038
777.18	51.515
777.48	47.244
777.79	43.077
778.10	49.242
778.41	52.239
778.72	43.609
779.03	39.103
779.34	39.865
779.65	42.236
779.95	42.857
780.26	35.119
780.57	51.701
780.88	50.355
781.19	60.000
781.50	35.503
781.80	43.169
782.11	42.857
782.42	28.161
782.73	40.113
783.04	36.129
783.34	38.760
783.65	40.816
783.96	46.452
784.27	47.682
784.57	41.447
784.88	38.406
785.19	47.500
785.50	50.862
785.81	55.039
786.11	48.148
786.42	51.181
786.73	48.649
787.04	52.830
787.34	40.650
787.65	53.788
787.96	53.788
788.26	48.819
788.57	43.796
788.88	46.479
789.19	45.038
789.49	47.973
789.80	42.969
790.11	52.066
790.41	64.815
790.72	52.778
791.03	66.346
791.33	62.626
791.64	69.474
791.95	55.789
792.25	54.167
792.56	60.000
792.87	58.537
793.17	57.955
793.48	68.235
793.79	66.667
794.09	59.091
794.40	52.586
794.70	50.794
795.01	40.769
795.32	44.275
795.62	45.299
795.93	47.899
796.23	48.780
796.54	53.061
796.85	51.136
797.15	77.922
797.46	68.293
797.76	41.250
798.07	72.000
798.37	62.500
798.68	62.500
798.99	67.073
799.29	74.667
799.60	54.651
799.90	64.474
800.21	66.667
800.51	74.648
800.82	72.414
801.12	69.231
801.43	68.000
801.73	74.138
802.04	62.338
802.34	63.014
802.65	84.314
802.95	89.130
803.26	83.871
803.56	101.667
803.87	76.119
804.17	82.540
804.48	81.132
804.78	62.500
805.09	69.697
805.39	71.429
805.70	75.439
806.00	71.429
806.30	78.125
806.61	64.706
806.91	56.667
807.22	51.087
807.52	64.474
807.83	71.053
808.13	68.116
808.43	70.968
808.74	83.562
809.04	92.857
809.35	60.294
809.65	63.636
809.95	84.314
810.26	85.185
810.56	82.813
810.86	77.551
811.17	84.211
811.47	71.739
811.77	81.034
812.08	63.793
812.38	69.048
812.69	85.714
812.99	104.444
813.29	91.429
813.59	122.581
813.90	70.690
814.20	95.082
814.50	76.000
814.81	75.439
815.11	90.741
815.41	76.786
815.72	94.643
816.02	100.000
816.32	107.317
816.62	84.483
816.93	100.000
817.23	109.756
817.53	101.786
817.84	95.556
818.14	100.000
818.44	97.917
818.74	94.340
819.04	66.667
819.35	133.333
819.65	80.769
819.95	90.741
820.25	114.894
820.56	121.622
820.86	121.053
821.16	74.468
821.46	102.632
821.76	98.182
822.07	83.333
822.37	89.474
822.67	104.651
822.97	89.474
823.27	117.391
823.57	118.750
823.88	128.205
824.18	109.091
824.48	169.565
824.78	127.778
825.08	160.870
825.38	172.414
825.69	114.706
825.99	97.872
826.29	91.667
826.59	125.714
826.89	116.667
827.19	97.143
827.49	154.839
827.79	184.615
828.09	107.143
828.39	108.333
828.70	83.784
829.00	150.000
829.30	193.750
829.60	130.556
829.90	129.032
830.20	87.879
830.50	132.432
830.80	141.667
831.10	157.692
831.40	161.905
831.70	204.167
832.00	133.333
832.30	139.130
832.60	158.333
832.90	124.242
833.20	200.000
833.50	123.684
833.80	105.882
834.10	126.316
834.40	189.474
834.70	120.000
835.00	196.000
835.30	89.189
835.60	134.375
835.90	129.730
836.20	150.000
836.50	145.455
836.80	109.756
837.10	208.696
837.40	261.538
837.70	205.263
838.00	173.333
838.30	162.500
838.60	176.000
838.90	440.000
839.19	162.500
839.49	126.667
839.79	106.897
840.09	119.231
840.39	180.000
840.69	184.211
840.99	161.905
841.29	173.913
841.59	195.000
841.88	188.000
842.18	366.667
842.48	160.714
842.78	155.556
843.08	192.308
843.38	163.636
843.68	271.429
843.97	528.571
844.27	147.826
844.57	1600.000
844.87	242.857
845.17	222.222
845.47	147.619
845.76	183.333
846.06	485.714
846.36	205.882
846.66	330.769
846.96	200.000
847.25	238.462
847.55	184.211
847.85	227.778
848.15	460.000
848.44	281.818
848.74	185.714
849.04	154.167
849.34	241.176
849.63	287.500
849.93	300.000
850.23	1066.667
850.53	362.500
850.82	318.182
851.12	158.824
851.42	216.667
851.71	206.250
852.01	0.000
852.31	252.941
852.61	480.000
852.90	129.167
853.20	288.889
853.50	-2500.000
853.79	116.000
854.09	146.875
854.39	113.793
854.68	165.517
854.98	257.143
855.28	138.710
855.57	264.286
855.87	183.333
856.17	140.741
856.46	173.684
856.76	167.742
857.05	241.176
857.35	281.818
857.65	307.692
857.94	170.000
858.24	288.889
858.53	300.000
858.83	557.143
859.13	208.696
859.42	166.667
859.72	425.000
860.01	325.000
860.31	1100.000
860.60	420.000
860.90	375.000
861.20	223.077
861.49	442.857
861.79	-3200.000
862.08	542.857
862.38	322.222
862.67	178.571
862.97	390.000
863.26	146.667
863.56	800.000
863.85	330.769
864.15	270.588
864.44	227.778
864.74	341.667
865.03	427.273
865.33	387.500
865.62	153.333
865.92	633.333
866.21	675.000
866.51	560.000
866.80	188.889
867.10	1100.000
867.39	3300.000
867.69	780.000
867.98	1125.000
868.27	171.429
868.57	266.667
868.86	1100.000
869.16	195.238
869.45	2900.000
869.75	-483.333
870.04	700.000
870.33	840.000
870.63	487.500
870.92	223.529
871.22	850.000
871.51	457.143
871.80	341.667
872.10	253.846
>>>>>End Processed Spectral Data<<<<<
