SpectraSuite Data File
++++++++++++++++++++++++++++++++++++
Date: Wed May 13 21:51:53 PDT 2015
User: schluterlab
Dark Spectrum Present: Yes
Reference Spectrum Present: Yes
Number of Sampled Component Spectra: 1
Spectrometers: USB2E3373
Integration Time (usec): 3000 (USB2E3373)
Spectra Averaged: 3 (USB2E3373)
Boxcar Smoothing: 0 (USB2E3373)
Correct for Electrical Dark: No (USB2E3373)
Strobe/Lamp Enabled: No (USB2E3373)
Correct for Detector Non-linearity: No (USB2E3373)
Correct for Stray Light: No (USB2E3373)
Number of Pixels in Processed Spectrum: 2048
>>>>>Begin Processed Spectral Data<<<<<
178.53	0.000
178.91	450.000
179.29	216.667
179.67	-950.000
180.04	-433.333
180.42	360.000
180.80	2500.000
181.18	16.667
181.56	-500.000
181.94	-425.000
182.31	9.091
182.69	238.462
183.07	-200.000
183.45	400.000
183.83	277.778
184.20	185.714
184.58	-100.000
184.96	600.000
185.34	242.857
185.72	0.000
186.09	-1300.000
186.47	-220.000
186.85	220.000
187.23	-250.000
187.61	1050.000
187.98	1600.000
188.36	-100.000
188.74	0.000
189.12	-18.182
189.49	-70.000
189.87	200.000
190.25	220.000
190.63	1500.000
191.00	-260.000
191.38	300.000
191.76	625.000
192.14	208.333
192.51	-68.421
192.89	300.000
193.27	400.000
193.65	-280.000
194.02	227.273
194.40	250.000
194.78	-1000.000
195.15	300.000
195.53	-320.000
195.91	-112.500
196.29	-500.000
196.66	0.000
197.04	550.000
197.42	-80.000
197.79	-110.000
198.17	-100.000
198.55	66.667
198.92	200.000
199.30	-666.667
199.68	-110.000
200.05	50.000
200.43	316.667
200.81	-1800.000
201.18	-120.000
201.56	-233.333
201.94	600.000
202.31	4.348
202.69	-114.286
203.07	-433.333
203.44	-220.000
203.82	-400.000
204.19	-30.000
204.57	0.000
204.95	-100.000
205.32	0.000
205.70	-400.000
206.08	-325.000
206.45	-100.000
206.83	550.000
207.20	-366.667
207.58	-160.000
207.96	-1300.000
208.33	-214.286
208.71	-2300.000
209.08	225.000
209.46	450.000
209.84	0.000
210.21	190.000
210.59	2100.000
210.96	400.000
211.34	1400.000
211.71	-550.000
212.09	-150.000
212.46	-180.000
212.84	-300.000
213.22	-25.000
213.59	-1300.000
213.97	-150.000
214.34	-700.000
214.72	-69.231
215.09	237.500
215.47	188.889
215.84	700.000
216.22	-87.500
216.59	-850.000
216.97	466.667
217.34	233.333
217.72	0.000
218.09	433.333
218.47	-800.000
218.84	-85.714
219.22	-100.000
219.59	-400.000
219.97	-250.000
220.34	-187.500
220.72	-140.000
221.09	0.000
221.47	-200.000
221.84	-700.000
222.22	0.000
222.59	1400.000
222.97	-466.667
223.34	-33.333
223.72	-1100.000
224.09	-450.000
224.46	-27.273
224.84	-62.500
225.21	-200.000
225.59	-300.000
225.96	16.667
226.34	-120.000
226.71	-257.143
227.08	800.000
227.46	-162.500
227.83	-1400.000
228.21	-75.000
228.58	-75.000
228.95	-76.471
229.33	-12.500
229.70	-87.500
230.08	-30.769
230.45	-125.000
230.82	-58.333
231.20	314.286
231.57	-175.000
231.95	-100.000
232.32	-66.667
232.69	-52.941
233.07	-1100.000
233.44	-13.043
233.81	-1200.000
234.19	-33.333
234.56	-60.000
234.93	-46.667
235.31	36.842
235.68	-76.923
236.05	-15.385
236.43	0.000
236.80	9.091
237.17	-33.333
237.55	0.000
237.92	-31.034
238.29	-74.074
238.67	5.556
239.04	6.452
239.41	2.128
239.79	25.532
240.16	16.279
240.53	12.500
240.91	19.643
241.28	16.071
241.65	37.097
242.02	19.737
242.40	18.841
242.77	33.333
243.14	26.923
243.51	28.723
243.89	30.769
244.26	34.906
244.63	24.038
245.00	25.000
245.38	33.613
245.75	36.885
246.12	38.346
246.49	23.577
246.87	19.328
247.24	27.027
247.61	34.437
247.98	35.897
248.36	29.586
248.73	28.090
249.10	27.778
249.47	31.183
249.84	32.105
250.22	32.338
250.59	31.776
250.96	38.182
251.33	29.665
251.70	35.565
252.08	33.054
252.45	37.037
252.82	36.882
253.19	34.241
253.56	33.813
253.94	37.722
254.31	33.451
254.68	35.570
255.05	35.314
255.42	36.713
255.79	33.742
256.16	36.278
256.54	36.508
256.91	30.696
257.28	37.421
257.65	37.580
258.02	37.537
258.39	37.427
258.76	37.209
259.14	36.080
259.51	35.393
259.88	37.940
260.25	34.722
260.62	32.303
260.99	36.340
261.36	38.342
261.73	34.815
262.10	38.422
262.47	32.099
262.85	34.080
263.22	37.692
263.59	34.545
263.96	35.766
264.33	34.615
264.70	35.814
265.07	35.648
265.44	36.092
265.81	37.529
266.18	34.852
266.55	35.153
266.92	33.475
267.29	34.568
267.66	37.155
268.03	36.214
268.40	36.229
268.77	34.711
269.14	34.898
269.51	36.961
269.88	36.456
270.25	36.441
270.62	37.910
270.99	36.024
271.36	37.103
271.73	37.751
272.10	35.619
272.47	35.317
272.84	36.024
273.21	34.442
273.58	38.115
273.95	33.774
274.32	35.075
274.69	34.062
275.06	37.986
275.43	36.158
275.80	34.929
276.17	35.543
276.54	33.037
276.91	33.624
277.28	34.477
277.65	35.490
278.02	36.250
278.39	38.721
278.76	34.448
279.13	34.305
279.50	34.310
279.87	36.051
280.23	37.477
280.60	35.640
280.97	35.552
281.34	33.754
281.71	34.146
282.08	36.068
282.45	35.574
282.82	32.907
283.19	35.518
283.56	35.312
283.92	36.391
284.29	33.229
284.66	34.596
285.03	31.922
285.40	34.441
285.77	35.736
286.14	33.283
286.51	35.832
286.87	32.308
287.24	33.923
287.61	35.843
287.98	32.647
288.35	32.787
288.72	31.994
289.08	33.761
289.45	32.305
289.82	32.678
290.19	33.661
290.56	32.102
290.93	30.525
291.29	30.780
291.66	30.874
292.03	32.016
292.40	31.898
292.77	33.066
293.13	31.520
293.50	30.588
293.87	32.667
294.24	29.497
294.60	31.730
294.97	31.746
295.34	29.156
295.71	30.749
296.08	27.618
296.44	28.827
296.81	28.989
297.18	28.625
297.55	28.656
297.91	29.938
298.28	29.903
298.65	28.079
299.02	30.159
299.38	26.748
299.75	28.005
300.12	25.581
300.48	28.070
300.85	26.443
301.22	27.642
301.59	26.526
301.95	27.178
302.32	27.888
302.69	26.328
303.05	26.800
303.42	27.045
303.79	27.340
304.15	26.287
304.52	26.667
304.89	27.021
305.25	26.674
305.62	27.766
305.99	27.965
306.35	27.691
306.72	26.043
307.09	26.694
307.45	25.559
307.82	25.263
308.19	24.347
308.55	26.407
308.92	26.031
309.29	26.927
309.65	26.873
310.02	25.845
310.38	26.016
310.75	24.951
311.12	25.753
311.48	25.915
311.85	25.492
312.22	25.725
312.58	25.121
312.95	26.269
313.31	27.365
313.68	25.477
314.05	27.316
314.41	27.378
314.78	26.471
315.14	26.481
315.51	26.641
315.87	26.228
316.24	27.365
316.61	27.032
316.97	25.741
317.34	24.955
317.70	26.673
318.07	27.773
318.43	27.010
318.80	26.091
319.16	25.818
319.53	26.523
319.89	26.920
320.26	26.802
320.62	27.525
320.99	26.163
321.35	26.660
321.72	25.890
322.08	26.199
322.45	27.012
322.81	26.248
323.18	27.281
323.54	27.076
323.91	27.913
324.27	26.733
324.64	25.348
325.00	25.722
325.37	25.000
325.73	26.010
326.10	26.493
326.46	26.087
326.83	26.294
327.19	27.886
327.56	26.914
327.92	27.192
328.29	27.379
328.65	26.643
329.01	27.001
329.38	27.130
329.74	25.751
330.11	26.961
330.47	24.306
330.84	25.722
331.20	27.327
331.56	26.812
331.93	26.012
332.29	27.628
332.66	25.000
333.02	26.759
333.38	26.930
333.75	25.853
334.11	25.781
334.48	26.504
334.84	26.678
335.20	26.415
335.57	25.762
335.93	23.797
336.29	25.744
336.66	25.299
337.02	25.130
337.38	24.630
337.75	25.237
338.11	25.363
338.47	25.428
338.84	25.515
339.20	26.455
339.56	24.317
339.93	26.534
340.29	26.217
340.65	24.722
341.02	24.210
341.38	25.338
341.74	23.361
342.11	25.186
342.47	25.105
342.83	24.755
343.20	24.027
343.56	24.857
343.92	24.533
344.28	25.812
344.65	24.980
345.01	23.890
345.37	25.411
345.73	26.144
346.10	24.318
346.46	25.041
346.82	24.880
347.19	24.288
347.55	26.010
347.91	24.006
348.27	24.290
348.63	23.558
349.00	24.214
349.36	24.097
349.72	24.903
350.08	24.571
350.45	24.119
350.81	24.413
351.17	24.018
351.53	24.273
351.89	23.431
352.26	22.162
352.62	24.496
352.98	24.760
353.34	23.108
353.70	24.533
354.07	24.392
354.43	24.417
354.79	23.478
355.15	23.680
355.51	24.601
355.87	23.612
356.24	23.194
356.60	23.221
356.96	23.408
357.32	24.303
357.68	24.599
358.04	22.420
358.40	23.023
358.77	23.700
359.13	24.280
359.49	24.224
359.85	24.185
360.21	23.670
360.57	24.030
360.93	25.569
361.29	24.130
361.66	23.462
362.02	23.277
362.38	24.372
362.74	23.060
363.10	23.500
363.46	22.911
363.82	24.390
364.18	22.553
364.54	23.632
364.90	23.693
365.26	22.788
365.62	22.585
365.98	23.843
366.35	23.617
366.71	23.324
367.07	23.033
367.43	23.206
367.79	23.489
368.15	23.769
368.51	22.082
368.87	24.285
369.23	22.705
369.59	22.692
369.95	23.657
370.31	22.455
370.67	22.303
371.03	23.088
371.39	23.776
371.75	23.429
372.11	23.789
372.47	23.360
372.83	22.885
373.19	23.381
373.55	24.061
373.91	22.419
374.27	22.891
374.63	23.329
374.99	22.493
375.35	22.329
375.71	22.011
376.07	23.304
376.42	23.128
376.78	23.976
377.14	23.593
377.50	23.533
377.86	23.307
378.22	22.946
378.58	22.825
378.94	23.563
379.30	23.673
379.66	23.181
380.02	22.549
380.38	22.410
380.74	23.849
381.09	23.522
381.45	23.096
381.81	23.352
382.17	22.873
382.53	22.338
382.89	22.557
383.25	23.086
383.61	23.971
383.97	23.375
384.32	22.936
384.68	22.517
385.04	22.053
385.40	23.350
385.76	22.749
386.12	22.402
386.48	22.257
386.83	22.653
387.19	22.702
387.55	22.992
387.91	23.124
388.27	23.366
388.62	23.034
388.98	23.217
389.34	23.371
389.70	21.673
390.06	22.875
390.42	23.389
390.77	22.101
391.13	23.169
391.49	22.138
391.85	21.981
392.20	22.870
392.56	23.238
392.92	22.294
393.28	22.777
393.64	23.119
393.99	21.603
394.35	21.975
394.71	22.564
395.07	21.132
395.42	22.182
395.78	21.686
396.14	22.575
396.50	23.526
396.85	23.582
397.21	22.722
397.57	22.112
397.92	22.275
398.28	23.012
398.64	21.979
399.00	22.545
399.35	23.156
399.71	21.782
400.07	22.711
400.42	21.881
400.78	21.631
401.14	21.950
401.49	21.630
401.85	23.096
402.21	22.229
402.57	22.869
402.92	23.404
403.28	22.139
403.63	22.319
403.99	22.201
404.35	22.693
404.70	22.356
405.06	22.490
405.42	22.425
405.77	22.293
406.13	22.000
406.49	21.210
406.84	21.978
407.20	21.492
407.55	22.208
407.91	20.913
408.27	21.397
408.62	22.713
408.98	21.702
409.34	21.473
409.69	22.092
410.05	21.953
410.40	20.937
410.76	21.781
411.11	21.704
411.47	22.163
411.83	21.397
412.18	21.914
412.54	22.556
412.89	21.254
413.25	21.475
413.60	22.194
413.96	22.659
414.31	22.380
414.67	21.079
415.03	21.245
415.38	20.674
415.74	21.248
416.09	21.877
416.45	21.599
416.80	22.081
417.16	22.537
417.51	22.304
417.87	22.024
418.22	21.396
418.58	21.748
418.93	22.034
419.29	22.244
419.64	21.438
420.00	21.333
420.35	21.638
420.71	20.719
421.06	22.571
421.42	22.506
421.77	22.023
422.12	22.923
422.48	20.829
422.83	21.618
423.19	21.909
423.54	22.379
423.90	21.378
424.25	22.241
424.61	21.811
424.96	21.762
425.31	20.752
425.67	22.105
426.02	22.320
426.38	21.393
426.73	21.381
427.09	21.013
427.44	21.550
427.79	21.259
428.15	21.713
428.50	20.906
428.85	21.218
429.21	21.609
429.56	22.157
429.92	22.228
430.27	21.830
430.62	22.141
430.98	21.682
431.33	22.085
431.68	22.364
432.04	21.746
432.39	21.420
432.74	20.969
433.10	22.196
433.45	21.302
433.80	22.126
434.16	22.064
434.51	22.174
434.86	21.731
435.22	21.392
435.57	21.069
435.92	21.351
436.28	20.601
436.63	21.478
436.98	21.798
437.34	21.917
437.69	22.550
438.04	20.713
438.39	21.357
438.75	21.156
439.10	21.631
439.45	21.671
439.81	21.798
440.16	21.333
440.51	21.284
440.86	21.873
441.22	21.056
441.57	22.072
441.92	22.188
442.27	21.970
442.63	20.775
442.98	21.238
443.33	21.558
443.68	21.244
444.03	21.759
444.39	22.261
444.74	21.480
445.09	21.476
445.44	22.535
445.79	21.580
446.15	21.908
446.50	21.806
446.85	21.860
447.20	21.432
447.55	21.433
447.91	20.618
448.26	21.326
448.61	21.346
448.96	22.153
449.31	22.501
449.66	21.631
450.02	21.944
450.37	21.622
450.72	21.355
451.07	22.947
451.42	21.522
451.77	21.729
452.12	21.212
452.47	22.143
452.83	21.462
453.18	22.406
453.53	21.816
453.88	21.566
454.23	21.261
454.58	21.507
454.93	21.681
455.28	22.222
455.63	21.085
455.98	21.242
456.34	20.979
456.69	22.556
457.04	21.796
457.39	21.167
457.74	21.604
458.09	21.682
458.44	21.857
458.79	21.362
459.14	21.461
459.49	22.256
459.84	21.477
460.19	20.348
460.54	20.985
460.89	21.171
461.24	21.332
461.59	21.498
461.94	21.365
462.29	20.343
462.64	20.778
462.99	22.267
463.34	21.616
463.69	22.036
464.04	20.408
464.39	20.927
464.74	21.499
465.09	21.017
465.44	21.829
465.79	22.484
466.14	21.266
466.49	21.466
466.84	21.219
467.19	22.166
467.54	21.581
467.89	21.370
468.24	21.451
468.59	20.586
468.94	21.520
469.29	21.084
469.64	20.223
469.99	21.586
470.34	20.971
470.68	20.743
471.03	21.086
471.38	21.349
471.73	20.233
472.08	21.168
472.43	21.768
472.78	21.704
473.13	20.976
473.48	20.678
473.83	20.653
474.17	20.312
474.52	20.777
474.87	19.903
475.22	21.196
475.57	21.472
475.92	21.483
476.27	21.562
476.61	21.121
476.96	21.188
477.31	21.305
477.66	21.356
478.01	21.099
478.36	20.817
478.70	21.267
479.05	21.310
479.40	21.529
479.75	20.776
480.10	21.724
480.45	21.824
480.79	21.553
481.14	21.935
481.49	21.904
481.84	20.924
482.19	21.816
482.53	21.190
482.88	21.189
483.23	20.934
483.58	21.928
483.92	20.866
484.27	20.220
484.62	20.772
484.97	21.153
485.31	21.976
485.66	21.588
486.01	22.462
486.36	23.100
486.70	22.044
487.05	22.095
487.40	21.676
487.75	21.878
488.09	21.051
488.44	21.136
488.79	20.628
489.13	20.636
489.48	20.479
489.83	21.304
490.17	20.381
490.52	21.225
490.87	20.631
491.22	21.196
491.56	21.514
491.91	20.691
492.26	20.986
492.60	21.164
492.95	21.331
493.30	20.833
493.64	20.240
493.99	21.449
494.34	21.387
494.68	20.668
495.03	20.850
495.37	20.730
495.72	20.752
496.07	20.604
496.41	20.824
496.76	21.069
497.11	21.408
497.45	20.768
497.80	20.646
498.14	21.461
498.49	20.726
498.84	21.660
499.18	20.757
499.53	20.975
499.87	20.330
500.22	21.503
500.56	20.963
500.91	21.378
501.26	20.887
501.60	20.245
501.95	20.556
502.29	20.485
502.64	20.829
502.98	21.387
503.33	21.119
503.67	21.130
504.02	21.127
504.36	21.694
504.71	20.884
505.06	21.345
505.40	20.979
505.75	21.414
506.09	20.797
506.44	21.371
506.78	20.721
507.13	20.582
507.47	20.148
507.82	19.937
508.16	21.478
508.51	20.816
508.85	20.010
509.19	20.159
509.54	21.072
509.88	20.968
510.23	19.895
510.57	20.816
510.92	20.690
511.26	20.957
511.61	20.417
511.95	20.948
512.30	19.767
512.64	21.396
512.98	21.385
513.33	20.563
513.67	20.954
514.02	21.038
514.36	20.225
514.70	20.670
515.05	20.597
515.39	20.401
515.74	20.959
516.08	20.295
516.42	20.104
516.77	19.098
517.11	20.341
517.46	20.168
517.80	21.489
518.14	20.576
518.49	20.374
518.83	20.286
519.17	20.904
519.52	19.602
519.86	20.340
520.20	19.466
520.55	20.522
520.89	20.051
521.23	20.962
521.58	20.228
521.92	20.805
522.26	19.909
522.61	20.556
522.95	19.948
523.29	19.683
523.64	19.771
523.98	20.267
524.32	19.912
524.66	20.065
525.01	20.839
525.35	20.671
525.69	20.411
526.04	19.674
526.38	20.204
526.72	19.921
527.06	20.438
527.41	19.987
527.75	20.160
528.09	21.784
528.43	21.167
528.78	20.090
529.12	20.957
529.46	20.282
529.80	20.000
530.15	20.656
530.49	20.687
530.83	20.244
531.17	20.000
531.51	20.971
531.86	20.257
532.20	20.262
532.54	19.586
532.88	20.354
533.22	20.606
533.57	19.735
533.91	21.484
534.25	21.159
534.59	20.721
534.93	20.217
535.27	21.019
535.62	19.737
535.96	21.470
536.30	21.809
536.64	20.096
536.98	19.341
537.32	19.644
537.66	19.746
538.01	20.111
538.35	20.028
538.69	19.666
539.03	20.336
539.37	20.724
539.71	20.941
540.05	19.096
540.39	19.821
540.73	19.972
541.07	20.272
541.42	21.010
541.76	20.433
542.10	20.582
542.44	20.236
542.78	20.125
543.12	20.485
543.46	21.009
543.80	19.620
544.14	20.303
544.48	19.443
544.82	20.847
545.16	20.014
545.50	21.067
545.84	19.846
546.18	20.126
546.52	20.254
546.86	18.304
547.20	19.728
547.54	20.229
547.88	20.445
548.22	20.130
548.56	20.347
548.90	20.095
549.24	20.139
549.58	20.000
549.92	20.543
550.26	21.476
550.60	19.895
550.94	19.104
551.28	20.288
551.62	20.677
551.96	19.912
552.30	19.869
552.64	19.845
552.98	20.597
553.32	19.755
553.66	20.249
554.00	18.862
554.34	20.147
554.68	19.985
555.02	19.311
555.36	20.348
555.69	19.956
556.03	19.585
556.37	19.701
556.71	19.341
557.05	20.221
557.39	19.066
557.73	20.272
558.07	19.066
558.41	20.061
558.75	19.938
559.08	18.765
559.42	18.961
559.76	19.419
560.10	19.754
560.44	19.013
560.78	19.784
561.12	20.322
561.45	19.796
561.79	20.977
562.13	21.097
562.47	19.143
562.81	18.903
563.15	20.326
563.48	20.028
563.82	19.562
564.16	20.244
564.50	20.217
564.84	19.865
565.17	20.464
565.51	19.586
565.85	19.121
566.19	19.801
566.52	20.708
566.86	20.101
567.20	20.648
567.54	20.150
567.88	20.605
568.21	20.261
568.55	20.814
568.89	19.940
569.23	20.761
569.56	21.277
569.90	21.357
570.24	20.758
570.57	22.108
570.91	21.605
571.25	21.051
571.59	20.716
571.92	21.913
572.26	21.473
572.60	20.942
572.93	20.993
573.27	21.105
573.61	21.624
573.95	21.285
574.28	21.681
574.62	21.032
574.96	21.998
575.29	21.515
575.63	21.286
575.97	21.250
576.30	21.889
576.64	21.483
576.98	21.493
577.31	22.057
577.65	21.206
577.98	21.829
578.32	21.516
578.66	21.255
578.99	21.972
579.33	21.589
579.67	21.079
580.00	21.193
580.34	21.062
580.67	21.019
581.01	21.315
581.35	21.958
581.68	22.014
582.02	22.505
582.35	22.363
582.69	21.855
583.02	21.029
583.36	21.107
583.70	21.042
584.03	21.327
584.37	21.120
584.70	21.305
585.04	21.405
585.37	21.507
585.71	21.828
586.04	21.253
586.38	21.310
586.72	20.624
587.05	21.122
587.39	21.803
587.72	21.170
588.06	21.368
588.39	21.215
588.73	20.848
589.06	20.595
589.40	20.502
589.73	20.194
590.07	21.509
590.40	20.598
590.73	21.515
591.07	20.644
591.40	20.913
591.74	21.298
592.07	20.128
592.41	20.807
592.74	21.566
593.08	20.752
593.41	21.452
593.75	21.221
594.08	21.416
594.41	21.024
594.75	21.552
595.08	21.583
595.42	21.152
595.75	20.824
596.09	20.516
596.42	21.160
596.75	19.702
597.09	20.928
597.42	21.175
597.75	20.356
598.09	21.038
598.42	20.761
598.76	20.613
599.09	21.369
599.42	20.657
599.76	21.179
600.09	21.197
600.42	21.092
600.76	20.843
601.09	20.904
601.42	20.659
601.76	20.965
602.09	20.794
602.42	20.966
602.76	20.721
603.09	21.150
603.42	21.232
603.76	21.200
604.09	21.146
604.42	20.553
604.76	20.515
605.09	21.160
605.42	20.828
605.75	20.257
606.09	20.613
606.42	20.407
606.75	20.173
607.09	20.922
607.42	20.928
607.75	20.000
608.08	20.334
608.42	20.384
608.75	20.736
609.08	20.333
609.41	20.765
609.75	19.818
610.08	20.365
610.41	20.943
610.74	20.404
611.07	20.541
611.41	20.317
611.74	20.704
612.07	20.063
612.40	20.486
612.73	19.923
613.07	19.845
613.40	20.760
613.73	20.314
614.06	19.845
614.39	19.844
614.72	21.544
615.06	20.389
615.39	19.978
615.72	19.870
616.05	20.045
616.38	20.389
616.71	19.136
617.05	20.946
617.38	19.840
617.71	19.240
618.04	20.110
618.37	20.757
618.70	20.634
619.03	19.107
619.36	18.505
619.69	19.225
620.03	19.505
620.36	18.720
620.69	18.059
621.02	18.692
621.35	18.070
621.68	17.115
622.01	18.932
622.34	18.795
622.67	18.951
623.00	20.745
623.33	19.596
623.66	18.959
623.99	18.830
624.32	19.736
624.65	19.659
624.99	19.912
625.32	20.164
625.65	18.450
625.98	19.747
626.31	19.673
626.64	18.831
626.97	18.858
627.30	19.589
627.63	18.772
627.96	18.355
628.29	18.512
628.62	19.342
628.95	17.335
629.28	18.030
629.61	19.617
629.94	18.859
630.26	18.128
630.59	19.281
630.92	17.068
631.25	17.611
631.58	19.165
631.91	16.755
632.24	17.673
632.57	18.556
632.90	17.853
633.23	15.947
633.56	18.345
633.89	17.105
634.22	20.848
634.55	18.392
634.88	16.544
635.20	18.250
635.53	16.150
635.86	17.949
636.19	18.859
636.52	18.537
636.85	17.491
637.18	16.687
637.51	18.352
637.83	17.493
638.16	17.067
638.49	15.754
638.82	17.386
639.15	18.617
639.48	19.251
639.81	16.528
640.13	17.887
640.46	18.362
640.79	17.554
641.12	16.272
641.45	17.176
641.77	16.348
642.10	17.852
642.43	17.610
642.76	15.773
643.09	14.058
643.41	15.311
643.74	17.609
644.07	16.990
644.40	15.755
644.73	15.085
645.05	15.183
645.38	15.449
645.71	16.837
646.04	15.488
646.36	15.972
646.69	15.909
647.02	16.758
647.35	19.013
647.67	15.712
648.00	16.304
648.33	14.746
648.66	15.526
648.98	17.547
649.31	18.558
649.64	16.275
649.96	16.746
650.29	18.137
650.62	17.133
650.94	16.552
651.27	16.431
651.60	17.133
651.92	15.591
652.25	18.258
652.58	16.997
652.90	17.677
653.23	14.941
653.56	16.198
653.88	14.676
654.21	15.700
654.54	16.944
654.86	16.748
655.19	16.807
655.52	23.404
655.84	24.786
656.17	29.494
656.49	38.305
656.82	35.600
657.15	25.504
657.47	18.343
657.80	13.304
658.13	13.472
658.45	18.904
658.78	17.747
659.10	17.527
659.43	17.196
659.75	17.359
660.08	16.414
660.41	15.112
660.73	15.978
661.06	15.646
661.38	14.729
661.71	17.418
662.03	16.279
662.36	15.929
662.68	16.989
663.01	14.619
663.33	15.119
663.66	13.525
663.98	16.854
664.31	17.582
664.63	10.135
664.96	14.661
665.28	17.167
665.61	15.767
665.93	15.846
666.26	19.409
666.58	15.203
666.91	15.919
667.23	16.820
667.56	16.092
667.88	15.654
668.21	14.063
668.53	12.644
668.86	15.827
669.18	13.002
669.50	16.820
669.83	14.797
670.15	12.857
670.48	14.713
670.80	17.943
671.13	14.416
671.45	14.155
671.77	16.810
672.10	17.349
672.42	16.221
672.75	15.714
673.07	14.909
673.39	16.604
673.72	16.367
674.04	17.418
674.37	18.089
674.69	18.519
675.01	15.812
675.34	13.786
675.66	15.468
675.98	15.044
676.31	13.348
676.63	15.420
676.95	13.882
677.28	15.596
677.60	16.422
677.92	19.069
678.25	18.004
678.57	19.959
678.89	16.844
679.22	14.907
679.54	15.714
679.86	20.312
680.18	16.538
680.51	13.654
680.83	15.010
681.15	15.717
681.48	15.230
681.80	14.724
682.12	16.875
682.44	14.487
682.77	13.474
683.09	16.295
683.41	15.349
683.73	14.509
684.06	15.265
684.38	14.957
684.70	17.108
685.02	20.041
685.34	18.395
685.67	18.949
685.99	18.505
686.31	19.138
686.63	16.912
686.96	17.069
687.28	14.172
687.60	17.391
687.92	16.342
688.24	16.200
688.56	15.789
688.89	14.699
689.21	15.471
689.53	16.216
689.85	16.404
690.17	17.143
690.49	14.251
690.82	15.752
691.14	18.357
691.46	13.689
691.78	15.604
692.10	15.287
692.42	15.165
692.74	14.348
693.06	14.157
693.39	14.286
693.71	19.556
694.03	20.227
694.35	13.288
694.67	16.000
694.99	17.784
695.31	16.279
695.63	16.585
695.95	14.758
696.27	12.055
696.59	13.978
696.91	13.128
697.23	14.975
697.56	15.348
697.88	18.503
698.20	18.143
698.52	13.318
698.84	14.833
699.16	13.948
699.48	18.519
699.80	19.897
700.12	16.890
700.44	13.803
700.76	14.326
701.08	15.710
701.40	14.970
701.72	16.308
702.04	11.635
702.36	14.024
702.68	13.720
703.00	17.836
703.32	14.485
703.64	15.663
703.96	13.196
704.28	13.554
704.60	15.854
704.91	10.345
705.23	14.241
705.55	11.724
705.87	14.437
706.19	11.355
706.51	14.085
706.83	15.605
707.15	14.634
707.47	18.182
707.79	14.467
708.11	14.653
708.43	16.751
708.74	15.957
709.06	13.636
709.38	17.579
709.70	13.213
710.02	12.150
710.34	10.333
710.66	16.938
710.98	13.932
711.29	13.312
711.61	12.258
711.93	13.548
712.25	13.986
712.57	9.825
712.89	12.088
713.20	15.957
713.52	13.869
713.84	12.258
714.16	16.181
714.48	17.089
714.80	16.294
715.11	15.407
715.43	14.596
715.75	15.839
716.07	15.663
716.39	13.805
716.70	15.827
717.02	10.588
717.34	10.985
717.66	11.638
717.97	9.127
718.29	15.748
718.61	9.871
718.93	12.791
719.24	14.022
719.56	14.607
719.88	12.313
720.20	15.415
720.51	11.328
720.83	12.451
721.15	12.602
721.46	10.687
721.78	15.538
722.10	13.944
722.42	10.081
722.73	16.602
723.05	14.694
723.37	13.025
723.68	12.800
724.00	8.511
724.32	12.134
724.63	16.461
724.95	8.974
725.27	16.878
725.58	11.934
725.90	14.644
726.22	13.043
726.53	10.980
726.85	16.058
727.16	12.593
727.48	14.559
727.80	16.016
728.11	13.934
728.43	9.375
728.74	13.095
729.06	10.400
729.38	15.810
729.69	16.014
730.01	11.524
730.32	15.498
730.64	9.470
730.96	20.979
731.27	9.699
731.59	16.508
731.90	17.799
732.22	15.705
732.53	16.554
732.85	9.396
733.16	17.162
733.48	11.486
733.80	15.541
734.11	16.554
734.43	16.099
734.74	18.018
735.06	17.291
735.37	17.933
735.69	15.534
736.00	11.881
736.32	14.539
736.63	12.759
736.95	17.466
737.26	15.517
737.58	17.361
737.89	14.089
738.21	15.658
738.52	14.068
738.83	15.102
739.15	10.127
739.46	13.619
739.78	10.211
740.09	14.384
740.41	11.786
740.72	13.121
741.04	15.600
741.35	10.088
741.66	19.111
741.98	9.615
742.29	17.327
742.61	12.195
742.92	16.228
743.23	13.208
743.55	12.613
743.86	11.211
744.18	7.353
744.49	16.751
744.80	10.204
745.12	10.280
745.43	10.427
745.74	14.414
746.06	9.346
746.37	10.550
746.68	12.500
747.00	14.354
747.31	15.865
747.62	16.055
747.94	16.157
748.25	15.596
748.56	15.111
748.88	15.493
749.19	12.857
749.50	6.311
749.82	16.432
750.13	10.000
750.44	11.923
750.75	15.867
751.07	19.929
751.38	19.504
751.69	11.969
752.01	16.016
752.32	11.538
752.63	13.806
752.94	15.600
753.26	14.644
753.57	15.000
753.88	17.814
754.19	13.546
754.51	14.286
754.82	12.088
755.13	13.043
755.44	15.041
755.75	15.200
756.07	7.011
756.38	14.748
756.69	14.334
757.00	17.757
757.31	18.447
757.63	13.889
757.94	17.514
758.25	17.989
758.56	19.293
758.87	21.429
759.18	17.035
759.50	14.815
759.81	15.385
760.12	16.308
760.43	10.417
760.74	14.407
761.05	18.232
761.36	16.046
761.67	13.293
761.99	13.746
762.30	10.584
762.61	12.757
762.92	19.658
763.23	19.672
763.54	16.017
763.85	13.878
764.16	15.447
764.47	12.000
764.78	17.500
765.10	14.754
765.41	17.933
765.72	17.391
766.03	18.152
766.34	15.000
766.65	10.879
766.96	16.432
767.27	18.812
767.58	5.056
767.89	12.346
768.20	15.470
768.51	19.095
768.82	13.942
769.13	17.257
769.44	14.644
769.75	6.838
770.06	12.556
770.37	14.706
770.68	14.078
770.99	20.874
771.30	13.445
771.61	16.327
771.92	18.672
772.23	18.018
772.54	6.630
772.85	11.628
773.16	15.873
773.47	9.467
773.78	15.517
774.09	11.875
774.39	14.907
774.70	14.966
775.01	8.966
775.32	10.000
775.63	12.030
775.94	6.015
776.25	-4.800
776.56	13.223
776.87	14.286
777.18	-1.802
777.48	13.514
777.79	14.173
778.10	11.009
778.41	13.158
778.72	12.605
779.03	4.930
779.34	11.486
779.65	14.789
779.95	9.934
780.26	12.230
780.57	5.036
780.88	5.634
781.19	6.723
781.50	20.134
781.80	8.772
782.11	6.977
782.42	16.352
782.73	9.150
783.04	11.724
783.34	9.924
783.65	14.765
783.96	8.462
784.27	17.143
784.57	9.929
784.88	0.000
785.19	20.909
785.50	10.000
785.81	7.619
786.11	11.765
786.42	6.195
786.73	1.887
787.04	0.000
787.34	-5.941
787.65	2.500
787.96	7.438
788.26	15.217
788.57	11.111
788.88	3.252
789.19	9.600
789.49	3.053
789.80	18.182
790.11	12.264
790.41	14.851
790.72	2.128
791.03	0.000
791.33	10.588
791.64	6.173
791.95	8.696
792.25	4.545
792.56	21.795
792.87	-6.410
793.17	-5.128
793.48	2.381
793.79	-3.750
794.09	16.346
794.40	11.458
794.70	9.910
795.01	8.594
795.32	6.087
795.62	0.000
795.93	-0.943
796.23	7.071
796.54	-6.098
796.85	7.143
797.15	-4.545
797.46	5.797
797.76	2.632
798.07	9.091
798.37	6.098
798.68	-4.839
798.99	-17.568
799.29	16.867
799.60	11.538
799.90	16.923
800.21	15.152
800.51	-4.000
800.82	-13.333
801.12	-29.167
801.43	-10.000
801.73	-9.459
802.04	12.857
802.34	-6.557
802.65	-7.463
802.95	-18.182
803.26	-1.724
803.56	7.692
803.87	5.660
804.17	8.065
804.48	8.824
804.78	-4.878
805.09	14.493
805.39	0.000
805.70	-23.404
806.00	-12.281
806.30	21.795
806.61	2.632
806.91	9.459
807.22	0.000
807.52	13.636
807.83	-16.949
808.13	-12.121
808.43	-5.000
808.74	-36.207
809.04	9.524
809.35	-6.122
809.65	-1.667
809.95	-26.531
810.26	16.901
810.56	-8.333
810.86	-22.449
811.17	11.538
811.47	-14.894
811.77	10.417
812.08	-11.321
812.38	-28.125
812.69	3.636
812.99	-19.512
813.29	8.108
813.59	-16.216
813.90	-10.909
814.20	7.273
814.50	-3.333
814.81	-5.455
815.11	-3.509
815.41	6.977
815.72	-17.500
816.02	2.857
816.32	-16.216
816.62	-4.167
816.93	-6.667
817.23	-13.333
817.53	-36.111
817.84	-5.405
818.14	-24.390
818.44	0.000
818.74	-10.204
819.04	-14.634
819.35	-16.667
819.65	-4.545
819.95	-133.333
820.25	-45.455
820.56	-21.429
820.86	-58.333
821.16	-2.273
821.46	2.174
821.76	-6.897
822.07	-19.565
822.37	15.152
822.67	4.878
822.97	-8.108
823.27	-14.286
823.57	-31.034
823.88	-29.412
824.18	-19.444
824.48	-22.857
824.78	4.762
825.08	0.000
825.38	-7.407
825.69	-16.129
825.99	-7.317
826.29	-70.370
826.59	-34.375
826.89	12.903
827.19	-78.261
827.49	-30.556
827.79	-39.130
828.09	-12.903
828.39	-2.083
828.70	-46.875
829.00	-27.586
829.30	0.000
829.60	-70.833
829.90	-48.148
830.20	9.375
830.50	-36.364
830.80	-135.294
831.10	-45.455
831.40	-38.235
831.70	-42.308
832.00	-24.242
832.30	29.412
832.60	8.108
832.90	2400.000
833.20	-14.286
833.50	-70.000
833.80	-7.895
834.10	-41.667
834.40	-59.091
834.70	-53.333
835.00	-130.000
835.30	-58.333
835.60	-42.857
835.90	-19.048
836.20	-28.000
836.50	-45.833
836.80	-94.737
837.10	2.703
837.40	-36.667
837.70	-52.174
838.00	41.667
838.30	-42.105
838.60	-180.000
838.90	-240.000
839.19	0.000
839.49	-130.769
839.79	-57.895
840.09	-350.000
840.39	-160.000
840.69	-81.818
840.99	-38.095
841.29	-54.167
841.59	-46.154
841.88	-160.000
842.18	-64.286
842.48	13.333
842.78	-142.857
843.08	-71.429
843.38	-200.000
843.68	-87.500
843.97	-21.429
844.27	-144.444
844.57	-172.727
844.87	-93.333
845.17	-27.273
845.47	733.333
845.76	-40.000
846.06	-133.333
846.36	-1350.000
846.66	-136.842
846.96	-72.727
847.25	-55.556
847.55	-144.444
847.85	-47.619
848.15	-123.077
848.44	-416.667
848.74	-158.333
849.04	-76.923
849.34	-500.000
849.63	-154.545
849.93	-128.571
850.23	30.000
850.53	-225.000
850.82	-44.444
851.12	-106.667
851.42	-94.118
851.71	-87.500
852.01	-23.529
852.31	-107.692
852.61	700.000
852.90	-29.412
853.20	20.000
853.50	-31.250
853.79	-92.857
854.09	-625.000
854.39	-50.000
854.68	-7.500
854.98	-52.381
855.28	-4.000
855.57	-29.167
855.87	-16.667
856.17	-48.000
856.46	-21.875
856.76	-40.000
857.05	4.000
857.35	-108.333
857.65	-29.412
857.94	-100.000
858.24	-158.333
858.53	-30.000
858.83	-81.818
859.13	-12.000
859.42	-71.429
859.72	-187.500
860.01	-54.167
860.31	-200.000
860.60	-75.000
860.90	-150.000
861.20	-216.667
861.49	0.000
861.79	-68.750
862.08	375.000
862.38	-133.333
862.67	300.000
862.97	225.000
863.26	-100.000
863.56	-90.909
863.85	-36.842
864.15	-58.824
864.44	-100.000
864.74	-220.000
865.03	-211.111
865.33	-64.286
865.62	142.857
865.92	15.789
866.21	-83.333
866.51	-81.818
866.80	-166.667
867.10	-262.500
867.39	-56.250
867.69	-86.667
867.98	-90.000
868.27	-41.176
868.57	0.000
868.86	1100.000
869.16	-200.000
869.45	-285.714
869.75	650.000
870.04	-30.000
870.33	-1200.000
870.63	-63.158
870.92	-83.333
871.22	-1400.000
871.51	-200.000
871.80	-233.333
872.10	-250.000
>>>>>End Processed Spectral Data<<<<<
