SpectraSuite Data File
++++++++++++++++++++++++++++++++++++
Date: Tue May 12 17:01:14 PDT 2015
User: schluterlab
Dark Spectrum Present: Yes
Reference Spectrum Present: Yes
Number of Sampled Component Spectra: 1
Spectrometers: USB2E3373
Integration Time (usec): 3000 (USB2E3373)
Spectra Averaged: 3 (USB2E3373)
Boxcar Smoothing: 0 (USB2E3373)
Correct for Electrical Dark: No (USB2E3373)
Strobe/Lamp Enabled: No (USB2E3373)
Correct for Detector Non-linearity: No (USB2E3373)
Correct for Stray Light: No (USB2E3373)
Number of Pixels in Processed Spectrum: 2048
>>>>>Begin Processed Spectral Data<<<<<
178.53	0.000
178.91	-266.667
179.29	-800.000
179.67	-3500.000
180.04	-126.667
180.42	950.000
180.80	1600.000
181.18	0.000
181.56	-375.000
181.94	0.000
182.31	833.333
182.69	-3000.000
183.07	471.429
183.45	-3100.000
183.83	-1800.000
184.20	370.000
184.58	614.286
184.96	-323.077
185.34	-158.333
185.72	1150.000
186.09	-900.000
186.47	-2200.000
186.85	1566.667
187.23	740.000
187.61	1650.000
187.98	400.000
188.36	235.714
188.74	358.333
189.12	425.000
189.49	850.000
189.87	0.000
190.25	625.000
190.63	3200.000
191.00	-241.667
191.38	-2900.000
191.76	-650.000
192.14	400.000
192.51	-3000.000
192.89	1700.000
193.27	766.667
193.65	-1166.667
194.02	-680.000
194.40	442.857
194.78	-221.429
195.15	240.000
195.53	-2700.000
195.91	-560.000
196.29	3700.000
196.66	243.750
197.04	825.000
197.42	-1150.000
197.79	825.000
198.17	316.667
198.55	0.000
198.92	485.714
199.30	1300.000
199.68	1550.000
200.05	683.333
200.43	-500.000
200.81	177.778
201.18	3800.000
201.56	366.667
201.94	-950.000
202.31	-275.000
202.69	-620.000
203.07	3800.000
203.44	-416.667
203.82	350.000
204.19	660.000
204.57	-1450.000
204.95	-850.000
205.32	-760.000
205.70	550.000
206.08	825.000
206.45	-1000.000
206.83	488.889
207.20	200.000
207.58	316.667
207.96	720.000
208.33	0.000
208.71	685.714
209.08	660.000
209.46	-3100.000
209.84	-775.000
210.21	840.000
210.59	-520.000
210.96	308.333
211.34	-900.000
211.71	372.727
212.09	850.000
212.46	1700.000
212.84	-483.333
213.22	344.444
213.59	-3400.000
213.97	390.000
214.34	1100.000
214.72	1166.667
215.09	966.667
215.47	-3200.000
215.84	-390.000
216.22	-350.000
216.59	0.000
216.97	0.000
217.34	1700.000
217.72	-1500.000
218.09	1500.000
218.47	362.500
218.84	800.000
219.22	1266.667
219.59	866.667
219.97	471.429
220.34	477.778
220.72	1400.000
221.09	4100.000
221.47	258.333
221.84	1100.000
222.22	390.000
222.59	238.889
222.97	235.714
223.34	275.000
223.72	-1450.000
224.09	1033.333
224.46	330.769
224.84	-725.000
225.21	355.556
225.59	273.333
225.96	1366.667
226.34	-620.000
226.71	-975.000
227.08	-480.000
227.46	0.000
227.83	-583.333
228.21	-2350.000
228.58	450.000
228.95	1100.000
229.33	333.333
229.70	1300.000
230.08	323.077
230.45	3800.000
230.82	-875.000
231.20	-1000.000
231.57	-1066.667
231.95	620.000
232.32	283.333
232.69	566.667
233.07	358.333
233.44	-1700.000
233.81	260.000
234.19	200.000
234.56	225.000
234.93	229.412
235.31	225.000
235.68	293.750
236.05	157.143
236.43	162.963
236.80	300.000
237.17	175.862
237.55	140.625
237.92	127.500
238.29	181.818
238.67	143.750
239.04	109.756
239.41	100.000
239.79	117.500
240.16	108.333
240.53	93.443
240.91	97.101
241.28	81.356
241.65	86.364
242.02	102.817
242.40	102.857
242.77	83.516
243.14	74.684
243.51	79.798
243.89	72.897
244.26	73.832
244.63	74.257
245.00	77.064
245.38	73.729
245.75	71.970
246.12	80.741
246.49	63.830
246.87	67.213
247.24	62.000
247.61	65.000
247.98	68.027
248.36	58.182
248.73	62.245
249.10	61.905
249.47	64.500
249.84	65.672
250.22	70.270
250.59	56.500
250.96	62.869
251.33	63.256
251.70	57.589
252.08	60.924
252.45	54.183
252.82	56.654
253.19	57.312
253.56	54.615
253.94	57.971
254.31	59.302
254.68	54.007
255.05	54.483
255.42	60.584
255.79	57.655
256.16	58.644
256.54	56.494
256.91	52.941
257.28	56.856
257.65	47.962
258.02	53.392
258.39	50.716
258.76	57.391
259.14	51.429
259.51	53.644
259.88	54.711
260.25	53.571
260.62	53.425
260.99	55.096
261.36	52.925
261.73	54.255
262.10	51.047
262.47	51.250
262.85	54.667
263.22	53.728
263.59	50.128
263.96	52.882
264.33	51.111
264.70	56.265
265.07	52.683
265.44	51.606
265.81	51.651
266.18	51.716
266.55	53.664
266.92	51.230
267.29	54.386
267.66	54.260
268.03	52.018
268.40	51.797
268.77	52.863
269.14	51.193
269.51	54.343
269.88	53.061
270.25	48.380
270.62	53.219
270.99	52.130
271.36	50.000
271.73	50.734
272.10	49.899
272.47	49.206
272.84	49.102
273.21	51.240
273.58	50.405
273.95	49.487
274.32	50.584
274.69	51.772
275.06	49.727
275.43	46.552
275.80	49.434
276.17	49.081
276.54	48.598
276.91	48.321
277.28	46.168
277.65	49.631
278.02	49.081
278.39	49.101
278.76	47.414
279.13	48.577
279.50	48.909
279.87	48.790
280.23	48.987
280.60	50.365
280.97	49.483
281.34	49.175
281.71	48.000
282.08	49.231
282.45	48.311
282.82	49.331
283.19	46.900
283.56	46.777
283.92	49.511
284.29	46.423
284.66	46.723
285.03	46.103
285.40	46.281
285.77	46.451
286.14	46.285
286.51	46.779
286.87	42.563
287.24	42.943
287.61	44.985
287.98	44.776
288.35	42.519
288.72	45.827
289.08	43.243
289.45	42.073
289.82	43.125
290.19	43.631
290.56	44.833
290.93	43.022
291.29	40.055
291.66	43.362
292.03	40.393
292.40	41.192
292.77	40.390
293.13	40.228
293.50	40.621
293.87	38.753
294.24	38.601
294.60	40.242
294.97	40.000
295.34	39.841
295.71	39.553
296.08	38.667
296.44	39.390
296.81	37.345
297.18	36.502
297.55	37.808
297.91	35.837
298.28	37.440
298.65	37.178
299.02	37.033
299.38	36.691
299.75	36.707
300.12	34.633
300.48	36.300
300.85	36.114
301.22	33.953
301.59	34.552
301.95	34.539
302.32	36.321
302.69	35.068
303.05	37.037
303.42	32.735
303.79	35.103
304.15	35.314
304.52	32.241
304.89	33.369
305.25	33.927
305.62	34.328
305.99	34.022
306.35	34.316
306.72	34.027
307.09	32.919
307.45	33.369
307.82	33.025
308.19	32.165
308.55	32.300
308.92	32.974
309.29	33.136
309.65	33.697
310.02	33.367
310.38	32.303
310.75	32.594
311.12	32.471
311.48	33.591
311.85	33.779
312.22	30.372
312.58	32.362
312.95	32.233
313.31	32.959
313.68	31.426
314.05	32.326
314.41	31.657
314.78	31.534
315.14	32.133
315.51	32.167
315.87	30.657
316.24	32.306
316.61	31.334
316.97	30.459
317.34	31.986
317.70	31.607
318.07	32.651
318.43	32.162
318.80	31.349
319.16	31.731
319.53	30.973
319.89	31.004
320.26	32.402
320.62	31.685
320.99	31.649
321.35	32.004
321.72	32.258
322.08	31.579
322.45	31.244
322.81	31.290
323.18	32.860
323.54	32.056
323.91	33.092
324.27	32.007
324.64	31.055
325.00	31.724
325.37	32.209
325.73	31.872
326.10	31.732
326.46	32.040
326.83	30.160
327.19	31.807
327.56	30.831
327.92	31.967
328.29	31.997
328.65	32.449
329.01	31.480
329.38	30.711
329.74	29.804
330.11	31.972
330.47	31.714
330.84	30.026
331.20	32.234
331.56	31.779
331.93	31.737
332.29	30.442
332.66	31.548
333.02	30.584
333.38	31.326
333.75	31.276
334.11	30.956
334.48	31.709
334.84	30.236
335.20	30.111
335.57	30.227
335.93	30.109
336.29	30.100
336.66	30.446
337.02	30.710
337.38	29.665
337.75	29.899
338.11	31.139
338.47	30.398
338.84	29.551
339.20	30.043
339.56	28.848
339.93	29.849
340.29	29.412
340.65	30.176
341.02	29.606
341.38	29.967
341.74	30.233
342.11	29.716
342.47	28.384
342.83	30.517
343.20	29.749
343.56	28.674
343.92	29.315
344.28	29.266
344.65	29.666
345.01	27.857
345.37	29.728
345.73	29.048
346.10	28.924
346.46	28.389
346.82	28.781
347.19	28.903
347.55	27.557
347.91	27.644
348.27	28.040
348.63	29.193
349.00	29.094
349.36	28.716
349.72	29.511
350.08	28.183
350.45	28.561
350.81	28.593
351.17	26.733
351.53	27.945
351.89	27.972
352.26	28.496
352.62	27.526
352.98	28.144
353.34	28.428
353.70	27.523
354.07	29.231
354.43	28.264
354.79	27.183
355.15	29.173
355.51	28.248
355.87	27.861
356.24	28.022
356.60	27.397
356.96	28.052
357.32	28.410
357.68	27.827
358.04	28.495
358.40	27.586
358.77	29.076
359.13	28.153
359.49	26.835
359.85	27.103
360.21	27.117
360.57	27.737
360.93	26.696
361.29	27.706
361.66	27.666
362.02	26.136
362.38	27.850
362.74	27.318
363.10	28.331
363.46	26.796
363.82	26.928
364.18	27.809
364.54	27.611
364.90	28.447
365.26	27.759
365.62	27.762
365.98	25.877
366.35	26.000
366.71	28.105
367.07	26.826
367.43	27.938
367.79	26.330
368.15	26.391
368.51	27.360
368.87	27.242
369.23	27.027
369.59	27.107
369.95	27.343
370.31	26.078
370.67	27.203
371.03	28.151
371.39	27.285
371.75	26.518
372.11	26.920
372.47	27.123
372.83	26.649
373.19	26.799
373.55	25.636
373.91	26.519
374.27	25.992
374.63	25.898
374.99	26.415
375.35	26.546
375.71	27.045
376.07	26.724
376.42	26.662
376.78	26.911
377.14	27.457
377.50	26.717
377.86	25.945
378.22	26.752
378.58	26.816
378.94	26.433
379.30	26.440
379.66	26.430
380.02	27.214
380.38	25.703
380.74	27.451
381.09	26.636
381.45	26.185
381.81	26.418
382.17	25.946
382.53	26.515
382.89	26.198
383.25	26.288
383.61	25.476
383.97	26.515
384.32	26.703
384.68	26.857
385.04	26.143
385.40	26.631
385.76	25.980
386.12	26.778
386.48	25.957
386.83	26.650
387.19	26.620
387.55	25.265
387.91	27.021
388.27	26.413
388.62	26.937
388.98	25.015
389.34	25.818
389.70	26.297
390.06	26.220
390.42	26.157
390.77	26.044
391.13	27.218
391.49	26.558
391.85	26.585
392.20	25.983
392.56	25.866
392.92	25.828
393.28	25.336
393.64	25.573
393.99	26.319
394.35	26.604
394.71	25.633
395.07	25.547
395.42	25.937
395.78	27.020
396.14	26.446
396.50	26.715
396.85	25.183
397.21	25.511
397.57	25.643
397.92	25.246
398.28	26.200
398.64	26.585
399.00	25.334
399.35	25.443
399.71	26.104
400.07	25.171
400.42	26.209
400.78	25.806
401.14	26.189
401.49	25.461
401.85	26.304
402.21	24.663
402.57	26.332
402.92	26.788
403.28	24.821
403.63	26.310
403.99	25.754
404.35	25.967
404.70	26.108
405.06	25.660
405.42	25.314
405.77	25.358
406.13	25.000
406.49	24.730
406.84	25.494
407.20	25.970
407.55	25.477
407.91	26.037
408.27	25.531
408.62	26.198
408.98	26.020
409.34	26.242
409.69	25.762
410.05	26.118
410.40	25.854
410.76	25.701
411.11	24.467
411.47	25.988
411.83	24.370
412.18	25.785
412.54	26.186
412.89	25.192
413.25	25.998
413.60	26.402
413.96	25.374
414.31	25.207
414.67	26.691
415.03	25.543
415.38	25.237
415.74	25.521
416.09	25.671
416.45	27.408
416.80	27.325
417.16	25.971
417.51	26.115
417.87	25.720
418.22	24.787
418.58	25.287
418.93	25.402
419.29	25.200
419.64	25.742
420.00	25.955
420.35	25.726
420.71	25.379
421.06	25.603
421.42	25.389
421.77	25.541
422.12	24.807
422.48	24.910
422.83	25.837
423.19	25.756
423.54	24.794
423.90	25.934
424.25	25.096
424.61	25.653
424.96	24.732
425.31	25.014
425.67	25.814
426.02	25.407
426.38	24.912
426.73	26.142
427.09	25.801
427.44	24.198
427.79	24.814
428.15	26.223
428.50	25.429
428.85	25.514
429.21	25.176
429.56	24.477
429.92	24.863
430.27	24.915
430.62	24.033
430.98	24.701
431.33	24.647
431.68	23.654
432.04	24.884
432.39	25.357
432.74	25.878
433.10	24.972
433.45	24.698
433.80	25.869
434.16	25.486
434.51	25.129
434.86	25.694
435.22	25.446
435.57	25.430
435.92	25.270
436.28	26.382
436.63	25.392
436.98	27.365
437.34	24.943
437.69	25.364
438.04	25.645
438.39	25.394
438.75	24.944
439.10	24.987
439.45	24.929
439.81	25.911
440.16	24.711
440.51	25.563
440.86	25.242
441.22	24.513
441.57	25.144
441.92	25.173
442.27	25.619
442.63	24.949
442.98	24.407
443.33	24.960
443.68	25.000
444.03	25.495
444.39	25.000
444.74	24.896
445.09	25.540
445.44	25.664
445.79	25.195
446.15	25.789
446.50	24.947
446.85	25.199
447.20	25.224
447.55	24.796
447.91	26.265
448.26	24.973
448.61	25.760
448.96	25.218
449.31	25.688
449.66	25.692
450.02	25.770
450.37	26.319
450.72	25.344
451.07	26.585
451.42	25.904
451.77	25.086
452.12	25.865
452.47	25.091
452.83	24.958
453.18	25.826
453.53	25.696
453.88	25.771
454.23	26.148
454.58	25.699
454.93	25.506
455.28	26.377
455.63	25.414
455.98	25.494
456.34	26.748
456.69	25.976
457.04	25.418
457.39	25.143
457.74	26.182
458.09	24.312
458.44	25.465
458.79	25.199
459.14	25.586
459.49	25.934
459.84	25.815
460.19	25.763
460.54	25.698
460.89	26.013
461.24	25.315
461.59	25.794
461.94	26.005
462.29	25.572
462.64	26.319
462.99	26.168
463.34	25.146
463.69	26.376
464.04	25.907
464.39	25.472
464.74	25.381
465.09	25.537
465.44	24.864
465.79	25.585
466.14	24.536
466.49	25.448
466.84	25.362
467.19	24.956
467.54	25.646
467.89	25.646
468.24	24.899
468.59	25.595
468.94	25.242
469.29	26.023
469.64	26.559
469.99	26.157
470.34	25.553
470.68	26.552
471.03	25.150
471.38	25.894
471.73	25.865
472.08	26.158
472.43	26.195
472.78	26.312
473.13	25.219
473.48	26.284
473.83	25.913
474.17	25.897
474.52	25.711
474.87	25.185
475.22	26.385
475.57	25.761
475.92	26.060
476.27	25.245
476.61	25.630
476.96	25.392
477.31	25.964
477.66	26.355
478.01	25.168
478.36	25.953
478.70	24.764
479.05	25.157
479.40	26.141
479.75	25.273
480.10	25.653
480.45	26.097
480.79	25.392
481.14	24.964
481.49	24.886
481.84	25.506
482.19	25.764
482.53	24.945
482.88	25.045
483.23	25.350
483.58	25.359
483.92	26.097
484.27	25.000
484.62	25.594
484.97	24.893
485.31	24.695
485.66	24.249
486.01	23.921
486.36	23.691
486.70	23.278
487.05	23.939
487.40	24.003
487.75	24.507
488.09	24.545
488.44	24.028
488.79	24.714
489.13	24.337
489.48	25.010
489.83	24.562
490.17	25.062
490.52	24.849
490.87	24.310
491.22	25.887
491.56	26.219
491.91	25.179
492.26	26.102
492.60	25.103
492.95	25.147
493.30	25.432
493.64	25.022
493.99	25.268
494.34	24.563
494.68	24.878
495.03	24.877
495.37	25.529
495.72	25.688
496.07	26.056
496.41	25.022
496.76	24.821
497.11	25.321
497.45	25.690
497.80	25.394
498.14	24.411
498.49	25.023
498.84	25.327
499.18	24.040
499.53	26.321
499.87	24.978
500.22	25.564
500.56	25.162
500.91	26.113
501.26	25.218
501.60	24.909
501.95	24.373
502.29	24.889
502.64	25.099
502.98	24.811
503.33	25.345
503.67	24.857
504.02	24.854
504.36	24.253
504.71	25.213
505.06	25.434
505.40	25.175
505.75	25.070
506.09	24.918
506.44	25.705
506.78	25.142
507.13	25.012
507.47	25.716
507.82	25.645
508.16	26.311
508.51	25.121
508.85	25.071
509.19	26.089
509.54	25.732
509.88	26.106
510.23	25.637
510.57	24.131
510.92	25.075
511.26	25.251
511.61	24.914
511.95	24.838
512.30	25.450
512.64	25.545
512.98	25.833
513.33	26.025
513.67	25.893
514.02	25.351
514.36	25.286
514.70	25.493
515.05	24.933
515.39	25.932
515.74	26.299
516.08	25.000
516.42	26.120
516.77	25.973
517.11	25.013
517.46	25.377
517.80	24.631
518.14	26.310
518.49	25.579
518.83	24.780
519.17	26.012
519.52	26.161
519.86	25.886
520.20	25.534
520.55	25.155
520.89	25.920
521.23	25.818
521.58	25.531
521.92	25.656
522.26	25.237
522.61	25.906
522.95	26.547
523.29	26.257
523.64	26.127
523.98	25.176
524.32	25.087
524.66	25.565
525.01	25.503
525.35	25.516
525.69	25.647
526.04	26.651
526.38	25.132
526.72	24.940
527.06	25.429
527.41	26.481
527.75	25.806
528.09	25.707
528.43	26.113
528.78	25.283
529.12	26.671
529.46	25.833
529.80	25.526
530.15	25.987
530.49	25.391
530.83	26.447
531.17	25.953
531.51	26.487
531.86	25.785
532.20	25.958
532.54	25.047
532.88	25.671
533.22	25.899
533.57	26.113
533.91	24.650
534.25	25.159
534.59	25.848
534.93	24.687
535.27	24.701
535.62	25.146
535.96	25.355
536.30	26.143
536.64	24.783
536.98	25.739
537.32	26.312
537.66	26.658
538.01	25.015
538.35	25.889
538.69	25.182
539.03	25.311
539.37	24.697
539.71	25.494
540.05	24.554
540.39	26.478
540.73	25.127
541.07	24.592
541.42	25.498
541.76	26.017
542.10	25.647
542.44	26.372
542.78	25.928
543.12	25.521
543.46	24.749
543.80	25.313
544.14	25.201
544.48	25.061
544.82	25.505
545.16	24.954
545.50	25.384
545.84	26.263
546.18	26.463
546.52	25.836
546.86	25.338
547.20	25.129
547.54	24.446
547.88	25.122
548.22	25.137
548.56	25.339
548.90	25.267
549.24	25.332
549.58	25.322
549.92	26.130
550.26	25.287
550.60	26.015
550.94	25.577
551.28	26.207
551.62	27.448
551.96	26.149
552.30	24.720
552.64	25.502
552.98	24.485
553.32	24.584
553.66	25.928
554.00	25.869
554.34	26.631
554.68	25.739
555.02	24.508
555.36	25.199
555.69	25.589
556.03	25.032
556.37	24.729
556.71	25.945
557.05	24.836
557.39	25.000
557.73	24.730
558.07	25.218
558.41	25.634
558.75	26.334
559.08	26.162
559.42	26.271
559.76	26.372
560.10	25.946
560.44	25.415
560.78	26.151
561.12	25.493
561.45	25.031
561.79	24.032
562.13	24.889
562.47	24.789
562.81	25.569
563.15	25.792
563.48	24.658
563.82	26.014
564.16	25.871
564.50	24.593
564.84	25.897
565.17	25.787
565.51	25.431
565.85	26.280
566.19	25.357
566.52	24.609
566.86	26.036
567.20	25.843
567.54	25.164
567.88	25.300
568.21	24.763
568.55	24.125
568.89	24.772
569.23	25.280
569.56	24.681
569.90	23.967
570.24	24.497
570.57	24.302
570.91	23.245
571.25	23.517
571.59	23.350
571.92	23.332
572.26	23.073
572.60	22.799
572.93	23.577
573.27	24.124
573.61	23.416
573.95	23.357
574.28	23.340
574.62	22.729
574.96	22.807
575.29	22.957
575.63	22.921
575.97	22.712
576.30	23.057
576.64	23.182
576.98	23.404
577.31	23.270
577.65	22.699
577.98	22.859
578.32	22.827
578.66	22.512
578.99	22.949
579.33	23.094
579.67	23.056
580.00	23.114
580.34	23.089
580.67	22.998
581.01	23.305
581.35	23.117
581.68	22.550
582.02	22.708
582.35	22.754
582.69	22.810
583.02	23.020
583.36	22.928
583.70	23.611
584.03	23.341
584.37	23.599
584.70	22.916
585.04	23.174
585.37	22.881
585.71	23.865
586.04	22.767
586.38	22.768
586.72	23.012
587.05	23.263
587.39	22.807
587.72	23.176
588.06	23.367
588.39	23.055
588.73	23.372
589.06	23.052
589.40	23.850
589.73	23.664
590.07	23.885
590.40	23.554
590.73	24.568
591.07	24.478
591.40	24.032
591.74	23.498
592.07	23.586
592.41	23.701
592.74	23.215
593.08	23.665
593.41	23.190
593.75	23.397
594.08	23.591
594.41	23.265
594.75	23.596
595.08	24.554
595.42	24.095
595.75	23.791
596.09	23.392
596.42	23.197
596.75	23.718
597.09	24.144
597.42	23.673
597.75	23.083
598.09	23.389
598.42	23.664
598.76	23.786
599.09	23.685
599.42	23.322
599.76	23.406
600.09	23.424
600.42	23.343
600.76	23.453
601.09	23.265
601.42	23.337
601.76	23.058
602.09	23.804
602.42	23.327
602.76	23.378
603.09	24.623
603.42	24.073
603.76	23.825
604.09	23.344
604.42	22.938
604.76	24.141
605.09	23.714
605.42	23.690
605.75	23.964
606.09	23.068
606.42	22.961
606.75	23.591
607.09	23.016
607.42	23.584
607.75	23.248
608.08	23.599
608.42	23.826
608.75	23.149
609.08	23.845
609.41	24.773
609.75	24.084
610.08	24.281
610.41	24.594
610.74	24.502
611.07	24.284
611.41	24.189
611.74	23.901
612.07	24.037
612.40	24.464
612.73	23.964
613.07	24.734
613.40	24.662
613.73	24.913
614.06	23.700
614.39	24.192
614.72	23.857
615.06	23.986
615.39	24.158
615.72	23.136
616.05	23.857
616.38	24.150
616.71	24.362
617.05	23.943
617.38	24.045
617.71	25.309
618.04	24.285
618.37	24.903
618.70	24.192
619.03	24.542
619.36	24.749
619.69	24.868
620.03	25.701
620.36	24.149
620.69	24.074
621.02	26.562
621.35	24.642
621.68	25.147
622.01	26.052
622.34	25.055
622.67	25.000
623.00	24.438
623.33	25.236
623.66	24.085
623.99	25.000
624.32	25.000
624.65	24.621
624.99	24.544
625.32	24.516
625.65	24.207
625.98	24.616
626.31	25.000
626.64	26.044
626.97	25.402
627.30	25.000
627.63	25.981
627.96	25.117
628.29	26.238
628.62	25.235
628.95	25.798
629.28	26.994
629.61	26.098
629.94	25.065
630.26	25.477
630.59	25.709
630.92	25.919
631.25	25.567
631.58	26.905
631.91	26.261
632.24	26.142
632.57	23.870
632.90	25.052
633.23	26.863
633.56	25.922
633.89	27.224
634.22	26.803
634.55	25.054
634.88	27.382
635.20	27.018
635.53	25.436
635.86	26.622
636.19	26.263
636.52	25.838
636.85	26.429
637.18	26.002
637.51	25.810
637.83	25.629
638.16	26.612
638.49	26.228
638.82	27.934
639.15	25.029
639.48	27.251
639.81	27.717
640.13	26.748
640.46	28.824
640.79	25.878
641.12	28.871
641.45	28.590
641.77	30.251
642.10	26.640
642.43	26.743
642.76	30.114
643.09	27.089
643.41	26.928
643.74	28.201
644.07	28.614
644.40	27.515
644.73	27.477
645.05	28.678
645.38	29.709
645.71	27.466
646.04	29.924
646.36	29.264
646.69	28.000
647.02	28.160
647.35	27.087
647.67	28.849
648.00	30.130
648.33	26.015
648.66	27.121
648.98	25.652
649.31	26.586
649.64	26.556
649.96	26.743
650.29	27.429
650.62	29.161
650.94	28.313
651.27	29.027
651.60	27.387
651.92	27.803
652.25	27.087
652.58	27.660
652.90	28.144
653.23	25.997
653.56	27.596
653.88	27.313
654.21	27.566
654.54	26.354
654.86	26.844
655.19	28.892
655.52	23.680
655.84	20.144
656.17	23.984
656.49	34.742
656.82	39.582
657.15	31.764
657.47	23.812
657.80	17.705
658.13	13.945
658.45	18.899
658.78	23.416
659.10	23.587
659.43	23.351
659.75	24.978
660.08	26.065
660.41	25.862
660.73	27.478
661.06	28.979
661.38	28.450
661.71	28.237
662.03	29.848
662.36	31.048
662.68	25.885
663.01	30.090
663.33	30.000
663.66	30.178
663.98	27.579
664.31	29.664
664.63	30.268
664.96	30.957
665.28	27.495
665.61	27.547
665.93	27.358
666.26	28.598
666.58	31.193
666.91	26.255
667.23	31.325
667.56	29.774
667.88	31.950
668.21	29.098
668.53	27.419
668.86	30.461
669.18	31.161
669.50	28.926
669.83	30.801
670.15	29.938
670.48	27.539
670.80	31.076
671.13	28.287
671.45	33.066
671.77	28.015
672.10	28.905
672.42	29.934
672.75	26.741
673.07	28.617
673.39	29.073
673.72	28.893
674.04	27.778
674.37	30.127
674.69	28.067
675.01	28.545
675.34	28.488
675.66	28.711
675.98	28.008
676.31	29.200
676.63	26.640
676.95	30.357
677.28	28.398
677.60	29.376
677.92	25.992
678.25	29.070
678.57	29.050
678.89	27.306
679.22	29.044
679.54	27.758
679.86	29.145
680.18	28.120
680.51	26.202
680.83	27.196
681.15	29.463
681.48	28.993
681.80	28.546
682.12	29.585
682.44	25.586
682.77	29.181
683.09	28.544
683.41	27.959
683.73	28.150
684.06	29.365
684.38	30.233
684.70	28.237
685.02	26.910
685.34	28.345
685.67	28.778
685.99	28.900
686.31	26.348
686.63	26.504
686.96	29.248
687.28	26.174
687.60	27.304
687.92	28.811
688.24	28.448
688.56	28.470
688.89	25.430
689.21	27.938
689.53	29.051
689.85	27.236
690.17	25.243
690.49	29.435
690.82	30.252
691.14	30.505
691.46	27.926
691.78	28.070
692.10	26.718
692.42	28.312
692.74	28.876
693.06	28.682
693.39	28.458
693.71	28.487
694.03	28.600
694.35	29.719
694.67	26.884
694.99	28.160
695.31	31.081
695.63	29.412
695.95	26.923
696.27	32.301
696.59	27.446
696.91	29.367
697.23	29.638
697.56	25.934
697.88	27.545
698.20	30.189
698.52	27.237
698.84	31.828
699.16	29.211
699.48	32.415
699.80	32.244
700.12	30.716
700.44	28.271
700.76	30.549
701.08	30.026
701.40	30.390
701.72	32.086
702.04	33.875
702.36	29.839
702.68	30.053
703.00	27.318
703.32	30.769
703.64	33.753
703.96	29.687
704.28	29.894
704.60	34.366
704.91	30.252
705.23	32.102
705.55	34.421
705.87	31.746
706.19	33.856
706.51	38.245
706.83	33.038
707.15	34.492
707.47	31.961
707.79	29.885
708.11	30.612
708.43	30.562
708.74	29.186
709.06	26.977
709.38	30.769
709.70	30.790
710.02	32.065
710.34	30.663
710.66	32.500
710.98	30.328
711.29	28.969
711.61	32.033
711.93	31.915
712.25	33.434
712.57	34.727
712.89	32.727
713.20	33.866
713.52	33.645
713.84	34.139
714.16	28.116
714.48	29.395
714.80	28.997
715.11	30.053
715.43	29.888
715.75	27.324
716.07	31.214
716.39	31.714
716.70	29.595
717.02	36.027
717.34	34.532
717.66	30.903
717.97	40.909
718.29	34.155
718.61	33.784
718.93	32.872
719.24	35.570
719.56	28.621
719.88	28.981
720.20	31.613
720.51	30.719
720.83	29.431
721.15	31.293
721.46	32.192
721.78	32.056
722.10	34.722
722.42	32.107
722.73	33.935
723.05	36.491
723.37	32.509
723.68	31.641
724.00	34.470
724.32	38.023
724.63	35.385
724.95	35.294
725.27	33.086
725.58	34.191
725.90	30.986
726.22	30.479
726.53	32.107
726.85	37.134
727.16	37.248
727.48	35.880
727.80	33.813
728.11	31.071
728.43	30.435
728.74	32.867
729.06	31.183
729.38	38.246
729.69	37.000
730.01	33.882
730.32	36.577
730.64	35.216
730.96	31.532
731.27	27.217
731.59	30.747
731.90	32.312
732.22	28.286
732.53	34.473
732.85	32.749
733.16	31.325
733.48	31.034
733.80	33.043
734.11	33.436
734.43	28.655
734.74	28.954
735.06	30.423
735.37	30.928
735.69	34.203
736.00	32.416
736.32	27.879
736.63	29.653
736.95	32.298
737.26	33.537
737.58	32.515
737.89	31.325
738.21	27.483
738.52	33.779
738.83	37.729
739.15	35.540
739.46	31.379
739.78	33.333
740.09	32.653
740.41	32.209
740.72	34.286
741.04	36.713
741.35	36.719
741.66	36.364
741.98	34.335
742.29	36.574
742.61	35.398
742.92	30.508
743.23	34.000
743.55	30.566
743.86	28.627
744.18	37.288
744.49	35.950
744.80	37.327
745.12	36.161
745.43	36.449
745.74	35.111
746.06	37.281
746.37	38.605
746.68	42.920
747.00	39.462
747.31	35.294
747.62	30.328
747.94	39.485
748.25	37.743
748.56	38.983
748.88	36.161
749.19	34.884
749.50	35.160
749.82	37.037
750.13	35.178
750.44	30.667
750.75	31.879
751.07	32.237
751.38	33.333
751.69	34.007
752.01	34.965
752.32	33.223
752.63	33.893
752.94	34.615
753.26	37.891
753.57	35.798
753.88	37.079
754.19	31.769
754.51	32.226
754.82	34.228
755.13	29.392
755.44	35.185
755.75	32.990
756.07	31.507
756.38	31.373
756.69	33.750
757.00	29.674
757.31	31.268
757.63	28.926
757.94	31.117
758.25	30.435
758.56	30.206
758.87	30.827
759.18	27.907
759.50	33.739
759.81	35.312
760.12	31.461
760.43	33.894
760.74	29.873
761.05	30.239
761.36	26.562
761.67	33.154
761.99	32.676
762.30	28.939
762.61	27.778
762.92	35.985
763.23	31.698
763.54	32.308
763.85	33.074
764.16	34.375
764.47	32.432
764.78	30.619
765.10	32.927
765.41	28.977
765.72	29.834
766.03	28.097
766.34	34.146
766.65	33.080
766.96	36.032
767.27	37.850
767.58	35.644
767.89	39.227
768.20	46.951
768.51	37.245
768.82	36.842
769.13	34.902
769.44	32.331
769.75	31.461
770.06	39.076
770.37	29.386
770.68	33.778
770.99	37.712
771.30	37.657
771.61	35.000
771.92	31.298
772.23	35.484
772.54	40.444
772.85	39.109
773.16	40.217
773.47	43.333
773.78	43.069
774.09	41.477
774.39	35.152
774.70	39.412
775.01	36.184
775.32	44.099
775.63	49.315
775.94	48.148
776.25	46.207
776.56	45.038
776.87	45.038
777.18	41.667
777.48	52.756
777.79	50.000
778.10	51.515
778.41	48.507
778.72	40.602
779.03	37.179
779.34	46.622
779.65	34.161
779.95	43.478
780.26	43.452
780.57	51.020
780.88	48.227
781.19	52.500
781.50	43.195
781.80	41.530
782.11	34.392
782.42	36.782
782.73	31.638
783.04	46.452
783.34	37.984
783.65	36.054
783.96	43.871
784.27	37.748
784.57	29.605
784.88	48.551
785.19	39.167
785.50	56.034
785.81	47.287
786.11	43.704
786.42	48.031
786.73	54.054
787.04	50.943
787.34	44.715
787.65	53.030
787.96	46.212
788.26	45.669
788.57	54.015
788.88	46.479
789.19	48.855
789.49	48.649
789.80	44.531
790.11	38.843
790.41	44.444
790.72	37.037
791.03	48.077
791.33	56.566
791.64	60.000
791.95	52.632
792.25	53.125
792.56	56.000
792.87	62.195
793.17	60.227
793.48	58.824
793.79	65.517
794.09	46.591
794.40	66.379
794.70	44.444
795.01	45.385
795.32	48.092
795.62	41.880
795.93	50.420
796.23	45.528
796.54	56.122
796.85	61.364
797.15	74.026
797.46	78.049
797.76	52.500
798.07	81.333
798.37	67.500
798.68	62.500
798.99	62.195
799.29	68.000
799.60	44.186
799.90	67.105
800.21	68.182
800.51	67.606
800.82	79.310
801.12	72.308
801.43	69.333
801.73	89.655
802.04	74.026
802.34	56.164
802.65	68.627
802.95	80.435
803.26	85.484
803.56	91.667
803.87	83.582
804.17	61.905
804.48	77.358
804.78	68.056
805.09	90.909
805.39	74.603
805.70	78.947
806.00	60.000
806.30	68.750
806.61	74.118
806.91	63.333
807.22	50.000
807.52	53.947
807.83	75.000
808.13	71.014
808.43	88.710
808.74	82.192
809.04	67.857
809.35	77.941
809.65	65.152
809.95	107.843
810.26	79.630
810.56	84.375
810.86	87.755
811.17	85.965
811.47	84.783
811.77	62.069
812.08	74.138
812.38	97.619
812.69	123.810
812.99	84.444
813.29	111.429
813.59	129.032
813.90	63.793
814.20	83.607
814.50	84.000
814.81	77.193
815.11	81.481
815.41	89.286
815.72	103.571
816.02	98.000
816.32	117.073
816.62	103.448
816.93	109.091
817.23	114.634
817.53	89.286
817.84	91.111
818.14	88.095
818.44	106.250
818.74	81.132
819.04	79.487
819.35	112.121
819.65	92.308
819.95	111.111
820.25	102.128
820.56	110.811
820.86	118.421
821.16	82.979
821.46	97.368
821.76	83.636
822.07	71.429
822.37	107.895
822.67	111.628
822.97	92.105
823.27	89.130
823.57	137.500
823.88	128.205
824.18	106.061
824.48	130.435
824.78	122.222
825.08	152.174
825.38	134.483
825.69	126.471
825.99	61.702
826.29	86.111
826.59	151.429
826.89	106.667
827.19	108.571
827.49	122.581
827.79	103.846
828.09	102.381
828.39	108.333
828.70	78.378
829.00	160.714
829.30	181.250
829.60	116.667
829.90	122.581
830.20	115.152
830.50	110.811
830.80	183.333
831.10	165.385
831.40	171.429
831.70	220.833
832.00	106.667
832.30	147.826
832.60	162.500
832.90	160.606
833.20	200.000
833.50	107.895
833.80	85.294
834.10	118.421
834.40	168.421
834.70	150.000
835.00	152.000
835.30	108.108
835.60	162.500
835.90	148.649
836.20	173.077
836.50	95.455
836.80	97.561
837.10	147.826
837.40	215.385
837.70	147.368
838.00	163.333
838.30	175.000
838.60	172.000
838.90	360.000
839.19	206.250
839.49	160.000
839.79	106.897
840.09	161.538
840.39	180.000
840.69	189.474
840.99	95.238
841.29	191.304
841.59	205.000
841.88	184.000
842.18	322.222
842.48	160.714
842.78	170.370
843.08	215.385
843.38	154.545
843.68	185.714
843.97	485.714
844.27	160.870
844.57	1150.000
844.87	328.571
845.17	250.000
845.47	161.905
845.76	129.167
846.06	600.000
846.36	152.941
846.66	223.077
846.96	218.750
847.25	269.231
847.55	236.842
847.85	172.222
848.15	580.000
848.44	263.636
848.74	157.143
849.04	170.833
849.34	229.412
849.63	262.500
849.93	175.000
850.23	1100.000
850.53	425.000
850.82	309.091
851.12	194.118
851.42	166.667
851.71	206.250
852.01	0.000
852.31	229.412
852.61	440.000
852.90	183.333
853.20	433.333
853.50	-2500.000
853.79	180.000
854.09	165.625
854.39	175.862
854.68	168.966
854.98	209.524
855.28	145.161
855.57	321.429
855.87	266.667
856.17	118.519
856.46	242.105
856.76	135.484
857.05	217.647
857.35	290.909
857.65	292.308
857.94	230.000
858.24	377.778
858.53	292.857
858.83	585.714
859.13	147.826
859.42	355.556
859.72	350.000
860.01	183.333
860.31	1050.000
860.60	400.000
860.90	362.500
861.20	238.462
861.49	485.714
861.79	-3400.000
862.08	471.429
862.38	411.111
862.67	200.000
862.97	410.000
863.26	130.000
863.56	525.000
863.85	353.846
864.15	170.588
864.44	250.000
864.74	350.000
865.03	290.909
865.33	487.500
865.62	246.667
865.92	500.000
866.21	850.000
866.51	640.000
866.80	244.444
867.10	900.000
867.39	3400.000
867.69	620.000
867.98	900.000
868.27	171.429
868.57	220.000
868.86	925.000
869.16	161.905
869.45	2600.000
869.75	-550.000
870.04	900.000
870.33	680.000
870.63	475.000
870.92	217.647
871.22	825.000
871.51	457.143
871.80	333.333
872.10	353.846
>>>>>End Processed Spectral Data<<<<<
