SpectraSuite Data File
++++++++++++++++++++++++++++++++++++
Date: Wed May 13 21:44:06 PDT 2015
User: schluterlab
Dark Spectrum Present: Yes
Reference Spectrum Present: Yes
Number of Sampled Component Spectra: 1
Spectrometers: USB2E3373
Integration Time (usec): 3000 (USB2E3373)
Spectra Averaged: 3 (USB2E3373)
Boxcar Smoothing: 0 (USB2E3373)
Correct for Electrical Dark: No (USB2E3373)
Strobe/Lamp Enabled: No (USB2E3373)
Correct for Detector Non-linearity: No (USB2E3373)
Correct for Stray Light: No (USB2E3373)
Number of Pixels in Processed Spectrum: 2048
>>>>>Begin Processed Spectral Data<<<<<
178.53	0.000
178.91	300.000
179.29	158.333
179.67	-550.000
180.04	-466.667
180.42	160.000
180.80	1800.000
181.18	150.000
181.56	-275.000
181.94	-225.000
182.31	72.727
182.69	192.308
183.07	-80.000
183.45	233.333
183.83	133.333
184.20	85.714
184.58	-100.000
184.96	133.333
185.34	185.714
185.72	0.000
186.09	0.000
186.47	-340.000
186.85	60.000
187.23	200.000
187.61	1050.000
187.98	1700.000
188.36	12.500
188.74	0.000
189.12	0.000
189.49	110.000
189.87	125.000
190.25	120.000
190.63	1100.000
191.00	0.000
191.38	220.000
191.76	100.000
192.14	125.000
192.51	21.053
192.89	133.333
193.27	300.000
193.65	-280.000
194.02	145.455
194.40	190.000
194.78	-300.000
195.15	220.000
195.53	-140.000
195.91	-12.500
196.29	-166.667
196.66	0.000
197.04	400.000
197.42	120.000
197.79	60.000
198.17	-87.500
198.55	-333.333
198.92	100.000
199.30	-200.000
199.68	-30.000
200.05	500.000
200.43	100.000
200.81	-600.000
201.18	-160.000
201.56	-116.667
201.94	450.000
202.31	0.000
202.69	0.000
203.07	-366.667
203.44	-100.000
203.82	100.000
204.19	-70.000
204.57	0.000
204.95	-216.667
205.32	0.000
205.70	-50.000
206.08	-250.000
206.45	-183.333
206.83	325.000
207.20	-166.667
207.58	-30.000
207.96	-1700.000
208.33	-128.571
208.71	-1600.000
209.08	137.500
209.46	200.000
209.84	0.000
210.21	140.000
210.59	1500.000
210.96	240.000
211.34	1400.000
211.71	-850.000
212.09	-183.333
212.46	-70.000
212.84	-166.667
213.22	-100.000
213.59	-1400.000
213.97	-400.000
214.34	-150.000
214.72	-30.769
215.09	200.000
215.47	177.778
215.84	500.000
216.22	-100.000
216.59	-550.000
216.97	433.333
217.34	133.333
217.72	0.000
218.09	633.333
218.47	1000.000
218.84	0.000
219.22	12.500
219.59	-100.000
219.97	-325.000
220.34	-125.000
220.72	-80.000
221.09	0.000
221.47	-100.000
221.84	-100.000
222.22	0.000
222.59	200.000
222.97	-433.333
223.34	33.333
223.72	-700.000
224.09	-200.000
224.46	27.273
224.84	-25.000
225.21	-14.286
225.59	-250.000
225.96	-150.000
226.34	-60.000
226.71	-157.143
227.08	600.000
227.46	-100.000
227.83	1000.000
228.21	-18.750
228.58	-275.000
228.95	-5.882
229.33	18.750
229.70	-62.500
230.08	15.385
230.45	-50.000
230.82	-41.667
231.20	200.000
231.57	-300.000
231.95	-0.000
232.32	75.000
232.69	17.647
233.07	-1600.000
233.44	13.043
233.81	-300.000
234.19	33.333
234.56	33.333
234.93	40.000
235.31	68.421
235.68	-38.462
236.05	53.846
236.43	-11.111
236.80	21.212
237.17	-13.333
237.55	-41.176
237.92	3.448
238.29	7.407
238.67	27.778
239.04	22.581
239.41	25.532
239.79	36.170
240.16	41.860
240.53	53.571
240.91	46.429
241.28	33.929
241.65	48.387
242.02	28.947
242.40	31.884
242.77	33.333
243.14	29.487
243.51	31.915
243.89	33.654
244.26	43.396
244.63	28.846
245.00	52.083
245.38	39.496
245.75	45.902
246.12	28.571
246.49	42.276
246.87	36.975
247.24	45.946
247.61	37.748
247.98	41.667
248.36	40.237
248.73	41.573
249.10	38.889
249.47	37.097
249.84	47.895
250.22	42.289
250.59	34.112
250.96	45.455
251.33	37.321
251.70	43.096
252.08	42.259
252.45	41.975
252.82	43.726
253.19	40.078
253.56	44.245
253.94	43.060
254.31	41.901
254.68	43.960
255.05	42.904
255.42	39.860
255.79	41.718
256.16	41.325
256.54	38.730
256.91	40.506
257.28	42.767
257.65	40.764
258.02	39.003
258.39	40.351
258.76	42.151
259.14	42.330
259.51	41.573
259.88	42.547
260.25	42.222
260.62	41.573
260.99	45.623
261.36	44.301
261.73	41.728
262.10	43.511
262.47	40.494
262.85	37.562
263.22	44.615
263.59	42.857
263.96	45.742
264.33	42.788
264.70	39.535
265.07	42.824
265.44	41.839
265.81	40.503
266.18	44.191
266.55	41.921
266.92	43.644
267.29	40.329
267.66	43.100
268.03	42.593
268.40	39.407
268.77	40.909
269.14	40.408
269.51	42.505
269.88	40.733
270.25	43.008
270.62	42.828
270.99	41.339
271.36	42.460
271.73	43.173
272.10	41.714
272.47	44.146
272.84	41.142
273.21	39.335
273.58	43.238
273.95	40.943
274.32	42.910
274.69	40.437
275.06	41.343
275.43	42.561
275.80	40.780
276.17	42.726
276.54	38.899
276.91	39.547
277.28	38.989
277.65	40.385
278.02	40.536
278.39	41.918
278.76	41.304
279.13	42.024
279.50	42.414
279.87	40.580
280.23	42.342
280.60	39.619
280.97	40.422
281.34	41.325
281.71	37.561
282.08	43.419
282.45	42.131
282.82	39.776
283.19	42.835
283.56	40.313
283.92	39.450
284.29	39.782
284.66	39.703
285.03	41.042
285.40	37.311
285.77	41.892
286.14	40.881
286.51	39.730
286.87	38.154
287.24	40.118
287.61	40.663
287.98	39.118
288.35	38.301
288.72	38.020
289.08	38.034
289.45	37.004
289.82	39.032
290.19	38.008
290.56	36.506
290.93	35.635
291.29	37.756
291.66	37.432
292.03	38.692
292.40	36.608
292.77	36.011
293.13	37.936
293.50	36.993
293.87	36.533
294.24	34.788
294.60	35.241
294.97	36.243
295.34	33.773
295.71	34.428
296.08	33.639
296.44	33.418
296.81	35.323
297.18	34.625
297.55	34.198
297.91	34.783
298.28	32.809
298.65	33.005
299.02	34.066
299.38	34.356
299.75	32.572
300.12	32.558
300.48	32.515
300.85	31.640
301.22	33.449
301.59	32.394
301.95	32.404
302.32	33.022
302.69	31.073
303.05	32.780
303.42	32.614
303.79	32.492
304.15	33.735
304.52	33.011
304.89	32.226
305.25	33.480
305.62	31.128
305.99	32.971
306.35	35.110
306.72	33.367
307.09	32.638
307.45	32.481
307.82	33.474
308.19	32.706
308.55	33.060
308.92	32.515
309.29	34.034
309.65	32.567
310.02	33.300
310.38	33.740
310.75	33.925
311.12	33.916
311.48	34.322
311.85	35.433
312.22	34.139
312.58	35.169
312.95	35.721
313.31	35.078
313.68	36.355
314.05	35.917
314.41	38.040
314.78	36.812
315.14	35.926
315.51	36.346
315.87	38.091
316.24	36.180
316.61	38.265
316.97	39.815
317.34	38.859
317.70	40.946
318.07	41.615
318.43	40.921
318.80	39.791
319.16	40.053
319.53	42.384
319.89	41.012
320.26	42.976
320.62	43.188
320.99	43.411
321.35	42.283
321.72	44.177
322.08	44.649
322.45	44.958
322.81	46.488
323.18	45.528
323.54	46.570
323.91	46.070
324.27	48.515
324.64	47.909
325.00	50.569
325.37	50.683
325.73	50.589
326.10	50.378
326.46	51.171
326.83	50.405
327.19	52.276
327.56	53.586
327.92	51.569
328.29	53.005
328.65	54.338
329.01	54.442
329.38	55.652
329.74	52.961
330.11	55.636
330.47	56.250
330.84	56.227
331.20	54.398
331.56	56.612
331.93	56.158
332.29	57.341
332.66	55.424
333.02	56.820
333.38	57.544
333.75	56.399
334.11	57.205
334.48	58.500
334.84	56.625
335.20	56.346
335.57	57.006
335.93	55.842
336.29	57.005
336.66	57.094
337.02	57.304
337.38	57.528
337.75	58.484
338.11	56.106
338.47	57.192
338.84	56.443
339.20	58.907
339.56	55.631
339.93	57.822
340.29	56.704
340.65	57.143
341.02	57.737
341.38	57.348
341.74	58.067
342.11	58.712
342.47	57.322
342.83	57.435
343.20	57.699
343.56	58.626
343.92	56.377
344.28	57.873
344.65	58.449
345.01	56.820
345.37	59.868
345.73	59.722
346.10	57.945
346.46	59.024
346.82	56.661
347.19	56.725
347.55	58.320
347.91	57.366
348.27	57.571
348.63	58.574
349.00	58.412
349.36	57.457
349.72	56.767
350.08	59.048
350.45	58.575
350.81	58.842
351.17	58.276
351.53	57.423
351.89	57.109
352.26	57.761
352.62	58.450
352.98	58.866
353.34	59.823
353.70	59.346
354.07	58.275
354.43	58.398
354.79	59.615
355.15	59.161
355.51	58.770
355.87	58.640
356.24	59.470
356.60	59.265
356.96	58.480
357.32	57.043
357.68	59.435
358.04	58.262
358.40	58.217
358.77	58.716
359.13	60.233
359.49	58.592
359.85	58.908
360.21	60.216
360.57	59.620
360.93	60.546
361.29	59.437
361.66	59.757
362.02	59.896
362.38	60.340
362.74	58.593
363.10	59.508
363.46	59.942
363.82	60.163
364.18	59.391
364.54	59.300
364.90	60.418
365.26	60.226
365.62	60.653
365.98	59.858
366.35	58.369
366.71	60.200
367.07	59.036
367.43	60.209
367.79	59.625
368.15	59.705
368.51	59.634
368.87	61.410
369.23	60.783
369.59	59.056
369.95	61.248
370.31	58.438
370.67	60.246
371.03	60.579
371.39	60.114
371.75	59.357
372.11	60.755
372.47	60.058
372.83	60.749
373.19	60.647
373.55	59.827
373.91	59.760
374.27	60.373
374.63	59.317
374.99	60.446
375.35	60.548
375.71	59.375
376.07	60.658
376.42	59.693
376.78	61.295
377.14	60.339
377.50	59.909
377.86	60.691
378.22	60.936
378.58	60.277
378.94	61.313
379.30	60.837
379.66	59.556
380.02	61.213
380.38	59.337
380.74	62.044
381.09	58.926
381.45	60.339
381.81	60.752
382.17	58.790
382.53	59.692
382.89	59.710
383.25	61.049
383.61	61.017
383.97	61.250
384.32	59.798
384.68	59.223
385.04	60.110
385.40	60.399
385.76	60.523
386.12	60.943
386.48	59.875
386.83	59.574
387.19	58.853
387.55	59.595
387.91	62.116
388.27	60.358
388.62	59.613
388.98	59.512
389.34	59.461
389.70	57.937
390.06	59.063
390.42	59.665
390.77	59.449
391.13	59.975
391.49	59.077
391.85	59.233
392.20	58.584
392.56	59.111
392.92	59.684
393.28	58.396
393.64	59.388
393.99	56.426
394.35	58.519
394.71	59.487
395.07	57.421
395.42	59.842
395.78	57.207
396.14	59.734
396.50	57.324
396.85	58.955
397.21	57.553
397.57	57.764
397.92	57.066
398.28	56.740
398.64	57.498
399.00	57.645
399.35	57.775
399.71	57.368
400.07	56.988
400.42	56.991
400.78	56.677
401.14	56.591
401.49	56.621
401.85	56.204
402.21	57.833
402.57	55.855
402.92	56.508
403.28	56.660
403.63	56.541
403.99	57.582
404.35	57.606
404.70	55.770
405.06	55.314
405.42	56.219
405.77	55.242
406.13	55.029
406.49	54.584
406.84	56.105
407.20	55.062
407.55	55.260
407.91	54.864
408.27	53.712
408.62	56.476
408.98	54.007
409.34	55.507
409.69	54.581
410.05	55.286
410.40	54.047
410.76	54.031
411.11	54.913
411.47	56.735
411.83	54.959
412.18	55.290
412.54	54.637
412.89	54.671
413.25	52.684
413.60	54.859
413.96	53.808
414.31	54.069
414.67	54.159
415.03	54.736
415.38	54.095
415.74	53.866
416.09	53.999
416.45	54.477
416.80	56.040
417.16	53.779
417.51	55.325
417.87	54.563
418.22	54.751
418.58	54.665
418.93	53.861
419.29	55.644
419.64	53.499
420.00	55.810
420.35	54.812
420.71	54.113
421.06	55.043
421.42	56.326
421.77	55.202
422.12	55.874
422.48	54.798
422.83	55.700
423.19	55.492
423.54	55.713
423.90	55.582
424.25	55.575
424.61	56.007
424.96	55.174
425.31	56.085
425.67	55.144
426.02	55.536
426.38	55.784
426.73	56.872
427.09	56.035
427.44	56.782
427.79	57.245
428.15	55.780
428.50	56.073
428.85	58.180
429.21	55.824
429.56	56.854
429.92	56.689
430.27	56.851
430.62	56.611
430.98	56.742
431.33	58.141
431.68	55.591
432.04	56.732
432.39	56.582
432.74	57.695
433.10	57.292
433.45	57.692
433.80	57.184
434.16	57.455
434.51	58.750
434.86	58.363
435.22	57.499
435.57	57.617
435.92	58.444
436.28	57.477
436.63	58.661
436.98	57.756
437.34	58.852
437.69	58.028
438.04	58.178
438.39	58.344
438.75	58.045
439.10	59.514
439.45	57.748
439.81	60.099
440.16	59.188
440.51	58.383
440.86	59.514
441.22	58.692
441.57	58.514
441.92	58.891
442.27	59.145
442.63	58.181
442.98	58.449
443.33	58.973
443.68	59.041
444.03	58.718
444.39	58.701
444.74	58.642
445.09	58.260
445.44	59.775
445.79	60.712
446.15	60.732
446.50	58.756
446.85	60.770
447.20	59.383
447.55	59.261
447.91	58.371
448.26	59.291
448.61	59.148
448.96	60.991
449.31	59.223
449.66	60.440
450.02	60.205
450.37	61.163
450.72	58.783
451.07	58.809
451.42	59.201
451.77	60.195
452.12	58.408
452.47	60.039
452.83	59.257
453.18	59.325
453.53	58.512
453.88	58.554
454.23	61.310
454.58	59.191
454.93	59.718
455.28	60.501
455.63	60.512
455.98	61.169
456.34	58.169
456.69	59.425
457.04	58.142
457.39	59.711
457.74	59.186
458.09	60.604
458.44	61.046
458.79	58.924
459.14	58.596
459.49	59.695
459.84	59.639
460.19	58.223
460.54	59.732
460.89	59.178
461.24	60.173
461.59	59.903
461.94	58.028
462.29	59.498
462.64	59.169
462.99	59.691
463.34	60.912
463.69	59.794
464.04	58.703
464.39	60.159
464.74	58.354
465.09	61.004
465.44	58.979
465.79	60.092
466.14	59.578
466.49	59.883
466.84	58.577
467.19	60.000
467.54	60.596
467.89	58.391
468.24	60.848
468.59	59.465
468.94	59.898
469.29	60.145
469.64	60.530
469.99	59.448
470.34	60.013
470.68	60.000
471.03	59.803
471.38	60.083
471.73	59.396
472.08	60.000
472.43	61.609
472.78	59.162
473.13	58.113
473.48	60.600
473.83	59.071
474.17	60.221
474.52	60.712
474.87	60.072
475.22	59.239
475.57	59.007
475.92	59.978
476.27	58.566
476.61	58.664
476.96	59.566
477.31	59.331
477.66	60.339
478.01	59.725
478.36	58.529
478.70	58.915
479.05	59.822
479.40	58.658
479.75	59.989
480.10	58.797
480.45	58.117
480.79	58.188
481.14	60.537
481.49	59.990
481.84	58.294
482.19	59.055
482.53	58.619
482.88	59.779
483.23	58.422
483.58	58.979
483.92	58.949
484.27	58.783
484.62	58.455
484.97	59.270
485.31	59.543
485.66	56.572
486.01	57.914
486.36	57.601
486.70	57.517
487.05	57.809
487.40	57.620
487.75	58.886
488.09	57.773
488.44	58.360
488.79	58.857
489.13	58.330
489.48	58.700
489.83	59.223
490.17	58.466
490.52	60.075
490.87	58.878
491.22	58.926
491.56	59.847
491.91	58.905
492.26	59.720
492.60	58.201
492.95	58.212
493.30	57.752
493.64	57.986
493.99	59.469
494.34	59.345
494.68	60.143
495.03	59.832
495.37	59.513
495.72	59.749
496.07	60.205
496.41	58.587
496.76	59.324
497.11	60.282
497.45	59.825
497.80	59.919
498.14	59.698
498.49	58.598
498.84	58.704
499.18	58.835
499.53	58.001
499.87	57.885
500.22	59.831
500.56	58.826
500.91	59.457
501.26	59.507
501.60	58.824
501.95	59.703
502.29	58.883
502.64	58.631
502.98	58.622
503.33	59.757
503.67	59.056
504.02	58.480
504.36	59.881
504.71	59.705
505.06	59.705
505.40	60.670
505.75	59.359
506.09	60.450
506.44	59.829
506.78	60.335
507.13	59.823
507.47	60.021
507.82	59.864
508.16	59.156
508.51	58.936
508.85	58.580
509.19	60.476
509.54	59.571
509.88	59.032
510.23	58.000
510.57	59.481
510.92	59.483
511.26	60.341
511.61	60.428
511.95	58.875
512.30	59.356
512.64	61.180
512.98	58.947
513.33	59.944
513.67	58.433
514.02	60.433
514.36	60.225
514.70	59.353
515.05	60.386
515.39	60.142
515.74	59.680
516.08	59.410
516.42	58.583
516.77	60.164
517.11	61.376
517.46	60.084
517.80	61.380
518.14	59.645
518.49	58.951
518.83	59.368
519.17	59.277
519.52	60.555
519.86	60.291
520.20	60.400
520.55	60.510
520.89	61.796
521.23	60.321
521.58	60.367
521.92	59.837
522.26	59.206
522.61	60.569
522.95	59.262
523.29	59.302
523.64	60.331
523.98	59.339
524.32	59.042
524.66	61.169
525.01	62.123
525.35	60.632
525.69	61.498
526.04	58.241
526.38	59.337
526.72	59.961
527.06	59.317
527.41	58.968
527.75	59.546
528.09	61.743
528.43	60.787
528.78	59.496
529.12	61.384
529.46	60.397
529.80	59.676
530.15	58.301
530.49	60.782
530.83	61.070
531.17	60.548
531.51	58.867
531.86	58.875
532.20	58.718
532.54	59.310
532.88	59.292
533.22	59.394
533.57	60.199
533.91	61.290
534.25	60.417
534.59	59.395
534.93	58.546
535.27	59.682
535.62	60.855
535.96	60.573
536.30	59.840
536.64	60.287
536.98	59.706
537.32	60.712
537.66	60.085
538.01	59.431
538.35	58.840
538.69	58.462
539.03	59.060
539.37	59.088
539.71	60.437
540.05	58.974
540.39	59.050
540.73	59.567
541.07	59.592
541.42	58.788
541.76	59.743
542.10	59.039
542.44	59.390
542.78	58.987
543.12	59.299
543.46	59.433
543.80	59.131
544.14	59.738
544.48	58.527
544.82	58.373
545.16	58.012
545.50	59.554
545.84	60.799
546.18	59.818
546.52	58.080
546.86	58.233
547.20	58.685
547.54	60.043
547.88	60.256
548.22	60.130
548.56	59.573
548.90	60.825
549.24	60.347
549.58	58.577
549.92	61.262
550.26	61.550
550.60	60.435
550.94	60.373
551.28	59.198
551.62	58.346
551.96	59.590
552.30	58.297
552.64	58.475
552.98	61.506
553.32	60.130
553.66	60.675
554.00	59.107
554.34	59.341
554.68	60.403
555.02	59.281
555.36	62.330
555.69	61.835
556.03	59.543
556.37	60.242
556.71	59.916
557.05	59.483
557.39	61.492
557.73	61.800
558.07	60.060
558.41	61.771
558.75	61.432
559.08	59.423
559.42	61.133
559.76	58.486
560.10	59.570
560.44	61.164
560.78	60.576
561.12	60.547
561.45	60.340
561.79	59.697
562.13	60.970
562.47	62.500
562.81	60.462
563.15	59.703
563.48	59.188
563.82	58.071
564.16	59.783
564.50	61.398
564.84	58.919
565.17	61.523
565.51	59.960
565.85	57.961
566.19	60.861
566.52	60.354
566.86	58.786
567.20	59.927
567.54	57.858
567.88	58.679
568.21	58.012
568.55	58.581
568.89	58.175
569.23	57.929
569.56	57.947
569.90	56.748
570.24	56.282
570.57	56.568
570.91	56.458
571.25	56.815
571.59	55.953
571.92	56.967
572.26	57.648
572.60	57.068
572.93	57.701
573.27	56.362
573.61	56.608
573.95	56.795
574.28	56.484
574.62	56.184
574.96	56.668
575.29	56.545
575.63	57.350
575.97	57.011
576.30	56.966
576.64	57.139
576.98	56.509
577.31	56.004
577.65	57.013
577.98	56.818
578.32	56.314
578.66	57.663
578.99	56.925
579.33	57.471
579.67	57.459
580.00	57.789
580.34	56.398
580.67	57.153
581.01	57.183
581.35	57.253
581.68	57.089
582.02	58.054
582.35	57.148
582.69	57.758
583.02	57.013
583.36	57.927
583.70	57.147
584.03	57.617
584.37	57.596
584.70	57.044
585.04	58.400
585.37	57.716
585.71	58.177
586.04	58.246
586.38	57.827
586.72	58.415
587.05	58.517
587.39	58.132
587.72	59.309
588.06	58.824
588.39	58.438
588.73	58.755
589.06	58.810
589.40	58.927
589.73	58.857
590.07	58.877
590.40	59.334
590.73	59.481
591.07	59.883
591.40	59.130
591.74	60.160
592.07	59.881
592.41	59.631
592.74	59.954
593.08	59.145
593.41	59.762
593.75	58.947
594.08	59.344
594.41	60.548
594.75	59.745
595.08	59.223
595.42	59.055
595.75	59.219
596.09	60.354
596.42	59.232
596.75	60.685
597.09	61.192
597.42	61.866
597.75	59.911
598.09	61.066
598.42	61.074
598.76	60.789
599.09	61.224
599.42	60.196
599.76	60.759
600.09	60.919
600.42	60.264
600.76	59.571
601.09	60.866
601.42	60.447
601.76	60.502
602.09	59.789
602.42	61.618
602.76	60.696
603.09	61.437
603.42	61.455
603.76	59.314
604.09	60.198
604.42	60.486
604.76	59.494
605.09	61.531
605.42	61.359
605.75	60.514
606.09	60.017
606.42	60.474
606.75	60.087
607.09	60.816
607.42	60.114
607.75	60.131
608.08	61.091
608.42	61.387
608.75	61.491
609.08	61.734
609.41	60.556
609.75	60.767
610.08	61.095
610.41	61.565
610.74	61.261
611.07	60.571
611.41	61.617
611.74	60.714
612.07	61.282
612.40	62.486
612.73	61.032
613.07	60.421
613.40	63.106
613.73	61.647
614.06	62.189
614.39	60.478
614.72	62.465
615.06	61.944
615.39	61.313
615.72	60.799
616.05	61.543
616.38	62.257
616.71	61.308
617.05	62.776
617.38	60.937
617.71	60.907
618.04	61.121
618.37	62.839
618.70	63.260
619.03	62.612
619.36	62.562
619.69	61.988
620.03	59.859
620.36	61.656
620.69	61.385
621.02	63.308
621.35	61.815
621.68	61.532
622.01	63.269
622.34	61.063
622.67	63.430
623.00	64.286
623.33	63.650
623.66	63.643
623.99	63.391
624.32	61.629
624.65	63.205
624.99	62.528
625.32	63.107
625.65	62.791
625.98	62.796
626.31	64.408
626.64	63.113
626.97	62.543
627.30	64.585
627.63	63.495
627.96	63.377
628.29	65.767
628.62	63.153
628.95	63.627
629.28	65.714
629.61	63.636
629.94	63.346
630.26	65.123
630.59	64.036
630.92	63.554
631.25	63.337
631.58	64.561
631.91	64.793
632.24	63.666
632.57	62.333
632.90	65.228
633.23	66.427
633.56	66.547
633.89	66.029
634.22	65.724
634.55	65.043
634.88	63.113
635.20	64.750
635.53	65.245
635.86	66.667
636.19	65.261
636.52	63.902
636.85	63.691
637.18	63.946
637.51	64.295
637.83	65.796
638.16	65.600
638.49	63.818
638.82	64.706
639.15	65.426
639.48	64.973
639.81	65.278
640.13	68.592
640.46	66.808
640.79	66.043
641.12	66.864
641.45	65.648
641.77	65.685
642.10	64.902
642.43	66.509
642.76	61.830
643.09	65.495
643.41	65.550
643.74	64.459
644.07	66.990
644.40	67.828
644.73	65.763
645.05	65.271
645.38	63.953
645.71	67.347
646.04	63.805
646.36	68.056
646.69	65.734
647.02	64.299
647.35	68.007
647.67	66.728
648.00	64.674
648.33	66.271
648.66	66.277
648.98	66.460
649.31	64.110
649.64	65.102
649.96	66.983
650.29	60.948
650.62	64.415
650.94	63.621
651.27	65.548
651.60	63.636
651.92	67.921
652.25	66.332
652.58	67.657
652.90	65.488
653.23	63.837
653.56	63.471
653.88	64.676
654.21	68.089
654.54	64.784
654.86	63.089
655.19	63.445
655.52	64.732
655.84	61.218
656.17	72.180
656.49	93.729
656.82	92.638
657.15	70.166
657.47	51.976
657.80	38.976
658.13	41.380
658.45	60.398
658.78	60.051
659.10	60.579
659.43	60.812
659.75	60.587
660.08	61.655
660.41	59.939
660.73	64.463
661.06	65.646
661.38	63.372
661.71	64.959
662.03	67.230
662.36	68.584
662.68	68.817
663.01	66.737
663.33	63.931
663.66	63.415
663.98	68.090
664.31	66.154
664.63	63.514
664.96	70.460
665.28	65.880
665.61	66.955
665.93	64.668
666.26	68.354
666.58	63.169
666.91	70.179
667.23	64.747
667.56	69.195
667.88	68.692
668.21	62.277
668.53	65.977
668.86	68.106
669.18	66.667
669.50	64.747
669.83	65.394
670.15	64.762
670.48	62.299
670.80	67.177
671.13	65.675
671.45	68.037
671.77	64.655
672.10	62.768
672.42	64.695
672.75	61.786
673.07	64.000
673.39	64.552
673.72	65.070
674.04	65.574
674.37	62.805
674.69	60.288
675.01	61.966
675.34	65.646
675.66	65.577
675.98	64.823
676.31	68.100
676.63	69.161
676.95	66.824
677.28	58.257
677.60	69.608
677.92	66.519
678.25	67.028
678.57	64.969
678.89	63.539
679.22	65.424
679.54	65.306
679.86	65.234
680.18	61.923
680.51	64.231
680.83	62.963
681.15	63.065
681.48	61.323
681.80	64.622
682.12	63.958
682.44	62.575
682.77	61.053
683.09	61.607
683.41	66.977
683.73	62.946
684.06	62.611
684.38	61.538
684.70	64.766
685.02	66.116
685.34	64.775
685.67	66.041
685.99	62.456
686.31	62.414
686.63	64.890
686.96	60.668
687.28	63.473
687.60	64.461
687.92	60.117
688.24	64.400
688.56	65.132
688.89	60.802
689.21	59.865
689.53	62.838
689.85	63.820
690.17	64.835
690.49	66.184
690.82	60.859
691.14	59.903
691.46	64.269
691.78	61.538
692.10	61.571
692.42	59.780
692.74	65.217
693.06	62.921
693.39	64.871
693.71	63.111
694.03	64.318
694.35	63.739
694.67	64.500
694.99	64.433
695.31	63.566
695.63	60.000
695.95	63.104
696.27	62.192
696.59	60.484
696.91	63.408
697.23	61.675
697.56	64.988
697.88	61.746
698.20	62.203
698.52	62.850
698.84	60.526
699.16	57.920
699.48	63.704
699.80	64.083
700.12	60.054
700.44	62.254
700.76	59.551
701.08	62.538
701.40	60.180
701.72	62.462
702.04	61.321
702.36	62.195
702.68	60.366
703.00	67.544
703.32	61.560
703.64	62.952
703.96	61.877
704.28	61.747
704.60	60.671
704.91	59.875
705.23	62.658
705.55	62.759
705.87	61.268
706.19	64.103
706.51	63.380
706.83	58.599
707.15	63.720
707.47	65.289
707.79	60.660
708.11	64.267
708.43	61.675
708.74	62.500
709.06	60.160
709.38	61.383
709.70	60.961
710.02	58.255
710.34	58.000
710.66	60.586
710.98	62.229
711.29	62.987
711.61	56.774
711.93	61.935
712.25	59.790
712.57	53.684
712.89	62.271
713.20	58.865
713.52	61.679
713.84	57.742
714.16	61.812
714.48	61.392
714.80	60.383
715.11	61.337
715.43	58.385
715.75	61.801
716.07	59.639
716.39	60.943
716.70	62.950
717.02	59.608
717.34	60.985
717.66	62.500
717.97	59.127
718.29	62.205
718.61	63.519
718.93	58.915
719.24	62.731
719.56	57.678
719.88	61.194
720.20	63.636
720.51	58.984
720.83	58.755
721.15	54.065
721.46	58.397
721.78	64.143
722.10	55.378
722.42	57.258
722.73	54.826
723.05	57.959
723.37	60.504
723.68	52.000
724.00	59.574
724.32	53.138
724.63	59.259
724.95	54.274
725.27	58.650
725.58	62.140
725.90	61.925
726.22	56.884
726.53	55.686
726.85	57.664
727.16	58.519
727.48	58.238
727.80	58.203
728.11	59.836
728.43	58.594
728.74	59.127
729.06	57.200
729.38	62.846
729.69	54.804
730.01	57.621
730.32	59.041
730.64	59.091
730.96	58.392
731.27	53.846
731.59	58.730
731.90	54.693
732.22	54.167
732.53	55.743
732.85	57.383
733.16	57.756
733.48	53.378
733.80	56.757
734.11	60.473
734.43	55.418
734.74	60.661
735.06	53.602
735.37	55.015
735.69	57.282
736.00	54.125
736.32	60.993
736.63	55.172
736.95	52.055
737.26	56.552
737.58	56.250
737.89	60.137
738.21	58.007
738.52	57.034
738.83	58.367
739.15	56.540
739.46	53.307
739.78	52.465
740.09	59.589
740.41	52.143
740.72	56.738
741.04	54.800
741.35	53.509
741.66	50.222
741.98	52.885
742.29	63.366
742.61	55.122
742.92	61.404
743.23	58.962
743.55	54.955
743.86	53.363
744.18	60.294
744.49	59.898
744.80	55.102
745.12	57.009
745.43	61.137
745.74	59.009
746.06	55.140
746.37	53.211
746.68	53.365
747.00	53.589
747.31	52.404
747.62	54.587
747.94	59.389
748.25	61.468
748.56	57.778
748.88	61.972
749.19	60.000
749.50	52.427
749.82	54.460
750.13	53.333
750.44	54.231
750.75	52.768
751.07	53.737
751.38	54.255
751.69	57.143
752.01	58.594
752.32	51.154
752.63	53.358
752.94	56.400
753.26	52.301
753.57	57.917
753.88	59.109
754.19	55.777
754.51	54.135
754.82	47.985
755.13	47.826
755.44	49.187
755.75	53.200
756.07	52.768
756.38	54.676
756.69	54.266
757.00	52.336
757.31	54.045
757.63	52.160
757.94	51.412
758.25	53.439
758.56	55.163
758.87	55.060
759.18	51.104
759.50	50.842
759.81	54.515
760.12	50.462
760.43	51.786
760.74	54.237
761.05	47.238
761.36	50.716
761.67	52.568
761.99	51.203
762.30	53.650
762.61	53.086
762.92	57.692
763.23	54.918
763.54	56.277
763.85	53.061
764.16	50.813
764.47	56.800
764.78	55.000
765.10	49.836
765.41	53.191
765.72	51.553
766.03	54.785
766.34	50.000
766.65	49.791
766.96	51.174
767.27	52.970
767.58	49.438
767.89	57.407
768.20	51.381
768.51	50.251
768.82	50.962
769.13	51.770
769.44	52.720
769.75	45.299
770.06	48.879
770.37	52.941
770.68	50.485
770.99	47.573
771.30	51.681
771.61	51.837
771.92	52.697
772.23	46.847
772.54	48.066
772.85	53.488
773.16	50.265
773.47	52.071
773.78	52.874
774.09	60.625
774.39	52.174
774.70	55.102
775.01	40.000
775.32	51.429
775.63	48.120
775.94	42.105
776.25	36.800
776.56	42.149
776.87	51.587
777.18	49.550
777.48	47.748
777.79	35.433
778.10	55.963
778.41	50.000
778.72	44.538
779.03	42.254
779.34	58.108
779.65	48.592
779.95	47.682
780.26	55.396
780.57	46.043
780.88	35.211
781.19	44.538
781.50	48.322
781.80	48.538
782.11	49.419
782.42	53.459
782.73	49.020
783.04	47.586
783.34	47.328
783.65	45.638
783.96	46.154
784.27	55.000
784.57	46.809
784.88	42.308
785.19	51.818
785.50	42.727
785.81	39.048
786.11	47.899
786.42	49.558
786.73	43.396
787.04	41.284
787.34	40.594
787.65	47.500
787.96	50.413
788.26	45.652
788.57	41.270
788.88	50.407
789.19	45.600
789.49	31.298
789.80	48.485
790.11	41.509
790.41	53.465
790.72	47.872
791.03	43.478
791.33	31.765
791.64	54.321
791.95	39.130
792.25	40.909
792.56	56.410
792.87	44.872
793.17	28.205
793.48	33.333
793.79	46.250
794.09	50.000
794.40	59.375
794.70	48.649
795.01	36.719
795.32	44.348
795.62	30.435
795.93	39.623
796.23	64.646
796.54	41.463
796.85	32.143
797.15	40.909
797.46	47.826
797.76	40.789
798.07	43.182
798.37	41.463
798.68	45.161
798.99	22.973
799.29	38.554
799.60	51.282
799.90	64.615
800.21	46.970
800.51	29.333
800.82	36.000
801.12	12.500
801.43	16.667
801.73	22.973
802.04	50.000
802.34	29.508
802.65	35.821
802.95	21.818
803.26	37.931
803.56	30.769
803.87	64.151
804.17	37.097
804.48	36.765
804.78	29.268
805.09	33.333
805.39	32.353
805.70	44.681
806.00	24.561
806.30	42.308
806.61	38.158
806.91	47.297
807.22	36.842
807.52	35.227
807.83	22.034
808.13	24.242
808.43	41.667
808.74	20.690
809.04	49.206
809.35	22.449
809.65	45.000
809.95	34.694
810.26	50.704
810.56	43.750
810.86	40.816
811.17	46.154
811.47	40.426
811.77	29.167
812.08	32.075
812.38	21.875
812.69	30.909
812.99	21.951
813.29	32.432
813.59	2.703
813.90	38.182
814.20	29.091
814.50	40.000
814.81	34.545
815.11	40.351
815.41	53.488
815.72	27.500
816.02	25.714
816.32	35.135
816.62	27.083
816.93	31.111
817.23	6.667
817.53	16.667
817.84	35.135
818.14	41.463
818.44	58.000
818.74	26.531
819.04	51.220
819.35	50.000
819.65	29.545
819.95	33.333
820.25	33.333
820.56	16.667
820.86	16.667
821.16	11.364
821.46	2.174
821.76	6.897
822.07	39.130
822.37	30.303
822.67	58.537
822.97	29.730
823.27	-14.286
823.57	68.966
823.88	-2.941
824.18	22.222
824.48	45.714
824.78	19.048
825.08	28.571
825.38	7.407
825.69	51.613
825.99	39.024
826.29	14.815
826.59	18.750
826.89	22.581
827.19	0.000
827.49	2.778
827.79	56.522
828.09	0.000
828.39	4.167
828.70	3.125
829.00	44.828
829.30	35.135
829.60	-29.167
829.90	3.704
830.20	-3.125
830.50	54.545
830.80	-52.941
831.10	18.182
831.40	-8.824
831.70	42.308
832.00	15.152
832.30	38.235
832.60	32.432
832.90	300.000
833.20	42.857
833.50	0.000
833.80	-10.526
834.10	12.500
834.40	13.636
834.70	20.000
835.00	20.000
835.30	58.333
835.60	4.762
835.90	14.286
836.20	-24.000
836.50	29.167
836.80	-26.316
837.10	32.432
837.40	40.000
837.70	21.739
838.00	41.667
838.30	84.211
838.60	-130.000
838.90	-60.000
839.19	-8.333
839.49	-61.538
839.79	21.053
840.09	83.333
840.39	-80.000
840.69	18.182
840.99	14.286
841.29	-8.333
841.59	-46.154
841.88	-46.667
842.18	-35.714
842.48	23.333
842.78	-185.714
843.08	-78.571
843.38	-137.500
843.68	-18.750
843.97	35.714
844.27	-77.778
844.57	18.182
844.87	-20.000
845.17	-4.545
845.47	233.333
845.76	-13.333
846.06	-41.667
846.36	-700.000
846.66	-26.316
846.96	-22.727
847.25	-22.222
847.55	-77.778
847.85	4.762
848.15	7.692
848.44	-83.333
848.74	-33.333
849.04	-38.462
849.34	-150.000
849.63	-90.909
849.93	-107.143
850.23	-10.000
850.53	-12.500
850.82	-11.111
851.12	0.000
851.42	-11.765
851.71	-37.500
852.01	52.941
852.31	-15.385
852.61	100.000
852.90	-11.765
853.20	6.667
853.50	-37.500
853.79	-57.143
854.09	-200.000
854.39	30.000
854.68	-5.000
854.98	-19.048
855.28	12.000
855.57	25.000
855.87	-16.667
856.17	-24.000
856.46	21.875
856.76	-10.000
857.05	56.000
857.35	-50.000
857.65	-23.529
857.94	-116.667
858.24	-91.667
858.53	20.000
858.83	-90.909
859.13	40.000
859.42	-14.286
859.72	-100.000
860.01	-8.333
860.31	-100.000
860.60	-43.750
860.90	-33.333
861.20	-83.333
861.49	13.333
861.79	-56.250
862.08	325.000
862.38	-50.000
862.67	214.286
862.97	75.000
863.26	-81.818
863.56	18.182
863.85	52.632
864.15	-5.882
864.44	-120.000
864.74	-80.000
865.03	-11.111
865.33	14.286
865.62	207.143
865.92	-31.579
866.21	-44.444
866.51	-36.364
866.80	0.000
867.10	-250.000
867.39	6.250
867.69	-40.000
867.98	-20.000
868.27	29.412
868.57	0.000
868.86	700.000
869.16	-350.000
869.45	-214.286
869.75	650.000
870.04	0.000
870.33	-100.000
870.63	-52.632
870.92	-100.000
871.22	200.000
871.51	-200.000
871.80	-100.000
872.10	-275.000
>>>>>End Processed Spectral Data<<<<<
