SpectraSuite Data File
++++++++++++++++++++++++++++++++++++
Date: Wed May 13 21:47:03 PDT 2015
User: schluterlab
Dark Spectrum Present: Yes
Reference Spectrum Present: Yes
Number of Sampled Component Spectra: 1
Spectrometers: USB2E3373
Integration Time (usec): 3000 (USB2E3373)
Spectra Averaged: 3 (USB2E3373)
Boxcar Smoothing: 0 (USB2E3373)
Correct for Electrical Dark: No (USB2E3373)
Strobe/Lamp Enabled: No (USB2E3373)
Correct for Detector Non-linearity: No (USB2E3373)
Correct for Stray Light: No (USB2E3373)
Number of Pixels in Processed Spectrum: 2048
>>>>>Begin Processed Spectral Data<<<<<
178.53	0.000
178.91	650.000
179.29	175.000
179.67	-550.000
180.04	-633.333
180.42	200.000
180.80	1300.000
181.18	350.000
181.56	-475.000
181.94	-200.000
182.31	-9.091
182.69	76.923
183.07	-140.000
183.45	300.000
183.83	55.556
184.20	100.000
184.58	0.000
184.96	300.000
185.34	328.571
185.72	0.000
186.09	-300.000
186.47	-260.000
186.85	80.000
187.23	50.000
187.61	300.000
187.98	500.000
188.36	-75.000
188.74	0.000
189.12	-9.091
189.49	20.000
189.87	225.000
190.25	260.000
190.63	800.000
191.00	-220.000
191.38	240.000
191.76	250.000
192.14	150.000
192.51	26.316
192.89	466.667
193.27	175.000
193.65	-100.000
194.02	145.455
194.40	120.000
194.78	-900.000
195.15	200.000
195.53	-160.000
195.91	-125.000
196.29	-33.333
196.66	0.000
197.04	350.000
197.42	-120.000
197.79	70.000
198.17	-25.000
198.55	-300.000
198.92	150.000
199.30	-433.333
199.68	0.000
200.05	150.000
200.43	183.333
200.81	-1100.000
201.18	-20.000
201.56	-266.667
201.94	625.000
202.31	39.130
202.69	-28.571
203.07	-200.000
203.44	-280.000
203.82	-400.000
204.19	30.000
204.57	0.000
204.95	-166.667
205.32	0.000
205.70	-100.000
206.08	-150.000
206.45	-100.000
206.83	425.000
207.20	-466.667
207.58	-130.000
207.96	-400.000
208.33	-142.857
208.71	-2000.000
209.08	225.000
209.46	425.000
209.84	0.000
210.21	140.000
210.59	1700.000
210.96	280.000
211.34	1400.000
211.71	-700.000
212.09	-183.333
212.46	-120.000
212.84	-200.000
213.22	75.000
213.59	-900.000
213.97	-750.000
214.34	-700.000
214.72	-38.462
215.09	150.000
215.47	133.333
215.84	250.000
216.22	25.000
216.59	-100.000
216.97	433.333
217.34	144.444
217.72	0.000
218.09	400.000
218.47	-1000.000
218.84	-114.286
219.22	-75.000
219.59	66.667
219.97	0.000
220.34	37.500
220.72	-120.000
221.09	0.000
221.47	-83.333
221.84	400.000
222.22	0.000
222.59	900.000
222.97	-33.333
223.34	-83.333
223.72	-200.000
224.09	-900.000
224.46	-72.727
224.84	-25.000
225.21	-128.571
225.59	-375.000
225.96	-100.000
226.34	-30.000
226.71	-157.143
227.08	450.000
227.46	-37.500
227.83	-1000.000
228.21	-18.750
228.58	-350.000
228.95	-17.647
229.33	18.750
229.70	-12.500
230.08	38.462
230.45	-112.500
230.82	-58.333
231.20	257.143
231.57	-325.000
231.95	900.000
232.32	0.000
232.69	52.941
233.07	-1600.000
233.44	-21.739
233.81	-150.000
234.19	45.833
234.56	-46.667
234.93	-20.000
235.31	10.526
235.68	-92.308
236.05	53.846
236.43	-16.667
236.80	-3.030
237.17	-80.000
237.55	0.000
237.92	-10.345
238.29	-51.852
238.67	-13.889
239.04	-9.677
239.41	10.638
239.79	12.766
240.16	11.628
240.53	8.929
240.91	3.571
241.28	1.786
241.65	3.226
242.02	0.000
242.40	15.942
242.77	-4.348
243.14	12.821
243.51	10.638
243.89	14.423
244.26	26.415
244.63	14.423
245.00	12.500
245.38	9.244
245.75	13.115
246.12	12.030
246.49	9.756
246.87	4.202
247.24	16.216
247.61	13.907
247.98	14.103
248.36	10.059
248.73	1.124
249.10	10.606
249.47	13.978
249.84	15.263
250.22	22.388
250.59	13.551
250.96	20.909
251.33	7.177
251.70	17.573
252.08	17.573
252.45	14.403
252.82	19.011
253.19	15.175
253.56	13.669
253.94	17.438
254.31	14.437
254.68	17.114
255.05	19.472
255.42	13.287
255.79	16.871
256.16	19.243
256.54	15.238
256.91	10.443
257.28	18.868
257.65	13.376
258.02	17.595
258.39	17.544
258.76	14.244
259.14	21.875
259.51	14.607
259.88	15.447
260.25	18.056
260.62	14.607
260.99	19.629
261.36	19.948
261.73	17.037
262.10	14.758
262.47	13.086
262.85	16.169
263.22	16.923
263.59	16.623
263.96	19.465
264.33	15.144
264.70	17.209
265.07	18.981
265.44	18.851
265.81	17.849
266.18	17.768
266.55	17.031
266.92	15.678
267.29	17.284
267.66	19.321
268.03	19.342
268.40	14.831
268.77	16.116
269.14	20.204
269.51	18.686
269.88	17.312
270.25	18.644
270.62	17.623
270.99	16.732
271.36	17.262
271.73	19.277
272.10	15.619
272.47	16.315
272.84	19.094
273.21	16.830
273.58	18.648
273.95	16.981
274.32	16.978
274.69	19.308
275.06	19.081
275.43	18.267
275.80	17.730
276.17	16.943
276.54	16.874
276.91	14.634
277.28	17.148
277.65	15.559
278.02	18.750
278.39	16.341
278.76	17.057
279.13	16.810
279.50	17.414
279.87	16.667
280.23	15.856
280.60	16.609
280.97	15.584
281.34	17.192
281.71	14.959
282.08	16.923
282.45	17.705
282.82	17.252
283.19	19.360
283.56	16.094
283.92	19.725
284.29	17.161
284.66	15.815
285.03	17.590
285.40	16.918
285.77	17.417
286.14	18.237
286.51	18.291
286.87	16.615
287.24	17.552
287.61	16.265
287.98	16.912
288.35	16.393
288.72	16.930
289.08	17.094
289.45	14.831
289.82	18.154
290.19	18.093
290.56	16.619
290.93	16.851
291.29	15.595
291.66	16.803
292.03	17.166
292.40	16.958
292.77	16.867
293.13	16.179
293.50	14.902
293.87	16.267
294.24	15.873
294.60	15.475
294.97	17.989
295.34	13.588
295.71	15.243
296.08	15.445
296.44	15.306
296.81	14.007
297.18	14.500
297.55	15.094
297.91	17.391
298.28	15.133
298.65	14.039
299.02	16.728
299.38	14.110
299.75	14.183
300.12	13.837
300.48	13.333
300.85	15.242
301.22	14.402
301.59	13.967
301.95	14.402
302.32	14.119
302.69	13.559
303.05	15.282
303.42	14.432
303.79	15.457
304.15	14.458
304.52	14.731
304.89	14.175
305.25	14.599
305.62	15.076
305.99	15.234
306.35	15.883
306.72	14.751
307.09	15.016
307.45	14.590
307.82	13.263
308.19	13.271
308.55	14.125
308.92	15.521
309.29	13.814
309.65	14.685
310.02	14.513
310.38	14.837
310.75	14.398
311.12	14.966
311.48	14.738
311.85	15.453
312.22	15.667
312.58	14.010
312.95	14.030
313.31	14.601
313.68	14.313
314.05	15.217
314.41	14.409
314.78	14.991
315.14	15.463
315.51	15.224
315.87	15.014
316.24	15.611
316.61	16.256
316.97	15.185
317.34	14.795
317.70	16.146
318.07	16.149
318.43	15.808
318.80	14.136
319.16	14.324
319.53	14.785
319.89	15.628
320.26	14.418
320.62	15.385
320.99	14.535
321.35	14.593
321.72	15.688
322.08	15.037
322.45	14.431
322.81	15.250
323.18	15.206
323.54	15.523
323.91	16.260
324.27	15.572
324.64	15.592
325.00	15.661
325.37	16.297
325.73	14.562
326.10	16.569
326.46	15.719
326.83	15.858
327.19	15.772
327.56	15.794
327.92	15.607
328.29	16.277
328.65	15.688
329.01	14.160
329.38	15.652
329.74	16.223
330.11	15.329
330.47	14.670
330.84	15.704
331.20	14.774
331.56	14.946
331.93	15.504
332.29	16.681
332.66	15.847
333.02	15.986
333.38	15.877
333.75	15.017
334.11	15.451
334.48	15.606
334.84	14.753
335.20	15.609
335.57	13.925
335.93	15.636
336.29	14.186
336.66	15.385
337.02	15.478
337.38	14.447
337.75	14.556
338.11	14.176
338.47	14.555
338.84	15.464
339.20	15.520
339.56	14.932
339.93	14.347
340.29	15.371
340.65	15.654
341.02	16.306
341.38	15.034
341.74	14.538
342.11	14.121
342.47	14.310
342.83	14.297
343.20	13.875
343.56	14.473
343.92	14.622
344.28	14.692
344.65	15.020
345.01	13.640
345.37	14.885
345.73	14.869
346.10	15.329
346.46	14.146
346.82	15.169
347.19	14.478
347.55	14.863
347.91	14.108
348.27	14.038
348.63	13.782
349.00	13.994
349.36	14.835
349.72	14.617
350.08	14.353
350.45	14.174
350.81	15.180
351.17	15.012
351.53	15.240
351.89	13.979
352.26	13.436
352.62	14.109
352.98	13.099
353.34	13.607
353.70	14.019
354.07	13.804
354.43	14.152
354.79	15.625
355.15	13.199
355.51	13.440
355.87	14.621
356.24	13.804
356.60	14.073
356.96	13.200
357.32	14.009
357.68	13.980
358.04	13.887
358.40	14.574
358.77	14.220
359.13	14.397
359.49	13.929
359.85	13.495
360.21	14.109
360.57	13.460
360.93	13.505
361.29	14.508
361.66	14.579
362.02	13.936
362.38	13.737
362.74	13.561
363.10	13.811
363.46	13.401
363.82	14.265
364.18	13.343
364.54	13.640
364.90	13.449
365.26	13.305
365.62	13.920
365.98	14.093
366.35	13.972
366.71	13.409
367.07	13.820
367.43	14.007
367.79	14.246
368.15	13.643
368.51	13.221
368.87	14.585
369.23	13.381
369.59	14.588
369.95	13.353
370.31	13.459
370.67	13.613
371.03	14.254
371.39	14.407
371.75	13.643
372.11	14.103
372.47	13.410
372.83	14.078
373.19	13.309
373.55	13.295
373.91	14.215
374.27	13.762
374.63	13.300
374.99	13.092
375.35	13.973
375.71	13.927
376.07	14.462
376.42	13.904
376.78	14.531
377.14	13.898
377.50	14.342
377.86	13.546
378.22	13.401
378.58	13.367
378.94	15.000
379.30	13.804
379.66	14.242
380.02	14.093
380.38	15.120
380.74	13.867
381.09	14.415
381.45	14.208
381.81	13.802
382.17	14.052
382.53	14.277
382.89	13.329
383.25	14.321
383.61	15.375
383.97	13.250
384.32	13.800
384.68	14.250
385.04	13.806
385.40	14.197
385.76	14.355
386.12	15.300
386.48	14.608
386.83	13.892
387.19	14.127
387.55	14.224
387.91	14.760
388.27	13.933
388.62	13.858
388.98	14.643
389.34	13.534
389.70	14.408
390.06	13.812
390.42	14.175
390.77	14.029
391.13	13.384
391.49	14.105
391.85	14.377
392.20	13.471
392.56	14.476
392.92	14.277
393.28	13.829
393.64	13.700
393.99	13.341
394.35	14.321
394.71	14.808
395.07	12.767
395.42	13.102
395.78	14.157
396.14	14.141
396.50	13.951
396.85	14.659
397.21	13.296
397.57	13.975
397.92	13.713
398.28	15.116
398.64	14.390
399.00	14.342
399.35	14.132
399.71	13.803
400.07	13.373
400.42	13.918
400.78	13.716
401.14	13.427
401.49	13.901
401.85	13.575
402.21	14.489
402.57	14.531
402.92	14.831
403.28	14.447
403.63	13.453
403.99	13.820
404.35	14.152
404.70	13.293
405.06	14.210
405.42	13.442
405.77	14.171
406.13	13.771
406.49	13.421
406.84	13.919
407.20	13.973
407.55	13.571
407.91	14.692
408.27	13.475
408.62	13.996
408.98	13.502
409.34	13.304
409.69	13.320
410.05	13.993
410.40	13.086
410.76	13.959
411.11	14.490
411.47	15.262
411.83	13.288
412.18	13.917
412.54	14.599
412.89	12.915
413.25	13.392
413.60	14.044
413.96	13.233
414.31	14.057
414.67	13.524
415.03	13.464
415.38	13.078
415.74	13.905
416.09	14.012
416.45	14.354
416.80	14.765
417.16	14.507
417.51	13.664
417.87	13.161
418.22	14.350
418.58	13.798
418.93	14.375
419.29	13.531
419.64	13.740
420.00	13.651
420.35	13.568
420.71	14.321
421.06	14.945
421.42	14.720
421.77	13.699
422.12	13.983
422.48	13.850
422.83	13.822
423.19	14.146
423.54	14.370
423.90	14.074
424.25	14.385
424.61	14.664
424.96	14.548
425.31	14.021
425.67	13.757
426.02	15.489
426.38	14.490
426.73	14.111
427.09	13.946
427.44	14.797
427.79	13.955
428.15	14.312
428.50	13.897
428.85	14.514
429.21	14.069
429.56	14.612
429.92	14.159
430.27	14.519
430.62	14.900
430.98	13.908
431.33	13.810
431.68	14.271
432.04	14.028
432.39	13.915
432.74	13.918
433.10	15.107
433.45	14.852
433.80	14.138
434.16	14.637
434.51	14.837
434.86	14.429
435.22	13.922
435.57	13.821
435.92	14.174
436.28	14.294
436.63	14.723
436.98	14.865
437.34	14.591
437.69	14.109
438.04	14.035
438.39	14.633
438.75	14.899
439.10	15.211
439.45	15.678
439.81	14.594
440.16	15.362
440.51	14.685
440.86	15.590
441.22	14.745
441.57	14.859
441.92	15.448
442.27	14.665
442.63	14.370
442.98	14.699
443.33	15.011
443.68	15.129
444.03	15.201
444.39	15.568
444.74	15.019
445.09	15.804
445.44	15.549
445.79	14.662
446.15	16.195
446.50	15.088
446.85	16.462
447.20	15.264
447.55	15.053
447.91	15.056
448.26	15.552
448.61	15.593
448.96	15.888
449.31	15.991
449.66	16.079
450.02	15.804
450.37	15.041
450.72	16.131
451.07	16.050
451.42	15.284
451.77	15.642
452.12	16.162
452.47	16.204
452.83	15.212
453.18	15.786
453.53	16.078
453.88	16.024
454.23	16.687
454.58	16.483
454.93	15.074
455.28	16.442
455.63	15.471
455.98	15.520
456.34	16.402
456.69	16.102
457.04	15.851
457.39	15.935
457.74	14.961
458.09	15.699
458.44	15.746
458.79	15.761
459.14	14.775
459.49	16.098
459.84	16.122
460.19	15.486
460.54	17.275
460.89	15.991
461.24	15.845
461.59	15.882
461.94	16.688
462.29	14.767
462.64	15.699
462.99	16.432
463.34	15.953
463.69	16.753
464.04	15.786
464.39	16.290
464.74	16.032
465.09	15.995
465.44	16.442
465.79	16.216
466.14	16.078
466.49	16.598
466.84	17.035
467.19	15.796
467.54	17.045
467.89	15.965
468.24	16.656
468.59	16.189
468.94	16.092
469.29	15.664
469.64	17.225
469.99	17.034
470.34	16.251
470.68	16.059
471.03	16.502
471.38	16.342
471.73	16.187
472.08	16.289
472.43	16.095
472.78	16.768
473.13	15.501
473.48	16.438
473.83	16.761
474.17	16.341
474.52	16.893
474.87	15.621
475.22	17.029
475.57	16.564
475.92	16.412
476.27	16.434
476.61	16.308
476.96	15.877
477.31	15.858
477.66	16.441
478.01	16.264
478.36	16.621
478.70	17.025
479.05	17.092
479.40	16.277
479.75	17.216
480.10	16.063
480.45	16.430
480.79	16.476
481.14	16.515
481.49	16.724
481.84	16.211
482.19	16.396
482.53	16.667
482.88	16.107
483.23	16.121
483.58	16.588
483.92	16.099
484.27	16.057
484.62	16.201
484.97	16.508
485.31	16.411
485.66	16.135
486.01	16.071
486.36	16.519
486.70	16.307
487.05	16.835
487.40	16.684
487.75	16.767
488.09	16.234
488.44	16.193
488.79	17.070
489.13	16.700
489.48	16.375
489.83	16.525
490.17	16.387
490.52	16.830
490.87	16.690
491.22	16.816
491.56	16.627
491.91	16.515
492.26	17.311
492.60	16.354
492.95	17.104
493.30	16.473
493.64	15.588
493.99	16.908
494.34	17.341
494.68	16.897
495.03	16.749
495.37	16.837
495.72	16.140
496.07	16.464
496.41	16.752
496.76	16.545
497.11	16.808
497.45	16.586
497.80	17.062
498.14	16.877
498.49	16.541
498.84	16.852
499.18	16.426
499.53	15.903
499.87	16.060
500.22	17.073
500.56	17.101
500.91	17.304
501.26	17.586
501.60	15.686
501.95	16.627
502.29	16.553
502.64	16.972
502.98	16.667
503.33	16.545
503.67	16.504
504.02	16.765
504.36	16.394
504.71	16.616
505.06	17.575
505.40	16.443
505.75	17.345
506.09	16.147
506.44	17.288
506.78	17.268
507.13	17.100
507.47	16.967
507.82	17.425
508.16	16.887
508.51	16.890
508.85	17.055
509.19	17.249
509.54	17.051
509.88	17.366
510.23	16.579
510.57	16.261
510.92	17.026
511.26	17.272
511.61	16.081
511.95	16.814
512.30	16.102
512.64	17.367
512.98	16.787
513.33	16.958
513.67	17.320
514.02	16.990
514.36	16.798
514.70	16.975
515.05	17.437
515.39	17.335
515.74	17.762
516.08	16.519
516.42	17.051
516.77	16.110
517.11	16.402
517.46	16.807
517.80	18.099
518.14	15.983
518.49	16.878
518.83	16.826
519.17	15.843
519.52	17.189
519.86	16.636
520.20	17.101
520.55	17.351
520.89	16.825
521.23	17.115
521.58	17.257
521.92	16.845
522.26	16.331
522.61	16.484
522.95	17.487
523.29	17.079
523.64	16.529
523.98	16.328
524.32	17.202
524.66	16.818
525.01	16.514
525.35	17.380
525.69	16.634
526.04	17.199
526.38	17.591
526.72	15.911
527.06	16.248
527.41	16.281
527.75	16.155
528.09	17.903
528.43	17.503
528.78	16.796
529.12	16.818
529.46	17.083
529.80	16.117
530.15	16.731
530.49	17.385
530.83	16.114
531.17	17.192
531.51	16.453
531.86	17.005
532.20	16.609
532.54	16.138
532.88	16.746
533.22	16.498
533.57	16.954
533.91	17.419
534.25	16.667
534.59	16.474
534.93	16.518
535.27	17.006
535.62	16.184
535.96	17.892
536.30	16.822
536.64	16.678
536.98	15.837
537.32	16.726
537.66	16.502
538.01	16.436
538.35	15.470
538.69	15.719
539.03	17.181
539.37	16.164
539.71	15.757
540.05	15.655
540.39	15.967
540.73	16.760
541.07	15.578
541.42	16.700
541.76	16.712
542.10	15.978
542.44	15.038
542.78	16.586
543.12	16.577
543.46	15.135
543.80	16.090
544.14	16.724
544.48	15.395
544.82	16.005
545.16	16.024
545.50	16.745
545.84	15.708
546.18	16.129
546.52	15.737
546.86	15.477
547.20	17.441
547.54	16.011
547.88	15.992
548.22	15.505
548.56	16.077
548.90	15.832
549.24	16.111
549.58	16.014
549.92	17.461
550.26	17.269
550.60	15.766
550.94	15.970
551.28	15.594
551.62	16.842
551.96	16.032
552.30	16.448
552.64	16.525
552.98	16.264
553.32	16.294
553.66	16.214
554.00	16.775
554.34	15.165
554.68	16.779
555.02	16.018
555.36	16.566
555.69	14.931
556.03	16.226
556.37	15.861
556.71	16.608
557.05	16.015
557.39	15.448
557.73	17.322
558.07	14.469
558.41	16.881
558.75	16.320
559.08	15.317
559.42	16.444
559.76	15.596
560.10	15.527
560.44	16.581
560.78	15.540
561.12	16.398
561.45	15.918
561.79	16.437
562.13	15.963
562.47	16.571
562.81	15.657
563.15	16.856
563.48	16.380
563.82	15.321
564.16	15.978
564.50	16.079
564.84	16.081
565.17	16.424
565.51	15.374
565.85	14.524
566.19	15.960
566.52	16.055
566.86	15.992
567.20	15.638
567.54	15.774
567.88	15.230
568.21	15.481
568.55	16.119
568.89	15.304
569.23	15.720
569.56	15.144
569.90	15.452
570.24	15.307
570.57	15.490
570.91	15.646
571.25	15.255
571.59	15.183
571.92	14.843
572.26	15.593
572.60	14.844
572.93	15.401
573.27	15.244
573.61	15.577
573.95	14.807
574.28	15.133
574.62	15.552
574.96	15.207
575.29	14.895
575.63	15.306
575.97	15.489
576.30	14.950
576.64	15.169
576.98	15.414
577.31	15.027
577.65	14.734
577.98	14.877
578.32	14.896
578.66	14.960
578.99	15.141
579.33	14.793
579.67	15.097
580.00	15.031
580.34	14.857
580.67	14.797
581.01	14.902
581.35	14.778
581.68	15.105
582.02	14.919
582.35	15.399
582.69	14.686
583.02	14.807
583.36	15.477
583.70	15.345
584.03	15.152
584.37	15.082
584.70	15.100
585.04	14.973
585.37	14.970
585.71	15.292
586.04	15.063
586.38	15.128
586.72	14.892
587.05	15.228
587.39	15.178
587.72	14.947
588.06	14.856
588.39	15.057
588.73	14.681
589.06	14.646
589.40	15.445
589.73	15.056
590.07	15.166
590.40	14.805
590.73	15.316
591.07	15.462
591.40	14.957
591.74	15.385
592.07	15.290
592.41	15.230
592.74	15.702
593.08	15.214
593.41	15.318
593.75	15.149
594.08	15.060
594.41	15.210
594.75	14.880
595.08	15.646
595.42	15.247
595.75	15.076
596.09	15.089
596.42	15.441
596.75	15.884
597.09	15.833
597.42	15.388
597.75	15.556
598.09	14.891
598.42	15.570
598.76	15.155
599.09	15.366
599.42	14.766
599.76	14.983
600.09	14.797
600.42	14.878
600.76	14.967
601.09	15.217
601.42	15.210
601.76	14.865
602.09	15.971
602.42	16.220
602.76	14.975
603.09	15.729
603.42	15.674
603.76	14.926
604.09	15.375
604.42	14.483
604.76	15.146
605.09	15.677
605.42	15.655
605.75	14.433
606.09	14.652
606.42	15.544
606.75	14.675
607.09	15.381
607.42	14.974
607.75	15.011
608.08	15.645
608.42	14.433
608.75	14.572
609.08	14.993
609.41	15.301
609.75	14.977
610.08	15.187
610.41	15.160
610.74	15.303
611.07	15.331
611.41	15.507
611.74	15.735
612.07	15.320
612.40	15.838
612.73	14.929
613.07	15.244
613.40	15.584
613.73	15.222
614.06	15.478
614.39	14.397
614.72	15.325
615.06	15.333
615.39	14.238
615.72	14.363
616.05	15.315
616.38	15.292
616.71	14.697
617.05	14.926
617.38	15.034
617.71	15.135
618.04	14.991
618.37	14.953
618.70	14.618
619.03	15.189
619.36	15.302
619.69	14.327
620.03	14.064
620.36	15.101
620.69	14.061
621.02	15.308
621.35	13.982
621.68	15.485
622.01	14.887
622.34	13.561
622.67	15.270
623.00	15.729
623.33	14.734
623.66	14.870
623.99	14.779
624.32	14.967
624.65	14.837
624.99	13.740
625.32	14.638
625.65	14.574
625.98	15.008
626.31	14.367
626.64	15.305
626.97	15.052
627.30	14.713
627.63	15.052
627.96	15.152
628.29	14.605
628.62	15.667
628.95	14.830
629.28	14.975
629.61	15.885
629.94	14.894
630.26	15.369
630.59	15.085
630.92	14.558
631.25	15.448
631.58	14.561
631.91	14.104
632.24	13.392
632.57	13.889
632.90	14.936
633.23	12.470
633.56	17.626
633.89	15.670
634.22	16.608
634.55	14.495
634.88	14.338
635.20	15.375
635.53	14.858
635.86	14.359
636.19	15.012
636.52	14.024
636.85	15.078
637.18	14.129
637.51	15.106
637.83	15.013
638.16	14.400
638.49	14.019
638.82	15.425
639.15	16.888
639.48	15.642
639.81	14.028
640.13	14.930
640.46	16.667
640.79	15.396
641.12	14.497
641.45	13.828
641.77	15.022
642.10	14.826
642.43	16.352
642.76	14.196
643.09	16.134
643.41	15.152
643.74	14.540
644.07	14.887
644.40	14.262
644.73	14.237
645.05	14.834
645.38	11.628
645.71	14.796
646.04	12.795
646.36	16.319
646.69	13.986
647.02	15.483
647.35	13.163
647.67	13.863
648.00	13.768
648.33	13.898
648.66	12.020
648.98	16.149
649.31	13.037
649.64	14.397
649.96	15.008
650.29	13.889
650.62	13.344
650.94	14.483
651.27	14.311
651.60	15.734
651.92	15.233
652.25	15.243
652.58	14.686
652.90	13.805
653.23	11.885
653.56	11.074
653.88	10.580
654.21	14.334
654.54	12.791
654.86	13.659
655.19	11.625
655.52	15.667
655.84	14.183
656.17	16.889
656.49	23.024
656.82	22.460
657.15	16.903
657.47	12.639
657.80	9.391
658.13	9.961
658.45	14.502
658.78	14.272
659.10	13.925
659.43	14.096
659.75	13.936
660.08	13.034
660.41	13.489
660.73	13.223
661.06	11.054
661.38	11.822
661.71	14.344
662.03	14.376
662.36	10.398
662.68	17.634
663.01	15.466
663.33	14.687
663.66	11.530
663.98	13.708
664.31	12.967
664.63	10.360
664.96	15.098
665.28	13.305
665.61	14.471
665.93	13.704
666.26	15.612
666.58	12.634
666.91	14.126
667.23	16.590
667.56	14.713
667.88	10.981
668.21	14.063
668.53	13.333
668.86	13.669
669.18	15.130
669.50	11.751
669.83	15.513
670.15	11.667
670.48	12.874
670.80	16.411
671.13	13.959
671.45	14.612
671.77	14.224
672.10	13.060
672.42	15.458
672.75	12.679
673.07	13.273
673.39	14.925
673.72	14.172
674.04	15.164
674.37	13.821
674.69	13.786
675.01	11.325
675.34	15.974
675.66	15.468
675.98	13.717
676.31	14.706
676.63	16.327
676.95	8.706
677.28	12.844
677.60	12.745
677.92	13.082
678.25	13.015
678.57	13.849
678.89	11.087
679.22	12.422
679.54	13.265
679.86	15.039
680.18	13.654
680.51	12.885
680.83	11.891
681.15	14.735
681.48	13.627
681.80	13.292
682.12	10.625
682.44	13.078
682.77	10.947
683.09	11.607
683.41	13.023
683.73	12.054
684.06	12.832
684.38	11.752
684.70	12.424
685.02	13.223
685.34	15.264
685.67	11.820
685.99	13.879
686.31	12.931
686.63	13.419
686.96	13.544
687.28	12.575
687.60	14.745
687.92	13.035
688.24	14.600
688.56	15.570
688.89	11.359
689.21	13.004
689.53	10.360
689.85	13.708
690.17	14.286
690.49	16.667
690.82	13.842
691.14	13.043
691.46	12.297
691.78	13.407
692.10	14.437
692.42	10.549
692.74	17.826
693.06	11.236
693.39	14.052
693.71	12.444
694.03	15.682
694.35	13.514
694.67	16.250
694.99	17.010
695.31	13.178
695.63	14.878
695.95	12.214
696.27	10.959
696.59	12.097
696.91	12.849
697.23	13.198
697.56	15.588
697.88	14.553
698.20	14.039
698.52	11.916
698.84	11.722
699.16	12.766
699.48	12.593
699.80	15.504
700.12	15.013
700.44	11.831
700.76	16.011
701.08	12.387
701.40	16.766
701.72	12.308
702.04	9.434
702.36	14.024
702.68	7.622
703.00	13.743
703.32	10.306
703.64	12.651
703.96	13.196
704.28	14.759
704.60	11.890
704.91	10.345
705.23	15.506
705.55	15.517
705.87	10.211
706.19	10.989
706.51	9.155
706.83	14.331
707.15	10.976
707.47	14.601
707.79	12.944
708.11	12.596
708.43	14.213
708.74	10.904
709.06	11.497
709.38	13.256
709.70	9.610
710.02	13.084
710.34	9.000
710.66	11.401
710.98	11.455
711.29	12.338
711.61	12.581
711.93	14.516
712.25	8.042
712.57	6.667
712.89	7.692
713.20	12.057
713.52	12.774
713.84	12.581
714.16	13.592
714.48	12.975
714.80	9.585
715.11	14.826
715.43	9.938
715.75	16.770
716.07	15.060
716.39	12.458
716.70	14.388
717.02	10.196
717.34	11.742
717.66	8.621
717.97	6.746
718.29	15.748
718.61	7.296
718.93	10.465
719.24	14.022
719.56	12.360
719.88	13.433
720.20	11.858
720.51	11.328
720.83	12.062
721.15	7.724
721.46	10.687
721.78	11.155
722.10	9.960
722.42	10.887
722.73	13.127
723.05	8.980
723.37	12.605
723.68	8.000
724.00	8.936
724.32	9.205
724.63	11.934
724.95	6.838
725.27	13.924
725.58	12.346
725.90	8.787
726.22	13.768
726.53	4.314
726.85	12.774
727.16	10.000
727.48	10.345
727.80	13.281
728.11	13.115
728.43	15.234
728.74	10.714
729.06	8.400
729.38	13.439
729.69	9.609
730.01	12.639
730.32	14.022
730.64	11.364
730.96	13.287
731.27	6.020
731.59	13.651
731.90	10.356
732.22	8.654
732.53	10.811
732.85	11.074
733.16	10.561
733.48	11.824
733.80	10.473
734.11	14.865
734.43	10.217
734.74	12.312
735.06	14.986
735.37	13.678
735.69	12.298
736.00	9.241
736.32	8.865
736.63	11.724
736.95	14.041
737.26	14.483
737.58	16.319
737.89	8.935
738.21	10.320
738.52	9.886
738.83	15.510
739.15	9.705
739.46	7.782
739.78	9.859
740.09	11.301
740.41	11.429
740.72	10.993
741.04	8.000
741.35	8.772
741.66	12.889
741.98	7.692
742.29	18.317
742.61	8.780
742.92	13.596
743.23	6.132
743.55	11.712
743.86	11.211
744.18	9.314
744.49	13.198
744.80	10.204
745.12	11.215
745.43	15.166
745.74	12.162
746.06	13.551
746.37	9.633
746.68	12.019
747.00	13.397
747.31	11.058
747.62	13.761
747.94	16.157
748.25	12.385
748.56	13.778
748.88	17.371
749.19	12.381
749.50	8.252
749.82	7.042
750.13	10.833
750.44	10.385
750.75	9.225
751.07	12.811
751.38	9.220
751.69	8.108
752.01	12.891
752.32	5.385
752.63	9.328
752.94	11.200
753.26	11.715
753.57	13.333
753.88	9.717
754.19	5.578
754.51	10.902
754.82	13.187
755.13	5.217
755.44	12.602
755.75	7.200
756.07	10.332
756.38	11.151
756.69	11.945
757.00	11.526
757.31	10.356
757.63	10.494
757.94	11.582
758.25	12.169
758.56	10.870
758.87	10.417
759.18	12.934
759.50	10.438
759.81	10.033
760.12	13.231
760.43	8.929
760.74	11.299
761.05	11.878
761.36	10.602
761.67	9.970
761.99	7.216
762.30	12.774
762.61	8.230
762.92	14.103
763.23	13.934
763.54	14.719
763.85	10.204
764.16	7.317
764.47	13.600
764.78	11.071
765.10	9.836
765.41	10.030
765.72	12.733
766.03	8.911
766.34	11.154
766.65	9.623
766.96	10.329
767.27	13.366
767.58	6.180
767.89	3.704
768.20	9.945
768.51	12.563
768.82	13.942
769.13	10.619
769.44	15.063
769.75	3.419
770.06	13.901
770.37	5.882
770.68	14.078
770.99	8.252
771.30	12.605
771.61	10.204
771.92	12.448
772.23	8.559
772.54	5.525
772.85	5.814
773.16	12.169
773.47	-1.183
773.78	7.471
774.09	13.125
774.39	5.590
774.70	10.884
775.01	4.138
775.32	12.143
775.63	3.759
775.94	0.000
776.25	0.000
776.56	11.570
776.87	11.111
777.18	4.505
777.48	1.802
777.79	3.937
778.10	5.505
778.41	-3.509
778.72	12.605
779.03	2.113
779.34	13.514
779.65	7.746
779.95	9.272
780.26	11.511
780.57	10.072
780.88	9.155
781.19	6.723
781.50	12.752
781.80	11.696
782.11	1.163
782.42	10.063
782.73	15.033
783.04	11.034
783.34	11.450
783.65	10.738
783.96	10.769
784.27	10.000
784.57	3.546
784.88	1.923
785.19	15.455
785.50	6.364
785.81	0.952
786.11	3.361
786.42	4.425
786.73	0.000
787.04	-1.835
787.34	0.000
787.65	14.167
787.96	5.785
788.26	12.319
788.57	7.937
788.88	4.878
789.19	3.200
789.49	3.053
789.80	19.697
790.11	3.774
790.41	4.950
790.72	8.511
791.03	-3.261
791.33	-11.765
791.64	3.704
791.95	9.783
792.25	7.955
792.56	10.256
792.87	7.692
793.17	0.000
793.48	5.952
793.79	-3.750
794.09	17.308
794.40	8.333
794.70	12.613
795.01	10.937
795.32	4.348
795.62	-5.435
795.93	6.604
796.23	12.121
796.54	-4.878
796.85	7.143
797.15	-4.545
797.46	-4.348
797.76	10.526
798.07	9.091
798.37	0.000
798.68	3.226
798.99	-9.459
799.29	13.253
799.60	1.282
799.90	13.846
800.21	3.030
800.51	8.000
800.82	20.000
801.12	-29.167
801.43	-25.000
801.73	2.703
802.04	14.286
802.34	-4.918
802.65	14.925
802.95	-3.636
803.26	3.448
803.56	12.308
803.87	-11.321
804.17	19.355
804.48	-2.941
804.78	-12.195
805.09	8.696
805.39	1.471
805.70	-25.532
806.00	0.000
806.30	3.846
806.61	5.263
806.91	0.000
807.22	9.211
807.52	1.136
807.83	-27.119
808.13	-12.121
808.43	5.000
808.74	-18.966
809.04	-11.111
809.35	-6.122
809.65	0.000
809.95	-22.449
810.26	16.901
810.56	-10.417
810.86	-6.122
811.17	26.923
811.47	-2.128
811.77	-16.667
812.08	11.321
812.38	-34.375
812.69	1.818
812.99	-7.317
813.29	5.405
813.59	-13.514
813.90	-5.455
814.20	1.818
814.50	6.667
814.81	-7.273
815.11	-35.088
815.41	2.326
815.72	-25.000
816.02	-5.714
816.32	-24.324
816.62	10.417
816.93	4.444
817.23	-22.222
817.53	-22.222
817.84	-5.405
818.14	-7.317
818.44	12.000
818.74	-12.245
819.04	-7.317
819.35	-19.444
819.65	6.818
819.95	-94.444
820.25	-3.030
820.56	-33.333
820.86	-5.556
821.16	-9.091
821.46	-17.391
821.76	0.000
822.07	-2.174
822.37	15.152
822.67	-4.878
822.97	2.703
823.27	-40.000
823.57	0.000
823.88	-2.941
824.18	0.000
824.48	-5.714
824.78	0.000
825.08	-21.429
825.38	11.111
825.69	-16.129
825.99	-2.439
826.29	48.148
826.59	-18.750
826.89	3.226
827.19	0.000
827.49	-19.444
827.79	-39.130
828.09	-22.581
828.39	-2.083
828.70	-3.125
829.00	-37.931
829.30	-35.135
829.60	-62.500
829.90	-25.926
830.20	-6.250
830.50	-13.636
830.80	-82.353
831.10	-40.909
831.40	-14.706
831.70	7.692
832.00	3.030
832.30	11.765
832.60	0.000
832.90	1600.000
833.20	-17.857
833.50	-50.000
833.80	0.000
834.10	-20.833
834.40	-63.636
834.70	-100.000
835.00	-120.000
835.30	-45.833
835.60	-42.857
835.90	-9.524
836.20	-28.000
836.50	-45.833
836.80	-73.684
837.10	0.000
837.40	-10.000
837.70	-43.478
838.00	4.167
838.30	-31.579
838.60	-220.000
838.90	-130.000
839.19	-108.333
839.49	-76.923
839.79	-10.526
840.09	-316.667
840.39	-110.000
840.69	-45.455
840.99	-4.762
841.29	-8.333
841.59	-100.000
841.88	-93.333
842.18	-21.429
842.48	36.667
842.78	-157.143
843.08	-21.429
843.38	-37.500
843.68	-56.250
843.97	7.143
844.27	-122.222
844.57	-63.636
844.87	-33.333
845.17	27.273
845.47	933.333
845.76	-13.333
846.06	-133.333
846.36	-800.000
846.66	-31.579
846.96	-59.091
847.25	-122.222
847.55	-166.667
847.85	-38.095
848.15	-53.846
848.44	-300.000
848.74	-33.333
849.04	-69.231
849.34	-275.000
849.63	-18.182
849.93	-157.143
850.23	35.000
850.53	-75.000
850.82	-11.111
851.12	-26.667
851.42	11.765
851.71	-112.500
852.01	-5.882
852.31	-69.231
852.61	250.000
852.90	-5.882
853.20	-46.667
853.50	-68.750
853.79	-142.857
854.09	-175.000
854.39	-60.000
854.68	-12.500
854.98	-23.810
855.28	-24.000
855.57	-4.167
855.87	12.500
856.17	-24.000
856.46	-28.125
856.76	-35.000
857.05	-12.000
857.35	-66.667
857.65	-88.235
857.94	-66.667
858.24	-108.333
858.53	10.000
858.83	-118.182
859.13	-8.000
859.42	-50.000
859.72	-162.500
860.01	0.000
860.31	-150.000
860.60	-18.750
860.90	-166.667
861.20	0.000
861.49	53.333
861.79	-43.750
862.08	300.000
862.38	-166.667
862.67	257.143
862.97	450.000
863.26	-154.545
863.56	-145.455
863.85	15.789
864.15	-17.647
864.44	-300.000
864.74	-130.000
865.03	-88.889
865.33	-7.143
865.62	221.429
865.92	-10.526
866.21	-66.667
866.51	-45.455
866.80	88.889
867.10	-200.000
867.39	-18.750
867.69	-73.333
867.98	-120.000
868.27	-5.882
868.57	0.000
868.86	600.000
869.16	-225.000
869.45	-200.000
869.75	750.000
870.04	-10.000
870.33	-1100.000
870.63	-36.842
870.92	-83.333
871.22	0.000
871.51	-257.143
871.80	-33.333
872.10	-150.000
>>>>>End Processed Spectral Data<<<<<
