SpectraSuite Data File
++++++++++++++++++++++++++++++++++++
Date: Tue May 12 16:06:05 PDT 2015
User: schluterlab
Dark Spectrum Present: Yes
Reference Spectrum Present: Yes
Number of Sampled Component Spectra: 1
Spectrometers: USB2E3373
Integration Time (usec): 3000 (USB2E3373)
Spectra Averaged: 3 (USB2E3373)
Boxcar Smoothing: 0 (USB2E3373)
Correct for Electrical Dark: No (USB2E3373)
Strobe/Lamp Enabled: No (USB2E3373)
Correct for Detector Non-linearity: No (USB2E3373)
Correct for Stray Light: No (USB2E3373)
Number of Pixels in Processed Spectrum: 2048
>>>>>Begin Processed Spectral Data<<<<<
178.53	0.000
178.91	-208.333
179.29	-675.000
179.67	-4200.000
180.04	-166.667
180.42	675.000
180.80	1500.000
181.18	0.000
181.56	-425.000
181.94	0.000
182.31	1366.667
182.69	-3100.000
183.07	628.571
183.45	-4500.000
183.83	-1600.000
184.20	430.000
184.58	442.857
184.96	-269.231
185.34	-266.667
185.72	2300.000
186.09	-725.000
186.47	-3400.000
186.85	1433.333
187.23	720.000
187.61	1800.000
187.98	450.000
188.36	278.571
188.74	350.000
189.12	325.000
189.49	1100.000
189.87	0.000
190.25	462.500
190.63	1600.000
191.00	-300.000
191.38	-3400.000
191.76	-875.000
192.14	537.500
192.51	-2100.000
192.89	1600.000
193.27	1666.667
193.65	-1400.000
194.02	-760.000
194.40	514.286
194.78	-264.286
195.15	300.000
195.53	-3200.000
195.91	-760.000
196.29	3900.000
196.66	262.500
197.04	900.000
197.42	-1300.000
197.79	875.000
198.17	375.000
198.55	0.000
198.92	400.000
199.30	1300.000
199.68	2300.000
200.05	633.333
200.43	-500.000
200.81	266.667
201.18	3500.000
201.56	350.000
201.94	-775.000
202.31	-387.500
202.69	-660.000
203.07	4100.000
203.44	-600.000
203.82	516.667
204.19	620.000
204.57	-1800.000
204.95	-900.000
205.32	-900.000
205.70	800.000
206.08	1000.000
206.45	-800.000
206.83	400.000
207.20	257.895
207.58	200.000
207.96	860.000
208.33	0.000
208.71	657.143
209.08	720.000
209.46	-3700.000
209.84	-850.000
210.21	920.000
210.59	-520.000
210.96	316.667
211.34	-850.000
211.71	381.818
212.09	1050.000
212.46	1800.000
212.84	-650.000
213.22	400.000
213.59	-3000.000
213.97	320.000
214.34	1200.000
214.72	1166.667
215.09	1166.667
215.47	-3200.000
215.84	-420.000
216.22	-475.000
216.59	0.000
216.97	0.000
217.34	1650.000
217.72	-1700.000
218.09	933.333
218.47	412.500
218.84	1025.000
219.22	1433.333
219.59	866.667
219.97	657.143
220.34	433.333
220.72	1650.000
221.09	3100.000
221.47	316.667
221.84	1300.000
222.22	310.000
222.59	300.000
222.97	242.857
223.34	262.500
223.72	-1450.000
224.09	1200.000
224.46	300.000
224.84	-1025.000
225.21	477.778
225.59	286.667
225.96	1466.667
226.34	-800.000
226.71	-800.000
227.08	-540.000
227.46	0.000
227.83	-500.000
228.21	-1600.000
228.58	383.333
228.95	1150.000
229.33	400.000
229.70	1075.000
230.08	392.308
230.45	4500.000
230.82	-975.000
231.20	-1033.333
231.57	-1233.333
231.95	680.000
232.32	325.000
232.69	650.000
233.07	366.667
233.44	-2000.000
233.81	313.333
234.19	166.667
234.56	312.500
234.93	205.882
235.31	255.000
235.68	356.250
236.05	192.857
236.43	155.556
236.80	414.286
237.17	158.621
237.55	153.125
237.92	167.500
238.29	178.788
238.67	181.250
239.04	160.976
239.41	112.500
239.79	145.000
240.16	135.417
240.53	101.639
240.91	113.043
241.28	110.169
241.65	113.636
242.02	109.859
242.40	130.000
242.77	104.396
243.14	115.190
243.51	97.980
243.89	93.458
244.26	100.935
244.63	99.010
245.00	100.917
245.38	94.068
245.75	88.636
246.12	98.519
246.49	87.943
246.87	99.180
247.24	83.333
247.61	80.625
247.98	95.918
248.36	81.818
248.73	82.143
249.10	82.143
249.47	81.000
249.84	77.612
250.22	93.514
250.59	80.000
250.96	78.059
251.33	73.023
251.70	82.589
252.08	77.731
252.45	74.502
252.82	73.384
253.19	81.028
253.56	72.692
253.94	71.014
254.31	81.395
254.68	74.564
255.05	77.241
255.42	76.277
255.79	79.153
256.16	75.254
256.54	73.052
256.91	71.895
257.28	74.247
257.65	69.906
258.02	74.631
258.39	69.914
258.76	70.435
259.14	67.429
259.51	71.429
259.88	76.900
260.25	66.758
260.62	72.055
260.99	69.146
261.36	71.031
261.73	68.085
262.10	71.466
262.47	67.500
262.85	69.600
263.22	71.979
263.59	73.146
263.96	68.922
264.33	68.889
264.70	74.939
265.07	70.000
265.44	70.642
265.81	68.632
266.18	67.277
266.55	69.504
266.92	66.219
267.29	66.886
267.66	68.386
268.03	68.610
268.40	64.693
268.77	67.401
269.14	68.764
269.51	67.483
269.88	65.714
270.25	63.283
270.62	67.597
270.99	62.677
271.36	65.041
271.73	67.505
272.10	67.071
272.47	67.659
272.84	64.271
273.21	65.702
273.58	67.611
273.95	67.556
274.32	67.121
274.69	67.717
275.06	65.574
275.43	64.176
275.80	65.283
276.17	62.868
276.54	62.804
276.91	65.672
277.28	64.234
277.65	66.974
278.02	63.787
278.39	64.209
278.76	64.138
279.13	64.057
279.50	65.636
279.87	61.453
280.23	62.615
280.60	64.234
280.97	61.897
281.34	62.046
281.71	61.739
282.08	61.368
282.45	63.514
282.82	62.375
283.19	59.300
283.56	61.983
283.92	63.844
284.29	61.730
284.66	61.176
285.03	62.189
285.40	64.298
285.77	59.259
286.14	60.836
286.51	60.736
286.87	57.753
287.24	57.057
287.61	58.967
287.98	59.552
288.35	59.111
288.72	59.788
289.08	58.258
289.45	60.366
289.82	59.531
290.19	57.247
290.56	58.079
290.93	58.129
291.29	55.663
291.66	58.475
292.03	58.205
292.40	56.098
292.77	57.103
293.13	57.775
293.50	56.140
293.87	55.827
294.24	57.483
294.60	54.509
294.97	57.063
295.34	56.441
295.71	55.191
296.08	57.467
296.44	56.544
296.81	53.970
297.18	54.499
297.55	54.187
297.91	52.463
298.28	54.348
298.65	53.620
299.02	52.352
299.38	54.916
299.75	53.293
300.12	53.440
300.48	54.801
300.85	54.470
301.22	54.070
301.59	52.594
301.95	52.742
302.32	52.270
302.69	51.131
303.05	53.872
303.42	52.915
303.79	51.896
304.15	51.705
304.52	53.171
304.89	53.198
305.25	53.838
305.62	52.559
305.99	53.152
306.35	52.421
306.72	54.318
307.09	51.863
307.45	51.742
307.82	51.646
308.19	53.196
308.55	52.100
308.92	52.404
309.29	52.761
309.65	51.734
310.02	54.361
310.38	52.642
310.75	51.977
311.12	51.820
311.48	54.054
311.85	53.244
312.22	53.773
312.58	55.102
312.95	53.592
313.31	54.494
313.68	53.846
314.05	54.487
314.41	54.283
314.78	54.924
315.14	54.692
315.51	55.345
315.87	53.285
316.24	55.742
316.61	53.894
316.97	53.119
317.34	56.065
317.70	55.224
318.07	57.384
318.43	55.185
318.80	54.991
319.16	55.682
319.53	55.752
319.89	55.556
320.26	57.169
320.62	57.509
320.99	58.341
321.35	56.494
321.72	57.495
322.08	57.895
322.45	57.947
322.81	58.005
323.18	57.815
323.54	59.495
323.91	59.202
324.27	58.886
324.64	57.958
325.00	59.397
325.37	58.516
325.73	59.949
326.10	59.155
326.46	59.538
326.83	59.760
327.19	61.526
327.56	60.543
327.92	61.967
328.29	62.029
328.65	62.842
329.01	61.078
329.38	60.914
329.74	59.607
330.11	60.382
330.47	61.040
330.84	59.189
331.20	60.068
331.56	62.090
331.93	62.361
332.29	60.884
332.66	63.180
333.02	60.567
333.38	63.525
333.75	60.801
334.11	61.913
334.48	61.368
334.84	61.233
335.20	60.821
335.57	60.202
335.93	61.648
336.29	59.121
336.66	61.835
337.02	60.308
337.38	60.705
337.75	59.966
338.11	59.494
338.47	60.034
338.84	58.933
339.20	59.740
339.56	58.452
339.93	59.783
340.29	57.731
340.65	61.777
341.02	57.924
341.38	58.867
341.74	59.219
342.11	59.599
342.47	58.655
342.83	60.870
343.20	59.822
343.56	56.632
343.92	58.794
344.28	60.128
344.65	59.495
345.01	58.413
345.37	58.013
345.73	58.810
346.10	58.008
346.46	57.656
346.82	57.639
347.19	58.192
347.55	56.987
347.91	56.344
348.27	55.848
348.63	57.437
349.00	57.426
349.36	58.599
349.72	58.333
350.08	58.463
350.45	56.436
350.81	57.110
351.17	57.319
351.53	57.583
351.89	57.110
352.26	56.765
352.62	57.240
352.98	57.209
353.34	58.706
353.70	56.422
354.07	56.615
354.43	57.834
354.79	55.809
355.15	56.815
355.51	56.798
355.87	56.852
356.24	57.198
356.60	57.078
356.96	55.269
357.32	56.745
357.68	57.783
358.04	56.839
358.40	56.447
358.77	57.476
359.13	56.682
359.49	56.264
359.85	57.036
360.21	56.686
360.57	55.474
360.93	58.153
361.29	57.431
361.66	56.301
362.02	56.321
362.38	55.628
362.74	57.608
363.10	56.241
363.46	56.630
363.82	55.049
364.18	55.761
364.54	56.438
364.90	56.493
365.26	57.183
365.62	56.077
365.98	55.334
366.35	56.138
366.71	56.142
367.07	57.133
367.43	55.809
367.79	55.186
368.15	54.749
368.51	56.926
368.87	55.978
369.23	55.371
369.59	56.575
369.95	56.783
370.31	55.578
370.67	55.725
371.03	56.443
371.39	56.510
371.75	56.385
372.11	55.133
372.47	55.548
372.83	55.540
373.19	56.340
373.55	55.739
373.91	55.663
374.27	55.093
374.63	55.458
374.99	56.806
375.35	56.519
375.71	56.728
376.07	56.499
376.42	55.435
376.78	56.712
377.14	56.946
377.50	54.931
377.86	56.310
378.22	56.977
378.58	55.630
378.94	55.884
379.30	55.609
379.66	57.134
380.02	57.126
380.38	55.855
380.74	57.324
381.09	56.834
381.45	54.740
381.81	56.324
382.17	54.701
382.53	55.789
382.89	56.121
383.25	55.181
383.61	55.447
383.97	56.149
384.32	56.600
384.68	57.457
385.04	55.334
385.40	56.228
385.76	56.173
386.12	56.215
386.48	56.353
386.83	56.418
387.19	56.007
387.55	55.536
387.91	56.351
388.27	56.633
388.62	55.986
388.98	55.802
389.34	55.503
389.70	55.483
390.06	56.402
390.42	55.830
390.77	56.265
391.13	56.669
391.49	54.507
391.85	56.615
392.20	55.066
392.56	56.631
392.92	56.485
393.28	54.989
393.64	54.989
393.99	55.068
394.35	54.503
394.71	54.162
395.07	55.414
395.42	54.508
395.78	55.336
396.14	55.723
396.50	55.054
396.85	55.976
397.21	55.656
397.57	55.409
397.92	55.286
398.28	55.433
398.64	55.614
399.00	53.501
399.35	53.945
399.71	54.746
400.07	54.509
400.42	54.149
400.78	55.015
401.14	54.903
401.49	54.954
401.85	55.156
402.21	55.185
402.57	55.655
402.92	54.909
403.28	54.475
403.63	54.267
403.99	53.739
404.35	53.986
404.70	55.109
405.06	53.172
405.42	53.860
405.77	53.749
406.13	52.549
406.49	53.326
406.84	52.848
407.20	53.482
407.55	54.769
407.91	56.222
408.27	54.942
408.62	54.879
408.98	54.406
409.34	52.718
409.69	53.018
410.05	54.383
410.40	53.180
410.76	53.978
411.11	53.199
411.47	53.519
411.83	52.431
412.18	53.200
412.54	54.234
412.89	52.153
413.25	53.136
413.60	53.388
413.96	53.321
414.31	53.660
414.67	54.687
415.03	53.576
415.38	52.871
415.74	54.201
416.09	53.467
416.45	53.652
416.80	53.945
417.16	53.342
417.51	54.395
417.87	53.129
418.22	53.767
418.58	53.694
418.93	53.837
419.29	52.249
419.64	52.574
420.00	53.998
420.35	53.949
420.71	52.800
421.06	54.267
421.42	52.562
421.77	53.248
422.12	54.576
422.48	53.775
422.83	54.241
423.19	52.916
423.54	52.935
423.90	54.020
424.25	54.375
424.61	54.730
424.96	53.586
425.31	54.078
425.67	53.760
426.02	52.552
426.38	52.509
426.73	54.598
427.09	54.389
427.44	52.842
427.79	55.918
428.15	55.628
428.50	54.629
428.85	55.144
429.21	54.187
429.56	53.290
429.92	54.152
430.27	53.895
430.62	53.157
430.98	54.291
431.33	53.730
431.68	52.444
432.04	52.613
432.39	55.269
432.74	55.504
433.10	55.592
433.45	55.543
433.80	55.543
434.16	54.073
434.51	55.212
434.86	55.090
435.22	55.159
435.57	55.187
435.92	56.175
436.28	55.012
436.63	54.727
436.98	55.743
437.34	56.164
437.69	54.311
438.04	55.484
438.39	54.524
438.75	55.290
439.10	56.071
439.45	53.929
439.81	55.986
440.16	55.201
440.51	55.236
440.86	56.980
441.22	56.006
441.57	55.591
441.92	54.738
442.27	55.206
442.63	54.675
442.98	54.688
443.33	56.347
443.68	55.785
444.03	54.948
444.39	55.838
444.74	56.056
445.09	55.134
445.44	54.729
445.79	55.263
446.15	55.842
446.50	56.487
446.85	55.229
447.20	55.522
447.55	57.042
447.91	55.834
448.26	55.272
448.61	57.380
448.96	56.972
449.31	56.326
449.66	56.811
450.02	55.267
450.37	56.691
450.72	56.529
451.07	56.719
451.42	55.720
451.77	56.701
452.12	55.814
452.47	57.412
452.83	57.803
453.18	57.237
453.53	56.424
453.88	56.857
454.23	56.944
454.58	55.886
454.93	56.591
455.28	56.671
455.63	57.092
455.98	56.796
456.34	56.413
456.69	56.707
457.04	57.816
457.39	56.971
457.74	57.827
458.09	56.036
458.44	55.969
458.79	56.286
459.14	56.519
459.49	57.078
459.84	56.685
460.19	56.949
460.54	56.809
460.89	56.610
461.24	55.956
461.59	55.952
461.94	56.797
462.29	57.037
462.64	57.412
462.99	56.750
463.34	56.513
463.69	57.471
464.04	57.686
464.39	56.153
464.74	55.744
465.09	56.239
465.44	56.746
465.79	56.015
466.14	56.068
466.49	56.701
466.84	56.243
467.19	57.059
467.54	57.417
467.89	56.514
468.24	56.920
468.59	57.917
468.94	56.884
469.29	56.872
469.64	56.849
469.99	58.098
470.34	56.230
470.68	56.276
471.03	58.239
471.38	57.219
471.73	57.479
472.08	59.295
472.43	57.418
472.78	58.707
473.13	55.257
473.48	57.518
473.83	56.890
474.17	57.386
474.52	57.405
474.87	56.225
475.22	57.167
475.57	56.243
475.92	56.771
476.27	54.951
476.61	57.051
476.96	55.590
477.31	57.584
477.66	57.703
478.01	56.369
478.36	56.025
478.70	56.030
479.05	57.270
479.40	56.597
479.75	56.405
480.10	55.712
480.45	55.369
480.79	55.115
481.14	56.871
481.49	55.444
481.84	55.497
482.19	56.943
482.53	55.072
482.88	56.138
483.23	56.518
483.58	56.777
483.92	57.815
484.27	56.293
484.62	56.027
484.97	55.707
485.31	54.517
485.66	54.876
486.01	53.311
486.36	53.208
486.70	52.326
487.05	52.365
487.40	52.778
487.75	53.423
488.09	53.977
488.44	55.163
488.79	54.703
489.13	55.580
489.48	55.134
489.83	55.338
490.17	55.367
490.52	55.900
490.87	54.957
491.22	56.073
491.56	54.941
491.91	54.973
492.26	55.234
492.60	56.219
492.95	55.732
493.30	55.096
493.64	55.076
493.99	54.696
494.34	56.253
494.68	55.378
495.03	55.905
495.37	56.101
495.72	57.249
496.07	55.840
496.41	54.648
496.76	54.833
497.11	55.484
497.45	55.195
497.80	55.561
498.14	55.525
498.49	55.617
498.84	56.636
499.18	54.479
499.53	55.949
499.87	55.615
500.22	54.906
500.56	55.850
500.91	55.195
501.26	56.040
501.60	56.876
501.95	55.108
502.29	55.422
502.64	54.786
502.98	54.335
503.33	55.234
503.67	55.099
504.02	55.755
504.36	55.701
504.71	56.055
505.06	55.748
505.40	55.639
505.75	55.332
506.09	55.670
506.44	56.391
506.78	55.293
507.13	55.793
507.47	55.459
507.82	56.399
508.16	56.737
508.51	56.812
508.85	55.840
509.19	56.339
509.54	56.396
509.88	56.091
510.23	55.588
510.57	55.647
510.92	56.593
511.26	56.777
511.61	55.539
511.95	55.002
512.30	55.750
512.64	55.919
512.98	56.740
513.33	56.404
513.67	56.240
514.02	56.935
514.36	57.061
514.70	56.427
515.05	56.260
515.39	57.785
515.74	57.791
516.08	57.516
516.42	58.634
516.77	57.280
517.11	57.120
517.46	57.220
517.80	56.472
518.14	57.746
518.49	55.788
518.83	57.033
519.17	56.905
519.52	56.308
519.86	57.548
520.20	55.726
520.55	56.133
520.89	56.552
521.23	58.470
521.58	55.594
521.92	57.318
522.26	57.227
522.61	57.992
522.95	59.099
523.29	57.368
523.64	57.399
523.98	56.984
524.32	57.324
524.66	58.493
525.01	56.864
525.35	57.395
525.69	57.074
526.04	57.644
526.38	57.681
526.72	57.339
527.06	57.363
527.41	58.646
527.75	58.247
528.09	57.074
528.43	58.023
528.78	57.007
529.12	57.857
529.46	57.218
529.80	56.600
530.15	56.335
530.49	56.558
530.83	57.648
531.17	56.335
531.51	56.652
531.86	56.341
532.20	55.871
532.54	56.999
532.88	57.714
533.22	56.063
533.57	57.657
533.91	56.760
534.25	54.472
534.59	57.193
534.93	54.323
535.27	54.980
535.62	56.301
535.96	55.910
536.30	58.318
536.64	56.708
536.98	55.255
537.32	56.437
537.66	56.250
538.01	55.480
538.35	57.018
538.69	55.036
539.03	55.535
539.37	54.794
539.71	55.370
540.05	54.892
540.39	56.101
540.73	56.519
541.07	56.336
541.42	56.903
541.76	56.042
542.10	55.672
542.44	55.798
542.78	56.954
543.12	54.479
543.46	55.451
543.80	56.391
544.14	56.533
544.48	55.961
544.82	55.657
545.16	54.827
545.50	56.238
545.84	55.429
546.18	56.502
546.52	56.328
546.86	56.093
547.20	57.041
547.54	54.908
547.88	55.535
548.22	55.252
548.56	54.390
548.90	53.440
549.24	54.201
549.58	54.575
549.92	55.337
550.26	56.728
550.60	55.489
550.94	56.581
551.28	56.966
551.62	57.448
551.96	55.878
552.30	54.713
552.64	56.440
552.98	54.124
553.32	54.225
553.66	54.723
554.00	54.826
554.34	56.458
554.68	56.048
555.02	55.872
555.36	55.585
555.69	55.694
556.03	53.949
556.37	54.621
556.71	56.910
557.05	52.949
557.39	55.533
557.73	55.256
558.07	56.003
558.41	55.655
558.75	55.198
559.08	56.612
559.42	55.404
559.76	55.524
560.10	54.508
560.44	55.209
560.78	56.202
561.12	55.563
561.45	53.817
561.79	53.745
562.13	53.696
562.47	54.186
562.81	54.522
563.15	53.911
563.48	52.174
563.82	53.837
564.16	54.104
564.50	53.165
564.84	54.590
565.17	53.238
565.51	55.603
565.85	54.534
566.19	53.988
566.52	53.911
566.86	53.765
567.20	53.483
567.54	53.821
567.88	52.947
568.21	53.420
568.55	52.724
568.89	52.327
569.23	50.690
569.56	51.917
569.90	50.162
570.24	50.596
570.57	50.065
570.91	50.359
571.25	49.288
571.59	49.239
571.92	49.247
572.26	47.844
572.60	48.264
572.93	49.339
573.27	49.627
573.61	49.432
573.95	49.353
574.28	49.273
574.62	48.090
574.96	48.033
575.29	47.838
575.63	47.397
575.97	47.225
576.30	47.634
576.64	48.358
576.98	48.340
577.31	49.003
577.65	48.417
577.98	47.643
578.32	47.719
578.66	47.628
578.99	47.661
579.33	47.406
579.67	47.888
580.00	47.420
580.34	47.653
580.67	47.964
581.01	48.892
581.35	47.466
581.68	47.288
582.02	47.016
582.35	47.147
582.69	47.432
583.02	47.299
583.36	47.965
583.70	48.098
584.03	48.968
584.37	48.410
584.70	48.047
585.04	47.419
585.37	47.836
585.71	48.135
586.04	47.027
586.38	47.905
586.72	48.185
587.05	47.890
587.39	47.661
587.72	47.792
588.06	47.703
588.39	48.465
588.73	48.461
589.06	48.818
589.40	49.264
589.73	48.246
590.07	50.069
590.40	49.129
590.73	50.239
591.07	49.488
591.40	48.623
591.74	49.067
592.07	48.586
592.41	49.281
592.74	48.663
593.08	47.884
593.41	47.397
593.75	46.852
594.08	47.798
594.41	47.801
594.75	47.671
595.08	48.045
595.42	47.696
595.75	47.318
596.09	48.453
596.42	48.361
596.75	49.279
597.09	48.163
597.42	48.612
597.75	48.479
598.09	47.928
598.42	48.307
598.76	47.571
599.09	47.775
599.42	46.920
599.76	46.947
600.09	46.847
600.42	47.617
600.76	47.213
601.09	47.566
601.42	46.850
601.76	47.655
602.09	48.271
602.42	47.024
602.76	47.514
603.09	48.265
603.42	47.523
603.76	47.686
604.09	47.593
604.42	47.910
604.76	47.610
605.09	46.612
605.42	47.582
605.75	47.059
606.09	47.628
606.42	47.163
606.75	47.377
607.09	47.019
607.42	47.489
607.75	47.731
608.08	47.035
608.42	47.567
608.75	48.695
609.08	48.042
609.41	48.545
609.75	49.405
610.08	49.011
610.41	48.704
610.74	48.745
611.07	48.977
611.41	47.498
611.74	49.092
612.07	48.603
612.40	47.953
612.73	48.677
613.07	49.671
613.40	49.724
613.73	48.777
614.06	47.500
614.39	48.283
614.72	47.413
615.06	48.121
615.39	47.574
615.72	47.773
616.05	48.569
616.38	47.539
616.71	47.802
617.05	49.094
617.38	48.820
617.71	50.394
618.04	49.579
618.37	48.694
618.70	47.806
619.03	49.206
619.36	50.188
619.69	49.472
620.03	51.859
620.36	48.619
620.69	49.745
621.02	49.592
621.35	51.218
621.68	49.631
622.01	49.668
622.34	50.109
622.67	48.596
623.00	49.217
623.33	49.595
623.66	49.501
623.99	50.753
624.32	50.136
624.65	49.111
624.99	49.493
625.32	49.900
625.65	49.379
625.98	48.466
626.31	51.929
626.64	50.949
626.97	49.350
627.30	50.155
627.63	50.157
627.96	50.156
628.29	51.073
628.62	51.326
628.95	50.266
629.28	50.920
629.61	51.054
629.94	50.648
630.26	52.600
630.59	51.950
630.92	51.480
631.25	50.589
631.58	52.073
631.91	52.331
632.24	51.992
632.57	51.179
632.90	52.692
633.23	53.305
633.56	51.633
633.89	52.412
634.22	53.391
634.55	51.398
634.88	52.464
635.20	56.278
635.53	53.659
635.86	52.796
636.19	52.862
636.52	52.000
636.85	49.407
637.18	52.979
637.51	52.291
637.83	51.259
638.16	52.521
638.49	53.892
638.82	53.169
639.15	51.586
639.48	53.081
639.81	53.236
640.13	52.761
640.46	50.695
640.79	53.576
641.12	52.756
641.45	55.498
641.77	54.425
642.10	52.209
642.43	56.046
642.76	54.830
643.09	54.467
643.41	53.857
643.74	55.396
644.07	56.785
644.40	53.698
644.73	56.306
645.05	56.464
645.38	54.671
645.71	52.807
646.04	55.267
646.36	58.216
646.69	56.480
647.02	57.280
647.35	55.433
647.67	56.078
648.00	57.655
648.33	53.083
648.66	54.394
648.98	53.333
649.31	50.742
649.64	50.346
649.96	52.347
650.29	51.286
650.62	55.376
650.94	54.970
651.27	57.735
651.60	52.269
651.92	51.459
652.25	55.276
652.58	52.199
652.90	52.096
653.23	52.880
653.56	53.858
653.88	52.570
654.21	51.466
654.54	53.880
654.86	51.475
655.19	50.264
655.52	44.974
655.84	37.340
656.17	44.742
656.49	63.467
656.82	72.774
657.15	58.217
657.47	43.510
657.80	32.329
658.13	25.702
658.45	35.197
658.78	43.131
659.10	43.626
659.43	45.125
659.75	47.984
660.08	47.995
660.41	53.176
660.73	54.454
661.06	56.306
661.38	54.855
661.71	56.115
662.03	56.274
662.36	52.952
662.68	55.307
663.01	58.919
663.33	53.396
663.66	55.030
663.98	56.944
664.31	55.224
664.63	54.789
664.96	57.036
665.28	51.601
665.61	53.208
665.93	52.264
666.26	54.953
666.58	55.596
666.91	56.757
667.23	53.414
667.56	54.620
667.88	57.469
668.21	56.557
668.53	54.435
668.86	58.717
669.18	53.360
669.50	55.992
669.83	52.361
670.15	55.094
670.48	52.344
670.80	58.167
671.13	56.175
671.45	54.509
671.77	52.319
672.10	55.655
672.42	50.329
672.75	50.158
673.07	52.146
673.39	50.479
673.72	54.325
674.04	53.763
674.37	53.358
674.69	54.089
675.01	50.746
675.34	52.907
675.66	53.711
675.98	53.846
676.31	55.400
676.63	51.491
676.95	55.357
677.28	52.130
677.60	54.326
677.92	51.984
678.25	53.682
678.57	52.142
678.89	52.984
679.22	52.574
679.54	49.822
679.86	49.913
680.18	51.142
680.51	49.917
680.83	49.662
681.15	53.033
681.48	51.736
681.80	49.037
682.12	50.865
682.44	46.847
682.77	50.890
683.09	50.291
683.41	52.245
683.73	51.575
684.06	51.389
684.38	53.488
684.70	49.820
685.02	48.785
685.34	50.528
685.67	50.643
685.99	51.724
686.31	47.458
686.63	50.732
686.96	50.490
687.28	50.336
687.60	50.171
687.92	50.586
688.24	51.897
688.56	50.000
688.89	49.140
689.21	49.904
689.53	50.593
689.85	51.423
690.17	50.874
690.49	53.226
690.82	50.000
691.14	52.929
691.46	50.924
691.78	50.877
692.10	51.908
692.42	48.457
692.74	48.837
693.06	50.969
693.39	50.000
693.71	50.884
694.03	53.846
694.35	53.614
694.67	48.676
694.99	53.437
695.31	54.505
695.63	51.584
695.95	51.810
696.27	54.646
696.59	54.893
696.91	54.937
697.23	50.452
697.56	48.548
697.88	49.102
698.20	52.075
698.52	47.860
698.84	47.433
699.16	49.893
699.48	50.636
699.80	53.377
700.12	51.963
700.44	50.467
700.76	55.370
701.08	55.091
701.40	50.649
701.72	55.882
702.04	58.808
702.36	54.301
702.68	55.053
703.00	51.378
703.32	52.109
703.64	54.408
703.96	49.219
704.28	56.085
704.60	58.592
704.91	58.824
705.23	53.409
705.55	59.347
705.87	58.413
706.19	56.740
706.51	57.994
706.83	56.932
707.15	56.150
707.47	53.995
707.79	52.414
708.11	50.113
708.43	49.213
708.74	49.548
709.06	50.233
709.38	53.102
709.70	50.136
710.02	52.717
710.34	50.276
710.66	54.722
710.98	53.552
711.29	52.925
711.61	54.039
711.93	51.976
712.25	54.819
712.57	55.305
712.89	56.667
713.20	61.022
713.52	56.698
713.84	54.079
714.16	47.246
714.48	50.432
714.80	50.949
715.11	50.266
715.43	51.676
715.75	55.211
716.07	52.601
716.39	52.571
716.70	54.517
717.02	59.933
717.34	60.432
717.66	59.028
717.97	62.121
718.29	57.746
718.61	54.392
718.93	56.401
719.24	54.698
719.56	55.862
719.88	49.682
720.20	54.839
720.51	49.346
720.83	52.174
721.15	56.463
721.46	56.849
721.78	57.143
722.10	52.083
722.42	54.181
722.73	52.708
723.05	54.035
723.37	57.951
723.68	55.859
724.00	53.409
724.32	60.837
724.63	58.077
724.95	58.431
725.27	56.134
725.58	56.618
725.90	48.592
726.22	51.370
726.53	53.177
726.85	57.655
727.16	59.396
727.48	51.827
727.80	58.633
728.11	53.929
728.43	54.348
728.74	55.245
729.06	51.254
729.38	55.789
729.69	57.000
730.01	53.618
730.32	55.369
730.64	53.156
730.96	49.850
731.27	46.177
731.59	49.713
731.90	48.747
732.22	50.000
732.53	45.584
732.85	51.170
733.16	46.687
733.48	50.784
733.80	53.043
734.11	56.135
734.43	49.415
734.74	49.062
735.06	51.852
735.37	43.041
735.69	48.986
736.00	53.823
736.32	49.697
736.63	46.372
736.95	52.484
737.26	51.524
737.58	52.454
737.89	51.205
738.21	49.007
738.52	50.502
738.83	55.311
739.15	52.613
739.46	54.828
739.78	50.000
740.09	48.980
740.41	49.693
740.72	55.238
741.04	56.294
741.35	54.687
741.66	56.126
741.98	57.511
742.29	58.333
742.61	56.637
742.92	55.085
743.23	52.400
743.55	55.094
743.86	50.196
744.18	58.051
744.49	52.479
744.80	58.525
745.12	58.482
745.43	63.084
745.74	55.111
746.06	57.456
746.37	60.930
746.68	56.195
747.00	52.466
747.31	52.101
747.62	47.541
747.94	58.798
748.25	52.918
748.56	59.746
748.88	55.804
749.19	60.000
749.50	52.055
749.82	52.675
750.13	56.126
750.44	51.000
750.75	55.369
751.07	49.342
751.38	51.485
751.69	49.158
752.01	53.497
752.32	52.824
752.63	52.685
752.94	58.042
753.26	53.906
753.57	52.529
753.88	49.438
754.19	51.625
754.51	49.502
754.82	46.644
755.13	53.716
755.44	50.741
755.75	53.952
756.07	54.110
756.38	46.078
756.69	50.625
757.00	46.884
757.31	50.423
757.63	47.934
757.94	43.617
758.25	46.377
758.56	44.394
758.87	43.609
759.18	49.128
759.50	46.505
759.81	46.588
760.12	51.124
760.43	46.218
760.74	48.861
761.05	48.276
761.36	45.312
761.67	44.744
761.99	48.732
762.30	48.232
762.61	44.792
762.92	51.136
763.23	49.057
763.54	50.000
763.85	49.805
764.16	51.042
764.47	47.635
764.78	51.466
765.10	45.732
765.41	43.750
765.72	48.066
766.03	46.224
766.34	50.174
766.65	54.753
766.96	55.466
767.27	58.879
767.58	58.911
767.89	64.641
768.20	68.293
768.51	53.061
768.82	54.386
769.13	51.373
769.44	51.504
769.75	48.315
770.06	54.202
770.37	54.386
770.68	46.667
770.99	52.542
771.30	51.464
771.61	51.154
771.92	47.710
772.23	53.629
772.54	56.889
772.85	58.911
773.16	52.174
773.47	56.667
773.78	50.495
774.09	60.227
774.39	63.636
774.70	60.588
775.01	60.526
775.32	55.901
775.63	65.068
775.94	62.963
776.25	57.241
776.56	61.069
776.87	69.466
777.18	61.364
777.48	73.228
777.79	74.615
778.10	56.818
778.41	65.672
778.72	61.654
779.03	57.692
779.34	52.027
779.65	60.248
779.95	57.764
780.26	61.310
780.57	61.905
780.88	65.248
781.19	75.833
781.50	61.538
781.80	53.552
782.11	50.265
782.42	56.322
782.73	57.062
783.04	58.065
783.34	60.465
783.65	58.503
783.96	58.710
784.27	56.954
784.57	54.605
784.88	67.391
785.19	57.500
785.50	72.414
785.81	74.419
786.11	60.741
786.42	59.843
786.73	74.775
787.04	82.075
787.34	56.911
787.65	76.515
787.96	67.424
788.26	64.567
788.57	66.423
788.88	59.155
789.19	62.595
789.49	55.405
789.80	66.406
790.11	62.810
790.41	67.593
790.72	75.000
791.03	69.231
791.33	69.697
791.64	64.211
791.95	69.474
792.25	61.458
792.56	82.000
792.87	91.463
793.17	76.136
793.48	85.882
793.79	60.920
794.09	84.091
794.40	75.000
794.70	61.111
795.01	60.000
795.32	66.412
795.62	58.120
795.93	63.866
796.23	65.854
796.54	73.469
796.85	76.136
797.15	101.299
797.46	78.049
797.76	75.000
798.07	92.000
798.37	73.750
798.68	88.750
798.99	86.585
799.29	81.333
799.60	80.233
799.90	85.526
800.21	95.455
800.51	92.958
800.82	98.276
801.12	104.615
801.43	90.667
801.73	89.655
802.04	87.013
802.34	93.151
802.65	111.765
802.95	100.000
803.26	106.452
803.56	115.000
803.87	98.507
804.17	93.651
804.48	90.566
804.78	95.833
805.09	72.727
805.39	85.714
805.70	87.719
806.00	75.714
806.30	96.875
806.61	75.294
806.91	82.222
807.22	68.478
807.52	78.947
807.83	102.632
808.13	95.652
808.43	111.290
808.74	91.781
809.04	96.429
809.35	104.412
809.65	93.939
809.95	119.608
810.26	112.963
810.56	98.438
810.86	110.204
811.17	119.298
811.47	126.087
811.77	94.828
812.08	79.310
812.38	109.524
812.69	97.619
812.99	111.111
813.29	134.286
813.59	177.419
813.90	89.655
814.20	96.721
814.50	104.000
814.81	92.982
815.11	120.370
815.41	92.857
815.72	112.500
816.02	106.000
816.32	129.268
816.62	112.069
816.93	148.485
817.23	121.951
817.53	105.357
817.84	100.000
818.14	140.476
818.44	112.500
818.74	120.755
819.04	102.564
819.35	160.606
819.65	115.385
819.95	118.519
820.25	125.532
820.56	127.027
820.86	168.421
821.16	78.723
821.46	115.789
821.76	116.364
822.07	97.619
822.37	94.737
822.67	127.907
822.97	94.737
823.27	110.870
823.57	137.500
823.88	110.256
824.18	109.091
824.48	182.609
824.78	136.111
825.08	169.565
825.38	165.517
825.69	123.529
825.99	93.617
826.29	130.556
826.59	128.571
826.89	173.333
827.19	117.143
827.49	145.161
827.79	188.462
828.09	121.429
828.39	141.667
828.70	129.730
829.00	153.571
829.30	237.500
829.60	119.444
829.90	167.742
830.20	133.333
830.50	159.459
830.80	183.333
831.10	165.385
831.40	185.714
831.70	187.500
832.00	170.000
832.30	191.304
832.60	204.167
832.90	160.606
833.20	285.000
833.50	123.684
833.80	111.765
834.10	134.211
834.40	189.474
834.70	120.000
835.00	212.000
835.30	105.405
835.60	150.000
835.90	132.432
836.20	176.923
836.50	181.818
836.80	136.585
837.10	191.304
837.40	346.154
837.70	194.737
838.00	166.667
838.30	162.500
838.60	208.000
838.90	350.000
839.19	156.250
839.49	163.333
839.79	158.621
840.09	203.846
840.39	253.333
840.69	263.158
840.99	152.381
841.29	165.217
841.59	240.000
841.88	232.000
842.18	433.333
842.48	153.571
842.78	181.481
843.08	207.692
843.38	186.364
843.68	307.143
843.97	414.286
844.27	165.217
844.57	2050.000
844.87	342.857
845.17	288.889
845.47	185.714
845.76	216.667
846.06	657.143
846.36	223.529
846.66	261.538
846.96	262.500
847.25	261.538
847.55	215.789
847.85	222.222
848.15	640.000
848.44	381.818
848.74	214.286
849.04	229.167
849.34	205.882
849.63	256.250
849.93	243.750
850.23	1100.000
850.53	400.000
850.82	318.182
851.12	247.059
851.42	191.667
851.71	281.250
852.01	0.000
852.31	223.529
852.61	460.000
852.90	183.333
853.20	322.222
853.50	-2200.000
853.79	152.000
854.09	171.875
854.39	179.310
854.68	168.966
854.98	242.857
855.28	158.065
855.57	300.000
855.87	238.889
856.17	148.148
856.46	215.789
856.76	174.194
857.05	258.824
857.35	336.364
857.65	215.385
857.94	190.000
858.24	511.111
858.53	321.429
858.83	642.857
859.13	213.043
859.42	366.667
859.72	400.000
860.01	258.333
860.31	900.000
860.60	360.000
860.90	375.000
861.20	323.077
861.49	528.571
861.79	-2800.000
862.08	571.429
862.38	477.778
862.67	242.857
862.97	400.000
863.26	156.667
863.56	975.000
863.85	346.154
864.15	252.941
864.44	238.889
864.74	400.000
865.03	300.000
865.33	387.500
865.62	300.000
865.92	650.000
866.21	850.000
866.51	700.000
866.80	261.111
867.10	666.667
867.39	4500.000
867.69	780.000
867.98	650.000
868.27	223.810
868.57	353.333
868.86	1150.000
869.16	171.429
869.45	3600.000
869.75	-533.333
870.04	750.000
870.33	880.000
870.63	512.500
870.92	182.353
871.22	950.000
871.51	471.429
871.80	391.667
872.10	315.385
>>>>>End Processed Spectral Data<<<<<
