SpectraSuite Data File
++++++++++++++++++++++++++++++++++++
Date: Tue May 12 16:48:03 PDT 2015
User: schluterlab
Dark Spectrum Present: Yes
Reference Spectrum Present: Yes
Number of Sampled Component Spectra: 1
Spectrometers: USB2E3373
Integration Time (usec): 3000 (USB2E3373)
Spectra Averaged: 3 (USB2E3373)
Boxcar Smoothing: 0 (USB2E3373)
Correct for Electrical Dark: No (USB2E3373)
Strobe/Lamp Enabled: No (USB2E3373)
Correct for Detector Non-linearity: No (USB2E3373)
Correct for Stray Light: No (USB2E3373)
Number of Pixels in Processed Spectrum: 2048
>>>>>Begin Processed Spectral Data<<<<<
178.53	0.000
178.91	-275.000
179.29	-650.000
179.67	-4300.000
180.04	-146.667
180.42	450.000
180.80	1550.000
181.18	0.000
181.56	-412.500
181.94	0.000
182.31	1000.000
182.69	-3300.000
183.07	600.000
183.45	-3700.000
183.83	-1950.000
184.20	430.000
184.58	528.571
184.96	-330.769
185.34	-183.333
185.72	1500.000
186.09	-825.000
186.47	-3000.000
186.85	1000.000
187.23	840.000
187.61	1550.000
187.98	487.500
188.36	228.571
188.74	308.333
189.12	366.667
189.49	725.000
189.87	0.000
190.25	425.000
190.63	2600.000
191.00	-183.333
191.38	-3600.000
191.76	-650.000
192.14	637.500
192.51	-2900.000
192.89	1450.000
193.27	1100.000
193.65	-1100.000
194.02	-640.000
194.40	528.571
194.78	-207.143
195.15	253.333
195.53	-3000.000
195.91	-740.000
196.29	3300.000
196.66	250.000
197.04	1000.000
197.42	-1850.000
197.79	650.000
198.17	358.333
198.55	0.000
198.92	571.429
199.30	1366.667
199.68	2000.000
200.05	766.667
200.43	-500.000
200.81	205.556
201.18	3400.000
201.56	266.667
201.94	-825.000
202.31	-250.000
202.69	-680.000
203.07	3900.000
203.44	-583.333
203.82	441.667
204.19	560.000
204.57	-1200.000
204.95	-750.000
205.32	-860.000
205.70	533.333
206.08	775.000
206.45	-733.333
206.83	422.222
207.20	184.211
207.58	241.667
207.96	620.000
208.33	0.000
208.71	642.857
209.08	640.000
209.46	-2300.000
209.84	-750.000
210.21	960.000
210.59	-520.000
210.96	291.667
211.34	-1025.000
211.71	318.182
212.09	925.000
212.46	1700.000
212.84	-366.667
213.22	388.889
213.59	-3700.000
213.97	320.000
214.34	1000.000
214.72	866.667
215.09	800.000
215.47	-3800.000
215.84	-310.000
216.22	-375.000
216.59	0.000
216.97	0.000
217.34	1550.000
217.72	-1350.000
218.09	1333.333
218.47	500.000
218.84	875.000
219.22	1133.333
219.59	1033.333
219.97	442.857
220.34	433.333
220.72	1700.000
221.09	3200.000
221.47	366.667
221.84	1033.333
222.22	350.000
222.59	200.000
222.97	228.571
223.34	237.500
223.72	-1850.000
224.09	1133.333
224.46	207.692
224.84	-875.000
225.21	422.222
225.59	266.667
225.96	1266.667
226.34	-740.000
226.71	-775.000
227.08	-600.000
227.46	0.000
227.83	-500.000
228.21	-1700.000
228.58	375.000
228.95	1050.000
229.33	466.667
229.70	900.000
230.08	361.538
230.45	3700.000
230.82	-900.000
231.20	-733.333
231.57	-1100.000
231.95	700.000
232.32	308.333
232.69	516.667
233.07	316.667
233.44	-2200.000
233.81	240.000
234.19	188.889
234.56	181.250
234.93	188.235
235.31	170.000
235.68	212.500
236.05	153.571
236.43	148.148
236.80	257.143
237.17	186.207
237.55	143.750
237.92	150.000
238.29	142.424
238.67	156.250
239.04	124.390
239.41	95.833
239.79	122.500
240.16	106.250
240.53	91.803
240.91	86.957
241.28	93.220
241.65	92.424
242.02	88.732
242.40	98.571
242.77	63.736
243.14	70.886
243.51	79.798
243.89	67.290
244.26	65.421
244.63	68.317
245.00	73.394
245.38	56.780
245.75	58.333
246.12	67.407
246.49	66.667
246.87	66.393
247.24	64.000
247.61	57.500
247.98	61.224
248.36	49.697
248.73	59.694
249.10	51.786
249.47	49.500
249.84	53.731
250.22	52.973
250.59	46.500
250.96	52.743
251.33	46.512
251.70	51.786
252.08	48.739
252.45	43.028
252.82	47.529
253.19	52.174
253.56	48.077
253.94	47.101
254.31	48.450
254.68	48.780
255.05	51.034
255.42	45.620
255.79	52.769
256.16	44.068
256.54	47.727
256.91	48.366
257.28	52.508
257.65	43.574
258.02	44.543
258.39	46.132
258.76	48.986
259.14	45.143
259.51	51.603
259.88	44.681
260.25	40.385
260.62	42.466
260.99	45.455
261.36	47.354
261.73	42.021
262.10	46.335
262.47	43.250
262.85	44.800
263.22	46.530
263.59	44.757
263.96	44.110
264.33	43.457
264.70	45.700
265.07	44.390
265.44	41.972
265.81	44.340
266.18	44.165
266.55	45.863
266.92	42.058
267.29	43.860
267.66	42.377
268.03	43.498
268.40	42.072
268.77	44.493
269.14	43.167
269.51	41.871
269.88	44.286
270.25	40.173
270.62	44.635
270.99	41.379
271.36	43.496
271.73	41.509
272.10	41.818
272.47	41.865
272.84	40.519
273.21	40.289
273.58	41.093
273.95	41.889
274.32	42.802
274.69	44.882
275.06	40.255
275.43	39.655
275.80	42.642
276.17	39.706
276.54	41.682
276.91	43.097
277.28	41.058
277.65	40.590
278.02	39.890
278.39	40.468
278.76	41.552
279.13	40.036
279.50	39.455
279.87	40.968
280.23	40.700
280.60	41.058
280.97	40.690
281.34	39.604
281.71	38.435
282.08	42.735
282.45	39.020
282.82	40.970
283.19	41.335
283.56	38.182
283.92	40.879
284.29	40.100
284.66	38.824
285.03	37.977
285.40	39.339
285.77	36.883
286.14	38.700
286.51	37.883
286.87	36.867
287.24	39.039
287.61	37.538
287.98	35.821
288.35	37.037
288.72	38.392
289.08	37.387
289.45	37.805
289.82	37.656
290.19	36.603
290.56	35.517
290.93	35.971
291.29	35.359
291.66	35.028
292.03	34.923
292.40	34.553
292.77	35.237
293.13	35.093
293.50	34.008
293.87	34.146
294.24	34.266
294.60	33.917
294.97	35.524
295.34	33.865
295.71	34.954
296.08	34.800
296.44	35.578
296.81	32.754
297.18	31.939
297.55	34.729
297.91	32.635
298.28	32.367
298.65	33.742
299.02	33.534
299.38	33.453
299.75	32.683
300.12	32.569
300.48	33.841
300.85	34.327
301.22	35.000
301.59	32.193
301.95	32.322
302.32	33.178
302.69	32.692
303.05	33.895
303.42	32.287
303.79	33.261
304.15	32.343
304.52	32.558
304.89	33.369
305.25	34.260
305.62	32.729
305.99	33.261
306.35	32.421
306.72	33.715
307.09	33.540
307.45	34.424
307.82	33.951
308.19	33.402
308.55	33.700
308.92	34.740
309.29	35.010
309.65	33.399
310.02	36.410
310.38	34.995
310.75	34.523
311.12	35.441
311.48	35.521
311.85	36.260
312.22	37.058
312.58	36.443
312.95	36.990
313.31	38.109
313.68	37.711
314.05	37.363
314.41	38.082
314.78	38.731
315.14	38.578
315.51	38.032
315.87	37.956
316.24	40.430
316.61	38.944
316.97	39.817
317.34	41.060
317.70	41.440
318.07	41.815
318.43	42.355
318.80	42.119
319.16	41.871
319.53	42.478
319.89	43.011
320.26	45.810
320.62	43.864
320.99	44.995
321.35	43.414
321.72	45.066
322.08	45.245
322.45	46.140
322.81	45.197
323.18	47.957
323.54	48.345
323.91	50.771
324.27	48.630
324.64	51.298
325.00	50.862
325.37	50.169
325.73	52.698
326.10	51.616
326.46	51.693
326.83	50.960
327.19	53.896
327.56	53.355
327.92	53.689
328.29	54.173
328.65	53.682
329.01	53.807
329.38	54.484
329.74	53.544
330.11	54.909
330.47	54.902
330.84	51.769
331.20	52.538
331.56	55.959
331.93	53.807
332.29	54.847
332.66	56.293
333.02	54.897
333.38	55.934
333.75	56.547
334.11	54.782
334.48	56.667
334.84	55.321
335.20	56.116
335.57	54.996
335.93	54.500
336.29	53.234
336.66	56.604
337.02	54.833
337.38	55.116
337.75	55.405
338.11	55.781
338.47	54.022
338.84	54.615
339.20	54.372
339.56	55.677
339.93	56.020
340.29	56.218
340.65	56.580
341.02	55.189
341.38	54.105
341.74	55.066
342.11	56.010
342.47	54.881
342.83	57.916
343.20	55.133
343.56	54.488
343.92	55.574
344.28	55.662
344.65	57.294
345.01	55.397
345.37	53.686
345.73	55.000
346.10	55.299
346.46	55.343
346.82	53.009
347.19	56.414
347.55	55.113
347.91	54.909
348.27	54.996
348.63	56.171
349.00	54.760
349.36	56.732
349.72	54.893
350.08	55.745
350.45	54.227
350.81	54.434
351.17	55.239
351.53	55.196
351.89	54.002
352.26	54.800
352.62	55.204
352.98	55.215
353.34	56.163
353.70	54.434
354.07	55.462
354.43	55.991
354.79	54.822
355.15	55.207
355.51	55.363
355.87	55.798
356.24	53.965
356.60	53.957
356.96	55.497
357.32	55.539
357.68	55.433
358.04	56.611
358.40	56.222
358.77	56.799
359.13	55.781
359.49	54.337
359.85	56.069
360.21	55.795
360.57	55.912
360.93	56.782
361.29	55.700
361.66	56.152
362.02	54.474
362.38	55.628
362.74	55.626
363.10	55.961
363.46	54.282
363.82	56.381
364.18	56.259
364.54	56.152
364.90	57.697
365.26	55.795
365.62	55.870
365.98	54.646
366.35	55.655
366.71	56.974
367.07	56.041
367.43	55.675
367.79	55.519
368.15	54.138
368.51	55.686
368.87	55.299
369.23	56.341
369.59	55.226
369.95	56.713
370.31	56.263
370.67	56.072
371.03	54.412
371.39	56.579
371.75	55.478
372.11	55.201
372.47	55.274
372.83	55.676
373.19	56.751
373.55	56.632
373.91	56.561
374.27	55.093
374.63	55.932
374.99	57.075
375.35	56.788
375.71	56.596
376.07	57.095
376.42	54.156
376.78	58.060
377.14	56.881
377.50	56.305
377.86	55.926
378.22	56.734
378.58	57.385
378.94	56.246
379.30	57.247
379.66	56.472
380.02	58.123
380.38	56.792
380.74	56.805
381.09	57.301
381.45	54.971
381.81	56.797
382.17	56.593
382.53	56.329
382.89	56.594
383.25	56.246
383.61	56.138
383.97	56.389
384.32	57.143
384.68	56.863
385.04	56.624
385.40	55.397
385.76	56.349
386.12	56.153
386.48	56.900
386.83	56.357
387.19	57.126
387.55	55.830
387.91	55.716
388.27	56.336
388.62	55.986
388.98	54.810
389.34	55.622
389.70	55.778
390.06	57.744
390.42	55.891
390.77	55.283
391.13	56.608
391.49	54.688
391.85	56.923
392.20	56.138
392.56	55.974
392.92	54.688
393.28	55.998
393.64	55.390
393.99	54.831
394.35	54.620
394.71	55.850
395.07	56.022
395.42	55.679
395.78	56.138
396.14	55.060
396.50	56.679
396.85	55.732
397.21	56.919
397.57	54.931
397.92	54.593
398.28	55.764
398.64	55.963
399.00	54.089
399.35	54.965
399.71	55.298
400.07	54.737
400.42	54.090
400.78	55.367
401.14	55.138
401.49	54.263
401.85	53.534
402.21	53.779
402.57	54.997
402.92	54.667
403.28	53.401
403.63	52.855
403.99	55.006
404.35	54.455
404.70	56.232
405.06	54.127
405.42	54.758
405.77	53.418
406.13	53.416
406.49	53.837
406.84	52.848
407.20	53.539
407.55	54.277
407.91	53.350
408.27	53.002
408.62	54.228
408.98	53.519
409.34	52.484
409.69	53.329
410.05	53.429
410.40	53.357
410.76	52.089
411.11	52.844
411.47	52.963
411.83	52.197
412.18	52.597
412.54	52.432
412.89	52.684
413.25	53.136
413.60	52.044
413.96	53.082
414.31	53.365
414.67	53.818
415.03	53.001
415.38	52.681
415.74	53.316
416.09	52.342
416.45	53.458
416.80	54.137
417.16	52.323
417.51	54.459
417.87	52.879
418.22	53.402
418.58	53.057
418.93	52.350
419.29	52.372
419.64	52.211
420.00	52.983
420.35	52.497
420.71	52.800
421.06	52.796
421.42	52.677
421.77	52.971
422.12	52.922
422.48	52.902
422.83	52.958
423.19	51.836
423.54	51.892
423.90	53.851
424.25	54.430
424.61	53.337
424.96	52.061
425.31	54.023
425.67	54.153
426.02	52.496
426.38	51.692
426.73	53.615
427.09	52.076
427.44	53.123
427.79	54.202
428.15	54.095
428.50	52.171
428.85	53.145
429.21	52.566
429.56	52.443
429.92	53.506
430.27	51.863
430.62	51.346
430.98	51.846
431.33	51.714
431.68	51.704
432.04	50.802
432.39	52.360
432.74	52.459
433.10	52.879
433.45	53.188
433.80	54.716
434.16	52.601
434.51	53.509
434.86	52.314
435.22	52.728
435.57	52.875
435.92	53.899
436.28	53.975
436.63	51.864
436.98	53.209
437.34	51.598
437.69	52.856
438.04	52.688
438.39	53.065
438.75	53.007
439.10	53.103
439.45	52.120
439.81	53.615
440.16	52.614
440.51	52.703
440.86	53.162
441.22	52.543
441.57	52.966
441.92	51.382
442.27	53.711
442.63	52.896
442.98	53.179
443.33	53.294
443.68	53.119
444.03	52.168
444.39	52.872
444.74	53.313
445.09	53.028
445.44	52.869
445.79	52.875
446.15	53.263
446.50	53.323
446.85	53.137
447.20	52.687
447.55	53.018
447.91	53.330
448.26	52.503
448.61	54.450
448.96	52.832
449.31	53.190
449.66	53.765
450.02	52.782
450.37	52.971
450.72	53.333
451.07	52.938
451.42	52.519
451.77	54.238
452.12	53.205
452.47	54.435
452.83	53.746
453.18	53.213
453.53	52.753
453.88	53.314
454.23	52.702
454.58	52.448
454.93	52.728
455.28	54.039
455.63	52.955
455.98	51.889
456.34	53.799
456.69	53.354
457.04	53.222
457.39	52.400
457.74	52.534
458.09	52.386
458.44	52.957
458.79	52.944
459.14	51.882
459.49	52.095
459.84	52.554
460.19	51.695
460.54	51.681
460.89	52.239
461.24	51.031
461.59	53.458
461.94	51.714
462.29	52.059
462.64	51.570
462.99	53.039
463.34	51.393
463.69	53.116
464.04	52.792
464.39	52.662
464.74	50.352
465.09	51.480
465.44	51.306
465.79	51.388
466.14	50.821
466.49	51.167
466.84	51.951
467.19	52.021
467.54	50.210
467.89	51.585
468.24	51.998
468.59	51.488
468.94	51.630
469.29	51.069
469.64	51.190
469.99	51.478
470.34	51.044
470.68	50.207
471.03	51.901
471.38	50.993
471.73	50.490
472.08	51.924
472.43	51.086
472.78	51.408
473.13	51.001
473.48	50.856
473.83	50.177
474.17	50.942
474.52	50.889
474.87	51.336
475.22	51.285
475.57	50.000
475.92	49.515
476.27	49.347
476.61	51.099
476.96	49.060
477.31	51.568
477.66	51.261
478.01	49.510
478.36	50.103
478.70	48.983
479.05	50.680
479.40	50.298
479.75	49.404
480.10	49.952
480.45	48.926
480.79	48.848
481.14	49.406
481.49	49.954
481.84	49.252
482.19	49.301
482.53	48.573
482.88	48.925
483.23	48.760
483.58	50.045
483.92	50.137
484.27	48.373
484.62	49.151
484.97	48.656
485.31	48.029
485.66	48.656
486.01	48.698
486.36	48.128
486.70	47.772
487.05	47.919
487.40	47.697
487.75	48.418
488.09	47.841
488.44	48.184
488.79	47.761
489.13	48.451
489.48	48.022
489.83	47.164
490.17	46.656
490.52	48.450
490.87	47.629
491.22	47.739
491.56	48.265
491.91	47.267
492.26	47.038
492.60	48.519
492.95	47.395
493.30	47.316
493.64	46.990
493.99	47.272
494.34	47.199
494.68	46.923
495.03	47.912
495.37	47.186
495.72	47.319
496.07	47.799
496.41	46.003
496.76	46.729
497.11	46.744
497.45	46.822
497.80	46.571
498.14	47.342
498.49	46.332
498.84	46.822
499.18	45.247
499.53	47.129
499.87	46.721
500.22	46.476
500.56	46.936
500.91	46.800
501.26	47.083
501.60	46.676
501.95	46.729
502.29	45.733
502.64	46.096
502.98	46.421
503.33	46.192
503.67	46.976
504.02	45.589
504.36	45.113
504.71	47.351
505.06	45.706
505.40	46.607
505.75	45.136
506.09	46.290
506.44	45.113
506.78	45.983
507.13	46.340
507.47	46.288
507.82	47.153
508.16	46.889
508.51	46.329
508.85	45.109
509.19	46.353
509.54	45.313
509.88	45.400
510.23	45.833
510.57	44.208
510.92	45.654
511.26	44.629
511.61	45.446
511.95	45.694
512.30	44.450
512.64	44.237
512.98	44.439
513.33	45.082
513.67	44.899
514.02	46.026
514.36	44.912
514.70	45.173
515.05	44.859
515.39	45.395
515.74	45.544
516.08	44.989
516.42	47.322
516.77	44.213
517.11	44.107
517.46	44.343
517.80	45.057
518.14	45.746
518.49	44.267
518.83	43.846
519.17	45.258
519.52	44.566
519.86	44.523
520.20	44.110
520.55	43.923
520.89	44.138
521.23	45.210
521.58	43.775
521.92	44.665
522.26	44.668
522.61	43.256
522.95	44.384
523.29	45.322
523.64	42.948
523.98	44.894
524.32	42.849
524.66	45.449
525.01	43.787
525.35	43.194
525.69	44.371
526.04	44.735
526.38	43.496
526.72	43.019
527.06	43.525
527.41	44.982
527.75	43.335
528.09	42.324
528.43	43.624
528.78	43.113
529.12	45.274
529.46	43.600
529.80	43.867
530.15	43.076
530.49	43.803
530.83	43.023
531.17	41.943
531.51	44.022
531.86	42.814
532.20	41.595
532.54	44.256
532.88	42.473
533.22	43.144
533.57	43.563
533.91	42.483
534.25	40.912
534.59	43.333
534.93	42.548
535.27	40.524
535.62	42.357
535.96	41.489
536.30	43.388
536.64	42.484
536.98	41.410
537.32	41.625
537.66	42.411
538.01	42.043
538.35	43.231
538.69	41.262
539.03	41.418
539.37	41.687
539.71	42.222
540.05	42.215
540.39	43.396
540.73	42.215
541.07	41.970
541.42	41.418
541.76	41.739
542.10	41.985
542.44	41.521
542.78	41.661
543.12	40.982
543.46	42.293
543.80	42.043
544.14	41.115
544.48	41.119
544.82	41.835
545.16	40.437
545.50	42.225
545.84	41.035
546.18	42.003
546.52	41.049
546.86	41.651
547.20	40.827
547.54	41.609
547.88	40.511
548.22	40.559
548.56	39.364
548.90	40.391
549.24	41.567
549.58	41.108
549.92	40.079
550.26	41.176
550.60	40.985
550.94	42.266
551.28	40.345
551.62	42.138
551.96	40.203
552.30	40.079
552.64	41.489
552.98	39.497
553.32	39.629
553.66	40.521
554.00	40.219
554.34	41.345
554.68	40.390
555.02	39.986
555.36	39.362
555.69	40.772
556.03	39.363
556.37	39.898
556.71	40.352
557.05	39.253
557.39	38.067
557.73	39.960
558.07	40.107
558.41	40.027
558.75	39.466
559.08	39.671
559.42	40.086
559.76	39.416
560.10	39.298
560.44	38.885
560.78	39.898
561.12	39.987
561.45	38.986
561.79	39.201
562.13	40.114
562.47	38.546
562.81	38.256
563.15	39.496
563.48	38.137
563.82	40.299
564.16	40.236
564.50	38.035
564.84	38.480
565.17	38.503
565.51	39.963
565.85	39.790
566.19	38.452
566.52	38.508
566.86	39.755
567.20	39.494
567.54	39.356
567.88	39.802
568.21	38.293
568.55	38.424
568.89	38.823
569.23	38.395
569.56	39.297
569.90	38.017
570.24	38.671
570.57	38.936
570.91	37.847
571.25	37.752
571.59	38.043
571.92	37.325
572.26	36.954
572.60	37.906
572.93	38.327
573.27	38.168
573.61	37.683
573.95	38.098
574.28	38.100
574.62	37.774
574.96	38.042
575.29	37.378
575.63	37.503
575.97	36.977
576.30	36.750
576.64	37.460
576.98	37.311
577.31	38.298
577.65	37.818
577.98	37.502
578.32	37.301
578.66	37.422
578.99	37.466
579.33	37.664
579.67	37.018
580.00	37.698
580.34	36.790
580.67	36.510
581.01	37.569
581.35	36.673
581.68	37.161
582.02	37.146
582.35	36.942
582.69	37.193
583.02	36.954
583.36	36.659
583.70	37.192
584.03	37.509
584.37	37.456
584.70	37.049
585.04	36.640
585.37	36.474
585.71	37.281
586.04	36.446
586.38	37.108
586.72	36.293
587.05	36.413
587.39	36.839
587.72	36.887
588.06	36.727
588.39	36.822
588.73	37.074
589.06	37.409
589.40	37.027
589.73	36.676
590.07	37.749
590.40	37.143
590.73	37.679
591.07	36.546
591.40	36.128
591.74	37.094
592.07	35.607
592.41	37.170
592.74	35.958
593.08	35.645
593.41	36.625
593.75	36.018
594.08	35.602
594.41	36.266
594.75	35.205
595.08	36.214
595.42	35.780
595.75	35.308
596.09	36.427
596.42	36.052
596.75	36.579
597.09	36.071
597.42	35.306
597.75	35.903
598.09	35.125
598.42	35.414
598.76	35.775
599.09	36.410
599.42	35.433
599.76	35.244
600.09	34.712
600.42	35.497
600.76	35.350
601.09	35.589
601.42	34.952
601.76	35.231
602.09	36.093
602.42	34.529
602.76	35.066
603.09	35.709
603.42	35.229
603.76	35.249
604.09	35.252
604.42	34.765
604.76	35.362
605.09	34.816
605.42	35.230
605.75	34.189
606.09	34.927
606.42	34.573
606.75	34.940
607.09	34.702
607.42	34.512
607.75	34.315
608.08	34.728
608.42	34.522
608.75	33.547
609.08	34.448
609.41	35.455
609.75	35.211
610.08	35.072
610.41	34.870
610.74	35.411
611.07	34.516
611.41	35.310
611.74	35.468
612.07	34.875
612.40	34.649
612.73	34.698
613.07	35.428
613.40	34.436
613.73	33.949
614.06	34.100
614.39	34.747
614.72	33.099
615.06	33.284
615.39	34.208
615.72	33.785
616.05	34.606
616.38	33.130
616.71	34.292
617.05	33.828
617.38	34.663
617.71	34.364
618.04	33.988
618.37	33.852
618.70	33.025
619.03	33.700
619.36	33.920
619.69	34.235
620.03	35.616
620.36	35.196
620.69	34.483
621.02	34.035
621.35	33.309
621.68	34.071
622.01	35.203
622.34	32.484
622.67	33.989
623.00	34.854
623.33	32.726
623.66	32.402
623.99	32.877
624.32	34.079
624.65	33.904
624.99	35.227
625.32	33.935
625.65	32.897
625.98	32.845
626.31	34.570
626.64	31.967
626.97	32.670
627.30	33.230
627.63	33.124
627.96	33.255
628.29	33.416
628.62	33.105
628.95	32.890
629.28	34.706
629.61	32.689
629.94	33.362
630.26	33.622
630.59	33.511
630.92	33.453
631.25	32.910
631.58	33.848
631.91	33.492
632.24	34.208
632.57	31.139
632.90	33.954
633.23	33.158
633.56	33.404
633.89	32.154
634.22	34.446
634.55	31.935
634.88	31.654
635.20	33.408
635.53	34.379
635.86	32.438
636.19	32.323
636.52	32.108
636.85	32.470
637.18	33.044
637.51	31.955
637.83	31.579
638.16	32.825
638.49	33.413
638.82	32.746
639.15	33.373
639.48	33.531
639.81	33.455
640.13	32.761
640.46	33.628
640.79	33.290
641.12	32.152
641.45	32.471
641.77	31.572
642.10	31.727
642.43	32.148
642.76	33.807
643.09	32.421
643.41	32.819
643.74	31.942
644.07	34.366
644.40	31.509
644.73	31.682
645.05	35.661
645.38	33.844
645.71	34.598
646.04	33.435
646.36	32.394
646.69	32.640
647.02	33.920
647.35	30.709
647.67	30.146
648.00	31.922
648.33	31.729
648.66	31.364
648.98	33.478
649.31	32.524
649.64	31.674
649.96	32.575
650.29	31.143
650.62	32.695
650.94	33.133
651.27	33.014
651.60	32.238
651.92	32.719
652.25	33.858
652.58	32.057
652.90	32.036
653.23	31.905
653.56	31.899
653.88	31.571
654.21	32.551
654.54	31.479
654.86	31.711
655.19	32.190
655.52	30.068
655.84	28.514
656.17	34.159
656.49	49.100
656.82	56.251
657.15	44.753
657.47	33.712
657.80	25.106
658.13	19.781
658.45	26.992
658.78	31.987
659.10	32.811
659.43	32.345
659.75	33.216
660.08	33.521
660.41	32.849
660.73	33.626
661.06	31.231
661.38	33.390
661.71	31.295
662.03	32.129
662.36	30.476
662.68	29.609
663.01	30.991
663.33	30.377
663.66	32.347
663.98	30.159
664.31	33.769
664.63	32.375
664.96	34.334
665.28	30.132
665.61	31.321
665.93	30.189
666.26	34.393
666.58	32.477
666.91	33.205
667.23	32.932
667.56	32.854
667.88	33.610
668.21	30.943
668.53	32.056
668.86	33.066
669.18	30.754
669.50	33.264
669.83	36.345
670.15	30.353
670.48	27.344
670.80	31.076
671.13	33.466
671.45	31.263
671.77	30.612
672.10	32.675
672.42	30.592
672.75	33.228
673.07	33.863
673.39	30.351
673.72	32.699
674.04	32.616
674.37	33.031
674.69	29.926
675.01	31.716
675.34	28.488
675.66	33.203
675.98	30.375
676.31	31.600
676.63	29.821
676.95	31.349
677.28	29.817
677.60	32.596
677.92	30.952
678.25	32.946
678.57	31.471
678.89	34.539
679.22	33.824
679.54	31.139
679.86	32.112
680.18	31.810
680.51	31.177
680.83	30.236
681.15	32.236
681.48	31.944
681.80	27.671
682.12	31.834
682.44	28.468
682.77	32.562
683.09	31.456
683.41	33.265
683.73	31.693
684.06	32.143
684.38	32.946
684.70	29.137
685.02	30.035
685.34	30.106
685.67	32.315
685.99	30.870
686.31	31.895
686.63	31.382
686.96	30.556
687.28	30.537
687.60	30.546
687.92	30.151
688.24	31.724
688.56	31.495
688.89	29.637
689.21	31.214
689.53	31.423
689.85	30.081
690.17	32.039
690.49	31.048
690.82	31.933
691.14	30.707
691.46	33.060
691.78	32.359
692.10	32.061
692.42	30.853
692.74	31.008
693.06	29.845
693.39	31.423
693.71	30.452
694.03	34.517
694.35	32.932
694.67	29.532
694.99	28.825
695.31	30.180
695.63	33.032
695.95	31.674
696.27	32.743
696.59	31.265
696.91	33.671
697.23	34.163
697.56	28.216
697.88	29.741
698.20	30.000
698.52	32.490
698.84	33.060
699.16	33.689
699.48	31.992
699.80	33.333
700.12	35.566
700.44	30.140
700.76	30.788
701.08	31.070
701.40	30.390
701.72	35.561
702.04	35.501
702.36	32.258
702.68	35.638
703.00	31.579
703.32	30.521
703.64	35.264
703.96	33.594
704.28	34.392
704.60	32.113
704.91	33.613
705.23	34.375
705.55	35.608
705.87	31.746
706.19	31.975
706.51	35.423
706.83	30.383
707.15	38.503
707.47	32.446
707.79	35.172
708.11	32.200
708.43	32.809
708.74	31.448
709.06	30.698
709.38	35.980
709.70	32.153
710.02	34.239
710.34	33.978
710.66	32.778
710.98	34.426
711.29	30.641
711.61	34.540
711.93	29.179
712.25	30.422
712.57	35.691
712.89	34.848
713.20	31.949
713.52	34.891
713.84	34.743
714.16	31.304
714.48	27.089
714.80	31.978
715.11	30.053
715.43	32.123
715.75	32.958
716.07	32.370
716.39	34.571
716.70	32.087
717.02	34.007
717.34	37.410
717.66	35.764
717.97	40.530
718.29	36.268
718.61	31.081
718.93	33.218
719.24	34.899
719.56	33.448
719.88	30.892
720.20	31.935
720.51	33.333
720.83	34.114
721.15	37.075
721.46	38.356
721.78	35.540
722.10	32.639
722.42	38.462
722.73	37.184
723.05	35.439
723.37	41.696
723.68	35.938
724.00	34.091
724.32	33.840
724.63	37.692
724.95	37.255
725.27	34.201
725.58	33.824
725.90	31.338
726.22	36.301
726.53	35.452
726.85	36.156
727.16	34.228
727.48	34.884
727.80	37.770
728.11	33.214
728.43	34.058
728.74	33.217
729.06	34.767
729.38	36.842
729.69	39.667
730.01	39.145
730.32	34.564
730.64	32.558
730.96	34.234
731.27	32.416
731.59	31.322
731.90	33.426
732.22	36.857
732.53	31.624
732.85	34.503
733.16	31.024
733.48	36.677
733.80	34.203
734.11	36.810
734.43	32.456
734.74	34.584
735.06	33.862
735.37	34.021
735.69	31.304
736.00	34.557
736.32	31.212
736.63	30.599
736.95	31.366
737.26	38.415
737.58	35.276
737.89	38.253
738.21	31.126
738.52	34.114
738.83	36.264
739.15	35.540
739.46	37.931
739.78	39.116
740.09	35.860
740.41	35.276
740.72	34.603
741.04	35.664
741.35	35.156
741.66	33.202
741.98	36.481
742.29	36.574
742.61	32.743
742.92	37.288
743.23	30.800
743.55	34.340
743.86	34.902
744.18	31.356
744.49	35.124
744.80	33.180
745.12	35.714
745.43	37.850
745.74	40.444
746.06	34.649
746.37	37.674
746.68	39.381
747.00	40.807
747.31	33.613
747.62	32.377
747.94	37.339
748.25	36.965
748.56	38.983
748.88	37.054
749.19	39.535
749.50	39.269
749.82	40.741
750.13	36.759
750.44	31.333
750.75	37.919
751.07	34.539
751.38	36.304
751.69	33.333
752.01	34.615
752.32	31.894
752.63	31.879
752.94	35.664
753.26	34.375
753.57	38.132
753.88	32.959
754.19	32.852
754.51	34.884
754.82	35.570
755.13	28.716
755.44	39.259
755.75	38.144
756.07	35.274
756.38	31.046
756.69	31.875
757.00	35.608
757.31	35.775
757.63	32.231
757.94	31.915
758.25	31.643
758.56	32.037
758.87	35.088
759.18	33.721
759.50	31.307
759.81	34.421
760.12	33.989
760.43	33.053
760.74	31.139
761.05	31.034
761.36	32.292
761.67	35.580
761.99	38.310
762.30	34.084
762.61	31.944
762.92	37.879
763.23	35.472
763.54	35.769
763.85	32.685
764.16	36.111
764.47	33.784
764.78	32.248
765.10	31.707
765.41	32.955
765.72	32.320
766.03	32.931
766.34	34.843
766.65	35.741
766.96	36.842
767.27	39.252
767.58	42.574
767.89	43.646
768.20	41.463
768.51	40.816
768.82	37.281
769.13	35.294
769.44	33.835
769.75	36.330
770.06	33.613
770.37	32.018
770.68	35.556
770.99	36.864
771.30	40.167
771.61	38.077
771.92	38.168
772.23	33.065
772.54	41.333
772.85	46.040
773.16	38.043
773.47	38.333
773.78	42.079
774.09	42.045
774.39	35.152
774.70	38.235
775.01	37.500
775.32	41.615
775.63	46.575
775.94	53.086
776.25	51.034
776.56	48.092
776.87	47.328
777.18	43.939
777.48	54.331
777.79	52.308
778.10	42.424
778.41	37.313
778.72	42.857
779.03	43.590
779.34	38.514
779.65	45.963
779.95	44.099
780.26	44.048
780.57	54.422
780.88	48.936
781.19	48.333
781.50	42.604
781.80	36.612
782.11	38.624
782.42	41.954
782.73	46.328
783.04	44.516
783.34	48.837
783.65	40.136
783.96	38.065
784.27	45.033
784.57	41.447
784.88	48.551
785.19	45.833
785.50	51.724
785.81	64.341
786.11	40.741
786.42	46.457
786.73	51.351
787.04	58.491
787.34	39.837
787.65	53.030
787.96	46.970
788.26	49.606
788.57	52.555
788.88	47.183
789.19	45.038
789.49	52.703
789.80	42.188
790.11	49.587
790.41	50.926
790.72	54.630
791.03	58.654
791.33	58.586
791.64	56.842
791.95	57.895
792.25	60.417
792.56	53.000
792.87	71.951
793.17	56.818
793.48	64.706
793.79	58.621
794.09	61.364
794.40	59.483
794.70	55.556
795.01	48.462
795.32	51.145
795.62	47.863
795.93	47.899
796.23	57.724
796.54	55.102
796.85	51.136
797.15	72.727
797.46	67.073
797.76	52.500
798.07	69.333
798.37	57.500
798.68	80.000
798.99	71.951
799.29	60.000
799.60	50.000
799.90	67.105
800.21	66.667
800.51	66.197
800.82	72.414
801.12	70.769
801.43	85.333
801.73	68.966
802.04	59.740
802.34	67.123
802.65	76.471
802.95	86.957
803.26	79.032
803.56	83.333
803.87	82.090
804.17	73.016
804.48	81.132
804.78	59.722
805.09	72.727
805.39	55.556
805.70	70.175
806.00	57.143
806.30	75.000
806.61	61.176
806.91	66.667
807.22	59.783
807.52	53.947
807.83	78.947
808.13	65.217
808.43	74.194
808.74	63.014
809.04	75.000
809.35	75.000
809.65	71.212
809.95	88.235
810.26	90.741
810.56	76.562
810.86	95.918
811.17	87.719
811.47	91.304
811.77	94.828
812.08	84.483
812.38	88.095
812.69	78.571
812.99	77.778
813.29	100.000
813.59	154.839
813.90	65.517
814.20	93.443
814.50	100.000
814.81	77.193
815.11	96.296
815.41	89.286
815.72	110.714
816.02	92.000
816.32	114.634
816.62	79.310
816.93	118.182
817.23	100.000
817.53	101.786
817.84	108.889
818.14	107.143
818.44	89.583
818.74	90.566
819.04	66.667
819.35	115.152
819.65	88.462
819.95	122.222
820.25	112.766
820.56	127.027
820.86	92.105
821.16	68.085
821.46	123.684
821.76	94.545
822.07	107.143
822.37	113.158
822.67	102.326
822.97	94.737
823.27	91.304
823.57	96.875
823.88	107.692
824.18	106.061
824.48	143.478
824.78	86.111
825.08	108.696
825.38	151.724
825.69	108.824
825.99	76.596
826.29	119.444
826.59	128.571
826.89	113.333
827.19	80.000
827.49	145.161
827.79	111.538
828.09	97.619
828.39	94.444
828.70	81.081
829.00	146.429
829.30	193.750
829.60	100.000
829.90	119.355
830.20	109.091
830.50	124.324
830.80	137.500
831.10	157.692
831.40	147.619
831.70	141.667
832.00	133.333
832.30	152.174
832.60	183.333
832.90	142.424
833.20	215.000
833.50	150.000
833.80	111.765
834.10	100.000
834.40	78.947
834.70	96.667
835.00	144.000
835.30	105.405
835.60	121.875
835.90	135.135
836.20	192.308
836.50	122.727
836.80	100.000
837.10	130.435
837.40	292.308
837.70	121.053
838.00	116.667
838.30	175.000
838.60	160.000
838.90	210.000
839.19	162.500
839.49	170.000
839.79	148.276
840.09	157.692
840.39	180.000
840.69	168.421
840.99	142.857
841.29	200.000
841.59	160.000
841.88	140.000
842.18	333.333
842.48	150.000
842.78	140.741
843.08	223.077
843.38	172.727
843.68	221.429
843.97	428.571
844.27	160.870
844.57	1400.000
844.87	292.857
845.17	255.556
845.47	147.619
845.76	133.333
846.06	600.000
846.36	247.059
846.66	261.538
846.96	231.250
847.25	215.385
847.55	205.263
847.85	194.444
848.15	620.000
848.44	318.182
848.74	209.524
849.04	204.167
849.34	235.294
849.63	243.750
849.93	262.500
850.23	1233.333
850.53	337.500
850.82	236.364
851.12	194.118
851.42	166.667
851.71	275.000
852.01	0.000
852.31	229.412
852.61	340.000
852.90	125.000
853.20	322.222
853.50	-1700.000
853.79	124.000
854.09	137.500
854.39	127.586
854.68	162.069
854.98	204.762
855.28	119.355
855.57	264.286
855.87	194.444
856.17	170.370
856.46	178.947
856.76	148.387
857.05	247.059
857.35	309.091
857.65	230.769
857.94	130.000
858.24	355.556
858.53	307.143
858.83	614.286
859.13	182.609
859.42	333.333
859.72	450.000
860.01	225.000
860.31	650.000
860.60	460.000
860.90	425.000
861.20	253.846
861.49	385.714
861.79	-2500.000
862.08	542.857
862.38	288.889
862.67	178.571
862.97	370.000
863.26	140.000
863.56	775.000
863.85	292.308
864.15	264.706
864.44	227.778
864.74	308.333
865.03	245.455
865.33	462.500
865.62	233.333
865.92	466.667
866.21	950.000
866.51	720.000
866.80	216.667
867.10	1300.000
867.39	2800.000
867.69	620.000
867.98	900.000
868.27	171.429
868.57	240.000
868.86	925.000
869.16	161.905
869.45	2900.000
869.75	-466.667
870.04	900.000
870.33	740.000
870.63	487.500
870.92	241.176
871.22	775.000
871.51	514.286
871.80	350.000
872.10	346.154
>>>>>End Processed Spectral Data<<<<<
