SpectraSuite Data File
++++++++++++++++++++++++++++++++++++
Date: Wed May 13 21:47:28 PDT 2015
User: schluterlab
Dark Spectrum Present: Yes
Reference Spectrum Present: Yes
Number of Sampled Component Spectra: 1
Spectrometers: USB2E3373
Integration Time (usec): 3000 (USB2E3373)
Spectra Averaged: 3 (USB2E3373)
Boxcar Smoothing: 0 (USB2E3373)
Correct for Electrical Dark: No (USB2E3373)
Strobe/Lamp Enabled: No (USB2E3373)
Correct for Detector Non-linearity: No (USB2E3373)
Correct for Stray Light: No (USB2E3373)
Number of Pixels in Processed Spectrum: 2048
>>>>>Begin Processed Spectral Data<<<<<
178.53	0.000
178.91	750.000
179.29	150.000
179.67	-650.000
180.04	-400.000
180.42	160.000
180.80	1000.000
181.18	166.667
181.56	-300.000
181.94	-325.000
182.31	63.636
182.69	176.923
183.07	-320.000
183.45	333.333
183.83	166.667
184.20	157.143
184.58	-66.667
184.96	366.667
185.34	214.286
185.72	0.000
186.09	200.000
186.47	-180.000
186.85	60.000
187.23	-350.000
187.61	400.000
187.98	600.000
188.36	-125.000
188.74	0.000
189.12	-27.273
189.49	50.000
189.87	100.000
190.25	420.000
190.63	900.000
191.00	-140.000
191.38	400.000
191.76	150.000
192.14	141.667
192.51	-21.053
192.89	600.000
193.27	225.000
193.65	-180.000
194.02	181.818
194.40	210.000
194.78	-100.000
195.15	140.000
195.53	-120.000
195.91	0.000
196.29	-66.667
196.66	0.000
197.04	650.000
197.42	200.000
197.79	40.000
198.17	-212.500
198.55	-366.667
198.92	75.000
199.30	-433.333
199.68	-40.000
200.05	-150.000
200.43	250.000
200.81	-800.000
201.18	-100.000
201.56	-66.667
201.94	550.000
202.31	8.696
202.69	-42.857
203.07	-500.000
203.44	0.000
203.82	-366.667
204.19	-10.000
204.57	0.000
204.95	33.333
205.32	0.000
205.70	-350.000
206.08	-200.000
206.45	133.333
206.83	500.000
207.20	-400.000
207.58	-80.000
207.96	-2200.000
208.33	-257.143
208.71	-1700.000
209.08	150.000
209.46	550.000
209.84	0.000
210.21	130.000
210.59	600.000
210.96	380.000
211.34	400.000
211.71	-850.000
212.09	-50.000
212.46	-80.000
212.84	33.333
213.22	-25.000
213.59	-600.000
213.97	-450.000
214.34	-200.000
214.72	-23.077
215.09	225.000
215.47	155.556
215.84	500.000
216.22	0.000
216.59	-150.000
216.97	666.667
217.34	88.889
217.72	0.000
218.09	200.000
218.47	-1100.000
218.84	-14.286
219.22	-87.500
219.59	-500.000
219.97	-125.000
220.34	12.500
220.72	-180.000
221.09	0.000
221.47	-150.000
221.84	-1400.000
222.22	0.000
222.59	800.000
222.97	-66.667
223.34	41.667
223.72	-800.000
224.09	-200.000
224.46	-27.273
224.84	-87.500
225.21	-28.571
225.59	-75.000
225.96	-16.667
226.34	-50.000
226.71	-100.000
227.08	300.000
227.46	-100.000
227.83	200.000
228.21	-25.000
228.58	-100.000
228.95	17.647
229.33	25.000
229.70	-100.000
230.08	-46.154
230.45	12.500
230.82	-83.333
231.20	128.571
231.57	-25.000
231.95	1700.000
232.32	16.667
232.69	41.176
233.07	-1100.000
233.44	-26.087
233.81	-300.000
234.19	37.500
234.56	-46.667
234.93	20.000
235.31	47.368
235.68	-69.231
236.05	30.769
236.43	-5.556
236.80	3.030
237.17	33.333
237.55	-17.647
237.92	20.690
238.29	3.704
238.67	-11.111
239.04	16.129
239.41	-4.255
239.79	51.064
240.16	27.907
240.53	28.571
240.91	32.143
241.28	35.714
241.65	43.548
242.02	26.316
242.40	39.130
242.77	30.435
243.14	32.051
243.51	38.298
243.89	46.154
244.26	48.113
244.63	35.577
245.00	61.458
245.38	35.294
245.75	43.443
246.12	36.842
246.49	34.146
246.87	26.050
247.24	36.486
247.61	36.424
247.98	34.615
248.36	37.870
248.73	34.831
249.10	40.404
249.47	42.473
249.84	42.105
250.22	41.791
250.59	42.991
250.96	46.364
251.33	38.756
251.70	43.096
252.08	42.259
252.45	42.798
252.82	42.966
253.19	36.965
253.56	40.647
253.94	37.011
254.31	41.549
254.68	39.597
255.05	43.234
255.42	40.559
255.79	41.104
256.16	37.224
256.54	41.270
256.91	41.456
257.28	38.679
257.65	33.758
258.02	37.537
258.39	43.567
258.76	37.209
259.14	36.932
259.51	41.854
259.88	41.192
260.25	41.111
260.62	43.539
260.99	45.358
261.36	44.041
261.73	40.247
262.10	41.476
262.47	40.000
262.85	40.796
263.22	43.846
263.59	43.377
263.96	39.903
264.33	39.183
264.70	42.791
265.07	40.741
265.44	42.989
265.81	40.732
266.18	43.280
266.55	40.611
266.92	40.890
267.29	39.918
267.66	41.401
268.03	40.947
268.40	38.347
268.77	40.083
269.14	43.265
269.51	45.791
269.88	39.511
270.25	41.737
270.62	42.623
270.99	40.551
271.36	40.675
271.73	41.968
272.10	43.619
272.47	46.065
272.84	40.157
273.21	37.965
273.58	43.238
273.95	39.057
274.32	41.418
274.69	41.348
275.06	42.403
275.43	42.561
275.80	41.312
276.17	40.516
276.54	37.300
276.91	39.024
277.28	40.975
277.65	41.608
278.02	39.107
278.39	38.188
278.76	40.803
279.13	40.137
279.50	41.552
279.87	38.768
280.23	41.441
280.60	39.446
280.97	38.636
281.34	42.271
281.71	38.374
282.08	38.974
282.45	40.820
282.82	42.173
283.19	39.024
283.56	40.000
283.92	40.673
284.29	40.874
284.66	40.198
285.03	39.739
285.40	37.311
285.77	39.640
286.14	40.578
286.51	41.679
286.87	42.308
287.24	37.463
287.61	39.759
287.98	40.147
288.35	39.046
288.72	37.590
289.08	38.746
289.45	38.767
289.82	40.545
290.19	40.813
290.56	37.500
290.93	38.536
291.29	37.073
291.66	38.661
292.03	39.373
292.40	38.223
292.77	38.956
293.13	40.725
293.50	40.523
293.87	38.933
294.24	38.228
294.60	39.012
294.97	39.021
295.34	39.446
295.71	37.451
296.08	36.911
296.44	39.413
296.81	37.515
297.18	38.750
297.55	39.151
297.91	40.124
298.28	39.588
298.65	38.793
299.02	39.560
299.38	39.877
299.75	39.062
300.12	38.023
300.48	40.117
300.85	40.531
301.22	39.837
301.59	40.258
301.95	40.186
302.32	38.156
302.69	40.339
303.05	39.203
303.42	40.909
303.79	38.906
304.15	40.964
304.52	41.935
304.89	41.639
305.25	40.615
305.62	41.215
305.99	43.090
306.35	43.469
306.72	41.709
307.09	41.397
307.45	42.492
307.82	42.211
308.19	42.215
308.55	42.989
308.92	43.811
309.29	43.844
309.65	42.857
310.02	43.439
310.38	46.037
310.75	43.491
311.12	44.898
311.48	44.906
311.85	44.783
312.22	47.292
312.58	45.507
312.95	46.965
313.31	46.097
313.68	45.897
314.05	46.975
314.41	47.454
314.78	47.913
315.14	49.074
315.51	48.430
315.87	48.563
316.24	50.138
316.61	50.959
316.97	50.370
317.34	49.911
317.70	51.829
318.07	50.754
318.43	53.297
318.80	51.222
319.16	51.459
319.53	52.509
319.89	52.936
320.26	54.067
320.62	53.475
320.99	53.391
321.35	54.911
321.72	54.475
322.08	55.535
322.45	56.429
322.81	59.427
323.18	56.530
323.54	58.213
323.91	58.266
324.27	60.396
324.64	60.279
325.00	59.843
325.37	60.410
325.73	60.017
326.10	60.723
326.46	62.291
326.83	63.592
327.19	64.228
327.56	65.270
327.92	64.280
328.29	66.027
328.65	66.258
329.01	65.259
329.38	67.391
329.74	65.322
330.11	67.899
330.47	66.059
330.84	68.773
331.20	66.439
331.56	68.478
331.93	68.562
332.29	67.159
332.66	66.102
333.02	67.420
333.38	69.035
333.75	67.150
334.11	68.924
334.48	69.398
334.84	67.668
335.20	68.782
335.57	67.711
335.93	68.643
336.29	67.863
336.66	67.692
337.02	66.783
337.38	67.015
337.75	67.270
338.11	68.318
338.47	67.979
338.84	66.581
339.20	69.665
339.56	67.747
339.93	68.366
340.29	69.001
340.65	67.665
341.02	67.138
341.38	69.088
341.74	68.571
342.11	68.291
342.47	67.531
342.83	68.627
343.20	68.782
343.56	66.803
343.92	67.019
344.28	69.237
344.65	68.082
345.01	67.877
345.37	68.914
345.73	68.954
346.10	67.095
346.46	66.829
346.82	67.175
347.19	68.038
347.55	68.659
347.91	68.122
348.27	67.981
348.63	68.670
349.00	68.082
349.36	66.641
349.72	66.589
350.08	67.239
350.45	66.327
350.81	67.684
351.17	67.821
351.53	67.871
351.89	67.593
352.26	66.950
352.62	67.829
352.98	67.812
353.34	70.129
353.70	67.523
354.07	66.902
354.43	67.185
354.79	67.869
355.15	66.925
355.51	66.970
355.87	68.413
356.24	66.693
356.60	67.084
356.96	67.767
357.32	66.176
357.68	68.144
358.04	66.718
358.40	67.519
358.77	67.278
359.13	68.016
359.49	66.389
359.85	68.234
360.21	68.543
360.57	67.300
360.93	67.375
361.29	68.320
361.66	66.819
362.02	67.457
362.38	67.430
362.74	66.425
363.10	66.739
363.46	67.291
363.82	67.554
364.18	66.570
364.54	66.667
364.90	66.760
365.26	65.039
365.62	67.330
365.98	67.829
366.35	66.170
366.71	66.334
367.07	67.257
367.43	67.108
367.79	67.130
368.15	67.792
368.51	64.627
368.87	67.620
369.23	66.975
369.59	66.385
369.95	67.562
370.31	65.411
370.67	65.677
371.03	68.077
371.39	67.566
371.75	66.500
372.11	66.595
372.47	66.763
372.83	66.852
373.19	66.547
373.55	66.113
373.91	65.417
374.27	65.560
374.63	66.927
374.99	65.669
375.35	66.233
375.71	66.101
376.07	66.484
376.42	64.706
376.78	67.768
377.14	67.322
377.50	66.754
377.86	66.268
378.22	64.981
378.58	65.574
378.94	66.625
379.30	66.271
379.66	64.858
380.02	66.360
380.38	65.482
380.74	68.141
381.09	64.958
381.45	65.659
381.81	65.003
382.17	64.461
382.53	65.354
382.89	65.561
383.25	65.185
383.61	65.012
383.97	64.625
384.32	65.532
384.68	64.713
385.04	64.264
385.40	65.380
385.76	65.085
386.12	65.655
386.48	64.389
386.83	63.955
387.19	64.590
387.55	64.378
387.91	65.375
388.27	64.427
388.62	65.543
388.98	66.208
389.34	64.035
389.70	63.736
390.06	64.500
390.42	63.789
390.77	63.549
391.13	64.583
391.49	63.125
391.85	62.875
392.20	62.155
392.56	63.619
392.92	63.839
393.28	62.870
393.64	63.853
393.99	62.179
394.35	62.778
394.71	64.038
395.07	62.704
395.42	64.595
395.78	62.934
396.14	63.412
396.50	62.016
396.85	64.436
397.21	62.859
397.57	62.112
397.92	61.198
398.28	62.380
398.64	61.870
399.00	61.328
399.35	63.167
399.71	61.852
400.07	60.843
400.42	62.947
400.78	61.631
401.14	61.987
401.49	61.714
401.85	62.101
402.21	62.229
402.57	62.538
402.92	62.203
403.28	62.101
403.63	60.508
403.99	61.804
404.35	62.344
404.70	60.000
405.06	62.361
405.42	60.113
405.77	59.793
406.13	60.629
406.49	59.796
406.84	62.088
407.20	60.509
407.55	59.481
407.91	59.960
408.27	60.075
408.62	58.625
408.98	58.755
409.34	60.953
409.69	61.209
410.05	59.266
410.40	58.551
410.76	59.928
411.11	59.453
411.47	60.385
411.83	60.387
412.18	59.635
412.54	58.333
412.89	58.495
413.25	58.053
413.60	60.125
413.96	58.801
414.31	59.063
414.67	58.730
415.03	59.946
415.38	59.643
415.74	59.714
416.09	59.683
416.45	59.467
416.80	60.067
417.16	59.919
417.51	59.143
417.87	59.987
418.22	59.599
418.58	58.081
418.93	58.569
419.29	59.076
419.64	57.570
420.00	59.683
420.35	58.338
420.71	57.587
421.06	59.840
421.42	59.793
421.77	59.017
422.12	60.057
422.48	56.870
422.83	59.067
423.19	58.769
423.54	58.245
423.90	58.492
424.25	59.445
424.61	58.595
424.96	58.782
425.31	56.983
425.67	59.788
426.02	59.482
426.38	59.204
426.73	59.255
427.09	59.412
427.44	57.957
427.79	58.076
428.15	58.471
428.50	58.066
428.85	58.856
429.21	57.850
429.56	57.333
429.92	58.095
430.27	59.049
430.62	57.975
430.98	57.589
431.33	57.550
431.68	58.094
432.04	57.577
432.39	57.621
432.74	57.879
433.10	59.268
433.45	58.225
433.80	58.736
434.16	57.728
434.51	58.424
434.86	57.892
435.22	57.385
435.57	57.555
435.92	57.841
436.28	56.877
436.63	59.065
436.98	58.637
437.34	58.669
437.69	57.497
438.04	58.065
438.39	58.655
438.75	58.641
439.10	58.936
439.45	57.567
439.81	57.635
440.16	57.681
440.51	57.788
440.86	57.736
441.22	56.971
441.57	57.972
441.92	57.802
442.27	57.197
442.63	57.535
442.98	57.581
443.33	58.465
443.68	56.774
444.03	58.073
444.39	58.106
444.74	56.764
445.09	56.938
445.44	57.521
445.79	57.253
446.15	58.403
446.50	56.498
446.85	58.952
447.20	57.449
447.55	56.799
447.91	55.843
448.26	57.747
448.61	57.883
448.96	57.973
449.31	56.539
449.66	57.548
450.02	56.850
450.37	58.049
450.72	56.946
451.07	57.429
451.42	56.145
451.77	57.760
452.12	57.219
452.47	57.005
452.83	57.370
453.18	57.097
453.53	57.440
453.88	56.747
454.23	57.355
454.58	57.966
454.93	57.665
455.28	57.161
455.63	56.457
455.98	57.578
456.34	56.389
456.69	57.316
457.04	57.523
457.39	58.629
457.74	56.852
458.09	56.931
458.44	56.816
458.79	55.519
459.14	55.899
459.49	57.134
459.84	55.637
460.19	55.342
460.54	56.144
460.89	56.644
461.24	56.412
461.59	58.273
461.94	57.649
462.29	57.108
462.64	58.113
462.99	57.143
463.34	57.459
463.69	57.088
464.04	57.023
464.39	57.474
464.74	56.265
465.09	56.293
465.44	56.004
465.79	56.469
466.14	56.385
466.49	55.777
466.84	56.605
467.19	56.369
467.54	57.161
467.89	57.448
468.24	56.915
468.59	56.214
468.94	56.769
469.29	56.775
469.64	56.276
469.99	57.862
470.34	56.237
470.68	57.175
471.03	55.994
471.38	54.312
471.73	55.693
472.08	57.801
472.43	56.201
472.78	56.998
473.13	55.541
473.48	56.882
473.83	57.627
474.17	57.878
474.52	57.152
474.87	55.308
475.22	55.193
475.57	55.047
475.92	55.889
476.27	55.711
476.61	55.210
476.96	56.768
477.31	55.825
477.66	56.384
478.01	55.165
478.36	54.714
478.70	54.565
479.05	56.326
479.40	55.902
479.75	55.951
480.10	55.176
480.45	55.125
480.79	55.650
481.14	56.332
481.49	56.043
481.84	54.713
482.19	54.979
482.53	55.048
482.88	54.698
483.23	54.090
483.58	54.537
483.92	54.961
484.27	53.888
484.62	54.683
484.97	54.625
485.31	53.336
485.66	50.666
486.01	50.940
486.36	51.004
486.70	52.278
487.05	52.940
487.40	53.389
487.75	53.546
488.09	53.331
488.44	54.048
488.79	54.050
489.13	54.076
489.48	54.254
489.83	54.265
490.17	54.517
490.52	55.867
490.87	53.547
491.22	54.545
491.56	54.049
491.91	54.345
492.26	54.642
492.60	54.064
492.95	54.956
493.30	53.585
493.64	54.341
493.99	54.251
494.34	54.383
494.68	54.749
495.03	55.138
495.37	54.112
495.72	54.536
496.07	55.334
496.41	54.095
496.76	53.885
497.11	54.930
497.45	55.204
497.80	54.013
498.14	53.804
498.49	53.807
498.84	53.644
499.18	53.459
499.53	54.357
499.87	53.372
500.22	53.957
500.56	54.363
500.91	54.527
501.26	54.236
501.60	53.235
501.95	52.899
502.29	53.981
502.64	53.809
502.98	53.516
503.33	53.771
503.67	53.359
504.02	52.745
504.36	53.343
504.71	52.947
505.06	53.897
505.40	54.278
505.75	54.120
506.09	54.113
506.44	52.873
506.78	53.377
507.13	54.522
507.47	54.348
507.82	53.637
508.16	54.090
508.51	54.184
508.85	52.825
509.19	53.598
509.54	54.531
509.88	53.387
510.23	52.684
510.57	53.337
510.92	53.987
511.26	55.831
511.61	54.720
511.95	53.032
512.30	53.415
512.64	54.313
512.98	53.352
513.33	54.085
513.67	53.947
514.02	54.504
514.36	53.258
514.70	53.060
515.05	54.359
515.39	54.127
515.74	53.523
516.08	53.569
516.42	53.514
516.77	54.189
517.11	53.851
517.46	54.442
517.80	54.661
518.14	54.256
518.49	53.345
518.83	53.640
519.17	53.133
519.52	53.920
519.86	54.038
520.20	53.366
520.55	54.167
520.89	54.016
521.23	55.321
521.58	54.109
521.92	55.311
522.26	53.741
522.61	54.622
522.95	54.469
523.29	54.413
523.64	53.719
523.98	53.494
524.32	53.245
524.66	55.130
525.01	55.374
525.35	54.575
525.69	54.009
526.04	54.007
526.38	52.900
526.72	53.189
527.06	53.965
527.41	53.872
527.75	53.471
528.09	55.003
528.43	54.478
528.78	53.876
529.12	54.528
529.46	52.591
529.80	52.751
530.15	51.931
530.49	53.504
530.83	53.893
531.17	53.288
531.51	52.192
531.86	51.558
532.20	52.102
532.54	52.414
532.88	53.506
533.22	52.458
533.57	52.119
533.91	53.226
534.25	52.539
534.59	51.158
534.93	52.934
535.27	52.357
535.62	53.289
535.96	51.464
536.30	51.729
536.64	51.470
536.98	52.698
537.32	53.238
537.66	51.763
538.01	50.832
538.35	50.829
538.69	50.635
539.03	51.678
539.37	51.911
539.71	51.296
540.05	51.282
540.39	50.791
540.73	51.466
541.07	52.041
541.42	51.515
541.76	50.203
542.10	51.388
542.44	50.381
542.78	51.561
543.12	50.876
543.46	49.274
543.80	50.509
544.14	50.241
544.48	50.033
544.82	50.437
545.16	50.034
545.50	50.641
545.84	51.332
546.18	50.281
546.52	49.541
546.86	50.177
547.20	49.678
547.54	51.108
547.88	50.405
548.22	49.577
548.56	48.699
548.90	49.459
549.24	50.417
549.58	48.826
549.92	50.550
550.26	50.701
550.60	48.949
550.94	50.672
551.28	49.886
551.62	50.677
551.96	48.389
552.30	49.127
552.64	49.082
552.98	50.071
553.32	49.531
553.66	50.404
554.00	50.468
554.34	48.864
554.68	51.230
555.02	49.626
555.36	50.076
555.69	49.672
556.03	49.821
556.37	48.435
556.71	48.633
557.05	49.225
557.39	50.038
557.73	49.168
558.07	49.209
558.41	48.297
558.75	48.807
559.08	48.837
559.42	50.590
559.76	47.783
560.10	48.962
560.44	48.710
560.78	49.640
561.12	49.264
561.45	48.163
561.79	47.799
562.13	48.875
562.47	48.643
562.81	49.134
563.15	48.725
563.48	48.383
563.82	48.085
564.16	47.123
564.50	48.168
564.84	48.581
565.17	47.748
565.51	49.064
565.85	47.035
566.19	48.940
566.52	46.855
566.86	46.460
567.20	46.671
567.54	46.632
567.88	45.409
568.21	45.899
568.55	45.488
568.89	45.464
569.23	45.463
569.56	44.389
569.90	44.133
570.24	42.671
570.57	42.921
570.91	42.776
571.25	43.694
571.59	42.844
571.92	42.622
572.26	43.006
572.60	43.425
572.93	43.330
573.27	41.907
573.61	42.758
573.95	42.041
574.28	42.511
574.62	42.113
574.96	42.028
575.29	42.101
575.63	42.703
575.97	42.772
576.30	42.236
576.64	42.127
576.98	42.457
577.31	41.944
577.65	41.043
577.98	41.858
578.32	41.173
578.66	41.668
578.99	41.948
579.33	42.279
579.67	42.363
580.00	41.590
580.34	41.226
580.67	42.455
581.01	41.535
581.35	40.847
581.68	40.999
582.02	41.207
582.35	41.584
582.69	41.333
583.02	40.730
583.36	41.578
583.70	42.289
584.03	41.817
584.37	41.557
584.70	41.545
585.04	41.703
585.37	40.753
585.71	41.220
586.04	40.977
586.38	40.937
586.72	40.798
587.05	41.822
587.39	41.189
587.72	41.117
588.06	41.560
588.39	41.254
588.73	41.396
589.06	42.030
589.40	42.277
589.73	41.430
590.07	41.961
590.40	42.143
590.73	42.828
591.07	42.791
591.40	41.391
591.74	41.930
592.07	42.538
592.41	42.857
592.74	41.590
593.08	40.376
593.41	40.366
593.75	40.827
594.08	41.554
594.41	41.755
594.75	41.379
595.08	41.785
595.42	40.229
595.75	41.974
596.09	41.955
596.42	42.239
596.75	42.124
597.09	41.993
597.42	41.723
597.75	42.400
598.09	42.486
598.42	42.058
598.76	41.016
599.09	41.737
599.42	41.276
599.76	39.992
600.09	41.227
600.42	40.414
600.76	40.724
601.09	41.431
601.42	40.651
601.76	40.579
602.09	40.738
602.42	41.725
602.76	40.478
603.09	41.027
603.42	40.824
603.76	40.881
604.09	40.711
604.42	40.310
604.76	41.248
605.09	42.139
605.42	41.835
605.75	40.685
606.09	39.528
606.42	40.524
606.75	40.433
607.09	41.046
607.42	40.412
607.75	39.825
608.08	41.208
608.42	40.862
608.75	41.663
609.08	41.499
609.41	40.586
609.75	41.704
610.08	41.026
610.41	41.254
610.74	41.097
611.07	40.681
611.41	41.300
611.74	40.787
612.07	40.021
612.40	42.216
612.73	40.615
613.07	40.854
613.40	42.070
613.73	41.278
614.06	40.575
614.39	40.856
614.72	42.587
615.06	40.611
615.39	40.618
615.72	39.903
616.05	41.216
616.38	41.924
616.71	40.852
617.05	40.786
617.38	41.466
617.71	40.196
618.04	41.194
618.37	41.956
618.70	41.979
619.03	42.405
619.36	42.847
619.69	40.863
620.03	40.777
620.36	41.197
620.69	41.328
621.02	41.538
621.35	41.047
621.68	42.787
622.01	40.777
622.34	41.951
622.67	43.226
623.00	41.717
623.33	42.034
623.66	41.413
623.99	41.335
624.32	40.866
624.65	42.359
624.99	41.440
625.32	41.972
625.65	41.318
625.98	41.390
626.31	43.510
626.64	42.132
626.97	43.080
627.30	41.574
627.63	41.090
627.96	41.126
628.29	44.093
628.62	41.683
628.95	41.884
629.28	43.744
629.61	42.775
629.94	42.650
630.26	44.236
630.59	41.558
630.92	40.060
631.25	43.254
631.58	44.325
631.91	40.191
632.24	40.724
632.57	41.222
632.90	44.224
633.23	42.926
633.56	43.885
633.89	43.062
634.22	46.290
634.55	43.118
634.88	42.402
635.20	44.250
635.53	41.344
635.86	42.179
636.19	43.921
636.52	42.439
636.85	40.772
637.18	40.195
637.51	42.572
637.83	43.603
638.16	42.000
638.49	41.522
638.82	43.137
639.15	42.819
639.48	43.182
639.81	44.306
640.13	42.817
640.46	43.927
640.79	44.317
641.12	42.308
641.45	45.124
641.77	43.741
642.10	45.083
642.43	46.226
642.76	42.744
643.09	44.089
643.41	43.541
643.74	43.134
644.07	45.469
644.40	43.947
644.73	42.203
645.05	45.026
645.38	41.528
645.71	45.918
646.04	41.919
646.36	42.187
646.69	44.231
647.02	43.169
647.35	45.887
647.67	44.547
648.00	42.754
648.33	43.220
648.66	43.907
648.98	44.410
649.31	41.718
649.64	39.437
649.96	41.390
650.29	42.810
650.62	41.845
650.94	40.690
651.27	44.170
651.60	43.357
651.92	42.473
652.25	43.384
652.58	42.739
652.90	41.077
653.23	39.728
653.56	40.000
653.88	38.737
654.21	41.468
654.54	42.027
654.86	42.439
655.19	39.356
655.52	38.169
655.84	34.842
656.17	41.470
656.49	55.305
656.82	54.928
657.15	42.110
657.47	31.330
657.80	23.588
658.13	25.070
658.45	37.012
658.78	37.593
659.10	36.585
659.43	37.528
659.75	37.457
660.08	37.586
660.41	38.134
660.73	40.909
661.06	40.646
661.38	41.473
661.71	42.828
662.03	46.723
662.36	40.708
662.68	41.935
663.01	42.373
663.33	41.901
663.66	37.251
663.98	43.820
664.31	41.978
664.63	36.486
664.96	44.420
665.28	44.421
665.61	41.037
665.93	42.184
666.26	44.515
666.58	41.113
666.91	46.637
667.23	40.553
667.56	42.529
667.88	39.252
668.21	40.179
668.53	43.218
668.86	43.165
669.18	42.317
669.50	41.475
669.83	43.675
670.15	42.381
670.48	39.770
670.80	42.451
671.13	42.563
671.45	44.977
671.77	42.457
672.10	37.427
672.42	38.931
672.75	38.750
673.07	40.364
673.39	38.433
673.72	42.914
674.04	39.549
674.37	43.293
674.69	41.564
675.01	38.248
675.34	41.357
675.66	40.959
675.98	40.929
676.31	37.783
676.63	40.136
676.95	40.706
677.28	43.578
677.60	41.176
677.92	40.798
678.25	42.082
678.57	42.974
678.89	41.791
679.22	37.681
679.54	40.408
679.86	40.234
680.18	39.808
680.51	40.577
680.83	39.376
681.15	37.917
681.48	36.072
681.80	37.219
682.12	38.958
682.44	39.437
682.77	35.158
683.09	36.384
683.41	39.535
683.73	37.723
684.06	37.832
684.38	37.607
684.70	34.623
685.02	37.810
685.34	40.900
685.67	37.336
685.99	34.698
686.31	37.931
686.63	38.235
686.96	39.703
687.28	36.727
687.60	41.021
687.92	35.798
688.24	37.000
688.56	43.421
688.89	35.857
689.21	38.789
689.53	34.910
689.85	38.427
690.17	41.758
690.49	40.580
690.82	38.663
691.14	39.130
691.46	38.979
691.78	37.582
692.10	36.943
692.42	39.121
692.74	38.261
693.06	37.753
693.39	36.768
693.71	34.444
694.03	39.091
694.35	39.640
694.67	37.250
694.99	41.753
695.31	39.018
695.63	37.073
695.95	38.677
696.27	41.096
696.59	35.215
696.91	36.872
697.23	37.563
697.56	36.211
697.88	40.125
698.20	35.853
698.52	38.551
698.84	37.081
699.16	33.333
699.48	39.506
699.80	36.176
700.12	37.802
700.44	37.746
700.76	41.292
701.08	36.556
701.40	39.820
701.72	39.692
702.04	35.220
702.36	36.280
702.68	38.720
703.00	38.596
703.32	36.212
703.64	40.060
703.96	38.416
704.28	35.241
704.60	37.500
704.91	36.991
705.23	41.772
705.55	37.931
705.87	43.662
706.19	32.601
706.51	38.732
706.83	36.306
707.15	38.415
707.47	35.262
707.79	35.279
708.11	36.247
708.43	38.071
708.74	35.372
709.06	35.561
709.38	37.464
709.70	33.634
710.02	35.826
710.34	36.000
710.66	36.808
710.98	33.437
711.29	37.662
711.61	37.097
711.93	34.516
712.25	36.014
712.57	35.439
712.89	34.432
713.20	35.816
713.52	40.876
713.84	36.129
714.16	34.628
714.48	37.342
714.80	36.741
715.11	34.884
715.43	34.783
715.75	33.851
716.07	35.542
716.39	36.364
716.70	37.770
717.02	36.078
717.34	33.333
717.66	33.621
717.97	34.921
718.29	35.827
718.61	35.193
718.93	34.109
719.24	35.055
719.56	33.708
719.88	30.597
720.20	36.759
720.51	36.719
720.83	37.743
721.15	31.707
721.46	38.550
721.78	34.263
722.10	35.060
722.42	31.855
722.73	33.205
723.05	36.327
723.37	36.555
723.68	32.800
724.00	32.766
724.32	33.891
724.63	35.391
724.95	32.051
725.27	32.489
725.58	34.568
725.90	30.544
726.22	34.783
726.53	30.980
726.85	39.051
727.16	31.481
727.48	38.314
727.80	37.891
728.11	39.754
728.43	32.812
728.74	29.365
729.06	31.200
729.38	34.387
729.69	34.164
730.01	33.457
730.32	36.900
730.64	32.197
730.96	39.161
731.27	31.438
731.59	35.873
731.90	33.657
732.22	29.808
732.53	28.041
732.85	31.544
733.16	32.343
733.48	31.419
733.80	28.716
734.11	34.797
734.43	33.746
734.74	33.634
735.06	32.853
735.37	35.258
735.69	33.981
736.00	30.033
736.32	33.333
736.63	32.414
736.95	35.616
737.26	31.034
737.58	32.639
737.89	29.897
738.21	32.028
738.52	32.319
738.83	34.694
739.15	35.865
739.46	31.518
739.78	33.451
740.09	33.904
740.41	30.714
740.72	28.723
741.04	29.600
741.35	33.333
741.66	30.222
741.98	30.769
742.29	42.079
742.61	32.195
742.92	32.018
743.23	36.792
743.55	30.180
743.86	28.251
744.18	28.922
744.49	24.365
744.80	33.673
745.12	34.579
745.43	36.019
745.74	34.685
746.06	29.439
746.37	33.028
746.68	33.654
747.00	35.407
747.31	32.692
747.62	35.780
747.94	35.808
748.25	35.780
748.56	36.000
748.88	36.150
749.19	34.762
749.50	32.524
749.82	31.925
750.13	27.917
750.44	30.000
750.75	33.210
751.07	35.943
751.38	38.298
751.69	27.799
752.01	34.766
752.32	30.769
752.63	31.716
752.94	31.200
753.26	32.636
753.57	33.750
753.88	32.389
754.19	31.076
754.51	30.827
754.82	32.601
755.13	27.391
755.44	32.114
755.75	30.400
756.07	27.675
756.38	34.173
756.69	32.082
757.00	28.972
757.31	30.744
757.63	29.321
757.94	29.379
758.25	32.540
758.56	30.707
758.87	31.845
759.18	32.492
759.50	30.303
759.81	36.120
760.12	29.538
760.43	29.464
760.74	29.379
761.05	31.768
761.36	32.092
761.67	27.795
761.99	29.210
762.30	30.292
762.61	30.453
762.92	31.197
763.23	34.836
763.54	36.364
763.85	32.245
764.16	31.301
764.47	27.600
764.78	31.429
765.10	27.541
765.41	29.483
765.72	31.988
766.03	26.403
766.34	34.615
766.65	30.126
766.96	31.455
767.27	32.178
767.58	24.719
767.89	31.481
768.20	32.597
768.51	33.668
768.82	34.135
769.13	30.973
769.44	29.289
769.75	25.214
770.06	28.251
770.37	25.980
770.68	33.495
770.99	31.553
771.30	34.034
771.61	25.306
771.92	30.705
772.23	26.126
772.54	26.519
772.85	34.302
773.16	30.159
773.47	19.527
773.78	25.287
774.09	28.125
774.39	29.193
774.70	27.891
775.01	34.483
775.32	30.000
775.63	29.323
775.94	32.331
776.25	28.000
776.56	28.099
776.87	29.365
777.18	23.423
777.48	31.532
777.79	27.559
778.10	39.450
778.41	23.684
778.72	27.731
779.03	22.535
779.34	31.757
779.65	35.211
779.95	27.815
780.26	25.899
780.57	33.813
780.88	33.099
781.19	26.050
781.50	28.188
781.80	23.977
782.11	26.744
782.42	28.302
782.73	27.451
783.04	27.586
783.34	23.664
783.65	31.544
783.96	33.846
784.27	34.286
784.57	21.277
784.88	25.962
785.19	29.091
785.50	33.636
785.81	23.810
786.11	21.849
786.42	35.398
786.73	21.698
787.04	16.514
787.34	13.861
787.65	31.667
787.96	19.835
788.26	24.638
788.57	27.778
788.88	23.577
789.19	28.000
789.49	16.794
789.80	31.818
790.11	24.528
790.41	26.733
790.72	35.106
791.03	27.174
791.33	25.882
791.64	24.691
791.95	27.174
792.25	22.727
792.56	44.872
792.87	34.615
793.17	11.538
793.48	19.048
793.79	17.500
794.09	33.654
794.40	34.375
794.70	31.532
795.01	20.312
795.32	30.435
795.62	15.217
795.93	24.528
796.23	33.333
796.54	24.390
796.85	29.762
797.15	13.636
797.46	20.290
797.76	21.053
798.07	28.409
798.37	13.415
798.68	27.419
798.99	20.270
799.29	27.711
799.60	28.205
799.90	32.308
800.21	21.212
800.51	0.000
800.82	28.000
801.12	33.333
801.43	11.667
801.73	8.108
802.04	30.000
802.34	18.033
802.65	40.299
802.95	34.545
803.26	10.345
803.56	26.154
803.87	35.849
804.17	33.871
804.48	19.118
804.78	-4.878
805.09	18.841
805.39	33.824
805.70	8.511
806.00	19.298
806.30	30.769
806.61	32.895
806.91	22.973
807.22	28.947
807.52	17.045
807.83	15.254
808.13	0.000
808.43	26.667
808.74	-3.448
809.04	19.048
809.35	8.163
809.65	23.333
809.95	22.449
810.26	16.901
810.56	20.833
810.86	16.327
811.17	25.000
811.47	17.021
811.77	12.500
812.08	28.302
812.38	-15.625
812.69	12.727
812.99	2.439
813.29	29.730
813.59	8.108
813.90	20.000
814.20	34.545
814.50	15.000
814.81	21.818
815.11	14.035
815.41	0.000
815.72	22.500
816.02	20.000
816.32	13.514
816.62	14.583
816.93	15.556
817.23	2.222
817.53	27.778
817.84	10.811
818.14	14.634
818.44	20.000
818.74	6.122
819.04	9.756
819.35	22.222
819.65	2.273
819.95	-5.556
820.25	18.182
820.56	7.143
820.86	5.556
821.16	18.182
821.46	-4.348
821.76	13.793
822.07	8.696
822.37	15.152
822.67	26.829
822.97	5.405
823.27	-34.286
823.57	3.448
823.88	8.824
824.18	-5.556
824.48	17.143
824.78	4.762
825.08	21.429
825.38	7.407
825.69	32.258
825.99	24.390
826.29	-14.815
826.59	9.375
826.89	-9.677
827.19	-39.130
827.49	5.556
827.79	0.000
828.09	-12.903
828.39	14.583
828.70	-3.125
829.00	10.345
829.30	8.108
829.60	-41.667
829.90	7.407
830.20	-18.750
830.50	-4.545
830.80	-111.765
831.10	-13.636
831.40	2.941
831.70	0.000
832.00	9.091
832.30	17.647
832.60	24.324
832.90	100.000
833.20	-39.286
833.50	-60.000
833.80	39.474
834.10	-8.333
834.40	-59.091
834.70	-60.000
835.00	-50.000
835.30	-25.000
835.60	14.286
835.90	0.000
836.20	-4.000
836.50	-25.000
836.80	-21.053
837.10	18.919
837.40	53.333
837.70	-17.391
838.00	83.333
838.30	26.316
838.60	-190.000
838.90	-90.000
839.19	-25.000
839.49	-7.692
839.79	68.421
840.09	-200.000
840.39	-230.000
840.69	4.545
840.99	0.000
841.29	4.167
841.59	-46.154
841.88	-66.667
842.18	-71.429
842.48	23.333
842.78	-257.143
843.08	-50.000
843.38	-100.000
843.68	-68.750
843.97	35.714
844.27	-166.667
844.57	-118.182
844.87	-73.333
845.17	36.364
845.47	933.333
845.76	-66.667
846.06	-50.000
846.36	-550.000
846.66	-15.789
846.96	-27.273
847.25	-22.222
847.55	-144.444
847.85	-9.524
848.15	61.538
848.44	-216.667
848.74	-25.000
849.04	-84.615
849.34	-475.000
849.63	-109.091
849.93	-107.143
850.23	10.000
850.53	-87.500
850.82	-11.111
851.12	-46.667
851.42	-58.824
851.71	-100.000
852.01	5.882
852.31	-38.462
852.61	200.000
852.90	-5.882
853.20	-13.333
853.50	-50.000
853.79	-78.571
854.09	-125.000
854.39	20.000
854.68	0.000
854.98	-52.381
855.28	16.000
855.57	50.000
855.87	16.667
856.17	-20.000
856.46	9.375
856.76	25.000
857.05	12.000
857.35	75.000
857.65	-23.529
857.94	-108.333
858.24	-50.000
858.53	20.000
858.83	-145.455
859.13	28.000
859.42	14.286
859.72	-125.000
860.01	50.000
860.31	-262.500
860.60	-37.500
860.90	-216.667
861.20	-33.333
861.49	-26.667
861.79	-62.500
862.08	275.000
862.38	-116.667
862.67	342.857
862.97	275.000
863.26	-54.545
863.56	36.364
863.85	15.789
864.15	-23.529
864.44	-120.000
864.74	-80.000
865.03	-166.667
865.33	-14.286
865.62	128.571
865.92	21.053
866.21	-38.889
866.51	-81.818
866.80	-44.444
867.10	-112.500
867.39	6.250
867.69	-20.000
867.98	-70.000
868.27	11.765
868.57	0.000
868.86	750.000
869.16	-300.000
869.45	-157.143
869.75	350.000
870.04	10.000
870.33	-1300.000
870.63	-15.789
870.92	-50.000
871.22	-300.000
871.51	-142.857
871.80	-266.667
872.10	-225.000
>>>>>End Processed Spectral Data<<<<<
