SpectraSuite Data File
++++++++++++++++++++++++++++++++++++
Date: Tue May 12 16:36:00 PDT 2015
User: schluterlab
Dark Spectrum Present: Yes
Reference Spectrum Present: Yes
Number of Sampled Component Spectra: 1
Spectrometers: USB2E3373
Integration Time (usec): 3000 (USB2E3373)
Spectra Averaged: 3 (USB2E3373)
Boxcar Smoothing: 0 (USB2E3373)
Correct for Electrical Dark: No (USB2E3373)
Strobe/Lamp Enabled: No (USB2E3373)
Correct for Detector Non-linearity: No (USB2E3373)
Correct for Stray Light: No (USB2E3373)
Number of Pixels in Processed Spectrum: 2048
>>>>>Begin Processed Spectral Data<<<<<
178.53	0.000
178.91	-241.667
179.29	-600.000
179.67	-4000.000
180.04	-206.667
180.42	600.000
180.80	1450.000
181.18	0.000
181.56	-325.000
181.94	0.000
182.31	1266.667
182.69	-3100.000
183.07	514.286
183.45	-3600.000
183.83	-1500.000
184.20	280.000
184.58	557.143
184.96	-246.154
185.34	-166.667
185.72	1550.000
186.09	-650.000
186.47	-3100.000
186.85	1133.333
187.23	440.000
187.61	1350.000
187.98	537.500
188.36	285.714
188.74	325.000
189.12	333.333
189.49	900.000
189.87	0.000
190.25	450.000
190.63	2600.000
191.00	-250.000
191.38	-3300.000
191.76	-800.000
192.14	400.000
192.51	-2100.000
192.89	1350.000
193.27	900.000
193.65	-1166.667
194.02	-780.000
194.40	471.429
194.78	-228.571
195.15	220.000
195.53	-2200.000
195.91	-580.000
196.29	3400.000
196.66	281.250
197.04	650.000
197.42	-1300.000
197.79	575.000
198.17	291.667
198.55	0.000
198.92	457.143
199.30	1466.667
199.68	1750.000
200.05	533.333
200.43	-366.667
200.81	183.333
201.18	2400.000
201.56	275.000
201.94	-925.000
202.31	-337.500
202.69	-360.000
203.07	2800.000
203.44	-333.333
203.82	391.667
204.19	600.000
204.57	-1150.000
204.95	-900.000
205.32	-740.000
205.70	650.000
206.08	750.000
206.45	-1000.000
206.83	333.333
207.20	157.895
207.58	291.667
207.96	480.000
208.33	0.000
208.71	671.429
209.08	760.000
209.46	-2300.000
209.84	-825.000
210.21	800.000
210.59	-520.000
210.96	300.000
211.34	-1025.000
211.71	436.364
212.09	700.000
212.46	1750.000
212.84	-266.667
213.22	477.778
213.59	-2900.000
213.97	270.000
214.34	775.000
214.72	1066.667
215.09	1033.333
215.47	-3200.000
215.84	-240.000
216.22	-375.000
216.59	0.000
216.97	0.000
217.34	1650.000
217.72	-1050.000
218.09	1166.667
218.47	487.500
218.84	800.000
219.22	833.333
219.59	533.333
219.97	428.571
220.34	377.778
220.72	1600.000
221.09	4000.000
221.47	250.000
221.84	1266.667
222.22	390.000
222.59	272.222
222.97	150.000
223.34	225.000
223.72	-1350.000
224.09	1100.000
224.46	253.846
224.84	-975.000
225.21	411.111
225.59	266.667
225.96	1166.667
226.34	-540.000
226.71	-625.000
227.08	-600.000
227.46	0.000
227.83	-550.000
228.21	-1700.000
228.58	333.333
228.95	925.000
229.33	333.333
229.70	1025.000
230.08	338.462
230.45	2900.000
230.82	-750.000
231.20	-766.667
231.57	-1166.667
231.95	580.000
232.32	291.667
232.69	516.667
233.07	283.333
233.44	-1600.000
233.81	280.000
234.19	174.074
234.56	218.750
234.93	235.294
235.31	220.000
235.68	243.750
236.05	171.429
236.43	166.667
236.80	300.000
237.17	175.862
237.55	143.750
237.92	130.000
238.29	166.667
238.67	159.375
239.04	141.463
239.41	125.000
239.79	142.500
240.16	116.667
240.53	96.721
240.91	86.957
241.28	120.339
241.65	98.485
242.02	111.268
242.40	111.429
242.77	81.319
243.14	105.063
243.51	102.020
243.89	94.393
244.26	91.589
244.63	86.139
245.00	98.165
245.38	73.729
245.75	81.818
246.12	92.593
246.49	79.433
246.87	90.984
247.24	90.000
247.61	76.250
247.98	79.592
248.36	78.788
248.73	79.082
249.10	72.024
249.47	74.000
249.84	75.124
250.22	71.351
250.59	74.500
250.96	70.464
251.33	75.814
251.70	79.464
252.08	74.370
252.45	67.729
252.82	68.061
253.19	69.960
253.56	72.308
253.94	69.203
254.31	67.054
254.68	72.474
255.05	71.379
255.42	72.993
255.79	72.313
256.16	75.254
256.54	72.078
256.91	72.549
257.28	71.572
257.65	63.009
258.02	67.847
258.39	67.049
258.76	71.884
259.14	67.143
259.51	69.971
259.88	72.948
260.25	70.604
260.62	67.123
260.99	63.912
261.36	69.638
261.73	71.011
262.10	69.895
262.47	64.500
262.85	69.867
263.22	70.694
263.59	68.798
263.96	67.419
264.33	65.679
264.70	71.499
265.07	67.561
265.44	66.055
265.81	61.557
266.18	67.506
266.55	67.376
266.92	63.311
267.29	67.763
267.66	65.919
268.03	63.004
268.40	64.693
268.77	69.824
269.14	63.991
269.51	64.811
269.88	66.735
270.25	62.203
270.62	66.738
270.99	66.531
271.36	66.667
271.73	64.780
272.10	65.051
272.47	63.889
272.84	60.479
273.21	63.843
273.58	65.587
273.95	63.860
274.32	63.230
274.69	64.764
275.06	62.113
275.43	65.326
275.80	63.396
276.17	61.765
276.54	63.551
276.91	62.873
277.28	61.679
277.65	64.945
278.02	62.868
278.39	62.770
278.76	59.655
279.13	60.676
279.50	62.545
279.87	62.570
280.23	61.510
280.60	64.781
280.97	63.793
281.34	61.881
281.71	61.391
282.08	61.368
282.45	60.811
282.82	62.375
283.19	59.618
283.56	62.149
283.92	61.401
284.29	61.897
284.66	58.992
285.03	59.867
285.40	61.488
285.77	58.333
286.14	59.598
286.51	61.503
286.87	57.120
287.24	53.754
287.61	59.574
287.98	57.612
288.35	58.519
288.72	57.360
289.08	56.156
289.45	58.384
289.82	56.250
290.19	56.223
290.56	57.205
290.93	57.410
291.29	55.110
291.66	55.367
292.03	54.698
292.40	53.117
292.77	52.925
293.13	54.779
293.50	53.711
293.87	51.626
294.24	54.126
294.60	53.432
294.97	53.147
295.34	50.863
295.71	52.300
296.08	51.600
296.44	51.461
296.81	48.883
297.18	48.035
297.55	50.862
297.91	48.030
298.28	50.604
298.65	49.448
299.02	48.251
299.38	48.321
299.75	48.171
300.12	48.509
300.48	49.883
300.85	49.821
301.22	48.488
301.59	47.995
301.95	49.125
302.32	49.942
302.69	47.511
303.05	49.383
303.42	46.861
303.79	47.129
304.15	49.725
304.52	46.089
304.89	46.588
305.25	49.944
305.62	48.827
305.99	47.826
306.35	48.105
306.72	47.138
307.09	46.480
307.45	47.518
307.82	46.091
308.19	48.247
308.55	48.000
308.92	47.498
309.29	47.239
309.65	47.572
310.02	48.073
310.38	47.956
310.75	46.480
311.12	46.935
311.48	48.745
311.85	48.569
312.22	47.564
312.58	47.522
312.95	49.029
313.31	48.876
313.68	48.593
314.05	49.267
314.41	49.721
314.78	49.432
315.14	51.469
315.51	50.426
315.87	49.544
316.24	50.700
316.61	48.970
316.97	49.358
317.34	50.494
317.70	51.536
318.07	50.979
318.43	51.494
318.80	51.664
319.16	51.923
319.53	50.354
319.89	51.523
320.26	53.538
320.62	53.205
320.99	54.623
321.35	52.597
321.72	54.554
322.08	53.463
322.45	53.497
322.81	56.725
323.18	54.707
323.54	55.488
323.91	56.301
324.27	56.676
324.64	57.093
325.00	56.034
325.37	57.167
325.73	56.661
326.10	57.829
326.46	57.969
326.83	58.640
327.19	59.357
327.56	57.748
327.92	59.426
328.29	58.429
328.65	60.274
329.01	59.281
329.38	58.968
329.74	57.899
330.11	61.512
330.47	60.529
330.84	58.758
331.20	60.406
331.56	59.672
331.93	60.051
332.29	59.184
332.66	61.565
333.02	58.935
333.38	59.337
333.75	60.300
334.11	58.557
334.48	60.769
334.84	59.628
335.20	61.677
335.57	57.851
335.93	58.957
336.29	56.633
336.66	62.093
337.02	58.340
337.38	59.673
337.75	59.713
338.11	61.097
338.47	60.457
338.84	59.865
339.20	59.913
339.56	59.125
339.93	58.863
340.29	57.647
340.65	58.592
341.02	58.488
341.38	57.471
341.74	58.056
342.11	57.513
342.47	58.655
342.83	59.721
343.20	58.610
343.56	58.062
343.92	60.033
344.28	60.128
344.65	59.087
345.01	58.810
345.37	59.615
345.73	58.651
346.10	58.566
346.46	59.330
346.82	58.410
347.19	57.883
347.55	57.689
347.91	56.873
348.27	57.242
348.63	59.019
349.00	57.426
349.36	58.755
349.72	59.174
350.08	59.472
350.45	59.254
350.81	56.881
351.17	58.243
351.53	59.276
351.89	57.809
352.26	59.033
352.62	58.748
352.98	59.739
353.34	60.401
353.70	58.028
354.07	60.077
354.43	58.833
354.79	56.416
355.15	59.265
355.51	58.233
355.87	56.852
356.24	59.815
356.60	56.849
356.96	60.197
357.32	56.971
357.68	59.692
358.04	57.903
358.40	58.846
358.77	59.279
359.13	58.408
359.49	59.748
359.85	57.856
360.21	58.470
360.57	58.029
360.93	58.225
361.29	57.937
361.66	59.955
362.02	58.239
362.38	57.720
362.74	58.811
363.10	58.836
363.46	56.837
363.82	57.083
364.18	58.535
364.54	58.298
364.90	58.969
365.26	59.334
365.62	59.185
365.98	58.156
366.35	58.207
366.71	58.501
367.07	59.181
367.43	57.958
367.79	59.508
368.15	57.938
368.51	59.752
368.87	59.035
369.23	57.935
369.59	59.811
369.95	60.769
370.31	59.206
370.67	58.154
371.03	59.594
371.39	60.180
371.75	60.014
372.11	59.551
372.47	58.288
372.83	60.299
373.19	60.521
373.55	58.763
373.91	58.149
374.27	59.788
374.63	58.034
374.99	58.693
375.35	61.358
375.71	60.356
376.07	60.080
376.42	58.056
376.78	60.373
377.14	59.830
377.50	60.112
377.86	60.346
378.22	59.842
378.58	60.835
378.94	60.169
379.30	59.854
379.66	60.024
380.02	60.117
380.38	59.602
380.74	60.265
381.09	60.222
381.45	58.844
381.81	60.047
382.17	60.195
382.53	59.808
382.89	60.497
383.25	60.628
383.61	58.444
383.97	60.468
384.32	60.398
384.68	60.784
385.04	61.196
385.40	61.091
385.76	59.860
386.12	60.730
386.48	59.392
386.83	60.880
387.19	60.188
387.55	58.422
387.91	60.855
388.27	60.976
388.62	60.387
388.98	59.359
389.34	60.381
389.70	59.670
390.06	61.280
390.42	60.148
390.77	58.968
391.13	60.591
391.49	59.165
391.85	60.492
392.20	60.310
392.56	60.454
392.92	60.022
393.28	59.361
393.64	60.206
393.99	60.166
394.35	58.740
394.71	59.952
395.07	59.246
395.42	59.543
395.78	59.901
396.14	60.422
396.50	59.687
396.85	60.427
397.21	59.988
397.57	60.191
397.92	59.561
398.28	59.956
398.64	59.453
399.00	58.578
399.35	59.635
399.71	59.327
400.07	60.103
400.42	60.597
400.78	60.000
401.14	59.131
401.49	58.986
401.85	59.444
402.21	58.934
402.57	60.742
402.92	59.576
403.28	58.413
403.63	59.506
403.99	59.952
404.35	59.261
404.70	61.370
405.06	58.619
405.42	59.485
405.77	58.710
406.13	58.134
406.49	58.954
406.84	57.530
407.20	59.760
407.55	59.200
407.91	59.285
408.27	58.278
408.62	58.841
408.98	59.551
409.34	58.328
409.69	57.125
410.05	58.140
410.40	58.422
410.76	57.985
411.11	58.294
411.47	57.346
411.83	58.407
412.18	58.333
412.54	58.258
412.89	57.817
413.25	57.811
413.60	56.600
413.96	57.211
414.31	57.674
414.67	59.963
415.03	60.026
415.38	57.855
415.74	58.686
416.09	57.464
416.45	58.177
416.80	60.038
417.16	58.307
417.51	57.134
417.87	58.135
418.22	57.776
418.58	58.344
418.93	58.358
419.29	57.794
419.64	56.451
420.00	59.368
420.35	58.246
420.71	57.876
421.06	58.623
421.42	58.780
421.77	58.356
422.12	57.663
422.48	55.881
422.83	58.315
423.19	56.479
423.54	56.665
423.90	57.248
424.25	57.953
424.61	57.168
424.96	57.425
425.31	57.526
425.67	58.586
426.02	58.497
426.38	57.818
426.73	58.647
427.09	58.482
427.44	58.075
427.79	57.576
428.15	58.751
428.50	58.171
428.85	58.319
429.21	57.212
429.56	57.178
429.92	58.329
430.27	56.362
430.62	56.535
430.98	57.136
431.33	56.351
431.68	56.346
432.04	56.544
432.39	57.464
432.74	57.728
433.10	58.638
433.45	58.472
433.80	58.025
434.16	56.647
434.51	57.534
434.86	58.302
435.22	58.131
435.57	57.736
435.92	58.566
436.28	58.583
436.63	57.104
436.98	58.784
437.34	57.192
437.69	56.607
438.04	57.419
438.39	57.443
438.75	57.684
439.10	57.852
439.45	56.529
439.81	56.680
440.16	58.118
440.51	56.926
440.86	57.721
441.22	57.035
441.57	56.798
441.92	57.552
442.27	57.784
442.63	57.520
442.98	56.843
443.33	57.097
443.68	57.596
444.03	56.173
444.39	57.580
444.74	57.039
445.09	57.346
445.44	57.226
445.79	57.700
446.15	57.737
446.50	57.120
446.85	56.673
447.20	57.264
447.55	58.184
447.91	56.686
448.26	57.455
448.61	57.988
448.96	57.298
449.31	56.381
449.66	57.973
450.02	55.862
450.37	58.523
450.72	57.135
451.07	55.614
451.42	57.676
451.77	56.987
452.12	57.856
452.47	57.230
452.83	58.592
453.18	56.456
453.53	58.082
453.88	58.057
454.23	56.827
454.58	56.760
454.93	56.836
455.28	56.487
455.63	58.274
455.98	56.740
456.34	57.325
456.69	57.195
457.04	57.399
457.39	56.571
457.74	57.320
458.09	56.990
458.44	56.188
458.79	56.340
459.14	56.192
459.49	56.682
459.84	57.554
460.19	55.876
460.54	56.638
460.89	56.183
461.24	55.899
461.59	57.313
461.94	57.506
462.29	56.751
462.64	57.098
462.99	56.302
463.34	56.319
463.69	57.229
464.04	57.513
464.39	56.955
464.74	55.041
465.09	55.601
465.44	55.876
465.79	56.886
466.14	54.213
466.49	54.856
466.84	56.299
467.19	56.649
467.54	55.195
467.89	55.575
468.24	55.530
468.59	54.940
468.94	56.220
469.29	55.528
469.64	56.785
469.99	55.527
470.34	55.345
470.68	55.172
471.03	55.771
471.38	54.967
471.73	55.585
472.08	56.230
472.43	55.928
472.78	55.122
473.13	54.631
473.48	55.318
473.83	56.007
474.17	54.225
474.52	54.502
474.87	54.008
475.22	54.654
475.57	53.358
475.92	54.522
476.27	53.808
476.61	55.121
476.96	53.866
477.31	55.527
477.66	55.287
478.01	54.822
478.36	54.892
478.70	53.548
479.05	55.282
479.40	54.663
479.75	55.313
480.10	54.066
480.45	54.202
480.79	53.410
481.14	53.019
481.49	52.836
481.84	52.682
482.19	53.231
482.53	52.525
482.88	53.315
483.23	52.909
483.58	53.007
483.92	54.479
484.27	53.724
484.62	53.565
484.97	52.746
485.31	53.331
485.66	52.504
486.01	52.307
486.36	51.220
486.70	51.948
487.05	51.391
487.40	52.113
487.75	52.101
488.09	51.335
488.44	52.199
488.79	51.892
489.13	52.856
489.48	53.136
489.83	52.002
490.17	51.775
490.52	52.326
490.87	52.500
491.22	53.457
491.56	52.130
491.91	52.375
492.26	52.606
492.60	52.802
492.95	53.058
493.30	52.138
493.64	52.111
493.99	53.265
494.34	51.726
494.68	51.970
495.03	52.672
495.37	51.643
495.72	52.121
496.07	51.842
496.41	51.129
496.76	51.752
497.11	52.571
497.45	51.469
497.80	52.224
498.14	51.410
498.49	51.625
498.84	51.542
499.18	51.325
499.53	50.988
499.87	51.438
500.22	52.234
500.56	52.228
500.91	52.134
501.26	51.998
501.60	51.047
501.95	51.120
502.29	50.844
502.64	50.507
502.98	50.734
503.33	51.047
503.67	51.744
504.02	50.873
504.36	50.860
504.71	51.703
505.06	50.727
505.40	50.632
505.75	50.094
506.09	51.937
506.44	50.564
506.78	51.323
507.13	51.381
507.47	50.315
507.82	51.776
508.16	52.033
508.51	52.271
508.85	49.810
509.19	51.003
509.54	51.123
509.88	51.467
510.23	51.520
510.57	49.517
510.92	51.099
511.26	52.008
511.61	49.778
511.95	50.224
512.30	51.450
512.64	50.935
512.98	50.743
513.33	50.564
513.67	50.647
514.02	49.974
514.36	50.312
514.70	50.293
515.05	50.186
515.39	51.316
515.74	51.613
516.08	50.545
516.42	51.311
516.77	51.253
517.11	51.467
517.46	49.784
517.80	50.519
518.14	52.113
518.49	49.669
518.83	49.451
519.17	50.416
519.52	51.939
519.86	50.681
520.20	50.795
520.55	49.859
520.89	49.885
521.23	51.227
521.58	50.316
521.92	49.038
522.26	50.533
522.61	50.980
522.95	51.652
523.29	50.643
523.64	48.902
523.98	49.941
524.32	50.980
524.66	50.203
525.01	49.704
525.35	50.265
525.69	49.910
526.04	49.494
526.38	49.382
526.72	48.866
527.06	49.261
527.41	50.544
527.75	50.578
528.09	48.826
528.43	49.542
528.78	49.732
529.12	52.017
529.46	49.503
529.80	49.708
530.15	49.028
530.49	48.857
530.83	50.518
531.17	50.000
531.51	49.663
531.86	48.671
532.20	47.713
532.54	49.780
532.88	50.031
533.22	49.299
533.57	49.908
533.91	48.543
534.25	48.067
534.59	48.538
534.93	47.952
535.27	47.866
535.62	47.666
535.96	49.468
536.30	49.604
536.64	48.075
536.98	48.081
537.32	48.625
537.66	48.469
538.01	47.864
538.35	48.097
538.69	48.422
539.03	47.575
539.37	47.876
539.71	48.765
540.05	48.554
540.39	47.862
540.73	48.038
541.07	47.302
541.42	49.378
541.76	48.274
542.10	47.349
542.44	47.943
542.78	48.521
543.12	47.546
543.46	47.619
543.80	47.619
544.14	48.173
544.48	48.236
544.82	47.584
545.16	46.266
545.50	47.818
545.84	48.359
546.18	47.984
546.52	48.393
546.86	47.324
547.20	46.641
547.54	47.435
547.88	47.993
548.22	47.966
548.56	47.083
548.90	46.738
549.24	47.694
549.58	48.389
549.92	47.872
550.26	49.493
550.60	46.840
550.94	48.847
551.28	47.862
551.62	48.069
551.96	47.432
552.30	46.341
552.64	48.738
552.98	46.070
553.32	46.799
553.66	47.231
554.00	46.847
554.34	47.004
554.68	48.522
555.02	47.183
555.36	46.476
555.69	47.186
556.03	45.924
556.37	47.100
556.71	47.327
557.05	45.347
557.39	46.467
557.73	46.361
558.07	46.613
558.41	47.841
558.75	45.349
559.08	45.818
559.42	47.316
559.76	47.541
560.10	46.249
560.44	45.255
560.78	47.059
561.12	47.489
561.45	44.994
561.79	46.255
562.13	44.788
562.47	46.658
562.81	46.910
563.15	46.542
563.48	43.975
563.82	47.099
564.16	46.020
564.50	45.509
564.84	45.289
565.17	45.752
565.51	46.736
565.85	46.391
566.19	45.833
566.52	46.089
566.86	45.768
567.20	45.225
567.54	45.142
567.88	45.801
568.21	44.583
568.55	45.963
568.89	45.119
569.23	44.651
569.56	44.768
569.90	43.406
570.24	44.191
570.57	44.419
570.91	44.087
571.25	43.980
571.59	42.837
571.92	42.976
572.26	42.803
572.60	43.793
572.93	44.192
573.27	43.567
573.61	43.016
573.95	43.152
574.28	43.311
574.62	43.433
574.96	42.925
575.29	42.336
575.63	42.850
575.97	42.308
576.30	42.141
576.64	42.374
576.98	42.977
577.31	43.091
577.65	43.190
577.98	42.736
578.32	42.876
578.66	42.477
578.99	42.752
579.33	42.603
579.67	42.442
580.00	41.825
580.34	42.423
580.67	42.886
581.01	42.857
581.35	42.079
581.68	42.224
582.02	42.464
582.35	42.563
582.69	42.399
583.02	42.298
583.36	42.818
583.70	42.426
584.03	43.127
584.37	43.311
584.70	42.399
585.04	42.446
585.37	42.426
585.71	42.854
586.04	42.098
586.38	42.088
586.72	42.600
587.05	41.920
587.39	42.478
587.72	42.767
588.06	42.364
588.39	42.682
588.73	42.468
589.06	42.836
589.40	43.255
589.73	42.281
590.07	43.686
590.40	43.415
590.73	42.563
591.07	43.112
591.40	42.675
591.74	42.330
592.07	41.930
592.41	42.526
592.74	41.926
593.08	40.951
593.41	42.490
593.75	40.820
594.08	41.885
594.41	41.935
594.75	41.781
595.08	41.975
595.42	42.133
595.75	41.099
596.09	42.405
596.42	41.733
596.75	42.308
597.09	42.138
597.42	41.918
597.75	41.826
598.09	41.403
598.42	42.268
598.76	41.596
599.09	41.523
599.42	41.176
599.76	41.859
600.09	40.814
600.42	41.678
600.76	41.502
601.09	41.353
601.42	40.479
601.76	42.034
602.09	41.869
602.42	40.961
602.76	41.632
603.09	42.081
603.42	41.725
603.76	41.323
604.09	41.549
604.42	40.942
604.76	41.209
605.09	41.184
605.42	41.000
605.75	41.690
606.09	41.928
606.42	41.150
606.75	41.741
607.09	40.466
607.42	41.101
607.75	40.486
608.08	41.024
608.42	41.275
608.75	41.592
609.08	40.167
609.41	41.591
609.75	42.537
610.08	42.086
610.41	41.414
610.74	41.342
611.07	41.974
611.41	41.983
611.74	42.208
612.07	41.281
612.40	41.131
612.73	42.037
613.07	41.156
613.40	41.955
613.73	41.737
614.06	41.150
614.39	41.869
614.72	42.391
615.06	40.504
615.39	40.644
615.72	41.191
616.05	42.793
616.38	41.045
616.71	41.183
617.05	40.967
617.38	41.011
617.71	41.789
618.04	41.615
618.37	41.356
618.70	41.166
619.03	41.758
619.36	41.771
619.69	43.008
620.03	42.727
620.36	41.554
620.69	43.550
621.02	41.848
621.35	41.619
621.68	42.478
622.01	43.100
622.34	42.025
622.67	42.556
623.00	40.436
623.33	41.296
623.66	41.717
623.99	42.397
624.32	41.599
624.65	41.870
624.99	41.717
625.32	41.884
625.65	39.862
625.98	42.190
626.31	42.285
626.64	41.762
626.97	41.163
627.30	41.227
627.63	41.837
627.96	40.689
628.29	43.069
628.62	40.975
628.95	42.287
629.28	43.208
629.61	42.355
629.94	41.400
630.26	41.594
630.59	42.642
630.92	41.794
631.25	41.704
631.58	43.298
631.91	42.341
632.24	40.622
632.57	41.847
632.90	42.857
633.23	43.127
633.56	43.941
633.89	42.872
634.22	43.165
634.55	42.581
634.88	44.359
635.20	43.946
635.53	42.160
635.86	45.302
636.19	42.312
636.52	42.162
636.85	41.963
637.18	43.987
637.51	42.011
637.83	42.449
638.16	43.259
638.49	42.994
638.82	41.901
639.15	41.246
639.48	43.839
639.81	42.857
640.13	42.822
640.46	42.984
640.79	43.433
641.12	42.388
641.45	43.079
641.77	43.329
642.10	42.436
642.43	44.808
642.76	44.034
643.09	43.372
643.41	42.496
643.74	44.892
644.07	44.100
644.40	42.604
644.73	44.895
645.05	43.834
645.38	46.095
645.71	43.703
646.04	41.832
646.36	45.696
646.69	45.440
647.02	43.680
647.35	44.094
647.67	43.436
648.00	43.485
648.33	41.955
648.66	42.424
648.98	43.913
649.31	42.105
649.64	42.185
649.96	43.101
650.29	41.000
650.62	44.477
650.94	45.331
651.27	45.933
651.60	44.757
651.92	44.854
652.25	45.197
652.58	42.979
652.90	43.263
653.23	42.097
653.56	43.620
653.88	41.410
654.21	40.469
654.54	41.288
654.86	42.330
655.19	42.216
655.52	38.927
655.84	35.848
656.17	42.162
656.49	60.642
656.82	68.675
657.15	54.458
657.47	40.753
657.80	30.156
658.13	23.742
658.45	32.332
658.78	39.311
659.10	40.029
659.43	40.076
659.75	41.586
660.08	41.479
660.41	42.559
660.73	45.922
661.06	43.994
661.38	44.974
661.71	44.245
662.03	42.586
662.36	41.333
662.68	43.948
663.01	45.045
663.33	43.019
663.66	46.351
663.98	44.444
664.31	44.590
664.63	42.912
664.96	45.779
665.28	43.879
665.61	44.528
665.93	45.283
666.26	44.486
666.58	42.936
666.91	43.822
667.23	44.378
667.56	44.969
667.88	45.436
668.21	45.697
668.53	43.548
668.86	45.491
669.18	42.974
669.50	45.041
669.83	46.612
670.15	42.412
670.48	40.820
670.80	43.825
671.13	42.032
671.45	43.487
671.77	46.011
672.10	42.370
672.42	41.118
672.75	40.981
673.07	41.971
673.39	42.812
673.72	42.388
674.04	40.143
674.37	41.561
674.69	40.892
675.01	42.910
675.34	40.891
675.66	41.406
675.98	44.773
676.31	44.800
676.63	43.340
676.95	44.643
677.28	43.002
677.60	43.058
677.92	44.841
678.25	43.605
678.57	43.575
678.89	42.857
679.22	44.301
679.54	43.238
679.86	42.234
680.18	42.355
680.51	41.625
680.83	41.892
681.15	40.555
681.48	43.403
681.80	40.806
682.12	39.792
682.44	39.640
682.77	43.238
683.09	44.660
683.41	43.469
683.73	41.339
684.06	42.063
684.38	43.605
684.70	41.727
685.02	41.493
685.34	42.254
685.67	41.318
685.99	39.573
686.31	40.678
686.63	41.626
686.96	41.993
687.28	37.248
687.60	41.980
687.92	43.551
688.24	44.310
688.56	41.103
688.89	40.727
689.21	40.848
689.53	43.874
689.85	43.496
690.17	43.301
690.49	42.339
690.82	42.857
691.14	43.434
691.46	41.684
691.78	44.055
692.10	41.412
692.42	40.653
692.74	42.248
693.06	41.860
693.39	37.549
693.71	44.401
694.03	44.379
694.35	45.382
694.67	40.733
694.99	40.576
695.31	40.315
695.63	45.701
695.95	43.439
696.27	41.372
696.59	44.153
696.91	45.063
697.23	44.118
697.56	41.909
697.88	41.717
698.20	42.642
698.52	40.078
698.84	43.737
699.16	42.644
699.48	42.797
699.80	45.098
700.12	43.187
700.44	41.589
700.76	42.721
701.08	45.170
701.40	41.299
701.72	45.187
702.04	45.257
702.36	47.043
702.68	44.149
703.00	41.103
703.32	44.665
703.64	42.065
703.96	43.490
704.28	42.328
704.60	42.817
704.91	42.017
705.23	45.455
705.55	44.807
705.87	44.127
706.19	44.828
706.51	45.141
706.83	46.313
707.15	44.920
707.47	45.763
707.79	43.678
708.11	42.630
708.43	45.393
708.74	40.271
709.06	44.186
709.38	44.665
709.70	44.414
710.02	44.565
710.34	41.713
710.66	46.389
710.98	43.716
711.29	42.897
711.61	44.290
711.93	48.024
712.25	46.084
712.57	45.338
712.89	46.667
713.20	46.006
713.52	45.794
713.84	42.900
714.16	42.609
714.48	41.787
714.80	41.734
715.11	40.426
715.43	41.341
715.75	46.761
716.07	44.798
716.39	44.286
716.70	40.187
717.02	47.475
717.34	48.921
717.66	50.347
717.97	49.242
718.29	49.648
718.61	40.541
718.93	49.135
719.24	48.322
719.56	42.759
719.88	39.490
720.20	44.516
720.51	43.464
720.83	48.495
721.15	44.898
721.46	43.836
721.78	47.387
722.10	48.264
722.42	48.495
722.73	44.765
723.05	43.860
723.37	48.057
723.68	43.750
724.00	45.833
724.32	51.711
724.63	46.538
724.95	46.667
725.27	49.814
725.58	47.794
725.90	47.183
726.22	47.603
726.53	45.151
726.85	47.557
727.16	48.658
727.48	45.515
727.80	47.122
728.11	44.643
728.43	48.551
728.74	44.056
729.06	43.728
729.38	49.474
729.69	48.333
730.01	46.382
730.32	43.960
730.64	44.186
730.96	43.844
731.27	39.144
731.59	43.103
731.90	40.390
732.22	43.143
732.53	41.311
732.85	43.860
733.16	42.470
733.48	46.082
733.80	45.797
734.11	46.319
734.43	47.368
734.74	39.410
735.06	42.593
735.37	42.784
735.69	40.000
736.00	43.731
736.32	40.000
736.63	44.795
736.95	40.373
737.26	45.122
737.58	42.331
737.89	48.494
738.21	44.040
738.52	45.485
738.83	47.985
739.15	42.857
739.46	44.138
739.78	43.197
740.09	42.274
740.41	44.172
740.72	45.079
741.04	51.748
741.35	48.438
741.66	48.221
741.98	49.356
742.29	49.537
742.61	41.150
742.92	47.881
743.23	44.800
743.55	46.038
743.86	45.490
744.18	44.068
744.49	49.174
744.80	52.535
745.12	50.000
745.43	47.196
745.74	55.556
746.06	47.807
746.37	43.721
746.68	53.540
747.00	55.157
747.31	53.361
747.62	47.541
747.94	48.069
748.25	47.471
748.56	47.034
748.88	52.232
749.19	46.977
749.50	48.402
749.82	45.679
750.13	53.755
750.44	40.667
750.75	44.966
751.07	42.434
751.38	42.904
751.69	41.751
752.01	45.455
752.32	44.850
752.63	48.322
752.94	47.203
753.26	47.266
753.57	46.304
753.88	43.820
754.19	48.736
754.51	42.525
754.82	42.282
755.13	42.568
755.44	47.037
755.75	42.612
756.07	48.630
756.38	45.425
756.69	42.188
757.00	46.291
757.31	43.944
757.63	38.843
757.94	43.617
758.25	44.203
758.56	40.275
758.87	40.602
759.18	46.802
759.50	44.377
759.81	45.401
760.12	42.416
760.43	42.017
760.74	43.038
761.05	43.501
761.36	41.927
761.67	42.049
761.99	43.380
762.30	42.444
762.61	43.403
762.92	43.182
763.23	46.792
763.54	47.692
763.85	43.580
764.16	45.139
764.47	42.905
764.78	41.042
765.10	42.683
765.41	41.193
765.72	41.713
766.03	44.411
766.34	47.038
766.65	48.669
766.96	52.227
767.27	51.869
767.58	51.980
767.89	54.696
768.20	57.927
768.51	49.490
768.82	50.439
769.13	53.333
769.44	45.865
769.75	47.566
770.06	48.319
770.37	53.070
770.68	53.333
770.99	52.966
771.30	46.025
771.61	48.077
771.92	50.000
772.23	43.145
772.54	51.111
772.85	54.455
773.16	52.717
773.47	54.444
773.78	50.495
774.09	61.932
774.39	54.545
774.70	45.294
775.01	46.053
775.32	44.099
775.63	63.699
775.94	57.407
776.25	56.552
776.56	55.725
776.87	59.542
777.18	61.364
777.48	70.079
777.79	58.462
778.10	55.303
778.41	66.418
778.72	51.880
779.03	51.282
779.34	50.676
779.65	52.795
779.95	52.795
780.26	55.952
780.57	63.946
780.88	56.028
781.19	67.500
781.50	51.479
781.80	46.995
782.11	49.206
782.42	43.103
782.73	55.932
783.04	60.645
783.34	58.140
783.65	57.823
783.96	54.194
784.27	50.331
784.57	48.026
784.88	57.246
785.19	57.500
785.50	61.207
785.81	59.690
786.11	60.741
786.42	62.205
786.73	60.360
787.04	56.604
787.34	51.220
787.65	57.576
787.96	56.818
788.26	62.992
788.57	57.664
788.88	56.338
789.19	52.672
789.49	54.054
789.80	52.344
790.11	51.240
790.41	55.556
790.72	57.407
791.03	56.731
791.33	64.646
791.64	69.474
791.95	73.684
792.25	57.292
792.56	70.000
792.87	70.732
793.17	64.773
793.48	61.176
793.79	66.667
794.09	73.864
794.40	68.103
794.70	54.762
795.01	60.000
795.32	55.725
795.62	58.974
795.93	57.143
796.23	57.724
796.54	63.265
796.85	86.364
797.15	85.714
797.46	76.829
797.76	71.250
798.07	74.667
798.37	56.250
798.68	72.500
798.99	85.366
799.29	70.667
799.60	63.953
799.90	78.947
800.21	75.758
800.51	78.873
800.82	87.931
801.12	83.077
801.43	84.000
801.73	94.828
802.04	67.532
802.34	73.973
802.65	105.882
802.95	97.826
803.26	100.000
803.56	108.333
803.87	77.612
804.17	87.302
804.48	66.038
804.78	79.167
805.09	98.485
805.39	80.952
805.70	92.982
806.00	64.286
806.30	87.500
806.61	64.706
806.91	65.556
807.22	66.304
807.52	76.316
807.83	78.947
808.13	81.159
808.43	104.839
808.74	76.712
809.04	92.857
809.35	88.235
809.65	77.273
809.95	100.000
810.26	114.815
810.56	104.688
810.86	95.918
811.17	84.211
811.47	71.739
811.77	96.552
812.08	79.310
812.38	111.905
812.69	119.048
812.99	91.111
813.29	88.571
813.59	135.484
813.90	74.138
814.20	113.115
814.50	94.000
814.81	94.737
815.11	112.963
815.41	98.214
815.72	105.357
816.02	126.000
816.32	92.683
816.62	103.448
816.93	124.242
817.23	129.268
817.53	87.500
817.84	100.000
818.14	109.524
818.44	102.083
818.74	92.453
819.04	100.000
819.35	145.455
819.65	109.615
819.95	109.259
820.25	119.149
820.56	132.432
820.86	121.053
821.16	78.723
821.46	102.632
821.76	89.091
822.07	71.429
822.37	118.421
822.67	118.605
822.97	115.789
823.27	84.783
823.57	121.875
823.88	105.128
824.18	81.818
824.48	143.478
824.78	119.444
825.08	156.522
825.38	162.069
825.69	164.706
825.99	102.128
826.29	86.111
826.59	134.286
826.89	150.000
827.19	137.143
827.49	119.355
827.79	146.154
828.09	92.857
828.39	113.889
828.70	113.514
829.00	160.714
829.30	187.500
829.60	113.889
829.90	129.032
830.20	93.939
830.50	159.459
830.80	158.333
831.10	146.154
831.40	176.190
831.70	183.333
832.00	153.333
832.30	182.609
832.60	191.667
832.90	151.515
833.20	210.000
833.50	113.158
833.80	105.882
834.10	89.474
834.40	152.632
834.70	110.000
835.00	168.000
835.30	110.811
835.60	125.000
835.90	108.108
836.20	188.462
836.50	177.273
836.80	114.634
837.10	126.087
837.40	315.385
837.70	131.579
838.00	160.000
838.30	179.167
838.60	156.000
838.90	370.000
839.19	250.000
839.49	123.333
839.79	134.483
840.09	142.308
840.39	233.333
840.69	184.211
840.99	90.476
841.29	160.870
841.59	215.000
841.88	172.000
842.18	311.111
842.48	157.143
842.78	162.963
843.08	292.308
843.38	168.182
843.68	192.857
843.97	457.143
844.27	113.043
844.57	1600.000
844.87	292.857
845.17	155.556
845.47	157.143
845.76	187.500
846.06	614.286
846.36	182.353
846.66	369.231
846.96	175.000
847.25	215.385
847.55	126.316
847.85	172.222
848.15	720.000
848.44	354.545
848.74	190.476
849.04	145.833
849.34	176.471
849.63	243.750
849.93	193.750
850.23	900.000
850.53	450.000
850.82	318.182
851.12	211.765
851.42	162.500
851.71	200.000
852.01	0.000
852.31	247.059
852.61	430.000
852.90	166.667
853.20	322.222
853.50	-2400.000
853.79	172.000
854.09	165.625
854.39	137.931
854.68	155.172
854.98	223.810
855.28	100.000
855.57	350.000
855.87	272.222
856.17	148.148
856.46	263.158
856.76	161.290
857.05	205.882
857.35	290.909
857.65	307.692
857.94	185.000
858.24	311.111
858.53	271.429
858.83	457.143
859.13	147.826
859.42	233.333
859.72	412.500
860.01	291.667
860.31	775.000
860.60	350.000
860.90	325.000
861.20	307.692
861.49	414.286
861.79	-4100.000
862.08	442.857
862.38	355.556
862.67	271.429
862.97	390.000
863.26	140.000
863.56	775.000
863.85	300.000
864.15	235.294
864.44	205.556
864.74	400.000
865.03	300.000
865.33	437.500
865.62	233.333
865.92	650.000
866.21	1000.000
866.51	760.000
866.80	222.222
867.10	900.000
867.39	2700.000
867.69	440.000
867.98	825.000
868.27	157.143
868.57	266.667
868.86	850.000
869.16	147.619
869.45	3400.000
869.75	-416.667
870.04	850.000
870.33	620.000
870.63	450.000
870.92	229.412
871.22	950.000
871.51	485.714
871.80	308.333
872.10	330.769
>>>>>End Processed Spectral Data<<<<<
