SpectraSuite Data File
++++++++++++++++++++++++++++++++++++
Date: Tue May 12 16:59:48 PDT 2015
User: schluterlab
Dark Spectrum Present: Yes
Reference Spectrum Present: Yes
Number of Sampled Component Spectra: 1
Spectrometers: USB2E3373
Integration Time (usec): 3000 (USB2E3373)
Spectra Averaged: 3 (USB2E3373)
Boxcar Smoothing: 0 (USB2E3373)
Correct for Electrical Dark: No (USB2E3373)
Strobe/Lamp Enabled: No (USB2E3373)
Correct for Detector Non-linearity: No (USB2E3373)
Correct for Stray Light: No (USB2E3373)
Number of Pixels in Processed Spectrum: 2048
>>>>>Begin Processed Spectral Data<<<<<
178.53	0.000
178.91	-283.333
179.29	-800.000
179.67	-4100.000
180.04	-160.000
180.42	675.000
180.80	1200.000
181.18	0.000
181.56	-225.000
181.94	0.000
182.31	1266.667
182.69	-2400.000
183.07	700.000
183.45	-3300.000
183.83	-1200.000
184.20	220.000
184.58	528.571
184.96	-307.692
185.34	-158.333
185.72	1800.000
186.09	-700.000
186.47	-3000.000
186.85	1000.000
187.23	720.000
187.61	1150.000
187.98	400.000
188.36	278.571
188.74	400.000
189.12	458.333
189.49	1000.000
189.87	0.000
190.25	400.000
190.63	1900.000
191.00	-258.333
191.38	-3000.000
191.76	-775.000
192.14	600.000
192.51	-2800.000
192.89	1750.000
193.27	1133.333
193.65	-1366.667
194.02	-600.000
194.40	428.571
194.78	-235.714
195.15	280.000
195.53	-3200.000
195.91	-700.000
196.29	3500.000
196.66	256.250
197.04	850.000
197.42	-1600.000
197.79	525.000
198.17	408.333
198.55	0.000
198.92	542.857
199.30	1233.333
199.68	2100.000
200.05	816.667
200.43	-516.667
200.81	244.444
201.18	3300.000
201.56	333.333
201.94	-600.000
202.31	-412.500
202.69	-540.000
203.07	3800.000
203.44	-550.000
203.82	325.000
204.19	860.000
204.57	-1400.000
204.95	-675.000
205.32	-640.000
205.70	700.000
206.08	700.000
206.45	-900.000
206.83	377.778
207.20	200.000
207.58	341.667
207.96	760.000
208.33	0.000
208.71	614.286
209.08	740.000
209.46	-4000.000
209.84	-875.000
210.21	1020.000
210.59	-580.000
210.96	341.667
211.34	-875.000
211.71	400.000
212.09	825.000
212.46	1850.000
212.84	-350.000
213.22	355.556
213.59	-2800.000
213.97	410.000
214.34	1200.000
214.72	1266.667
215.09	1066.667
215.47	-2700.000
215.84	-420.000
216.22	-525.000
216.59	0.000
216.97	0.000
217.34	1550.000
217.72	-1250.000
218.09	1133.333
218.47	450.000
218.84	1125.000
219.22	1066.667
219.59	966.667
219.97	557.143
220.34	500.000
220.72	1800.000
221.09	2900.000
221.47	275.000
221.84	966.667
222.22	380.000
222.59	311.111
222.97	235.714
223.34	243.750
223.72	-1850.000
224.09	1333.333
224.46	315.385
224.84	-650.000
225.21	377.778
225.59	213.333
225.96	1066.667
226.34	-420.000
226.71	-800.000
227.08	-500.000
227.46	0.000
227.83	-483.333
228.21	-1350.000
228.58	308.333
228.95	1175.000
229.33	455.556
229.70	1075.000
230.08	400.000
230.45	4100.000
230.82	-750.000
231.20	-1000.000
231.57	-1200.000
231.95	640.000
232.32	308.333
232.69	616.667
233.07	283.333
233.44	-2000.000
233.81	280.000
234.19	166.667
234.56	212.500
234.93	223.529
235.31	215.000
235.68	275.000
236.05	196.429
236.43	159.259
236.80	271.429
237.17	155.172
237.55	150.000
237.92	142.500
238.29	142.424
238.67	131.250
239.04	114.634
239.41	106.250
239.79	115.000
240.16	122.917
240.53	93.443
240.91	89.855
241.28	111.864
241.65	77.273
242.02	97.183
242.40	97.143
242.77	89.011
243.14	72.152
243.51	83.838
243.89	73.832
244.26	69.159
244.63	78.218
245.00	77.064
245.38	69.492
245.75	71.970
246.12	72.593
246.49	60.993
246.87	67.213
247.24	60.667
247.61	65.000
247.98	68.027
248.36	60.606
248.73	58.163
249.10	61.905
249.47	59.000
249.84	54.726
250.22	58.378
250.59	62.000
250.96	55.274
251.33	55.349
251.70	58.929
252.08	57.143
252.45	47.410
252.82	47.909
253.19	51.779
253.56	53.077
253.94	55.072
254.31	59.302
254.68	53.659
255.05	61.724
255.42	54.380
255.79	51.466
256.16	57.288
256.54	52.922
256.91	53.922
257.28	56.522
257.65	48.589
258.02	50.442
258.39	52.149
258.76	53.333
259.14	49.429
259.51	53.644
259.88	56.535
260.25	46.703
260.62	50.137
260.99	47.934
261.36	49.861
261.73	51.064
262.10	50.785
262.47	48.000
262.85	50.133
263.22	50.643
263.59	50.384
263.96	53.133
264.33	46.914
264.70	51.351
265.07	52.927
265.44	48.394
265.81	52.123
266.18	50.343
266.55	51.773
266.92	48.993
267.29	48.904
267.66	50.897
268.03	50.448
268.40	44.397
268.77	49.780
269.14	49.892
269.51	46.548
269.88	48.571
270.25	45.572
270.62	47.425
270.99	48.682
271.36	48.577
271.73	47.589
272.10	47.071
272.47	47.024
272.84	47.505
273.21	44.835
273.58	50.000
273.95	46.817
274.32	47.665
274.69	48.031
275.06	47.541
275.43	48.276
275.80	42.642
276.17	46.875
276.54	46.916
276.91	46.642
277.28	44.343
277.65	45.756
278.02	44.853
278.39	45.144
278.76	49.483
279.13	46.619
279.50	47.091
279.87	44.320
280.23	45.304
280.60	45.620
280.97	46.552
281.34	43.729
281.71	45.391
282.08	45.299
282.45	42.736
282.82	45.151
283.19	44.833
283.56	43.140
283.92	43.160
284.29	46.423
284.66	42.353
285.03	44.776
285.40	44.298
285.77	43.519
286.14	43.034
286.51	44.018
286.87	42.880
287.24	42.042
287.61	42.857
287.98	42.239
288.35	41.481
288.72	41.730
289.08	41.742
289.45	41.768
289.82	43.750
290.19	42.606
290.56	42.795
290.93	40.863
291.29	41.298
291.66	41.808
292.03	37.447
292.40	40.650
292.77	42.340
293.13	40.799
293.50	41.161
293.87	38.482
294.24	41.119
294.60	40.377
294.97	38.601
295.34	39.442
295.71	37.582
296.08	39.067
296.44	37.992
296.81	37.345
297.18	37.262
297.55	38.177
297.91	36.823
298.28	36.836
298.65	38.160
299.02	36.188
299.38	38.129
299.75	37.073
300.12	36.697
300.48	37.237
300.85	39.094
301.22	38.256
301.59	36.203
301.95	35.589
302.32	35.856
302.69	36.538
303.05	36.925
303.42	35.426
303.79	36.078
304.15	36.854
304.52	36.575
304.89	36.674
305.25	37.820
305.62	35.821
305.99	35.870
306.35	36.632
306.72	36.837
307.09	36.335
307.45	36.536
307.82	36.831
308.19	37.835
308.55	37.400
308.92	37.390
309.29	39.053
309.65	36.769
310.02	39.047
310.38	38.684
310.75	37.608
311.12	37.165
311.48	40.058
311.85	38.836
312.22	38.777
312.58	38.387
312.95	40.000
313.31	40.449
313.68	39.306
314.05	40.659
314.41	39.572
314.78	41.004
315.14	42.370
315.51	42.195
315.87	40.693
316.24	40.803
316.61	41.182
316.97	41.193
317.34	42.228
317.70	42.142
318.07	43.950
318.43	43.673
318.80	43.170
319.16	43.357
319.53	44.425
319.89	43.011
320.26	47.207
320.62	45.055
320.99	46.330
321.35	46.753
321.72	46.964
322.08	47.461
322.45	46.957
322.81	49.588
323.18	48.845
323.54	49.390
323.91	53.128
324.27	51.547
324.64	50.692
325.00	51.293
325.37	52.192
325.73	52.698
326.10	53.273
326.46	53.922
326.83	53.680
327.19	54.859
327.56	54.313
327.92	57.541
328.29	55.646
328.65	57.192
329.01	56.202
329.38	57.530
329.74	57.558
330.11	57.689
330.47	57.971
330.84	56.859
331.20	57.191
331.56	58.808
331.93	59.025
332.29	56.207
332.66	59.439
333.02	58.162
333.38	57.853
333.75	58.549
334.11	57.550
334.48	59.231
334.84	57.095
335.20	59.196
335.57	56.843
335.93	58.957
336.29	58.209
336.66	60.034
337.02	58.255
337.38	58.040
337.75	59.122
338.11	58.312
338.47	58.425
338.84	57.409
339.20	58.355
339.56	57.275
339.93	57.692
340.29	56.807
340.65	58.676
341.02	58.005
341.38	59.031
341.74	58.056
342.11	58.013
342.47	59.065
342.83	58.655
343.20	57.235
343.56	55.600
343.92	60.198
344.28	57.815
344.65	57.213
345.01	56.746
345.37	57.772
345.73	58.651
346.10	57.131
346.46	58.214
346.82	55.787
347.19	58.423
347.55	56.909
347.91	56.495
348.27	56.003
348.63	57.911
349.00	56.893
349.36	59.222
349.72	57.645
350.08	58.851
350.45	56.588
350.81	57.798
351.17	57.858
351.53	58.045
351.89	56.876
352.26	57.445
352.62	57.315
352.98	58.589
353.34	58.166
353.70	57.569
354.07	58.615
354.43	59.524
354.79	57.251
355.15	59.112
355.51	57.402
355.87	57.078
356.24	57.814
356.60	56.545
356.96	57.619
357.32	56.971
357.68	57.930
358.04	58.055
358.40	58.021
358.77	57.701
359.13	56.982
359.49	58.636
359.85	58.302
360.21	57.949
360.57	57.883
360.93	58.802
361.29	57.792
361.66	59.881
362.02	56.747
362.38	57.576
362.74	59.165
363.10	57.504
363.46	58.011
363.82	58.555
364.18	58.250
364.54	59.585
364.90	57.363
365.26	59.264
365.62	59.945
365.98	56.710
366.35	58.621
366.71	58.917
367.07	58.362
367.43	59.167
367.79	58.045
368.15	56.513
368.51	59.201
368.87	59.647
369.23	58.420
369.59	58.800
369.95	59.720
370.31	59.206
370.67	58.223
371.03	57.773
371.39	59.141
371.75	59.595
372.11	59.823
372.47	58.973
372.83	59.551
373.19	59.767
373.55	60.069
373.91	58.564
374.27	58.399
374.63	59.458
374.99	59.501
375.35	60.215
375.71	59.828
376.07	59.881
376.42	58.248
376.78	61.143
377.14	59.764
377.50	59.238
377.86	58.937
378.22	60.207
378.58	60.775
378.94	60.652
379.30	60.825
379.66	60.807
380.02	60.000
380.38	59.485
380.74	61.188
381.09	59.112
381.45	59.480
381.81	60.461
382.17	60.623
382.53	60.168
382.89	60.142
383.25	60.332
383.61	59.481
383.97	58.908
384.32	59.373
384.68	61.081
385.04	59.906
385.40	60.083
385.76	59.157
386.12	60.668
386.48	61.884
386.83	61.675
387.19	60.012
387.55	60.895
387.91	62.182
388.27	61.987
388.62	60.211
388.98	59.650
389.34	59.310
389.70	60.849
390.06	61.280
390.42	61.444
390.77	61.425
391.13	60.410
391.49	60.254
391.85	62.092
392.20	60.667
392.56	60.753
392.92	59.236
393.28	59.865
393.64	60.264
393.99	59.514
394.35	60.212
394.71	59.409
395.07	59.854
395.42	60.480
395.78	61.875
396.14	62.410
396.50	60.168
396.85	60.427
397.21	61.011
397.57	61.148
397.92	59.734
398.28	60.397
398.64	61.257
399.00	58.632
399.35	60.601
399.71	60.872
400.07	59.018
400.42	60.776
400.78	61.114
401.14	60.775
401.49	59.101
401.85	61.240
402.21	60.164
402.57	61.400
402.92	60.121
403.28	59.845
403.63	58.740
403.99	60.133
404.35	60.375
404.70	61.902
405.06	58.956
405.42	60.383
405.77	59.537
406.13	58.351
406.49	59.238
406.84	59.278
407.20	59.018
407.55	59.754
407.91	59.604
408.27	60.461
408.62	60.083
408.98	59.728
409.34	58.854
409.69	61.045
410.05	59.809
410.40	59.541
410.76	58.615
411.11	58.709
411.47	58.580
411.83	58.289
412.18	60.205
412.54	59.880
412.89	58.466
413.25	59.464
413.60	59.638
413.96	58.408
414.31	59.917
414.67	59.963
415.03	60.089
415.38	60.000
415.74	59.949
416.09	59.026
416.45	60.052
416.80	59.846
417.16	59.325
417.51	58.535
417.87	59.825
418.22	59.174
418.58	59.809
418.93	59.250
419.29	57.240
419.64	58.934
420.00	58.234
420.35	60.685
420.71	59.627
421.06	59.094
421.42	59.816
421.77	59.856
422.12	58.765
422.48	58.706
422.83	58.315
423.19	58.153
423.54	58.310
423.90	59.060
424.25	59.989
424.61	58.793
424.96	58.837
425.31	58.840
425.67	59.203
426.02	58.946
426.38	57.410
426.73	58.936
427.09	59.371
427.44	58.863
427.79	59.005
428.15	59.753
428.50	59.943
428.85	58.965
429.21	58.455
429.56	58.325
429.92	58.628
430.27	57.910
430.62	57.318
430.98	57.535
431.33	58.367
431.68	57.630
432.04	57.786
432.39	58.836
432.74	59.485
433.10	59.192
433.45	59.966
433.80	59.901
434.16	58.276
434.51	59.288
434.86	59.445
435.22	60.022
435.57	59.514
435.92	59.419
436.28	60.599
436.63	59.211
436.98	60.191
437.34	60.845
437.69	58.119
438.04	59.194
438.39	59.486
438.75	58.742
439.10	58.338
439.45	57.829
439.81	58.415
440.16	57.953
440.51	58.390
440.86	59.715
441.22	59.037
441.57	58.478
441.92	58.786
442.27	58.196
442.63	58.689
442.98	58.459
443.33	59.025
443.68	58.903
444.03	58.530
444.39	58.145
444.74	57.453
445.09	59.347
445.44	59.458
445.79	58.723
446.15	57.947
446.50	57.753
446.85	57.620
447.20	58.209
447.55	58.891
447.91	59.403
448.26	58.626
448.61	60.033
448.96	59.749
449.31	59.021
449.66	59.136
450.02	58.347
450.37	59.967
450.72	59.118
451.07	57.475
451.42	58.803
451.77	60.195
452.12	57.062
452.47	59.235
452.83	58.986
453.18	59.219
453.53	59.266
453.88	58.571
454.23	59.558
454.58	57.867
454.93	58.676
455.28	59.792
455.63	59.456
455.98	58.094
456.34	58.845
456.69	58.963
457.04	58.592
457.39	59.143
457.74	59.291
458.09	57.103
458.44	57.558
458.79	57.878
459.14	58.483
459.49	57.758
459.84	59.674
460.19	56.893
460.54	58.063
460.89	57.676
461.24	56.644
461.59	58.673
461.94	57.683
462.29	57.895
462.64	59.611
462.99	58.669
463.34	59.235
463.69	57.895
464.04	58.895
464.39	57.756
464.74	57.913
465.09	57.574
465.44	56.746
465.79	57.104
466.14	56.492
466.49	56.864
466.84	56.689
467.19	57.938
467.54	57.057
467.89	57.512
468.24	57.383
468.59	57.738
468.94	57.790
469.29	56.506
469.64	58.778
469.99	58.355
470.34	57.179
470.68	57.310
471.03	59.306
471.38	58.874
471.73	56.956
472.08	58.904
472.43	58.970
472.78	58.259
473.13	56.195
473.48	56.418
473.83	56.537
474.17	56.839
474.52	57.287
474.87	56.964
475.22	56.825
475.57	56.401
475.92	57.282
476.27	56.148
476.61	56.515
476.96	56.740
477.31	57.326
477.66	57.434
478.01	55.493
478.36	57.003
478.70	55.583
479.05	56.276
479.40	56.597
479.75	56.405
480.10	56.873
480.45	55.649
480.79	55.945
481.14	56.966
481.49	55.672
481.84	55.409
482.19	55.895
482.53	54.370
482.88	55.914
483.23	55.751
483.58	57.181
483.92	56.993
484.27	56.635
484.62	55.985
484.97	55.240
485.31	54.656
485.66	53.005
486.01	52.846
486.36	52.664
486.70	52.343
487.05	52.487
487.40	53.348
487.75	53.605
488.09	53.494
488.44	54.238
488.79	54.078
489.13	54.274
489.48	55.453
489.83	55.213
490.17	55.078
490.52	55.599
490.87	53.966
491.22	55.496
491.56	55.468
491.91	54.794
492.26	54.699
492.60	56.219
492.95	55.233
493.30	55.960
493.64	55.750
493.99	54.875
494.34	55.356
494.68	55.157
495.03	55.097
495.37	54.975
495.72	55.291
496.07	54.897
496.41	54.822
496.76	54.538
497.11	55.270
497.45	53.968
497.80	54.958
498.14	54.739
498.49	54.921
498.84	54.486
499.18	54.388
499.53	54.846
499.87	53.998
500.22	54.860
500.56	55.246
500.91	55.612
501.26	54.616
501.60	54.690
501.95	54.749
502.29	55.200
502.64	54.433
502.98	53.402
503.33	54.878
503.67	53.510
504.02	52.754
504.36	54.615
504.71	54.683
505.06	54.716
505.40	54.001
505.75	54.864
506.09	54.970
506.44	54.887
506.78	54.915
507.13	54.144
507.47	54.391
507.82	56.010
508.16	55.316
508.51	54.638
508.85	53.799
509.19	55.458
509.54	53.418
509.88	54.699
510.23	55.000
510.57	52.510
510.92	55.245
511.26	55.974
511.61	53.176
511.95	54.156
512.30	53.700
512.64	54.413
512.98	54.946
513.33	54.098
513.67	54.324
514.02	55.429
514.36	55.244
514.70	55.467
515.05	55.461
515.39	56.305
515.74	55.714
516.08	55.065
516.42	56.284
516.77	54.880
517.11	54.933
517.46	56.034
517.80	55.434
518.14	56.563
518.49	54.355
518.83	55.604
519.17	54.187
519.52	55.926
519.86	54.768
520.20	54.795
520.55	55.399
520.89	55.000
521.23	56.075
521.58	55.823
521.92	55.044
522.26	55.983
522.61	55.556
522.95	55.796
523.29	56.257
523.64	54.566
523.98	55.399
524.32	54.498
524.66	55.478
525.01	55.562
525.35	53.860
525.69	55.388
526.04	56.038
526.38	55.739
526.72	53.938
527.06	54.701
527.41	55.865
527.75	54.778
528.09	54.305
528.43	55.278
528.78	54.860
529.12	56.833
529.46	54.822
529.80	54.848
530.15	54.449
530.49	54.753
530.83	54.601
531.17	55.105
531.51	55.549
531.86	53.080
532.20	52.781
532.54	53.986
532.88	55.903
533.22	54.113
533.57	53.813
533.91	51.807
534.25	52.741
534.59	54.678
534.93	52.844
535.27	50.655
535.62	53.442
535.96	53.783
536.30	54.784
536.64	54.161
536.98	53.619
537.32	53.750
537.66	52.806
538.01	53.808
538.35	54.273
538.69	52.063
539.03	53.047
539.37	52.731
539.71	53.210
540.05	53.046
540.39	53.459
540.73	53.734
541.07	53.764
541.42	53.172
541.76	52.466
542.10	53.329
542.44	54.364
542.78	52.738
543.12	51.779
543.46	52.444
543.80	53.446
544.14	52.941
544.48	52.129
544.82	52.783
545.16	51.791
545.50	53.841
545.84	52.841
546.18	54.616
546.52	54.295
546.86	53.320
547.20	52.519
547.54	51.172
547.88	50.304
548.22	51.791
548.56	51.679
548.90	50.890
549.24	53.759
549.58	51.160
549.92	53.045
550.26	54.023
550.60	51.896
550.94	53.256
551.28	52.690
551.62	53.862
551.96	52.838
552.30	51.549
552.64	53.851
552.98	51.289
553.32	50.640
553.66	50.228
554.00	52.510
554.34	53.462
554.68	51.949
555.02	52.274
555.36	51.995
555.69	51.440
556.03	51.019
556.37	51.498
556.71	51.825
557.05	49.803
557.39	51.267
557.73	52.291
558.07	51.777
558.41	52.433
558.75	52.941
559.08	51.751
559.42	52.756
559.76	54.027
560.10	51.961
560.44	51.493
560.78	51.918
561.12	51.621
561.45	50.751
561.79	50.749
562.13	50.221
562.47	51.785
562.81	51.724
563.15	52.941
563.48	48.509
563.82	51.591
564.16	50.808
564.50	49.970
564.84	50.274
565.17	50.327
565.51	51.601
565.85	50.524
566.19	50.179
566.52	51.444
566.86	50.379
567.20	50.281
567.54	50.055
567.88	50.287
568.21	48.927
568.55	48.541
568.89	47.947
569.23	47.412
569.56	47.045
569.90	46.640
570.24	46.440
570.57	46.950
570.91	46.334
571.25	45.641
571.59	45.319
571.92	44.941
572.26	44.825
572.60	44.960
572.93	45.745
573.27	45.663
573.61	45.181
573.95	45.767
574.28	45.540
574.62	44.224
574.96	44.620
575.29	43.559
575.63	43.746
575.97	43.744
576.30	44.546
576.64	44.077
576.98	44.091
577.31	44.502
577.65	44.315
577.98	43.987
578.32	43.533
578.66	44.012
578.99	43.822
579.33	44.046
579.67	44.103
580.00	43.224
580.34	43.764
580.67	43.781
581.01	44.174
581.35	43.530
581.68	43.237
582.02	43.398
582.35	42.981
582.69	43.392
583.02	43.367
583.36	43.936
583.70	44.017
584.03	45.140
584.37	44.498
584.70	43.618
585.04	43.493
585.37	43.959
585.71	43.685
586.04	43.319
586.38	43.883
586.72	43.938
587.05	43.695
587.39	43.186
587.72	43.450
588.06	43.804
588.39	43.987
588.73	43.585
589.06	44.354
589.40	44.570
589.73	44.969
590.07	45.813
590.40	45.436
590.73	45.979
591.07	45.844
591.40	45.589
591.74	45.130
592.07	44.967
592.41	44.884
592.74	43.940
593.08	43.457
593.41	43.417
593.75	42.723
594.08	43.394
594.41	44.021
594.75	44.760
595.08	44.410
595.42	43.120
595.75	43.337
596.09	43.900
596.42	43.882
596.75	45.353
597.09	45.068
597.42	43.918
597.75	44.544
598.09	44.112
598.42	44.553
598.76	43.022
599.09	43.509
599.42	42.976
599.76	43.453
600.09	42.983
600.42	42.818
600.76	42.862
601.09	43.252
601.42	43.083
601.76	43.895
602.09	43.745
602.42	41.996
602.76	43.681
603.09	43.929
603.42	44.587
603.76	43.167
604.09	42.961
604.42	42.750
604.76	43.896
605.09	43.959
605.42	43.397
605.75	43.624
606.09	42.770
606.42	42.991
606.75	43.140
607.09	42.756
607.42	42.507
607.75	43.670
608.08	43.258
608.42	44.044
608.75	42.576
609.08	43.027
609.41	43.273
609.75	44.185
610.08	44.335
610.41	44.049
610.74	43.680
611.07	43.702
611.41	43.791
611.74	43.881
612.07	43.353
612.40	44.006
612.73	44.284
613.07	43.893
613.40	45.614
613.73	43.135
614.06	43.700
614.39	44.747
614.72	44.751
615.06	42.928
615.39	44.257
615.72	42.159
616.05	43.295
616.38	43.328
616.71	43.299
617.05	44.206
617.38	43.315
617.71	45.669
618.04	45.036
618.37	44.302
618.70	44.630
619.03	45.665
619.36	44.347
619.69	44.921
620.03	44.553
620.36	44.958
620.69	46.232
621.02	46.264
621.35	45.774
621.68	45.944
622.01	45.904
622.34	45.666
622.67	45.576
623.00	45.201
623.33	44.130
623.66	44.578
623.99	45.753
624.32	44.783
624.65	44.305
624.99	45.842
625.32	44.556
625.65	44.690
625.98	44.770
626.31	45.994
626.64	44.799
626.97	44.989
627.30	46.506
627.63	45.133
627.96	45.931
628.29	46.287
628.62	45.595
628.95	47.074
629.28	47.590
629.61	45.870
629.94	46.327
630.26	47.054
630.59	47.784
630.92	45.919
631.25	45.784
631.58	48.120
631.91	46.432
632.24	45.481
632.57	46.267
632.90	47.308
633.23	47.849
633.56	49.420
633.89	48.553
634.22	47.255
634.55	48.925
634.88	47.645
635.20	48.094
635.53	49.361
635.86	48.434
636.19	47.363
636.52	46.486
636.85	46.602
637.18	48.321
637.51	46.704
637.83	46.796
638.16	49.121
638.49	49.341
638.82	48.474
639.15	47.121
639.48	47.512
639.81	47.985
640.13	49.693
640.46	48.925
640.79	49.285
641.12	48.425
641.45	49.935
641.77	50.859
642.10	48.862
642.43	49.787
642.76	49.858
643.09	49.712
643.41	47.546
643.74	50.216
644.07	49.558
644.40	48.669
644.73	52.553
645.05	49.480
645.38	51.761
645.71	47.800
646.04	48.855
646.36	50.861
646.69	50.720
647.02	49.280
647.35	49.449
647.67	50.891
648.00	49.674
648.33	49.774
648.66	48.788
648.98	47.101
649.31	44.534
649.64	47.718
649.96	48.649
650.29	48.714
650.62	47.865
650.94	49.247
651.27	52.313
651.60	49.452
651.92	47.158
652.25	49.764
652.58	46.809
652.90	49.701
653.23	46.824
653.56	48.961
653.88	49.927
654.21	47.801
654.54	46.852
654.86	47.935
655.19	46.174
655.52	40.716
655.84	33.971
656.17	39.769
656.49	56.568
656.82	65.060
657.15	52.609
657.47	39.786
657.80	29.571
658.13	23.547
658.45	31.912
658.78	38.163
659.10	38.439
659.43	39.445
659.75	42.025
660.08	42.105
660.41	45.009
660.73	50.063
661.06	50.000
661.38	51.618
661.71	47.482
662.03	49.810
662.36	50.095
662.68	47.114
663.01	49.009
663.33	47.925
663.66	52.860
663.98	49.008
664.31	50.000
664.63	51.724
664.96	51.220
665.28	47.646
665.61	47.170
665.93	48.113
666.26	48.972
666.58	49.908
666.91	50.193
667.23	46.787
667.56	50.103
667.88	48.963
668.21	47.746
668.53	51.008
668.86	50.100
669.18	49.898
669.50	47.521
669.83	49.076
670.15	51.975
670.48	46.680
670.80	47.410
671.13	48.606
671.45	50.902
671.77	46.568
672.10	47.756
672.42	44.737
672.75	45.411
673.07	46.582
673.39	45.687
673.72	46.713
674.04	46.774
674.37	45.735
674.69	46.097
675.01	47.201
675.34	48.643
675.66	49.219
675.98	49.507
676.31	48.600
676.63	47.117
676.95	48.611
677.28	47.059
677.60	50.101
677.92	48.413
678.25	47.868
678.57	45.251
678.89	49.367
679.22	46.691
679.54	46.975
679.86	47.295
680.18	45.694
680.51	45.108
680.83	41.723
681.15	46.274
681.48	46.354
681.80	44.133
682.12	48.962
682.44	45.586
682.77	46.263
683.09	48.155
683.41	46.122
683.73	45.866
684.06	47.421
684.38	46.705
684.70	45.863
685.02	43.750
685.34	45.246
685.67	43.569
685.99	45.320
686.31	43.760
686.63	45.366
686.96	43.627
687.28	44.128
687.60	43.857
687.92	44.054
688.24	46.034
688.56	45.196
688.89	44.551
689.21	43.545
689.53	46.443
689.85	44.512
690.17	45.049
690.49	46.371
690.82	45.588
691.14	45.657
691.46	48.871
691.78	46.394
692.10	47.328
692.42	43.194
692.74	43.992
693.06	46.705
693.39	44.466
693.71	43.026
694.03	45.365
694.35	46.787
694.67	44.399
694.99	47.894
695.31	45.721
695.63	48.869
695.95	46.380
696.27	47.788
696.59	48.687
696.91	48.608
697.23	48.643
697.56	41.701
697.88	44.311
698.20	43.585
698.52	40.661
698.84	43.532
699.16	45.629
699.48	44.068
699.80	48.366
700.12	50.808
700.44	42.757
700.76	49.165
701.08	45.692
701.40	44.156
701.72	49.733
702.04	50.678
702.36	49.194
702.68	50.266
703.00	45.113
703.32	46.402
703.64	46.348
703.96	48.177
704.28	47.090
704.60	50.141
704.91	47.619
705.23	46.023
705.55	47.774
705.87	51.429
706.19	49.216
706.51	52.038
706.83	48.083
707.15	45.989
707.47	47.700
707.79	45.747
708.11	40.363
708.43	45.393
708.74	42.308
709.06	45.349
709.38	47.891
709.70	45.232
710.02	50.272
710.34	41.713
710.66	45.278
710.98	46.995
711.29	49.861
711.61	48.468
711.93	45.593
712.25	50.602
712.57	45.659
712.89	48.182
713.20	51.757
713.52	46.106
713.84	49.849
714.16	44.638
714.48	43.228
714.80	47.967
715.11	44.415
715.43	46.089
715.75	46.197
716.07	45.376
716.39	49.143
716.70	44.548
717.02	51.178
717.34	51.079
717.66	47.569
717.97	58.333
718.29	47.887
718.61	47.297
718.93	48.789
719.24	52.349
719.56	45.517
719.88	43.949
720.20	43.871
720.51	45.425
720.83	50.836
721.15	51.361
721.46	45.205
721.78	46.341
722.10	49.653
722.42	48.829
722.73	44.404
723.05	48.421
723.37	52.650
723.68	52.734
724.00	51.515
724.32	49.049
724.63	48.462
724.95	50.588
725.27	48.699
725.58	50.735
725.90	46.479
726.22	46.233
726.53	45.485
726.85	49.511
727.16	52.349
727.48	48.173
727.80	47.482
728.11	49.643
728.43	50.000
728.74	48.252
729.06	41.935
729.38	48.772
729.69	46.667
730.01	46.382
730.32	44.631
730.64	48.505
730.96	43.243
731.27	38.838
731.59	40.805
731.90	44.568
732.22	43.143
732.53	41.311
732.85	46.784
733.16	42.470
733.48	44.828
733.80	45.797
734.11	47.853
734.43	47.076
734.74	43.164
735.06	43.386
735.37	42.526
735.69	43.188
736.00	46.789
736.32	43.636
736.63	43.849
736.95	44.099
737.26	46.646
737.58	44.479
737.89	45.181
738.21	45.695
738.52	48.161
738.83	47.619
739.15	47.038
739.46	40.000
739.78	45.238
740.09	42.566
740.41	42.945
740.72	44.762
741.04	46.503
741.35	51.172
741.66	51.779
741.98	51.502
742.29	48.611
742.61	47.345
742.92	50.424
743.23	50.400
743.55	47.925
743.86	45.882
744.18	53.390
744.49	50.000
744.80	58.065
745.12	55.804
745.43	56.542
745.74	52.444
746.06	50.439
746.37	51.628
746.68	60.619
747.00	50.673
747.31	49.160
747.62	45.902
747.94	51.502
748.25	45.136
748.56	53.390
748.88	50.446
749.19	47.907
749.50	50.228
749.82	50.617
750.13	48.617
750.44	40.667
750.75	45.638
751.07	45.066
751.38	45.215
751.69	44.444
752.01	46.503
752.32	45.183
752.63	46.309
752.94	46.853
753.26	50.781
753.57	50.195
753.88	47.191
754.19	42.599
754.51	43.189
754.82	43.289
755.13	47.297
755.44	42.222
755.75	43.986
756.07	40.411
756.38	46.078
756.69	45.625
757.00	45.994
757.31	41.972
757.63	42.424
757.94	38.564
758.25	41.063
758.56	40.046
758.87	43.108
759.18	42.151
759.50	43.769
759.81	42.433
760.12	42.697
760.43	43.417
760.74	38.987
761.05	38.462
761.36	39.323
761.67	41.779
761.99	44.789
762.30	39.871
762.61	36.806
762.92	43.561
763.23	46.792
763.54	42.692
763.85	42.023
764.16	45.139
764.47	44.257
764.78	37.459
765.10	42.683
765.41	42.330
765.72	38.950
766.03	39.577
766.34	46.690
766.65	44.867
766.96	45.344
767.27	47.196
767.58	50.990
767.89	54.696
768.20	51.220
768.51	48.469
768.82	40.351
769.13	39.216
769.44	43.985
769.75	44.195
770.06	49.580
770.37	45.175
770.68	42.667
770.99	51.271
771.30	50.628
771.61	47.692
771.92	43.511
772.23	45.968
772.54	51.111
772.85	50.990
773.16	51.630
773.47	51.667
773.78	44.059
774.09	58.523
774.39	50.909
774.70	54.118
775.01	53.289
775.32	49.689
775.63	54.110
775.94	62.963
776.25	52.414
776.56	58.015
776.87	57.252
777.18	51.515
777.48	58.268
777.79	61.538
778.10	53.030
778.41	67.164
778.72	51.880
779.03	50.641
779.34	58.108
779.65	55.280
779.95	56.522
780.26	46.429
780.57	61.905
780.88	59.574
781.19	66.667
781.50	53.254
781.80	53.552
782.11	50.794
782.42	51.724
782.73	46.893
783.04	52.258
783.34	58.140
783.65	52.381
783.96	54.839
784.27	52.318
784.57	45.395
784.88	55.072
785.19	62.500
785.50	63.793
785.81	68.992
786.11	51.852
786.42	53.543
786.73	66.667
787.04	54.717
787.34	50.407
787.65	57.576
787.96	56.061
788.26	67.717
788.57	55.474
788.88	46.479
789.19	57.252
789.49	59.459
789.80	59.375
790.11	57.025
790.41	63.889
790.72	59.259
791.03	55.769
791.33	56.566
791.64	67.368
791.95	66.316
792.25	66.667
792.56	55.000
792.87	68.293
793.17	69.318
793.48	67.059
793.79	63.218
794.09	75.000
794.40	63.793
794.70	52.381
795.01	53.077
795.32	63.359
795.62	49.573
795.93	58.824
796.23	61.789
796.54	62.245
796.85	65.909
797.15	72.727
797.46	78.049
797.76	65.000
798.07	65.333
798.37	72.500
798.68	75.000
798.99	80.488
799.29	66.667
799.60	60.465
799.90	69.737
800.21	84.848
800.51	80.282
800.82	81.034
801.12	92.308
801.43	82.667
801.73	75.862
802.04	71.429
802.34	89.041
802.65	92.157
802.95	71.739
803.26	93.548
803.56	105.000
803.87	80.597
804.17	96.825
804.48	94.340
804.78	81.944
805.09	86.364
805.39	98.413
805.70	82.456
806.00	71.429
806.30	84.375
806.61	65.882
806.91	78.889
807.22	64.130
807.52	65.789
807.83	77.632
808.13	78.261
808.43	87.097
808.74	73.973
809.04	83.929
809.35	80.882
809.65	84.848
809.95	94.118
810.26	94.444
810.56	96.875
810.86	79.592
811.17	94.737
811.47	86.957
811.77	82.759
812.08	86.207
812.38	100.000
812.69	114.286
812.99	93.333
813.29	125.714
813.59	132.258
813.90	70.690
814.20	75.410
814.50	82.000
814.81	68.421
815.11	105.556
815.41	87.500
815.72	96.429
816.02	84.000
816.32	109.756
816.62	105.172
816.93	121.212
817.23	129.268
817.53	103.571
817.84	120.000
818.14	97.619
818.44	104.167
818.74	92.453
819.04	87.179
819.35	154.545
819.65	121.154
819.95	109.259
820.25	110.638
820.56	113.514
820.86	110.526
821.16	89.362
821.46	115.789
821.76	101.818
822.07	83.333
822.37	89.474
822.67	113.953
822.97	84.211
823.27	117.391
823.57	121.875
823.88	100.000
824.18	109.091
824.48	139.130
824.78	111.111
825.08	173.913
825.38	141.379
825.69	158.824
825.99	95.745
826.29	83.333
826.59	122.857
826.89	150.000
827.19	100.000
827.49	167.742
827.79	165.385
828.09	97.619
828.39	111.111
828.70	97.297
829.00	175.000
829.30	206.250
829.60	86.111
829.90	119.355
830.20	118.182
830.50	100.000
830.80	191.667
831.10	176.923
831.40	157.143
831.70	150.000
832.00	146.667
832.30	200.000
832.60	212.500
832.90	154.545
833.20	195.000
833.50	144.737
833.80	108.824
834.10	97.368
834.40	136.842
834.70	90.000
835.00	164.000
835.30	105.405
835.60	168.750
835.90	132.432
836.20	153.846
836.50	150.000
836.80	117.073
837.10	130.435
837.40	330.769
837.70	157.895
838.00	133.333
838.30	175.000
838.60	148.000
838.90	310.000
839.19	150.000
839.49	156.667
839.79	172.414
840.09	134.615
840.39	206.667
840.69	194.737
840.99	147.619
841.29	208.696
841.59	195.000
841.88	160.000
842.18	211.111
842.48	150.000
842.78	140.741
843.08	276.923
843.38	186.364
843.68	264.286
843.97	514.286
844.27	169.565
844.57	1400.000
844.87	285.714
845.17	216.667
845.47	171.429
845.76	162.500
846.06	400.000
846.36	211.765
846.66	292.308
846.96	250.000
847.25	192.308
847.55	210.526
847.85	255.556
848.15	660.000
848.44	300.000
848.74	209.524
849.04	183.333
849.34	200.000
849.63	193.750
849.93	231.250
850.23	1233.333
850.53	350.000
850.82	281.818
851.12	223.529
851.42	204.167
851.71	268.750
852.01	0.000
852.31	217.647
852.61	340.000
852.90	225.000
853.20	444.444
853.50	-2600.000
853.79	144.000
854.09	146.875
854.39	175.862
854.68	162.069
854.98	219.048
855.28	125.806
855.57	250.000
855.87	205.556
856.17	125.926
856.46	173.684
856.76	135.484
857.05	258.824
857.35	272.727
857.65	246.154
857.94	200.000
858.24	388.889
858.53	264.286
858.83	700.000
859.13	191.304
859.42	311.111
859.72	337.500
860.01	250.000
860.31	875.000
860.60	330.000
860.90	450.000
861.20	253.846
861.49	457.143
861.79	-3100.000
862.08	485.714
862.38	366.667
862.67	278.571
862.97	370.000
863.26	140.000
863.56	875.000
863.85	307.692
864.15	235.294
864.44	227.778
864.74	400.000
865.03	345.455
865.33	400.000
865.62	220.000
865.92	583.333
866.21	925.000
866.51	820.000
866.80	255.556
867.10	1033.333
867.39	3000.000
867.69	580.000
867.98	800.000
868.27	190.476
868.57	233.333
868.86	875.000
869.16	171.429
869.45	3600.000
869.75	-583.333
870.04	775.000
870.33	860.000
870.63	450.000
870.92	223.529
871.22	700.000
871.51	528.571
871.80	291.667
872.10	315.385
>>>>>End Processed Spectral Data<<<<<
