SpectraSuite Data File
++++++++++++++++++++++++++++++++++++
Date: Wed May 13 21:45:47 PDT 2015
User: schluterlab
Dark Spectrum Present: Yes
Reference Spectrum Present: Yes
Number of Sampled Component Spectra: 1
Spectrometers: USB2E3373
Integration Time (usec): 3000 (USB2E3373)
Spectra Averaged: 3 (USB2E3373)
Boxcar Smoothing: 0 (USB2E3373)
Correct for Electrical Dark: No (USB2E3373)
Strobe/Lamp Enabled: No (USB2E3373)
Correct for Detector Non-linearity: No (USB2E3373)
Correct for Stray Light: No (USB2E3373)
Number of Pixels in Processed Spectrum: 2048
>>>>>Begin Processed Spectral Data<<<<<
178.53	0.000
178.91	150.000
179.29	133.333
179.67	-500.000
180.04	-333.333
180.42	260.000
180.80	900.000
181.18	333.333
181.56	-450.000
181.94	-250.000
182.31	9.091
182.69	123.077
183.07	-200.000
183.45	283.333
183.83	133.333
184.20	71.429
184.58	-266.667
184.96	366.667
185.34	157.143
185.72	0.000
186.09	-400.000
186.47	-240.000
186.85	220.000
187.23	-250.000
187.61	500.000
187.98	300.000
188.36	-50.000
188.74	0.000
189.12	0.000
189.49	100.000
189.87	66.667
190.25	340.000
190.63	300.000
191.00	-60.000
191.38	40.000
191.76	400.000
192.14	100.000
192.51	-15.789
192.89	233.333
193.27	125.000
193.65	-260.000
194.02	154.545
194.40	170.000
194.78	-200.000
195.15	-0.000
195.53	-120.000
195.91	-87.500
196.29	-366.667
196.66	0.000
197.04	800.000
197.42	-120.000
197.79	-50.000
198.17	-125.000
198.55	-333.333
198.92	75.000
199.30	-100.000
199.68	80.000
200.05	250.000
200.43	16.667
200.81	-1600.000
201.18	-260.000
201.56	-16.667
201.94	575.000
202.31	4.348
202.69	-42.857
203.07	-466.667
203.44	-100.000
203.82	-500.000
204.19	-130.000
204.57	0.000
204.95	-33.333
205.32	0.000
205.70	50.000
206.08	-225.000
206.45	-200.000
206.83	350.000
207.20	-333.333
207.58	30.000
207.96	-1500.000
208.33	-142.857
208.71	-1300.000
209.08	175.000
209.46	350.000
209.84	0.000
210.21	170.000
210.59	2300.000
210.96	200.000
211.34	700.000
211.71	-200.000
212.09	-50.000
212.46	-90.000
212.84	-233.333
213.22	75.000
213.59	-600.000
213.97	-500.000
214.34	-500.000
214.72	-30.769
215.09	150.000
215.47	122.222
215.84	250.000
216.22	-62.500
216.59	100.000
216.97	333.333
217.34	177.778
217.72	0.000
218.09	200.000
218.47	400.000
218.84	-157.143
219.22	-50.000
219.59	-133.333
219.97	-200.000
220.34	-25.000
220.72	-140.000
221.09	0.000
221.47	-50.000
221.84	-700.000
222.22	0.000
222.59	500.000
222.97	-100.000
223.34	-50.000
223.72	-600.000
224.09	-650.000
224.46	-63.636
224.84	-12.500
225.21	-14.286
225.59	-200.000
225.96	-16.667
226.34	-60.000
226.71	-200.000
227.08	400.000
227.46	-150.000
227.83	300.000
228.21	-18.750
228.58	-425.000
228.95	-64.706
229.33	31.250
229.70	-75.000
230.08	61.538
230.45	-250.000
230.82	-83.333
231.20	228.571
231.57	-125.000
231.95	-100.000
232.32	-58.333
232.69	-35.294
233.07	-1400.000
233.44	-8.696
233.81	-400.000
234.19	4.167
234.56	-73.333
234.93	-100.000
235.31	52.632
235.68	-46.154
236.05	23.077
236.43	-5.556
236.80	-3.030
237.17	-60.000
237.55	-94.118
237.92	-37.931
238.29	-22.222
238.67	25.000
239.04	-6.452
239.41	-2.128
239.79	19.149
240.16	0.000
240.53	10.714
240.91	5.357
241.28	14.286
241.65	9.677
242.02	13.158
242.40	11.594
242.77	-4.348
243.14	0.000
243.51	14.894
243.89	19.231
244.26	20.755
244.63	1.923
245.00	8.333
245.38	7.563
245.75	11.475
246.12	16.541
246.49	1.626
246.87	5.042
247.24	10.811
247.61	14.570
247.98	8.333
248.36	3.550
248.73	6.180
249.10	9.091
249.47	10.215
249.84	10.000
250.22	15.423
250.59	11.215
250.96	12.273
251.33	6.220
251.70	11.715
252.08	10.042
252.45	15.638
252.82	14.449
253.19	8.949
253.56	11.151
253.94	17.082
254.31	12.324
254.68	16.107
255.05	13.531
255.42	10.490
255.79	13.497
256.16	16.088
256.54	11.746
256.91	11.076
257.28	11.635
257.65	8.917
258.02	12.903
258.39	14.035
258.76	11.047
259.14	13.636
259.51	11.236
259.88	13.821
260.25	14.167
260.62	8.989
260.99	11.406
261.36	11.140
261.73	12.840
262.10	11.450
262.47	9.877
262.85	11.940
263.22	12.308
263.59	12.208
263.96	11.679
264.33	11.298
264.70	13.721
265.07	11.111
265.44	12.414
265.81	14.416
266.18	11.617
266.55	11.354
266.92	10.593
267.29	11.934
267.66	12.527
268.03	12.140
268.40	11.017
268.77	13.843
269.14	13.265
269.51	12.526
269.88	11.202
270.25	13.347
270.62	11.475
270.99	12.598
271.36	13.294
271.73	15.060
272.10	13.524
272.47	11.900
272.84	12.402
273.21	14.090
273.58	10.656
273.95	12.075
274.32	12.313
274.69	13.843
275.06	12.898
275.43	10.923
275.80	12.943
276.17	11.971
276.54	11.368
276.91	15.505
277.28	11.552
277.65	12.587
278.02	12.321
278.39	11.901
278.76	14.214
279.13	10.463
279.50	12.414
279.87	11.413
280.23	13.333
280.60	12.284
280.97	12.338
281.34	14.196
281.71	9.919
282.08	12.308
282.45	11.639
282.82	15.815
283.19	14.177
283.56	11.875
283.92	12.997
284.29	12.949
284.66	12.356
285.03	11.075
285.40	11.782
285.77	13.063
286.14	13.070
286.51	14.243
286.87	10.308
287.24	12.537
287.61	15.211
287.98	13.676
288.35	11.028
288.72	12.339
289.08	11.823
289.45	13.950
289.82	13.767
290.19	13.324
290.56	13.068
290.93	12.431
291.29	13.406
291.66	15.437
292.03	13.488
292.40	14.536
292.77	15.127
293.13	13.947
293.50	15.686
293.87	15.067
294.24	13.757
294.60	15.735
294.97	16.402
295.34	14.116
295.71	14.717
296.08	14.398
296.44	14.413
296.81	16.078
297.18	17.125
297.55	15.802
297.91	16.646
298.28	16.223
298.65	18.103
299.02	17.827
299.38	16.442
299.75	16.707
300.12	16.512
300.48	16.257
300.85	17.898
301.22	16.609
301.59	17.840
301.95	17.305
302.32	17.620
302.69	17.740
303.05	17.276
303.42	20.000
303.79	20.189
304.15	19.277
304.52	20.430
304.89	20.377
305.25	19.759
305.62	20.499
305.99	21.763
306.35	21.630
306.72	21.465
307.09	22.002
307.45	21.193
307.82	20.842
308.19	21.003
308.55	22.108
308.92	23.281
309.29	22.823
309.65	23.277
310.02	23.260
310.38	24.797
310.75	24.063
311.12	25.462
311.48	24.036
311.85	26.673
312.22	25.725
312.58	25.894
312.95	25.473
313.31	27.089
313.68	27.385
314.05	27.410
314.41	28.915
314.78	30.645
315.14	28.519
315.51	28.164
315.87	30.028
316.24	31.589
316.61	32.694
316.97	31.296
317.34	30.838
317.70	32.649
318.07	32.209
318.43	34.598
318.80	32.984
319.16	34.041
319.53	35.753
319.89	35.411
320.26	37.523
320.62	37.349
320.99	36.822
321.35	39.008
321.72	40.231
322.08	39.760
322.45	42.276
322.81	43.346
323.18	43.381
323.54	45.126
323.91	44.625
324.27	46.175
324.64	45.557
325.00	48.119
325.37	48.208
325.73	49.158
326.10	50.715
326.46	51.589
326.83	52.913
327.19	53.171
327.56	54.553
327.92	54.224
328.29	56.845
328.65	57.756
329.01	57.344
329.38	59.565
329.74	58.541
330.11	59.243
330.47	59.896
330.84	59.747
331.20	58.753
331.56	61.413
331.93	59.948
332.29	61.859
332.66	60.169
333.02	61.599
333.38	62.544
333.75	63.396
334.11	63.021
334.48	63.121
334.84	61.926
335.20	61.235
335.57	62.750
335.93	63.058
336.29	64.098
336.66	62.991
337.02	62.783
337.38	63.534
337.75	62.102
338.11	62.852
338.47	62.928
338.84	61.340
339.20	64.727
339.56	63.737
339.93	64.304
340.29	61.998
340.65	63.302
341.02	61.647
341.38	63.429
341.74	64.034
342.11	63.006
342.47	64.519
342.83	63.235
343.20	65.651
343.56	64.268
343.92	62.876
344.28	64.692
344.65	64.653
345.01	63.438
345.37	64.227
345.73	64.216
346.10	65.169
346.46	64.797
346.82	65.088
347.19	63.608
347.55	65.105
347.91	64.380
348.27	64.353
348.63	64.583
349.00	64.701
349.36	65.149
349.72	63.960
350.08	64.977
350.45	65.701
350.81	66.197
351.17	65.435
351.53	66.222
351.89	65.925
352.26	63.552
352.62	64.806
352.98	66.294
353.34	67.552
353.70	65.576
354.07	66.353
354.43	63.686
354.79	66.987
355.15	65.295
355.51	65.376
355.87	66.224
356.24	67.095
356.60	66.224
356.96	65.848
357.32	65.944
357.68	65.546
358.04	66.175
358.40	65.736
358.77	65.367
359.13	68.638
359.49	66.389
359.85	66.338
360.21	67.155
360.57	66.844
360.93	69.423
361.29	67.654
361.66	67.957
362.02	67.383
362.38	66.765
362.74	66.715
363.10	67.824
363.46	67.795
363.82	69.254
364.18	67.658
364.54	69.584
364.90	68.502
365.26	67.799
365.62	68.608
365.98	68.256
366.35	68.723
366.71	68.046
367.07	69.100
367.43	68.153
367.79	69.423
368.15	68.776
368.51	67.229
368.87	69.784
369.23	69.181
369.59	69.063
369.95	68.868
370.31	68.550
370.67	69.008
371.03	70.082
371.39	70.972
371.75	69.929
372.11	70.014
372.47	68.709
372.83	69.972
373.19	70.216
373.55	70.087
373.91	69.661
374.27	69.087
374.63	71.693
374.99	69.220
375.35	69.452
375.71	69.837
376.07	70.391
376.42	70.254
376.78	70.013
377.14	72.203
377.50	70.665
377.86	71.116
378.22	70.670
378.58	70.492
378.94	72.125
379.30	69.956
379.66	69.667
380.02	70.588
380.38	69.880
380.74	70.891
381.09	71.291
381.45	70.133
381.81	71.349
382.17	69.817
382.53	70.338
382.89	70.748
383.25	71.605
383.61	71.126
383.97	71.062
384.32	71.141
384.68	71.499
385.04	69.884
385.40	71.918
385.76	69.830
386.12	70.691
386.48	70.909
386.83	72.403
387.19	71.808
387.55	71.122
387.91	71.218
388.27	70.345
388.62	71.723
388.98	72.215
389.34	71.115
389.70	70.452
390.06	70.625
390.42	69.845
390.77	71.365
391.13	72.159
391.49	69.639
391.85	70.735
392.20	72.180
392.56	71.746
392.92	71.679
393.28	68.855
393.64	71.315
393.99	69.155
394.35	69.753
394.71	70.321
395.07	68.931
395.42	69.470
395.78	69.241
396.14	71.211
396.50	70.070
396.85	72.785
397.21	69.538
397.57	70.186
397.92	70.898
398.28	70.220
398.64	69.945
399.00	68.862
399.35	71.453
399.71	69.423
400.07	69.699
400.42	70.470
400.78	69.305
401.14	69.651
401.49	69.443
401.85	71.007
402.21	70.402
402.57	68.853
402.92	68.961
403.28	69.981
403.63	69.002
403.99	68.906
404.35	69.888
404.70	68.157
405.06	69.289
405.42	69.535
405.77	69.182
406.13	68.000
406.49	68.963
406.84	68.132
407.20	68.680
407.55	68.896
407.91	66.777
408.27	67.686
408.62	68.754
408.98	67.694
409.34	68.564
409.69	69.266
410.05	68.408
410.40	66.890
410.76	67.930
411.11	68.097
411.47	69.409
411.83	69.495
412.18	67.254
412.54	67.794
412.89	69.404
413.25	66.844
413.60	68.464
413.96	66.979
414.31	67.571
414.67	68.000
415.03	69.080
415.38	67.569
415.74	68.031
416.09	66.689
416.45	68.694
416.80	68.054
417.16	68.016
417.51	68.721
417.87	68.056
418.22	68.261
418.58	68.003
418.93	68.613
419.29	68.779
419.64	67.939
420.00	70.349
420.35	67.842
420.71	68.495
421.06	68.881
421.42	69.465
421.77	68.324
422.12	68.883
422.48	67.884
422.83	68.695
423.19	68.028
423.54	69.435
423.90	67.874
424.25	69.902
424.61	68.145
424.96	68.539
425.31	67.078
425.67	69.136
426.02	70.848
426.38	69.900
426.73	68.723
427.09	68.230
427.44	68.115
427.79	69.359
428.15	68.869
428.50	68.822
428.85	69.496
429.21	68.655
429.56	69.713
429.92	70.068
430.27	68.456
430.62	69.412
430.98	69.381
431.33	69.210
431.68	69.010
432.04	69.972
432.39	69.342
432.74	69.221
433.10	69.553
433.45	69.882
433.80	69.828
434.16	69.689
434.51	70.272
434.86	71.908
435.22	71.477
435.57	70.209
435.92	70.869
436.28	70.511
436.63	69.573
436.98	71.798
437.34	71.306
437.69	71.251
438.04	69.892
438.39	71.606
438.75	71.156
439.10	71.429
439.45	69.976
439.81	72.968
440.16	71.478
440.51	70.571
440.86	72.081
441.22	71.773
441.57	69.740
441.92	71.643
442.27	69.643
442.63	70.560
442.98	71.296
443.33	71.050
443.68	70.269
444.03	70.989
444.39	72.682
444.74	71.894
445.09	69.438
445.44	72.225
445.79	72.070
446.15	72.102
446.50	71.586
446.85	72.368
447.20	72.452
447.55	71.628
447.91	71.573
448.26	72.899
448.61	72.842
448.96	71.640
449.31	71.845
449.66	72.470
450.02	72.314
450.37	71.974
450.72	71.355
451.07	72.288
451.42	70.181
451.77	71.455
452.12	72.549
452.47	72.628
452.83	72.347
453.18	73.138
453.53	71.753
453.88	71.988
454.23	73.053
454.58	71.569
454.93	72.675
455.28	72.961
455.63	72.489
455.98	72.002
456.34	71.456
456.69	70.990
457.04	71.703
457.39	72.940
457.74	71.574
458.09	71.209
458.44	71.563
458.79	69.962
459.14	69.719
459.49	72.195
459.84	69.504
460.19	71.849
460.54	72.689
460.89	71.847
461.24	71.948
461.59	72.403
461.94	71.049
462.29	72.610
462.64	71.108
462.99	70.758
463.34	72.307
463.69	71.585
464.04	70.648
464.39	71.629
464.74	72.052
465.09	70.304
465.44	71.100
465.79	71.708
466.14	70.182
466.49	71.320
466.84	70.472
467.19	69.618
467.54	71.030
467.89	71.339
468.24	71.174
468.59	71.383
468.94	71.456
469.29	72.108
469.64	73.013
469.99	71.310
470.34	70.870
470.68	71.896
471.03	70.945
471.38	69.680
471.73	71.468
472.08	72.440
472.43	72.625
472.78	70.318
473.13	68.865
473.48	70.059
473.83	69.931
474.17	72.266
474.52	71.327
474.87	70.567
475.22	70.894
475.57	69.437
475.92	70.611
476.27	69.522
476.61	70.215
476.96	70.588
477.31	68.501
477.66	70.169
478.01	68.846
478.36	69.210
478.70	68.153
479.05	69.367
479.40	67.551
479.75	69.926
480.10	68.485
480.45	67.876
480.79	69.487
481.14	69.048
481.49	69.758
481.84	68.473
482.19	66.929
482.53	68.952
482.88	69.415
483.23	67.661
483.58	68.667
483.92	68.434
484.27	68.115
484.62	66.844
484.97	67.939
485.31	66.429
485.66	63.634
486.01	64.004
486.36	64.413
486.70	64.601
487.05	66.743
487.40	65.554
487.75	66.293
488.09	66.062
488.44	67.192
488.79	67.070
489.13	65.686
489.48	67.379
489.83	66.503
490.17	67.000
490.52	68.303
490.87	66.203
491.22	67.499
491.56	68.999
491.91	66.347
492.26	67.553
492.60	67.196
492.95	67.153
493.30	67.684
493.64	64.700
493.99	66.763
494.34	66.137
494.68	66.683
495.03	66.947
495.37	66.569
495.72	66.216
496.07	66.683
496.41	66.168
496.76	66.910
497.11	65.962
497.45	65.856
497.80	67.037
498.14	66.448
498.49	66.213
498.84	65.587
499.18	66.351
499.53	65.042
499.87	64.726
500.22	65.655
500.56	65.998
500.91	65.996
501.26	63.300
501.60	65.147
501.95	64.351
502.29	65.437
502.64	64.465
502.98	64.499
503.33	65.304
503.67	64.946
504.02	65.245
504.36	63.893
504.71	64.533
505.06	65.206
505.40	64.794
505.75	64.903
506.09	64.384
506.44	63.407
506.78	63.687
507.13	64.449
507.47	64.316
507.82	63.893
508.16	64.169
508.51	63.171
508.85	63.815
509.19	62.963
509.54	64.290
509.88	63.441
510.23	62.474
510.57	63.612
510.92	63.685
511.26	65.127
511.61	64.160
511.95	63.616
512.30	62.909
512.64	63.734
512.98	61.662
513.33	63.380
513.67	63.089
514.02	64.310
514.36	62.921
514.70	62.933
515.05	63.312
515.39	62.323
515.74	62.463
516.08	62.183
516.42	61.694
516.77	62.039
517.11	62.904
517.46	63.866
517.80	64.588
518.14	62.278
518.49	61.965
518.83	61.098
519.17	62.590
519.52	62.967
519.86	62.234
520.20	61.734
520.55	62.500
520.89	61.796
521.23	64.615
521.58	61.947
521.92	61.094
522.26	62.524
522.61	62.637
522.95	63.212
523.29	62.286
523.64	61.920
523.98	61.563
524.32	60.302
524.66	62.013
525.01	62.254
525.35	61.488
525.69	60.040
526.04	60.326
526.38	59.911
526.72	60.815
527.06	59.703
527.41	60.424
527.75	59.012
528.09	61.947
528.43	60.787
528.78	59.625
529.12	61.255
529.46	59.437
529.80	60.712
530.15	58.044
530.49	59.704
530.83	60.393
531.17	60.685
531.51	57.586
531.86	58.604
532.20	59.821
532.54	58.414
532.88	58.884
533.22	58.249
533.57	56.954
533.91	58.129
534.25	58.529
534.59	56.950
534.93	56.314
535.27	57.389
535.62	57.500
535.96	57.775
536.30	56.582
536.64	56.664
536.98	56.833
537.32	58.007
537.66	57.123
538.01	55.895
538.35	57.044
538.69	55.853
539.03	53.758
539.37	55.801
539.71	54.775
540.05	55.601
540.39	55.334
540.73	56.285
541.07	55.170
541.42	56.094
541.76	54.736
542.10	54.232
542.44	54.747
542.78	55.309
543.12	54.447
543.46	55.425
543.80	53.225
544.14	53.751
544.48	53.152
544.82	54.607
545.16	54.564
545.50	54.085
545.84	53.647
546.18	52.595
546.52	54.128
546.86	51.731
547.20	53.967
547.54	53.109
547.88	54.251
548.22	53.160
548.56	53.502
548.90	52.368
549.24	52.917
549.58	53.096
549.92	54.365
550.26	54.244
550.60	53.078
550.94	52.612
551.28	51.703
551.62	53.308
551.96	51.830
552.30	51.601
552.64	52.472
552.98	51.491
553.32	53.064
553.66	53.778
554.00	52.196
554.34	51.355
554.68	52.946
555.02	51.497
555.36	52.950
555.69	51.493
556.03	51.751
556.37	51.565
556.71	50.666
557.05	51.513
557.39	51.696
557.73	51.664
558.07	51.696
558.41	51.249
558.75	51.270
559.08	51.323
559.42	52.006
559.76	49.924
560.10	51.422
560.44	51.142
560.78	50.647
561.12	50.175
561.45	49.796
561.79	49.312
562.13	49.930
562.47	50.286
562.81	48.773
563.15	49.788
563.48	49.071
563.82	49.932
564.16	49.154
564.50	49.661
564.84	48.581
565.17	49.470
565.51	48.195
565.85	47.968
566.19	49.007
566.52	47.837
566.86	47.724
567.20	47.587
567.54	47.093
567.88	46.529
568.21	46.171
568.55	46.583
568.89	45.314
569.23	45.325
569.56	45.181
569.90	44.632
570.24	43.538
570.57	43.910
570.91	43.675
571.25	43.694
571.59	42.694
571.92	44.207
572.26	43.035
572.60	43.332
572.93	44.736
573.27	42.575
573.61	43.075
573.95	42.967
574.28	42.923
574.62	41.792
574.96	42.347
575.29	42.252
575.63	41.781
575.97	42.391
576.30	42.428
576.64	42.023
576.98	42.205
577.31	42.133
577.65	41.727
577.98	41.279
578.32	40.785
578.66	41.582
578.99	41.127
579.33	41.704
579.67	41.955
580.00	40.646
580.34	40.669
580.67	41.058
581.01	41.535
581.35	41.327
581.68	40.564
582.02	40.739
582.35	40.702
582.69	40.715
583.02	40.329
583.36	40.707
583.70	41.365
584.03	41.332
584.37	41.093
584.70	41.225
585.04	40.545
585.37	40.535
585.71	40.087
586.04	40.451
586.38	41.173
586.72	40.011
587.05	40.609
587.39	40.022
587.72	40.372
588.06	41.067
588.39	40.274
588.73	41.215
589.06	39.961
589.40	41.245
589.73	40.747
590.07	40.868
590.40	40.856
590.73	41.815
591.07	41.663
591.40	40.522
591.74	40.729
592.07	41.488
592.41	40.712
592.74	40.162
593.08	40.068
593.41	39.981
593.75	39.276
594.08	40.138
594.41	40.329
594.75	41.342
595.08	40.889
595.42	40.551
595.75	40.094
596.09	40.069
596.42	40.400
596.75	40.193
597.09	42.038
597.42	41.319
597.75	41.067
598.09	40.893
598.42	40.447
598.76	39.966
599.09	40.576
599.42	39.728
599.76	41.006
600.09	39.797
600.42	39.021
600.76	39.727
601.09	39.473
601.42	40.102
601.76	38.726
602.09	40.292
602.42	40.570
602.76	39.723
603.09	40.205
603.42	39.184
603.76	39.361
604.09	38.893
604.42	39.180
604.76	39.677
605.09	39.918
605.42	40.081
605.75	39.015
606.09	37.624
606.42	39.318
606.75	38.961
607.09	39.672
607.42	38.967
607.75	38.643
608.08	38.774
608.42	39.269
608.75	39.513
609.08	38.756
609.41	38.500
609.75	38.628
610.08	39.448
610.41	38.678
610.74	38.643
611.07	38.577
611.41	38.690
611.74	39.234
612.07	38.927
612.40	39.676
612.73	39.078
613.07	38.636
613.40	38.711
613.73	39.003
614.06	38.364
614.39	38.243
614.72	38.534
615.06	39.389
615.39	38.687
615.72	39.363
616.05	38.964
616.38	38.603
616.71	38.332
617.05	39.128
617.38	38.940
617.71	37.745
618.04	38.635
618.37	38.927
618.70	39.069
619.03	37.595
619.36	39.075
619.69	39.181
620.03	38.799
620.36	37.717
620.69	36.617
621.02	37.769
621.35	37.122
621.68	38.468
622.01	38.107
622.34	37.351
622.67	38.528
623.00	38.830
623.33	39.043
623.66	37.695
623.99	38.410
624.32	38.298
624.65	37.760
624.99	36.885
625.32	37.341
625.65	37.907
625.98	38.942
626.31	39.429
626.64	37.489
626.97	39.446
627.30	37.810
627.63	37.024
627.96	36.970
628.29	39.721
628.62	38.201
628.95	39.479
629.28	38.325
629.61	39.617
629.94	39.458
630.26	39.606
630.59	38.961
630.92	37.651
631.25	38.002
631.58	40.043
631.91	37.858
632.24	37.322
632.57	38.444
632.90	39.907
633.23	39.209
633.56	39.688
633.89	39.952
634.22	40.518
634.55	40.195
634.88	39.338
635.20	39.625
635.53	39.535
635.86	38.462
636.19	38.834
636.52	36.951
636.85	38.721
637.18	38.368
637.51	37.328
637.83	38.512
638.16	36.933
638.49	35.915
638.82	37.255
639.15	40.027
639.48	38.503
639.81	37.639
640.13	40.000
640.46	38.983
640.79	35.683
641.12	36.243
641.45	37.409
641.77	37.113
642.10	37.368
642.43	40.094
642.76	37.382
643.09	38.019
643.41	39.872
643.74	38.611
644.07	39.159
644.40	38.972
644.73	39.153
645.05	38.394
645.38	35.382
645.71	37.415
646.04	36.700
646.36	39.063
646.69	36.538
647.02	38.434
647.35	36.929
647.67	38.078
648.00	39.312
648.33	37.288
648.66	35.726
648.98	39.130
649.31	35.123
649.64	34.742
649.96	37.125
650.29	33.497
650.62	36.573
650.94	35.690
651.27	36.749
651.60	36.538
651.92	38.530
652.25	38.358
652.58	37.954
652.90	36.869
653.23	35.993
653.56	34.876
653.88	37.201
654.21	35.154
654.54	35.216
654.86	35.285
655.19	33.053
655.52	33.333
655.84	30.809
656.17	36.855
656.49	48.345
656.82	48.068
657.15	36.112
657.47	26.902
657.80	20.279
658.13	21.189
658.45	31.215
658.78	31.483
659.10	31.168
659.43	32.177
659.75	31.051
660.08	32.276
660.41	32.657
660.73	32.920
661.06	33.333
661.38	34.302
661.71	37.090
662.03	36.786
662.36	36.726
662.68	37.419
663.01	32.415
663.33	33.909
663.66	33.925
663.98	39.326
664.31	34.286
664.63	31.081
664.96	37.199
665.28	39.270
665.61	33.909
665.93	36.617
666.26	36.498
666.58	35.332
666.91	37.668
667.23	35.714
667.56	34.943
667.88	33.178
668.21	36.384
668.53	36.092
668.86	36.211
669.18	32.388
669.50	32.488
669.83	33.652
670.15	31.429
670.48	34.023
670.80	38.512
671.13	31.121
671.45	34.703
671.77	34.914
672.10	32.164
672.42	33.969
672.75	32.143
673.07	32.727
673.39	32.649
673.72	36.327
674.04	34.836
674.37	34.350
674.69	32.510
675.01	33.974
675.34	33.479
675.66	35.948
675.98	34.071
676.31	34.842
676.63	35.374
676.95	31.059
677.28	32.110
677.60	36.765
677.92	32.816
678.25	35.358
678.57	33.401
678.89	34.542
679.22	33.126
679.54	33.469
679.86	34.180
680.18	30.962
680.51	30.769
680.83	32.164
681.15	34.185
681.48	31.463
681.80	31.084
682.12	32.292
682.44	30.986
682.77	29.895
683.09	29.241
683.41	33.256
683.73	33.036
684.06	31.195
684.38	29.915
684.70	31.365
685.02	32.025
685.34	32.094
685.67	32.270
685.99	31.139
686.31	31.724
686.63	32.904
686.96	31.911
687.28	29.741
687.60	32.892
687.92	31.712
688.24	33.400
688.56	29.825
688.89	26.726
689.21	31.614
689.53	28.378
689.85	34.382
690.17	34.725
690.49	32.367
690.82	33.652
691.14	33.333
691.46	29.234
691.78	33.846
692.10	31.423
692.42	27.473
692.74	29.565
693.06	28.539
693.39	29.040
693.71	30.222
694.03	33.409
694.35	33.784
694.67	30.750
694.99	33.763
695.31	29.716
695.63	33.171
695.95	30.280
696.27	28.493
696.59	28.763
696.91	30.447
697.23	29.188
697.56	29.976
697.88	32.640
698.20	30.886
698.52	30.607
698.84	27.512
699.16	29.787
699.48	30.864
699.80	33.333
700.12	31.099
700.44	31.831
700.76	29.494
701.08	34.139
701.40	32.036
701.72	34.154
702.04	29.560
702.36	30.488
702.68	27.744
703.00	28.947
703.32	27.298
703.64	31.024
703.96	29.912
704.28	27.410
704.60	31.098
704.91	27.273
705.23	31.013
705.55	25.517
705.87	32.394
706.19	34.432
706.51	27.465
706.83	27.707
707.15	30.488
707.47	31.129
707.79	28.934
708.11	28.535
708.43	31.980
708.74	28.191
709.06	27.005
709.38	31.988
709.70	27.928
710.02	30.218
710.34	29.000
710.66	29.642
710.98	26.935
711.29	30.844
711.61	28.710
711.93	26.129
712.25	26.224
712.57	26.316
712.89	29.670
713.20	29.787
713.52	25.547
713.84	30.323
714.16	27.508
714.48	29.430
714.80	30.671
715.11	33.430
715.43	24.534
715.75	32.298
716.07	27.108
716.39	29.966
716.70	31.655
717.02	22.745
717.34	31.439
717.66	28.448
717.97	24.206
718.29	29.528
718.61	24.893
718.93	26.744
719.24	26.568
719.56	26.966
719.88	23.881
720.20	29.644
720.51	25.391
720.83	29.961
721.15	23.577
721.46	24.809
721.78	32.669
722.10	24.701
722.42	26.613
722.73	26.255
723.05	32.653
723.37	27.731
723.68	26.800
724.00	22.553
724.32	24.686
724.63	25.103
724.95	29.060
725.27	33.755
725.58	27.160
725.90	25.941
726.22	28.986
726.53	26.667
726.85	27.737
727.16	26.296
727.48	29.502
727.80	26.953
728.11	27.049
728.43	24.609
728.74	26.984
729.06	24.400
729.38	29.249
729.69	24.555
730.01	26.766
730.32	26.568
730.64	22.727
730.96	31.119
731.27	22.408
731.59	27.619
731.90	26.537
732.22	23.718
732.53	27.365
732.85	24.832
733.16	28.383
733.48	24.662
733.80	21.284
734.11	30.743
734.43	25.387
734.74	27.027
735.06	25.648
735.37	25.228
735.69	25.890
736.00	26.733
736.32	25.532
736.63	25.172
736.95	25.685
737.26	23.793
737.58	29.514
737.89	30.584
738.21	24.911
738.52	24.335
738.83	22.449
739.15	24.895
739.46	21.790
739.78	22.183
740.09	22.603
740.41	24.643
740.72	17.021
741.04	24.000
741.35	22.807
741.66	28.889
741.98	22.596
742.29	28.713
742.61	27.317
742.92	25.439
743.23	19.340
743.55	28.378
743.86	25.112
744.18	23.529
744.49	18.782
744.80	28.061
745.12	18.224
745.43	26.066
745.74	26.577
746.06	25.234
746.37	20.183
746.68	22.596
747.00	30.622
747.31	26.442
747.62	22.018
747.94	26.201
748.25	26.147
748.56	27.111
748.88	27.230
749.19	26.190
749.50	22.816
749.82	18.310
750.13	17.917
750.44	23.462
750.75	22.140
751.07	20.641
751.38	22.340
751.69	22.780
752.01	20.703
752.32	26.923
752.63	24.254
752.94	23.200
753.26	28.033
753.57	19.167
753.88	22.672
754.19	23.108
754.51	19.173
754.82	19.048
755.13	21.304
755.44	23.984
755.75	21.200
756.07	25.092
756.38	25.540
756.69	23.208
757.00	24.611
757.31	23.625
757.63	18.519
757.94	21.751
758.25	24.339
758.56	22.011
758.87	25.298
759.18	23.975
759.50	19.192
759.81	23.746
760.12	23.077
760.43	22.917
760.74	22.881
761.05	24.862
761.36	22.636
761.67	24.169
761.99	20.619
762.30	20.073
762.61	24.691
762.92	29.915
763.23	19.672
763.54	23.377
763.85	22.857
764.16	15.854
764.47	20.000
764.78	20.000
765.10	24.262
765.41	20.669
765.72	19.565
766.03	23.102
766.34	25.769
766.65	20.084
766.96	19.718
767.27	25.248
767.58	19.101
767.89	16.667
768.20	15.470
768.51	23.116
768.82	23.077
769.13	26.549
769.44	18.410
769.75	18.376
770.06	17.489
770.37	16.176
770.68	24.272
770.99	23.301
771.30	23.529
771.61	22.041
771.92	21.162
772.23	18.919
772.54	14.917
772.85	26.163
773.16	26.455
773.47	11.243
773.78	22.989
774.09	16.875
774.39	22.981
774.70	21.769
775.01	19.310
775.32	24.286
775.63	21.053
775.94	17.293
776.25	20.800
776.56	18.182
776.87	16.667
777.18	15.315
777.48	21.622
777.79	22.047
778.10	14.679
778.41	14.912
778.72	21.008
779.03	14.085
779.34	20.270
779.65	16.197
779.95	22.517
780.26	17.266
780.57	24.460
780.88	17.606
781.19	14.286
781.50	18.792
781.80	22.807
782.11	12.791
782.42	22.642
782.73	24.837
783.04	18.621
783.34	17.557
783.65	16.779
783.96	11.538
784.27	22.143
784.57	12.057
784.88	14.423
785.19	21.818
785.50	21.818
785.81	16.190
786.11	21.008
786.42	16.814
786.73	17.925
787.04	4.587
787.34	2.970
787.65	11.667
787.96	17.355
788.26	13.768
788.57	10.317
788.88	10.569
789.19	11.200
789.49	3.817
789.80	28.788
790.11	14.151
790.41	12.871
790.72	19.149
791.03	9.783
791.33	8.235
791.64	25.926
791.95	17.391
792.25	20.455
792.56	17.949
792.87	12.821
793.17	5.128
793.48	3.571
793.79	21.250
794.09	25.000
794.40	16.667
794.70	18.018
795.01	16.406
795.32	17.391
795.62	0.000
795.93	9.434
796.23	18.182
796.54	12.195
796.85	16.667
797.15	15.152
797.46	5.797
797.76	7.895
798.07	22.727
798.37	14.634
798.68	-3.226
798.99	5.405
799.29	18.072
799.60	7.692
799.90	10.769
800.21	15.152
800.51	6.667
800.82	18.667
801.12	-8.333
801.43	-6.667
801.73	16.216
802.04	12.857
802.34	3.279
802.65	17.910
802.95	12.727
803.26	29.310
803.56	24.615
803.87	15.094
804.17	6.452
804.48	23.529
804.78	-9.756
805.09	18.841
805.39	-1.471
805.70	-6.383
806.00	17.544
806.30	26.923
806.61	-2.632
806.91	1.351
807.22	13.158
807.52	13.636
807.83	0.000
808.13	0.000
808.43	15.000
808.74	-3.448
809.04	14.286
809.35	-14.286
809.65	5.000
809.95	0.000
810.26	19.718
810.56	-4.167
810.86	-4.082
811.17	21.154
811.47	6.383
811.77	4.167
812.08	11.321
812.38	0.000
812.69	7.273
812.99	-2.439
813.29	2.703
813.59	-8.108
813.90	5.455
814.20	18.182
814.50	10.000
814.81	25.455
815.11	1.754
815.41	16.279
815.72	5.000
816.02	-17.143
816.32	5.405
816.62	16.667
816.93	8.889
817.23	13.333
817.53	-22.222
817.84	-29.730
818.14	2.439
818.44	-4.000
818.74	16.327
819.04	2.439
819.35	30.556
819.65	29.545
819.95	-100.000
820.25	21.212
820.56	19.048
820.86	2.778
821.16	9.091
821.46	4.348
821.76	17.241
822.07	15.217
822.37	3.030
822.67	19.512
822.97	-10.811
823.27	-2.857
823.57	20.690
823.88	0.000
824.18	13.889
824.48	17.143
824.78	42.857
825.08	25.000
825.38	0.000
825.69	-3.226
825.99	-14.634
826.29	-11.111
826.59	-9.375
826.89	-16.129
827.19	17.391
827.49	-16.667
827.79	-13.043
828.09	-19.355
828.39	-10.417
828.70	-31.250
829.00	-10.345
829.30	-8.108
829.60	-37.500
829.90	22.222
830.20	12.500
830.50	4.545
830.80	-129.412
831.10	-36.364
831.40	-8.824
831.70	-38.462
832.00	39.394
832.30	-5.882
832.60	5.405
832.90	1200.000
833.20	-7.143
833.50	-70.000
833.80	13.158
834.10	-58.333
834.40	-31.818
834.70	-86.667
835.00	0.000
835.30	-20.833
835.60	-9.524
835.90	28.571
836.20	-40.000
836.50	0.000
836.80	-26.316
837.10	24.324
837.40	30.000
837.70	21.739
838.00	4.167
838.30	-26.316
838.60	-130.000
838.90	-100.000
839.19	-66.667
839.49	-92.308
839.79	-57.895
840.09	-200.000
840.39	-50.000
840.69	-40.909
840.99	-23.810
841.29	8.333
841.59	-69.231
841.88	-26.667
842.18	-14.286
842.48	0.000
842.78	-242.857
843.08	-57.143
843.38	-150.000
843.68	-43.750
843.97	14.286
844.27	-155.556
844.57	-136.364
844.87	-40.000
845.17	-31.818
845.47	633.333
845.76	-13.333
846.06	-83.333
846.36	-800.000
846.66	26.316
846.96	-27.273
847.25	-61.111
847.55	-100.000
847.85	-42.857
848.15	7.692
848.44	-300.000
848.74	-58.333
849.04	-115.385
849.34	-300.000
849.63	-63.636
849.93	-71.429
850.23	45.000
850.53	-100.000
850.82	-5.556
851.12	-33.333
851.42	-29.412
851.71	-25.000
852.01	41.176
852.31	-15.385
852.61	800.000
852.90	-29.412
853.20	-33.333
853.50	-75.000
853.79	-85.714
854.09	-350.000
854.39	-35.000
854.68	-12.500
854.98	-9.524
855.28	-16.000
855.57	33.333
855.87	-41.667
856.17	-8.000
856.46	6.250
856.76	-15.000
857.05	40.000
857.35	-25.000
857.65	-23.529
857.94	-108.333
858.24	8.333
858.53	-30.000
858.83	-81.818
859.13	48.000
859.42	-42.857
859.72	-50.000
860.01	25.000
860.31	-150.000
860.60	-31.250
860.90	-233.333
861.20	-133.333
861.49	-33.333
861.79	-56.250
862.08	225.000
862.38	-100.000
862.67	328.571
862.97	200.000
863.26	-54.545
863.56	0.000
863.85	-21.053
864.15	-17.647
864.44	-120.000
864.74	-120.000
865.03	-133.333
865.33	14.286
865.62	107.143
865.92	26.316
866.21	-94.444
866.51	-109.091
866.80	-100.000
867.10	-187.500
867.39	0.000
867.69	-66.667
867.98	-130.000
868.27	17.647
868.57	0.000
868.86	350.000
869.16	-200.000
869.45	-214.286
869.75	50.000
870.04	70.000
870.33	-600.000
870.63	-36.842
870.92	-66.667
871.22	-900.000
871.51	-71.429
871.80	-211.111
872.10	-150.000
>>>>>End Processed Spectral Data<<<<<
