SpectraSuite Data File
++++++++++++++++++++++++++++++++++++
Date: Tue May 12 15:35:24 PDT 2015
User: schluterlab
Dark Spectrum Present: Yes
Reference Spectrum Present: Yes
Number of Sampled Component Spectra: 1
Spectrometers: USB2E3373
Integration Time (usec): 3000 (USB2E3373)
Spectra Averaged: 3 (USB2E3373)
Boxcar Smoothing: 0 (USB2E3373)
Correct for Electrical Dark: No (USB2E3373)
Strobe/Lamp Enabled: No (USB2E3373)
Correct for Detector Non-linearity: No (USB2E3373)
Correct for Stray Light: No (USB2E3373)
Number of Pixels in Processed Spectrum: 2048
>>>>>Begin Processed Spectral Data<<<<<
178.53	0.000
178.91	-216.667
179.29	-775.000
179.67	-3400.000
180.04	-206.667
180.42	575.000
180.80	1200.000
181.18	0.000
181.56	-375.000
181.94	0.000
182.31	1233.333
182.69	-2800.000
183.07	571.429
183.45	-3500.000
183.83	-1650.000
184.20	390.000
184.58	528.571
184.96	-330.769
185.34	-183.333
185.72	1850.000
186.09	-775.000
186.47	-3900.000
186.85	1233.333
187.23	640.000
187.61	1750.000
187.98	375.000
188.36	257.143
188.74	358.333
189.12	358.333
189.49	900.000
189.87	0.000
190.25	475.000
190.63	3000.000
191.00	-225.000
191.38	-3200.000
191.76	-625.000
192.14	587.500
192.51	-3000.000
192.89	1550.000
193.27	1300.000
193.65	-1366.667
194.02	-800.000
194.40	428.571
194.78	-221.429
195.15	313.333
195.53	-4100.000
195.91	-540.000
196.29	3700.000
196.66	268.750
197.04	1050.000
197.42	-1550.000
197.79	600.000
198.17	266.667
198.55	0.000
198.92	542.857
199.30	1266.667
199.68	2200.000
200.05	616.667
200.43	-466.667
200.81	211.111
201.18	3200.000
201.56	308.333
201.94	-675.000
202.31	-400.000
202.69	-500.000
203.07	3800.000
203.44	-483.333
203.82	408.333
204.19	540.000
204.57	-1350.000
204.95	-850.000
205.32	-900.000
205.70	550.000
206.08	775.000
206.45	-733.333
206.83	433.333
207.20	200.000
207.58	266.667
207.96	800.000
208.33	0.000
208.71	500.000
209.08	640.000
209.46	-2900.000
209.84	-725.000
210.21	580.000
210.59	-660.000
210.96	366.667
211.34	-775.000
211.71	345.455
212.09	675.000
212.46	2000.000
212.84	-483.333
213.22	422.222
213.59	-3900.000
213.97	250.000
214.34	800.000
214.72	1266.667
215.09	1100.000
215.47	-3400.000
215.84	-330.000
216.22	-512.500
216.59	0.000
216.97	0.000
217.34	1700.000
217.72	-1700.000
218.09	1300.000
218.47	462.500
218.84	1175.000
219.22	1066.667
219.59	1166.667
219.97	500.000
220.34	411.111
220.72	1450.000
221.09	3400.000
221.47	266.667
221.84	1100.000
222.22	420.000
222.59	205.556
222.97	264.286
223.34	231.250
223.72	-2000.000
224.09	1133.333
224.46	307.692
224.84	-975.000
225.21	411.111
225.59	253.333
225.96	1466.667
226.34	-600.000
226.71	-625.000
227.08	-400.000
227.46	0.000
227.83	-633.333
228.21	-1900.000
228.58	358.333
228.95	1025.000
229.33	288.889
229.70	1150.000
230.08	400.000
230.45	3400.000
230.82	-1025.000
231.20	-1000.000
231.57	-1133.333
231.95	600.000
232.32	350.000
232.69	750.000
233.07	333.333
233.44	-1650.000
233.81	253.333
234.19	196.296
234.56	200.000
234.93	152.941
235.31	170.000
235.68	337.500
236.05	171.429
236.43	170.370
236.80	207.143
237.17	186.207
237.55	134.375
237.92	137.500
238.29	163.636
238.67	121.875
239.04	148.780
239.41	97.917
239.79	117.500
240.16	135.417
240.53	104.918
240.91	86.957
241.28	108.475
241.65	89.394
242.02	102.817
242.40	91.429
242.77	84.615
243.14	84.810
243.51	96.970
243.89	78.505
244.26	76.636
244.63	80.198
245.00	76.147
245.38	70.339
245.75	70.455
246.12	74.074
246.49	61.702
246.87	70.492
247.24	71.333
247.61	65.625
247.98	76.190
248.36	65.455
248.73	69.388
249.10	61.905
249.47	59.000
249.84	62.687
250.22	65.946
250.59	60.500
250.96	55.696
251.33	64.186
251.70	58.036
252.08	62.185
252.45	55.378
252.82	59.316
253.19	59.684
253.56	50.385
253.94	55.435
254.31	56.977
254.68	54.355
255.05	57.586
255.42	60.949
255.79	56.026
256.16	58.644
256.54	59.416
256.91	56.209
257.28	58.528
257.65	52.978
258.02	56.047
258.39	54.155
258.76	56.812
259.14	50.286
259.51	59.475
259.88	56.231
260.25	50.824
260.62	51.781
260.99	52.617
261.36	55.153
261.73	52.660
262.10	53.665
262.47	51.750
262.85	52.267
263.22	49.614
263.59	51.151
263.96	53.885
264.33	54.815
264.70	54.545
265.07	54.634
265.44	51.606
265.81	50.236
266.18	52.632
266.55	52.719
266.92	49.888
267.29	50.877
267.66	51.794
268.03	50.897
268.40	49.894
268.77	50.881
269.14	49.241
269.51	52.116
269.88	50.408
270.25	48.164
270.62	51.073
270.99	52.535
271.36	49.593
271.73	47.799
272.10	50.707
272.47	49.008
272.84	48.104
273.21	50.826
273.58	52.227
273.95	51.951
274.32	48.249
274.69	49.016
275.06	47.905
275.43	49.617
275.80	48.868
276.17	47.978
276.54	48.972
276.91	48.321
277.28	49.453
277.65	46.679
278.02	47.426
278.39	47.122
278.76	46.724
279.13	46.797
279.50	46.545
279.87	47.672
280.23	45.856
280.60	47.445
280.97	47.241
281.34	45.545
281.71	48.522
282.08	46.838
282.45	44.257
282.82	46.321
283.19	45.310
283.56	45.785
283.92	46.580
284.29	45.424
284.66	46.387
285.03	46.766
285.40	46.116
285.77	43.827
286.14	48.142
286.51	45.859
286.87	43.196
287.24	42.342
287.61	45.289
287.98	44.030
288.35	43.704
288.72	44.006
289.08	43.393
289.45	43.750
289.82	44.375
290.19	43.485
290.56	43.668
290.93	42.734
291.29	42.541
291.66	41.102
292.03	41.795
292.40	40.515
292.77	41.226
293.13	40.371
293.50	40.621
293.87	38.753
294.24	42.657
294.60	43.203
294.97	42.517
295.34	39.973
295.71	39.290
296.08	37.067
296.44	38.247
296.81	37.717
297.18	35.741
297.55	39.163
297.91	36.330
298.28	39.251
298.65	37.791
299.02	34.741
299.38	36.930
299.75	36.463
300.12	35.780
300.48	38.993
300.85	39.452
301.22	38.140
301.59	36.675
301.95	35.473
302.32	35.739
302.69	36.538
303.05	37.262
303.42	35.314
303.79	37.053
304.15	36.524
304.52	35.624
304.89	36.461
305.25	36.596
305.62	36.674
305.99	37.174
306.35	35.263
306.72	36.420
307.09	37.371
307.45	36.220
307.82	34.877
308.19	37.320
308.55	34.800
308.92	36.506
309.29	36.391
309.65	35.580
310.02	38.438
310.38	35.593
310.75	35.873
311.12	35.920
311.48	37.548
311.85	38.740
312.22	38.109
312.58	36.929
312.95	36.893
313.31	38.577
313.68	37.992
314.05	38.095
314.41	39.199
314.78	39.867
315.14	40.664
315.51	40.492
315.87	38.504
316.24	38.469
316.61	41.003
316.97	42.110
317.34	42.138
317.70	42.054
318.07	41.993
318.43	41.125
318.80	42.207
319.16	43.881
319.53	43.274
319.89	43.728
320.26	45.717
320.62	44.780
320.99	45.758
321.35	45.362
321.72	48.482
322.08	47.830
322.45	48.138
322.81	47.027
323.18	48.224
323.54	49.913
323.91	52.221
324.27	49.602
324.64	49.913
325.00	51.379
325.37	51.180
325.73	51.855
326.10	52.113
326.46	53.014
326.83	53.040
327.19	55.020
327.56	54.153
327.92	58.607
328.29	56.219
328.65	56.250
329.01	57.571
329.38	56.345
329.74	56.960
330.11	58.384
330.47	58.653
330.84	57.291
331.20	57.614
331.56	58.204
331.93	59.110
332.29	59.439
332.66	59.184
333.02	57.818
333.38	58.639
333.75	58.799
334.11	59.312
334.48	60.427
334.84	58.615
335.20	60.051
335.57	59.950
335.93	59.294
336.29	59.701
336.66	61.235
337.02	59.367
337.38	59.673
337.75	59.459
338.11	59.409
338.47	60.711
338.84	59.695
339.20	60.346
339.56	59.630
339.93	58.946
340.29	57.395
340.65	59.681
341.02	58.970
341.38	59.524
341.74	60.216
342.11	59.349
342.47	59.229
342.83	60.213
343.20	59.175
343.56	57.665
343.92	59.455
344.28	59.968
344.65	60.554
345.01	58.333
345.37	60.096
345.73	59.365
346.10	58.884
346.46	59.171
346.82	58.179
347.19	59.660
347.55	59.329
347.91	59.894
348.27	58.947
348.63	59.652
349.00	58.416
349.36	59.689
349.72	59.557
350.08	59.550
350.45	58.416
350.81	59.786
351.17	58.089
351.53	60.354
351.89	58.819
352.26	59.108
352.62	60.181
352.98	59.202
353.34	59.322
353.70	58.869
354.07	58.308
354.43	57.680
354.79	58.998
355.15	60.567
355.51	59.290
355.87	59.714
356.24	59.122
356.60	58.904
356.96	59.591
357.32	59.985
357.68	57.416
358.04	59.347
358.40	59.670
358.77	59.279
359.13	59.309
359.49	57.821
359.85	60.462
360.21	58.767
360.57	58.102
360.93	58.586
361.29	60.029
361.66	61.223
362.02	57.457
362.38	58.514
362.74	60.014
363.10	60.379
363.46	57.804
363.82	58.275
364.18	59.175
364.54	60.443
364.90	57.764
365.26	58.640
365.62	58.840
365.98	56.779
366.35	60.069
366.71	58.917
367.07	59.181
367.43	57.824
367.79	59.043
368.15	57.598
368.51	59.752
368.87	58.288
369.23	59.321
369.59	58.193
369.95	57.622
370.31	57.426
370.67	58.779
371.03	58.263
371.39	58.657
371.75	58.339
372.11	58.939
372.47	58.699
372.83	58.736
373.19	59.630
373.55	57.801
373.91	57.942
374.27	57.077
374.63	57.763
374.99	57.884
375.35	58.333
375.71	58.707
376.07	57.029
376.42	55.499
376.78	57.418
377.14	59.699
377.50	57.615
377.86	57.976
378.22	56.429
378.58	58.717
378.94	58.358
379.30	58.035
379.66	57.676
380.02	58.065
380.38	57.260
380.74	57.439
381.09	57.710
381.45	56.012
381.81	57.151
382.17	56.349
382.53	57.469
382.89	57.481
383.25	56.483
383.61	56.715
383.97	56.989
384.32	56.902
384.68	57.279
385.04	55.510
385.40	57.295
385.76	56.115
386.12	57.205
386.48	57.204
386.83	57.641
387.19	56.184
387.55	57.008
387.91	56.582
388.27	56.871
388.62	56.455
388.98	54.577
389.34	55.265
389.70	55.955
390.06	57.012
390.42	55.645
390.77	55.467
391.13	57.272
391.49	54.870
391.85	56.123
392.20	55.542
392.56	54.122
392.92	54.688
393.28	54.652
393.64	54.931
393.99	55.483
394.35	54.620
394.71	53.317
395.07	54.866
395.42	54.391
395.78	55.336
396.14	54.578
396.50	53.670
396.85	53.902
397.21	54.031
397.57	54.812
397.92	54.015
398.28	53.778
398.64	53.985
399.00	53.234
399.35	53.301
399.71	53.863
400.07	53.596
400.42	53.194
400.78	53.314
401.14	54.375
401.49	52.247
401.85	51.970
402.21	52.900
402.57	52.244
402.92	52.909
403.28	52.327
403.63	52.207
403.99	52.774
404.35	52.110
404.70	51.979
405.06	51.769
405.42	51.466
405.77	50.827
406.13	50.380
406.49	50.483
406.84	49.633
407.20	50.057
407.55	51.877
407.91	52.393
408.27	50.879
408.62	50.030
408.98	50.207
409.34	49.737
409.69	50.404
410.05	50.209
410.40	49.823
410.76	50.487
411.11	49.289
411.47	49.321
411.83	47.745
412.18	49.094
412.54	50.330
412.89	48.555
413.25	49.088
413.60	48.890
413.96	49.551
414.31	49.823
414.67	49.969
415.03	49.425
415.38	49.022
415.74	49.400
416.09	49.594
416.45	49.968
416.80	49.775
417.16	48.695
417.51	47.962
417.87	48.248
418.22	50.547
418.58	49.745
418.93	47.769
419.29	48.429
419.64	47.729
420.00	48.747
420.35	49.071
420.71	47.900
421.06	48.852
421.42	48.014
421.77	47.918
422.12	47.795
422.48	48.228
422.83	48.605
423.19	47.246
423.54	47.230
423.90	48.584
424.25	47.221
424.61	48.056
424.96	47.205
425.31	47.729
425.67	47.755
426.02	47.280
426.38	47.550
426.73	47.426
427.09	47.509
427.44	46.258
427.79	46.998
428.15	49.322
428.50	47.943
428.85	47.678
429.21	47.056
429.56	46.112
429.92	48.086
430.27	45.864
430.62	46.011
430.98	45.958
431.33	45.968
431.68	45.531
432.04	45.525
432.39	46.048
432.74	47.014
433.10	46.733
433.45	46.755
433.80	47.159
434.16	46.453
434.51	46.182
434.86	46.652
435.22	46.245
435.57	47.007
435.92	46.443
436.28	45.795
436.63	45.867
436.98	47.016
437.34	45.776
437.69	44.401
438.04	46.075
438.39	46.001
438.75	45.546
439.10	46.519
439.45	45.789
439.81	46.559
440.16	45.515
440.51	45.833
440.86	46.439
441.22	45.455
441.57	46.667
441.92	45.311
442.27	45.361
442.63	46.240
442.98	45.366
443.33	46.706
443.68	45.272
444.03	47.031
444.39	46.375
444.74	45.290
445.09	46.024
445.44	45.962
445.79	45.370
446.15	45.474
446.50	46.097
446.85	45.120
447.20	45.025
447.55	45.949
447.91	46.191
448.26	46.006
448.61	46.434
448.96	45.479
449.31	45.985
449.66	46.678
450.02	45.273
450.37	45.974
450.72	46.171
451.07	45.201
451.42	45.940
451.77	45.819
452.12	45.774
452.47	45.687
452.83	46.310
453.18	44.204
453.53	45.175
453.88	45.371
454.23	44.741
454.58	45.804
454.93	44.022
455.28	45.043
455.63	45.390
455.98	45.008
456.34	46.261
456.69	44.573
457.04	44.391
457.39	44.343
457.74	45.439
458.09	43.459
458.44	44.031
458.79	44.032
459.14	43.644
459.49	44.394
459.84	45.000
460.19	43.785
460.54	44.615
460.89	44.510
461.24	42.726
461.59	43.934
461.94	43.735
462.29	44.851
462.64	44.347
462.99	43.826
463.34	43.616
463.69	44.344
464.04	45.423
464.39	44.247
464.74	42.438
465.09	43.587
465.44	44.015
465.79	43.386
466.14	42.925
466.49	44.059
466.84	43.144
467.19	43.644
467.54	42.763
467.89	42.312
468.24	43.544
468.59	42.560
468.94	43.901
469.29	42.211
469.64	43.151
469.99	43.188
470.34	43.580
470.68	42.690
471.03	43.562
471.38	43.046
471.73	42.717
472.08	44.749
472.43	43.141
472.78	42.958
473.13	42.178
473.48	42.543
473.83	42.108
474.17	42.432
474.52	42.121
474.87	42.297
475.22	42.947
475.57	41.710
475.92	41.748
476.27	41.077
476.61	40.912
476.96	41.170
477.31	41.542
477.66	42.244
478.01	41.671
478.36	41.452
478.70	40.794
479.05	40.795
479.40	41.518
479.75	41.311
480.10	41.239
480.45	40.943
480.79	40.461
481.14	40.894
481.49	41.308
481.84	40.501
482.19	40.524
482.53	40.536
482.88	41.039
483.23	40.460
483.58	40.485
483.92	40.905
484.27	40.325
484.62	40.874
484.97	39.501
485.31	39.937
485.66	41.065
486.01	40.588
486.36	39.599
486.70	38.928
487.05	38.883
487.40	38.319
487.75	38.823
488.09	39.375
488.44	39.452
488.79	39.431
489.13	38.634
489.48	39.632
489.83	39.158
490.17	39.100
490.52	40.482
490.87	38.491
491.22	39.051
491.56	38.867
491.91	38.844
492.26	39.198
492.60	39.226
492.95	39.375
493.30	39.490
493.64	38.634
493.99	39.043
494.34	38.189
494.68	37.981
495.03	39.021
495.37	39.036
495.72	39.301
496.07	39.128
496.41	38.097
496.76	38.751
497.11	38.603
497.45	38.536
497.80	39.157
498.14	38.696
498.49	38.208
498.84	39.626
499.18	37.020
499.53	38.172
499.87	38.230
500.22	38.462
500.56	37.651
500.91	38.822
501.26	38.493
501.60	37.568
501.95	37.052
502.29	38.933
502.64	37.936
502.98	37.039
503.33	37.996
503.67	37.483
504.02	37.573
504.36	37.149
504.71	37.465
505.06	37.166
505.40	37.997
505.75	36.763
506.09	37.517
506.44	37.782
506.78	37.713
507.13	37.615
507.47	37.846
507.82	37.810
508.16	37.727
508.51	37.440
508.85	37.464
509.19	37.837
509.54	37.256
509.88	37.345
510.23	37.353
510.57	35.956
510.92	37.013
511.26	36.948
511.61	36.189
511.95	37.083
512.30	36.400
512.64	36.085
512.98	37.109
513.33	36.578
513.67	36.561
514.02	36.156
514.36	36.916
514.70	35.840
515.05	36.814
515.39	37.336
515.74	38.108
516.08	36.383
516.42	37.377
516.77	35.467
517.11	35.413
517.46	36.476
517.80	35.718
518.14	36.620
518.49	35.777
518.83	35.989
519.17	36.217
519.52	35.664
519.86	36.131
520.20	35.945
520.55	35.726
520.89	35.460
521.23	36.741
521.58	35.513
521.92	35.569
522.26	35.604
522.61	36.364
522.95	36.396
523.29	35.439
523.64	36.185
523.98	36.444
524.32	34.890
524.66	35.420
525.01	35.680
525.35	34.826
525.69	36.123
526.04	35.158
526.38	35.021
526.72	35.501
527.06	34.358
527.41	35.671
527.75	34.936
528.09	35.461
528.43	35.448
528.78	35.301
529.12	36.123
529.46	34.892
529.80	35.864
530.15	35.239
530.49	34.958
530.83	35.954
531.17	35.117
531.51	35.132
531.86	34.300
532.20	35.167
532.54	34.589
532.88	34.166
533.22	34.857
533.57	35.876
533.91	33.800
534.25	34.795
534.59	35.731
534.93	34.699
535.27	33.580
535.62	34.189
535.96	34.811
536.30	35.405
536.64	34.224
536.98	34.865
537.32	34.437
537.66	34.439
538.01	34.861
538.35	35.309
538.69	34.405
539.03	35.012
539.37	33.556
539.71	34.444
540.05	33.354
540.39	34.465
540.73	34.304
541.07	32.999
541.42	33.520
541.76	33.539
542.10	33.970
542.44	35.162
542.78	34.047
543.12	33.558
543.46	33.333
543.80	34.837
544.14	35.046
544.48	34.367
544.82	34.128
545.16	34.548
545.50	33.743
545.84	34.533
546.18	34.720
546.52	34.361
546.86	33.849
547.20	34.044
547.54	33.059
547.88	33.212
548.22	33.333
548.56	32.882
548.90	32.266
549.24	33.670
549.58	32.732
549.92	33.399
550.26	33.130
550.60	31.603
550.94	33.311
551.28	32.897
551.62	33.655
551.96	32.500
552.30	32.367
552.64	32.751
552.98	33.054
553.32	32.394
553.66	33.485
554.00	33.269
554.34	33.089
554.68	33.266
555.02	32.587
555.36	32.513
555.69	33.312
556.03	32.803
556.37	33.333
556.71	34.420
557.05	32.438
557.39	32.933
557.73	34.030
558.07	33.535
558.41	33.379
558.75	33.584
559.08	33.810
559.42	33.787
559.76	33.072
560.10	32.485
560.44	33.577
560.78	33.056
561.12	33.185
561.45	33.041
561.79	32.647
562.13	31.712
562.47	31.992
562.81	32.791
563.15	32.127
563.48	31.304
563.82	34.373
564.16	33.333
564.50	31.706
564.84	33.313
565.17	31.967
565.51	32.759
565.85	32.758
566.19	32.202
566.52	33.333
566.86	33.333
567.20	32.303
567.54	32.424
567.88	32.655
568.21	32.351
568.55	32.588
568.89	32.938
569.23	32.830
569.56	33.147
569.90	31.764
570.24	32.334
570.57	32.349
570.91	32.512
571.25	32.236
571.59	31.331
571.92	31.728
572.26	31.456
572.60	31.380
572.93	31.570
573.27	31.964
573.61	32.106
573.95	32.122
574.28	32.501
574.62	32.580
574.96	31.713
575.29	31.175
575.63	31.001
575.97	31.183
576.30	30.701
576.64	32.060
576.98	31.693
577.31	32.049
577.65	31.945
577.98	31.980
578.32	31.631
578.66	31.590
578.99	32.033
579.33	31.597
579.67	31.018
580.00	31.117
580.34	30.912
580.67	31.275
581.01	32.192
581.35	31.723
581.68	31.790
582.02	32.177
582.35	31.387
582.69	31.499
583.02	31.514
583.36	31.723
583.70	31.819
584.03	31.817
584.37	31.424
584.70	31.401
585.04	31.478
585.37	31.515
585.71	31.978
586.04	31.585
586.38	30.979
586.72	31.145
587.05	31.318
587.39	31.631
587.72	31.764
588.06	31.363
588.39	31.218
588.73	31.572
589.06	31.602
589.40	31.455
589.73	31.367
590.07	31.606
590.40	31.916
590.73	32.464
591.07	32.448
591.40	31.896
591.74	31.006
592.07	31.656
592.41	31.575
592.74	31.454
593.08	31.413
593.41	31.598
593.75	31.596
594.08	31.876
594.41	30.955
594.75	30.651
595.08	31.104
595.42	31.435
595.75	31.425
596.09	32.117
596.42	30.736
596.75	31.651
597.09	31.861
597.42	31.143
597.75	31.156
598.09	30.981
598.42	31.946
598.76	31.110
599.09	31.703
599.42	30.761
599.76	31.208
600.09	31.390
600.42	31.561
600.76	31.203
601.09	31.481
601.42	31.221
601.76	31.042
602.09	31.126
602.42	30.832
602.76	31.157
603.09	32.164
603.42	31.523
603.76	30.947
604.09	30.836
604.42	31.262
604.76	30.383
605.09	31.306
605.42	31.247
605.75	30.794
606.09	31.637
606.42	31.266
606.75	30.820
607.09	30.517
607.42	31.539
607.75	30.533
608.08	31.357
608.42	30.705
608.75	30.595
609.08	30.884
609.41	31.500
609.75	31.044
610.08	30.845
610.41	31.137
610.74	30.909
611.07	32.287
611.41	30.908
611.74	30.784
612.07	30.973
612.40	31.871
612.73	30.504
613.07	30.917
613.40	31.278
613.73	31.852
614.06	30.950
614.39	31.364
614.72	31.291
615.06	30.861
615.39	30.842
615.72	30.445
616.05	31.040
616.38	30.949
616.71	31.091
617.05	30.368
617.38	31.124
617.71	30.709
618.04	32.586
618.37	31.073
618.70	31.120
619.03	30.769
619.36	31.407
619.69	31.596
620.03	30.985
620.36	30.957
620.69	31.737
621.02	30.571
621.35	30.802
621.68	30.531
622.01	31.956
622.34	29.862
622.67	29.916
623.00	30.497
623.33	30.904
623.66	30.805
623.99	31.096
624.32	30.827
624.65	31.139
624.99	31.305
625.32	30.661
625.65	30.276
625.98	30.474
626.31	31.602
626.64	29.992
626.97	30.145
627.30	30.978
627.63	31.711
627.96	30.908
628.29	30.611
628.62	30.368
628.95	30.940
629.28	30.938
629.61	31.019
629.94	30.856
630.26	31.023
630.59	32.004
630.92	30.493
631.25	31.278
631.58	31.919
631.91	30.067
632.24	29.543
632.57	28.880
632.90	31.263
633.23	30.325
633.56	32.455
633.89	31.297
634.22	31.647
634.55	29.892
634.88	31.435
635.20	30.717
635.53	31.359
635.86	30.872
636.19	32.211
636.52	30.811
636.85	28.695
637.18	30.228
637.51	30.056
637.83	30.092
638.16	31.301
638.49	30.299
638.82	30.634
639.15	31.140
639.48	31.043
639.81	30.037
640.13	31.043
640.46	31.858
640.79	32.120
641.12	30.446
641.45	30.918
641.77	29.855
642.10	30.656
642.43	29.445
642.76	29.545
643.09	30.836
643.41	30.154
643.74	31.367
644.07	32.743
644.40	31.213
644.73	31.231
645.05	32.689
645.38	31.853
645.71	30.804
646.04	31.298
646.36	31.925
646.69	32.000
647.02	32.640
647.35	29.134
647.67	30.794
648.00	31.922
648.33	31.579
648.66	30.758
648.98	30.435
649.31	30.094
649.64	32.089
649.96	29.018
650.29	30.714
650.62	32.695
650.94	33.735
651.27	31.419
651.60	31.925
651.92	31.951
652.25	32.913
652.58	31.489
652.90	31.437
653.23	31.462
653.56	32.641
653.88	31.718
654.21	31.672
654.54	31.040
654.86	31.416
655.19	32.058
655.52	29.898
655.84	28.005
656.17	32.420
656.49	46.724
656.82	54.740
657.15	43.539
657.47	32.915
657.80	23.298
658.13	17.907
658.45	24.056
658.78	29.216
659.10	29.484
659.43	29.946
659.75	31.069
660.08	31.642
660.41	32.668
660.73	32.497
661.06	32.733
661.38	33.220
661.71	30.576
662.03	32.510
662.36	33.714
662.68	32.030
663.01	32.252
663.33	31.132
663.66	32.347
663.98	32.937
664.31	31.903
664.63	34.291
664.96	33.208
665.28	31.450
665.61	31.321
665.93	31.887
666.26	30.841
666.58	33.394
666.91	31.467
667.23	30.924
667.56	32.649
667.88	33.195
668.21	31.352
668.53	35.484
668.86	33.868
669.18	31.772
669.50	30.785
669.83	31.622
670.15	30.561
670.48	29.102
670.80	33.068
671.13	33.068
671.45	33.667
671.77	33.395
672.10	30.880
672.42	30.921
672.75	31.962
673.07	32.750
673.39	30.671
673.72	30.623
674.04	32.437
674.37	29.220
674.69	30.297
675.01	30.037
675.34	32.946
675.66	33.984
675.98	31.558
676.31	31.200
676.63	30.616
676.95	31.548
677.28	30.426
677.60	32.193
677.92	28.770
678.25	32.946
678.57	31.657
678.89	31.646
679.22	31.985
679.54	30.249
679.86	30.541
680.18	31.810
680.51	30.017
680.83	31.757
681.15	31.196
681.48	31.424
681.80	30.823
682.12	30.450
682.44	30.270
682.77	32.028
683.09	32.233
683.41	33.469
683.73	30.906
684.06	29.167
684.38	34.109
684.70	31.475
685.02	28.646
685.34	33.979
685.67	31.994
685.99	31.856
686.31	29.430
686.63	34.309
686.96	32.026
687.28	29.195
687.60	31.399
687.92	32.998
688.24	31.897
688.56	31.495
688.89	31.931
689.21	29.287
689.53	30.435
689.85	31.098
690.17	29.709
690.49	31.653
690.82	31.933
691.14	34.343
691.46	33.265
691.78	30.799
692.10	31.489
692.42	30.490
692.74	32.946
693.06	31.202
693.39	31.225
693.71	30.452
694.03	33.925
694.35	34.337
694.67	29.735
694.99	32.151
695.31	34.234
695.63	31.448
695.95	31.222
696.27	35.177
696.59	32.220
696.91	30.127
697.23	32.579
697.56	29.668
697.88	28.942
698.20	31.698
698.52	31.323
698.84	32.649
699.16	33.689
699.48	31.568
699.80	37.255
700.12	34.642
700.44	32.710
700.76	35.322
701.08	33.943
701.40	33.247
701.72	37.701
702.04	33.604
702.36	33.871
702.68	35.106
703.00	27.820
703.32	31.514
703.64	34.257
703.96	31.250
704.28	32.275
704.60	36.056
704.91	32.773
705.23	34.091
705.55	37.092
705.87	33.016
706.19	36.991
706.51	37.304
706.83	40.118
707.15	35.294
707.47	32.446
707.79	31.954
708.11	33.333
708.43	33.483
708.74	31.900
709.06	33.488
709.38	34.491
709.70	32.153
710.02	32.065
710.34	32.597
710.66	34.722
710.98	33.880
711.29	34.262
711.61	37.326
711.93	35.258
712.25	31.024
712.57	35.691
712.89	33.333
713.20	33.866
713.52	36.449
713.84	35.347
714.16	28.696
714.48	27.954
714.80	34.959
715.11	33.777
715.43	37.430
715.75	34.366
716.07	36.994
716.39	34.571
716.70	32.399
717.02	37.710
717.34	39.568
717.66	38.194
717.97	44.697
718.29	40.845
718.61	32.095
718.93	35.294
719.24	34.564
719.56	34.138
719.88	33.121
720.20	36.129
720.51	31.699
720.83	35.786
721.15	37.415
721.46	33.904
721.78	40.070
722.10	36.458
722.42	37.124
722.73	32.491
723.05	40.351
723.37	39.223
723.68	39.844
724.00	37.879
724.32	39.924
724.63	34.231
724.95	31.765
725.27	34.944
725.58	38.235
725.90	33.099
726.22	38.014
726.53	40.803
726.85	38.111
727.16	40.268
727.48	39.535
727.80	36.331
728.11	33.214
728.43	39.493
728.74	35.315
729.06	30.466
729.38	34.386
729.69	38.333
730.01	36.184
730.32	40.604
730.64	37.209
730.96	36.937
731.27	30.581
731.59	33.621
731.90	37.883
732.22	35.429
732.53	36.467
732.85	37.135
733.16	36.747
733.48	34.483
733.80	39.130
734.11	37.730
734.43	33.041
734.74	33.512
735.06	37.037
735.37	32.732
735.69	34.203
736.00	37.920
736.32	35.152
736.63	32.492
736.95	37.267
737.26	36.280
737.58	35.276
737.89	31.325
738.21	35.099
738.52	37.793
738.83	40.293
739.15	37.979
739.46	36.207
739.78	37.075
740.09	35.569
740.41	35.890
740.72	35.238
741.04	42.657
741.35	41.406
741.66	39.526
741.98	38.197
742.29	40.741
742.61	38.496
742.92	34.746
743.23	40.000
743.55	36.981
743.86	35.294
744.18	38.136
744.49	38.843
744.80	39.631
745.12	37.500
745.43	44.860
745.74	39.556
746.06	36.404
746.37	43.721
746.68	42.035
747.00	40.359
747.31	39.496
747.62	34.836
747.94	39.056
748.25	38.132
748.56	41.525
748.88	38.839
749.19	41.395
749.50	40.639
749.82	36.214
750.13	39.921
750.44	32.333
750.75	35.906
751.07	37.829
751.38	34.653
751.69	36.364
752.01	37.762
752.32	40.199
752.63	36.242
752.94	37.762
753.26	38.672
753.57	39.300
753.88	35.581
754.19	35.740
754.51	36.213
754.82	31.208
755.13	35.811
755.44	38.148
755.75	39.175
756.07	38.356
756.38	34.314
756.69	36.875
757.00	40.356
757.31	35.211
757.63	34.711
757.94	33.511
758.25	35.266
758.56	35.469
758.87	34.837
759.18	35.174
759.50	38.602
759.81	36.499
760.12	33.708
760.43	33.613
760.74	36.456
761.05	33.687
761.36	30.729
761.67	34.771
761.99	36.338
762.30	37.942
762.61	35.764
762.92	40.909
763.23	35.849
763.54	38.462
763.85	36.576
764.16	38.889
764.47	39.527
764.78	33.876
765.10	30.488
765.41	29.545
765.72	38.122
766.03	35.650
766.34	38.676
766.65	42.966
766.96	38.462
767.27	43.458
767.58	43.069
767.89	43.646
768.20	50.610
768.51	46.939
768.82	35.965
769.13	40.000
769.44	36.466
769.75	37.079
770.06	38.235
770.37	41.667
770.68	41.333
770.99	41.525
771.30	35.983
771.61	39.615
771.92	33.969
772.23	37.500
772.54	42.222
772.85	47.030
773.16	41.848
773.47	41.667
773.78	42.574
774.09	46.023
774.39	48.485
774.70	44.706
775.01	46.053
775.32	43.478
775.63	52.740
775.94	48.148
776.25	37.241
776.56	51.908
776.87	55.725
777.18	47.727
777.48	55.118
777.79	55.385
778.10	46.970
778.41	50.000
778.72	39.098
779.03	45.513
779.34	51.351
779.65	50.311
779.95	52.795
780.26	48.810
780.57	52.381
780.88	53.901
781.19	55.833
781.50	52.663
781.80	42.077
782.11	41.799
782.42	42.529
782.73	47.458
783.04	44.516
783.34	54.264
783.65	48.980
783.96	50.968
784.27	38.411
784.57	40.132
784.88	49.275
785.19	58.333
785.50	53.448
785.81	61.240
786.11	48.148
786.42	47.244
786.73	54.955
787.04	59.434
787.34	46.341
787.65	53.788
787.96	51.515
788.26	49.606
788.57	60.584
788.88	47.887
789.19	56.489
789.49	58.108
789.80	53.906
790.11	52.893
790.41	56.481
790.72	52.778
791.03	62.500
791.33	59.596
791.64	65.263
791.95	54.737
792.25	60.417
792.56	60.000
792.87	76.829
793.17	73.864
793.48	61.176
793.79	58.621
794.09	64.773
794.40	68.103
794.70	50.000
795.01	50.769
795.32	51.145
795.62	45.299
795.93	59.664
796.23	53.659
796.54	70.408
796.85	64.773
797.15	68.831
797.46	76.829
797.76	58.750
798.07	77.333
798.37	83.750
798.68	72.500
798.99	70.732
799.29	65.333
799.60	44.186
799.90	71.053
800.21	65.152
800.51	66.197
800.82	72.414
801.12	87.692
801.43	82.667
801.73	62.069
802.04	57.143
802.34	58.904
802.65	94.118
802.95	84.783
803.26	95.161
803.56	91.667
803.87	68.657
804.17	69.841
804.48	90.566
804.78	76.389
805.09	80.303
805.39	77.778
805.70	82.456
806.00	61.429
806.30	64.062
806.61	62.353
806.91	68.889
807.22	59.783
807.52	60.526
807.83	73.684
808.13	82.609
808.43	67.742
808.74	67.123
809.04	80.357
809.35	75.000
809.65	75.758
809.95	105.882
810.26	92.593
810.56	95.312
810.86	104.082
811.17	98.246
811.47	78.261
811.77	91.379
812.08	72.414
812.38	102.381
812.69	71.429
812.99	102.222
813.29	120.000
813.59	106.452
813.90	70.690
814.20	98.361
814.50	78.000
814.81	92.982
815.11	109.259
815.41	87.500
815.72	89.286
816.02	96.000
816.32	104.878
816.62	101.724
816.93	112.121
817.23	102.439
817.53	83.929
817.84	86.667
818.14	88.095
818.44	100.000
818.74	88.679
819.04	87.179
819.35	124.242
819.65	119.231
819.95	105.556
820.25	106.383
820.56	137.838
820.86	92.105
821.16	72.340
821.46	113.158
821.76	94.545
822.07	90.476
822.37	113.158
822.67	102.326
822.97	105.263
823.27	95.652
823.57	112.500
823.88	112.821
824.18	81.818
824.48	139.130
824.78	122.222
825.08	139.130
825.38	144.828
825.69	102.941
825.99	93.617
826.29	83.333
826.59	134.286
826.89	136.667
827.19	85.714
827.49	135.484
827.79	142.308
828.09	111.905
828.39	75.000
828.70	75.676
829.00	160.714
829.30	268.750
829.60	91.667
829.90	125.806
830.20	109.091
830.50	118.919
830.80	187.500
831.10	138.462
831.40	142.857
831.70	233.333
832.00	130.000
832.30	169.565
832.60	220.833
832.90	130.303
833.20	145.000
833.50	147.368
833.80	126.471
834.10	107.895
834.40	215.789
834.70	130.000
835.00	192.000
835.30	102.703
835.60	150.000
835.90	137.838
836.20	169.231
836.50	118.182
836.80	102.439
837.10	182.609
837.40	369.231
837.70	152.632
838.00	146.667
838.30	175.000
838.60	140.000
838.90	350.000
839.19	231.250
839.49	120.000
839.79	100.000
840.09	173.077
840.39	186.667
840.69	163.158
840.99	147.619
841.29	191.304
841.59	190.000
841.88	176.000
842.18	455.556
842.48	128.571
842.78	159.259
843.08	192.308
843.38	172.727
843.68	235.714
843.97	428.571
844.27	160.870
844.57	1550.000
844.87	278.571
845.17	222.222
845.47	133.333
845.76	170.833
846.06	671.429
846.36	205.882
846.66	253.846
846.96	256.250
847.25	215.385
847.55	215.789
847.85	188.889
848.15	580.000
848.44	227.273
848.74	180.952
849.04	158.333
849.34	200.000
849.63	256.250
849.93	237.500
850.23	1266.667
850.53	450.000
850.82	272.727
851.12	205.882
851.42	179.167
851.71	281.250
852.01	0.000
852.31	217.647
852.61	450.000
852.90	195.833
853.20	377.778
853.50	-2600.000
853.79	148.000
854.09	134.375
854.39	141.379
854.68	165.517
854.98	204.762
855.28	129.032
855.57	242.857
855.87	205.556
856.17	125.926
856.46	200.000
856.76	151.613
857.05	300.000
857.35	290.909
857.65	315.385
857.94	180.000
858.24	466.667
858.53	250.000
858.83	642.857
859.13	221.739
859.42	288.889
859.72	462.500
860.01	316.667
860.31	925.000
860.60	440.000
860.90	462.500
861.20	215.385
861.49	600.000
861.79	-3200.000
862.08	542.857
862.38	366.667
862.67	214.286
862.97	320.000
863.26	113.333
863.56	750.000
863.85	307.692
864.15	252.941
864.44	222.222
864.74	316.667
865.03	327.273
865.33	350.000
865.62	280.000
865.92	533.333
866.21	900.000
866.51	800.000
866.80	250.000
867.10	1033.333
867.39	3600.000
867.69	800.000
867.98	875.000
868.27	209.524
868.57	266.667
868.86	1025.000
869.16	171.429
869.45	3800.000
869.75	-600.000
870.04	1125.000
870.33	820.000
870.63	350.000
870.92	211.765
871.22	750.000
871.51	528.571
871.80	375.000
872.10	323.077
>>>>>End Processed Spectral Data<<<<<
