SpectraSuite Data File
++++++++++++++++++++++++++++++++++++
Date: Tue May 12 16:29:37 PDT 2015
User: schluterlab
Dark Spectrum Present: Yes
Reference Spectrum Present: Yes
Number of Sampled Component Spectra: 1
Spectrometers: USB2E3373
Integration Time (usec): 3000 (USB2E3373)
Spectra Averaged: 3 (USB2E3373)
Boxcar Smoothing: 0 (USB2E3373)
Correct for Electrical Dark: No (USB2E3373)
Strobe/Lamp Enabled: No (USB2E3373)
Correct for Detector Non-linearity: No (USB2E3373)
Correct for Stray Light: No (USB2E3373)
Number of Pixels in Processed Spectrum: 2048
>>>>>Begin Processed Spectral Data<<<<<
178.53	0.000
178.91	-250.000
179.29	-700.000
179.67	-3300.000
180.04	-86.667
180.42	675.000
180.80	1900.000
181.18	0.000
181.56	-312.500
181.94	0.000
182.31	1200.000
182.69	-3800.000
183.07	514.286
183.45	-2700.000
183.83	-1800.000
184.20	350.000
184.58	428.571
184.96	-238.462
185.34	-200.000
185.72	1850.000
186.09	-825.000
186.47	-3200.000
186.85	933.333
187.23	740.000
187.61	1950.000
187.98	375.000
188.36	257.143
188.74	325.000
189.12	358.333
189.49	875.000
189.87	0.000
190.25	500.000
190.63	2700.000
191.00	-175.000
191.38	-2300.000
191.76	-1125.000
192.14	350.000
192.51	-3100.000
192.89	1500.000
193.27	1133.333
193.65	-1033.333
194.02	-900.000
194.40	485.714
194.78	-192.857
195.15	253.333
195.53	-3100.000
195.91	-440.000
196.29	2900.000
196.66	225.000
197.04	725.000
197.42	-1700.000
197.79	500.000
198.17	308.333
198.55	0.000
198.92	628.571
199.30	833.333
199.68	1500.000
200.05	566.667
200.43	-433.333
200.81	205.556
201.18	4700.000
201.56	300.000
201.94	-650.000
202.31	-350.000
202.69	-400.000
203.07	2700.000
203.44	-483.333
203.82	425.000
204.19	740.000
204.57	-1150.000
204.95	-600.000
205.32	-740.000
205.70	583.333
206.08	925.000
206.45	-833.333
206.83	388.889
207.20	210.526
207.58	283.333
207.96	780.000
208.33	0.000
208.71	471.429
209.08	540.000
209.46	-2800.000
209.84	-725.000
210.21	760.000
210.59	-480.000
210.96	358.333
211.34	-875.000
211.71	281.818
212.09	950.000
212.46	1800.000
212.84	-350.000
213.22	422.222
213.59	-2000.000
213.97	310.000
214.34	775.000
214.72	1100.000
215.09	1066.667
215.47	-2600.000
215.84	-310.000
216.22	-450.000
216.59	0.000
216.97	0.000
217.34	1450.000
217.72	-1250.000
218.09	1500.000
218.47	475.000
218.84	850.000
219.22	1033.333
219.59	966.667
219.97	471.429
220.34	377.778
220.72	1550.000
221.09	2100.000
221.47	275.000
221.84	1000.000
222.22	310.000
222.59	250.000
222.97	285.714
223.34	212.500
223.72	-1350.000
224.09	1133.333
224.46	230.769
224.84	-725.000
225.21	322.222
225.59	286.667
225.96	1166.667
226.34	-840.000
226.71	-600.000
227.08	-660.000
227.46	0.000
227.83	-366.667
228.21	-1450.000
228.58	325.000
228.95	950.000
229.33	311.111
229.70	950.000
230.08	315.385
230.45	3900.000
230.82	-1000.000
231.20	-633.333
231.57	-1133.333
231.95	480.000
232.32	300.000
232.69	533.333
233.07	300.000
233.44	-1450.000
233.81	213.333
234.19	140.741
234.56	200.000
234.93	182.353
235.31	210.000
235.68	243.750
236.05	182.143
236.43	111.111
236.80	164.286
237.17	162.069
237.55	137.500
237.92	100.000
238.29	115.152
238.67	146.875
239.04	97.561
239.41	79.167
239.79	85.000
240.16	72.917
240.53	70.492
240.91	68.116
241.28	55.932
241.65	53.030
242.02	49.296
242.40	58.571
242.77	46.154
243.14	51.899
243.51	52.525
243.89	50.467
244.26	30.841
244.63	30.693
245.00	46.789
245.38	31.356
245.75	34.848
246.12	36.296
246.49	37.589
246.87	28.689
247.24	33.333
247.61	30.625
247.98	33.333
248.36	26.061
248.73	35.204
249.10	25.595
249.47	29.500
249.84	22.886
250.22	26.486
250.59	30.500
250.96	27.004
251.33	25.581
251.70	28.125
252.08	26.050
252.45	23.506
252.82	22.053
253.19	22.925
253.56	21.538
253.94	26.087
254.31	23.643
254.68	25.436
255.05	26.207
255.42	24.453
255.79	20.847
256.16	26.102
256.54	21.104
256.91	24.183
257.28	22.742
257.65	19.436
258.02	19.174
258.39	23.209
258.76	22.319
259.14	20.286
259.51	23.324
259.88	21.581
260.25	18.956
260.62	21.918
260.99	20.661
261.36	18.942
261.73	21.809
262.10	23.298
262.47	22.500
262.85	20.800
263.22	22.108
263.59	20.205
263.96	21.303
264.33	18.765
264.70	22.359
265.07	19.268
265.44	20.642
265.81	19.575
266.18	18.535
266.55	16.312
266.92	19.687
267.29	19.298
267.66	18.386
268.03	17.040
268.40	19.873
268.77	21.145
269.14	19.089
269.51	18.263
269.88	20.612
270.25	17.711
270.62	18.026
270.99	19.270
271.36	17.683
271.73	17.820
272.10	17.374
272.47	17.063
272.84	19.162
273.21	17.769
273.58	20.648
273.95	16.016
274.32	18.093
274.69	20.472
275.06	17.851
275.43	16.284
275.80	18.491
276.17	18.199
276.54	19.813
276.91	20.522
277.28	19.708
277.65	16.605
278.02	15.809
278.39	18.705
278.76	19.310
279.13	18.327
279.50	17.273
279.87	16.387
280.23	16.022
280.60	18.978
280.97	17.931
281.34	16.007
281.71	17.043
282.08	16.410
282.45	15.372
282.82	17.391
283.19	17.647
283.56	17.025
283.92	15.961
284.29	17.304
284.66	16.303
285.03	17.247
285.40	16.529
285.77	15.123
286.14	17.647
286.51	16.104
286.87	15.823
287.24	15.766
287.61	17.629
287.98	16.567
288.35	16.444
288.72	13.809
289.08	15.916
289.45	16.006
289.82	16.406
290.19	14.641
290.56	17.904
290.93	15.971
291.29	15.470
291.66	15.254
292.03	15.849
292.40	16.938
292.77	13.510
293.13	14.265
293.50	12.955
293.87	13.279
294.24	14.685
294.60	15.074
294.97	14.965
295.34	16.202
295.71	14.323
296.08	14.533
296.44	16.391
296.81	13.648
297.18	12.674
297.55	14.778
297.91	12.685
298.28	14.372
298.65	14.601
299.02	13.631
299.38	14.748
299.75	12.683
300.12	15.023
300.48	13.583
300.85	14.541
301.22	14.767
301.59	12.382
301.95	13.186
302.32	12.806
302.69	13.801
303.05	14.366
303.42	11.771
303.79	14.085
304.15	12.651
304.52	13.214
304.89	12.580
305.25	13.126
305.62	11.834
305.99	13.152
306.35	12.000
306.72	12.591
307.09	13.354
307.45	12.883
307.82	12.449
308.19	12.371
308.55	13.400
308.92	13.935
309.29	14.103
309.65	12.983
310.02	12.779
310.38	12.562
310.75	11.668
311.12	12.644
311.48	14.382
311.85	12.214
312.22	13.754
312.58	12.439
312.95	12.621
313.31	13.296
313.68	12.758
314.05	15.293
314.41	12.384
314.78	12.689
315.14	13.460
315.51	13.245
315.87	13.230
316.24	13.165
316.61	14.056
316.97	12.569
317.34	14.465
317.70	13.345
318.07	14.858
318.43	14.763
318.80	15.236
319.16	14.948
319.53	14.425
319.89	13.889
320.26	15.456
320.62	15.385
320.99	16.873
321.35	14.935
321.72	17.647
322.08	16.805
322.45	17.439
322.81	16.834
323.18	18.028
323.54	18.728
323.91	19.855
324.27	18.126
324.64	18.945
325.00	18.707
325.37	18.971
325.73	19.393
326.10	20.050
326.46	20.644
326.83	20.320
327.19	22.008
327.56	21.805
327.92	23.115
328.29	22.422
328.65	23.630
329.01	24.123
329.38	23.519
329.74	22.886
330.11	24.500
330.47	25.149
330.84	23.986
331.20	24.535
331.56	26.425
331.93	25.663
332.29	23.980
332.66	25.510
333.02	25.344
333.38	26.702
333.75	25.521
334.11	26.594
334.48	26.923
334.84	25.760
335.20	26.518
335.57	26.616
335.93	26.072
336.29	26.119
336.66	28.045
337.02	25.920
337.38	25.537
337.75	27.449
338.11	27.342
338.47	26.926
338.84	27.096
339.20	27.100
339.56	26.745
339.93	26.672
340.29	26.218
340.65	27.745
341.02	27.997
341.38	27.750
341.74	27.409
342.11	26.962
342.47	27.400
342.83	27.892
343.20	28.294
343.56	26.688
343.92	27.911
344.28	28.389
344.65	28.443
345.01	27.302
345.37	28.125
345.73	28.571
346.10	27.331
346.46	28.469
346.82	27.778
347.19	30.139
347.55	27.713
347.91	28.323
348.27	27.808
348.63	27.532
349.00	29.170
349.36	28.716
349.72	29.969
350.08	29.425
350.45	28.941
350.81	29.664
351.17	29.199
351.53	28.868
351.89	29.138
352.26	28.874
352.62	29.940
352.98	29.525
353.34	29.892
353.70	28.746
354.07	29.154
354.43	30.338
354.79	28.018
355.15	29.632
355.51	29.985
355.87	30.045
356.24	29.407
356.60	28.539
356.96	29.340
357.32	29.088
357.68	29.736
358.04	29.711
358.40	30.060
358.77	30.128
359.13	30.405
359.49	30.838
359.85	29.859
360.21	29.569
360.57	30.730
360.93	29.654
361.29	30.519
361.66	32.215
362.02	29.688
362.38	31.313
362.74	30.856
363.10	31.346
363.46	30.456
363.82	30.996
364.18	32.006
364.54	31.545
364.90	31.258
365.26	31.645
365.62	30.387
365.98	31.865
366.35	30.759
366.71	32.061
367.07	31.536
367.43	31.028
367.79	32.513
368.15	30.936
368.51	32.323
368.87	31.590
369.23	31.116
369.59	31.288
369.95	32.867
370.31	30.664
370.67	31.922
371.03	32.633
371.39	32.895
371.75	32.589
372.11	32.631
372.47	32.534
372.83	32.835
373.19	33.310
373.55	33.265
373.91	31.423
374.27	31.746
374.63	33.356
374.99	32.143
375.35	32.594
375.71	32.388
376.07	32.095
376.42	32.225
376.78	32.755
377.14	32.962
377.50	32.210
377.86	33.312
378.22	32.297
378.58	33.535
378.94	32.167
379.30	33.414
379.66	33.293
380.02	33.548
380.38	32.201
380.74	32.872
381.09	33.470
381.45	32.832
381.81	32.447
382.17	32.357
382.53	33.053
382.89	33.057
383.25	32.268
383.61	32.680
383.97	32.933
384.32	31.706
384.68	33.333
385.04	32.767
385.40	32.562
385.76	32.241
386.12	33.086
386.48	33.982
386.83	32.641
387.19	32.391
387.55	32.862
387.91	32.910
388.27	32.362
388.62	32.277
388.98	31.370
389.34	32.421
389.70	32.783
390.06	32.622
390.42	32.202
390.77	32.801
391.13	32.348
391.49	32.184
391.85	33.046
392.20	32.718
392.56	32.497
392.92	31.611
393.28	32.175
393.64	31.938
393.99	32.187
394.35	31.666
394.71	30.941
395.07	32.238
395.42	31.440
395.78	31.771
396.14	32.711
396.50	32.491
396.85	31.098
397.21	31.588
397.57	32.038
397.92	31.369
398.28	31.329
398.64	31.588
399.00	30.358
399.35	30.113
399.71	30.850
400.07	30.651
400.42	30.388
400.78	31.144
401.14	30.299
401.49	30.588
401.85	30.823
402.21	30.228
402.57	30.640
402.92	30.303
403.28	29.654
403.63	29.370
403.99	30.036
404.35	30.246
404.70	30.124
405.06	29.366
405.42	29.803
405.77	28.831
406.13	29.338
406.49	29.392
406.84	28.821
407.20	29.224
407.55	28.985
407.91	30.696
408.27	29.351
408.62	29.213
408.98	28.977
409.34	27.703
409.69	28.314
410.05	28.324
410.40	29.152
410.76	28.048
411.11	28.673
411.47	29.074
411.83	27.592
412.18	28.140
412.54	28.288
412.89	28.496
413.25	27.879
413.60	28.096
413.96	27.648
414.31	28.571
414.67	29.547
415.03	28.033
415.38	28.707
415.74	27.732
416.09	29.544
416.45	28.765
416.80	29.250
417.16	28.390
417.51	27.389
417.87	28.911
418.22	29.040
418.58	28.344
418.93	29.328
419.29	27.542
419.64	29.497
420.00	29.952
420.35	29.094
420.71	29.230
421.06	29.017
421.42	29.534
421.77	29.761
422.12	29.879
422.48	29.122
422.83	30.022
423.19	29.212
423.54	30.280
423.90	29.955
424.25	30.105
424.61	30.586
424.96	29.757
425.31	30.378
425.67	30.527
426.02	30.847
426.38	30.280
426.73	31.174
427.09	31.198
427.44	30.895
427.79	31.218
428.15	31.585
428.50	32.571
428.85	32.099
429.21	30.794
429.56	31.356
429.92	31.825
430.27	31.930
430.62	30.935
430.98	31.786
431.33	31.149
431.68	31.259
432.04	32.230
432.39	31.723
432.74	32.377
433.10	32.503
433.45	33.199
433.80	33.315
434.16	33.158
434.51	33.230
434.86	33.315
435.22	33.928
435.57	33.551
435.92	33.637
436.28	33.929
436.63	33.874
436.98	34.347
437.34	33.790
437.69	33.427
438.04	33.978
438.39	33.684
438.75	32.851
439.10	33.729
439.45	33.070
439.81	34.644
440.16	34.177
440.51	34.009
440.86	35.214
441.22	33.009
441.57	35.591
441.92	34.551
442.27	33.454
442.63	33.537
442.98	34.052
443.33	34.708
443.68	34.256
444.03	34.402
444.39	34.652
444.74	34.679
445.09	36.072
445.44	34.272
445.79	35.234
446.15	35.263
446.50	35.127
446.85	34.861
447.20	34.577
447.55	35.019
447.91	35.109
448.26	35.091
448.61	35.766
448.96	36.057
449.31	35.479
449.66	35.659
450.02	34.738
450.37	35.147
450.72	35.427
451.07	35.893
451.42	36.455
451.77	35.911
452.12	35.961
452.47	36.148
452.83	36.394
453.18	36.396
453.53	35.642
453.88	36.057
454.23	36.723
454.58	36.305
454.93	35.806
455.28	36.597
455.63	35.402
455.98	35.533
456.34	36.231
456.69	36.585
457.04	35.561
457.39	35.486
457.74	35.755
458.09	35.317
458.44	35.323
458.79	36.870
459.14	35.188
459.49	36.240
459.84	36.250
460.19	35.593
460.54	35.726
460.89	36.354
461.24	35.281
461.59	37.472
461.94	35.579
462.29	35.984
462.64	36.872
462.99	36.340
463.34	36.876
463.69	37.810
464.04	36.730
464.39	36.634
464.74	35.639
465.09	35.287
465.44	35.419
465.79	35.874
466.14	35.506
466.49	35.865
466.84	36.065
467.19	36.673
467.54	36.096
467.89	36.561
468.24	35.958
468.59	35.714
468.94	36.473
469.29	36.591
469.64	36.463
469.99	37.147
470.34	36.116
470.68	36.345
471.03	36.424
471.38	37.417
471.73	37.753
472.08	37.182
472.43	37.741
472.78	36.940
473.13	35.607
473.48	36.614
473.83	36.278
474.17	35.866
474.52	36.848
474.87	36.327
475.22	37.293
475.57	36.201
475.92	36.791
476.27	35.473
476.61	36.408
476.96	35.998
477.31	36.093
477.66	36.554
478.01	37.545
478.36	36.148
478.70	35.931
479.05	36.245
479.40	35.764
479.75	36.147
480.10	36.738
480.45	36.835
480.79	36.129
481.14	36.186
481.49	35.865
481.84	35.796
482.19	36.114
482.53	35.485
482.88	36.066
483.23	35.498
483.58	35.907
483.92	36.289
484.27	35.788
484.62	36.333
484.97	35.450
485.31	34.391
485.66	34.265
486.01	33.594
486.36	33.370
486.70	33.257
487.05	33.543
487.40	34.117
487.75	34.206
488.09	34.290
488.44	34.990
488.79	34.953
489.13	35.536
489.48	35.078
489.83	35.363
490.17	35.632
490.52	36.391
490.87	35.948
491.22	36.303
491.56	35.705
491.91	35.797
492.26	34.967
492.60	36.492
492.95	35.976
493.30	36.624
493.64	37.376
493.99	35.644
494.34	35.455
494.68	35.724
495.03	36.417
495.37	36.830
495.72	36.224
496.07	35.400
496.41	36.056
496.76	36.133
497.11	36.290
497.45	36.300
497.80	36.376
498.14	36.662
498.49	35.701
498.84	37.150
499.18	35.786
499.53	36.656
499.87	37.197
500.22	36.849
500.56	36.862
500.91	37.662
501.26	35.921
501.60	36.976
501.95	36.290
502.29	36.622
502.64	36.568
502.98	36.639
503.33	35.991
503.67	35.938
504.02	36.140
504.36	37.059
504.71	36.566
505.06	36.696
505.40	36.921
505.75	36.576
506.09	36.678
506.44	36.137
506.78	37.429
507.13	36.694
507.47	36.730
507.82	37.372
508.16	37.972
508.51	37.198
508.85	36.610
509.19	38.081
509.54	37.158
509.88	37.742
510.23	37.353
510.57	36.100
510.92	38.062
511.26	37.299
511.61	36.435
511.95	37.133
512.30	37.000
512.64	37.954
512.98	38.032
513.33	37.346
513.67	37.338
514.02	37.558
514.36	37.331
514.70	38.240
515.05	38.253
515.39	37.993
515.74	38.874
516.08	38.017
516.42	39.727
516.77	37.867
517.11	37.707
517.46	37.877
517.80	37.794
518.14	38.986
518.49	37.872
518.83	37.967
519.17	39.767
519.52	39.104
519.86	38.856
520.20	38.411
520.55	37.818
520.89	38.736
521.23	40.070
521.58	38.439
521.92	38.542
522.26	38.626
522.61	39.810
522.95	40.601
523.29	39.240
523.64	38.439
523.98	38.791
524.32	39.043
524.66	38.377
525.01	39.231
525.35	39.128
525.69	40.698
526.04	38.370
526.38	39.141
526.72	39.081
527.06	38.261
527.41	40.508
527.75	38.953
528.09	39.193
528.43	40.329
528.78	38.760
529.12	39.735
529.46	39.977
529.80	38.026
530.15	38.715
530.49	38.989
530.83	39.122
531.17	39.483
531.51	39.301
531.86	39.010
532.20	38.690
532.54	39.674
532.88	39.225
533.22	39.976
533.57	39.109
533.91	38.287
534.25	37.911
534.59	39.357
534.93	37.941
535.27	37.678
535.62	37.981
535.96	38.889
536.30	39.671
536.64	38.758
536.98	38.452
537.32	40.188
537.66	39.031
538.01	39.567
538.35	39.738
538.69	38.835
539.03	38.744
539.37	37.925
539.71	39.198
540.05	39.262
540.39	38.491
540.73	40.316
541.07	39.021
541.42	39.739
541.76	39.642
542.10	39.457
542.44	39.526
542.78	39.836
543.12	38.344
543.46	38.784
543.80	39.286
544.14	40.248
544.48	39.720
544.82	40.061
545.16	39.101
545.50	40.258
545.84	40.530
546.18	40.442
546.52	40.066
546.86	40.039
547.20	39.729
547.54	40.595
547.88	39.477
548.22	40.498
548.56	39.069
548.90	39.383
549.24	40.240
549.58	40.335
549.92	40.995
550.26	41.041
550.60	39.654
550.94	42.469
551.28	40.966
551.62	41.448
551.96	41.216
552.30	39.420
552.64	41.294
552.98	41.044
553.32	39.949
553.66	40.391
554.00	41.055
554.34	41.478
554.68	40.390
555.02	40.869
555.36	40.492
555.69	41.165
556.03	40.446
556.37	40.918
556.71	40.743
557.05	41.022
557.39	41.533
557.73	43.194
558.07	41.516
558.41	41.193
558.75	41.040
559.08	41.959
559.42	42.233
559.76	42.195
560.10	41.638
560.44	41.274
560.78	42.711
561.12	40.941
561.45	40.989
561.79	41.386
562.13	41.188
562.47	41.856
562.81	42.550
563.15	40.789
563.48	39.938
563.82	42.732
564.16	41.480
564.50	40.868
564.84	41.033
565.17	40.582
565.51	42.857
565.85	42.196
566.19	41.429
566.52	40.132
566.86	42.207
567.20	41.685
567.54	40.393
567.88	42.045
568.21	40.240
568.55	39.981
568.89	39.735
569.23	39.862
569.56	39.257
569.90	38.124
570.24	38.569
570.57	38.125
570.91	37.785
571.25	37.456
571.59	36.294
571.92	36.195
572.26	36.496
572.60	37.101
572.93	38.125
573.27	37.220
573.61	37.493
573.95	36.977
574.28	37.252
574.62	36.772
574.96	35.895
575.29	36.133
575.63	36.419
575.97	36.271
576.30	36.649
576.64	36.658
576.98	36.870
577.31	37.268
577.65	36.922
577.98	36.598
578.32	36.099
578.66	36.606
578.99	37.340
579.33	36.761
579.67	36.903
580.00	36.643
580.34	36.679
580.67	36.935
581.01	37.569
581.35	37.170
581.68	36.438
582.02	37.129
582.35	36.741
582.69	37.106
583.02	37.335
583.36	37.460
583.70	38.368
584.03	38.976
584.37	38.390
584.70	37.995
585.04	38.544
585.37	38.458
585.71	39.079
586.04	38.594
586.38	38.616
586.72	38.996
587.05	39.115
587.39	39.090
587.72	39.083
588.06	40.055
588.39	39.074
588.73	39.662
589.06	40.473
589.40	40.125
589.73	41.331
590.07	41.867
590.40	41.394
590.73	42.159
591.07	42.505
591.40	41.677
591.74	41.721
592.07	41.847
592.41	41.647
592.74	41.487
593.08	40.299
593.41	41.143
593.75	39.883
594.08	40.838
594.41	40.860
594.75	41.849
595.08	41.632
595.42	41.672
595.75	40.573
596.09	41.710
596.42	42.134
596.75	43.149
597.09	43.128
597.42	42.449
597.75	42.840
598.09	42.757
598.42	42.432
598.76	41.866
599.09	43.435
599.42	41.384
599.76	41.282
600.09	40.881
600.42	41.954
600.76	42.182
601.09	42.458
601.42	41.007
601.76	42.607
602.09	42.862
602.42	41.442
602.76	42.581
603.09	43.288
603.42	43.046
603.76	42.444
604.09	42.707
604.42	43.277
604.76	43.026
605.09	42.857
605.42	43.031
605.75	43.387
606.09	41.928
606.42	43.179
606.75	43.801
607.09	43.229
607.42	43.793
607.75	43.551
608.08	44.395
608.42	43.876
608.75	43.731
609.08	43.819
609.41	44.182
609.75	44.689
610.08	44.469
610.41	44.313
610.74	43.506
611.07	45.111
611.41	44.347
611.74	45.507
612.07	45.761
612.40	45.273
612.73	46.830
613.07	45.261
613.40	46.566
613.73	46.331
614.06	44.500
614.39	45.808
614.72	45.053
615.06	44.758
615.39	45.446
615.72	44.676
616.05	46.409
616.38	46.119
616.71	45.958
617.05	46.348
617.38	46.348
617.71	46.457
618.04	46.887
618.37	47.582
618.70	47.171
619.03	46.886
619.36	48.492
619.69	48.549
620.03	49.185
620.36	47.977
620.69	48.978
621.02	49.457
621.35	48.854
621.68	49.189
622.01	50.111
622.34	50.328
622.67	50.281
623.00	48.877
623.33	48.853
623.66	49.634
623.99	50.068
624.32	49.526
624.65	47.926
624.99	49.155
625.32	50.568
625.65	48.828
625.98	48.326
626.31	49.555
626.64	50.569
626.97	49.350
627.30	50.854
627.63	51.491
627.96	49.922
628.29	52.640
628.62	50.984
628.95	53.191
629.28	52.235
629.61	53.427
629.94	52.290
630.26	52.946
630.59	53.546
630.92	52.646
631.25	53.037
631.58	55.352
631.91	52.521
632.24	52.575
632.57	53.438
632.90	54.141
633.23	55.089
633.56	53.952
633.89	54.770
634.22	56.189
634.55	55.054
634.88	54.655
635.20	56.502
635.53	56.562
635.86	56.152
636.19	54.433
636.52	55.351
636.85	55.016
637.18	55.363
637.51	55.419
637.83	55.378
638.16	55.334
638.49	56.766
638.82	56.455
639.15	56.052
639.48	58.175
639.81	56.044
640.13	56.564
640.46	57.901
640.79	57.997
641.12	58.268
641.45	58.215
641.77	57.728
642.10	58.768
642.43	59.317
642.76	56.960
643.09	58.790
643.41	57.223
643.74	61.151
644.07	59.587
644.40	59.763
644.73	58.559
645.05	59.287
645.38	60.643
645.71	59.939
646.04	60.763
646.36	61.033
646.69	59.520
647.02	62.560
647.35	58.110
647.67	59.806
648.00	59.446
648.33	60.150
648.66	60.758
648.98	56.087
649.31	55.466
649.64	56.846
649.96	58.037
650.29	58.429
650.62	60.677
650.94	59.488
651.27	61.085
651.60	59.155
651.92	59.908
652.25	59.843
652.58	58.156
652.90	60.030
653.23	60.118
653.56	58.457
653.88	58.590
654.21	57.185
654.54	59.151
654.86	58.407
655.19	59.235
655.52	51.193
655.84	42.674
656.17	48.859
656.49	69.603
656.82	78.477
657.15	62.391
657.47	46.988
657.80	34.841
658.13	27.899
658.45	37.657
658.78	45.507
659.10	45.632
659.43	46.986
659.75	48.729
660.08	51.253
660.41	53.993
660.73	57.215
661.06	59.009
661.38	60.477
661.71	62.410
662.03	64.449
662.36	64.000
662.68	63.873
663.01	63.604
663.33	61.887
663.66	63.708
663.98	63.492
664.31	63.246
664.63	63.985
664.96	63.227
665.28	63.842
665.61	62.075
665.93	63.019
666.26	63.925
666.58	64.037
666.91	66.216
667.23	62.651
667.56	64.271
667.88	68.257
668.21	65.574
668.53	62.702
668.86	65.932
669.18	64.155
669.50	62.190
669.83	64.682
670.15	65.904
670.48	61.133
670.80	62.351
671.13	61.952
671.45	63.727
671.77	63.080
672.10	61.759
672.42	61.020
672.75	60.601
673.07	60.572
673.39	58.946
673.72	60.554
674.04	60.036
674.37	61.706
674.69	58.736
675.01	61.381
675.34	63.178
675.66	62.305
675.98	65.089
676.31	65.000
676.63	61.630
676.95	65.476
677.28	63.692
677.60	61.368
677.92	61.111
678.25	62.403
678.57	61.266
678.89	64.738
679.22	62.316
679.54	59.431
679.86	60.035
680.18	61.336
680.51	59.536
680.83	58.277
681.15	60.659
681.48	61.806
681.80	58.669
682.12	61.765
682.44	59.640
682.77	59.786
683.09	62.524
683.41	63.673
683.73	62.205
684.06	60.516
684.38	63.566
684.70	59.892
685.02	59.028
685.34	60.035
685.67	58.521
685.99	60.591
686.31	58.089
686.63	60.488
686.96	60.784
687.28	57.215
687.60	59.898
687.92	57.454
688.24	61.034
688.56	58.719
688.89	60.421
689.21	60.501
689.53	64.822
689.85	62.398
690.17	63.495
690.49	64.113
690.82	64.916
691.14	60.808
691.46	65.914
691.78	62.378
692.10	61.450
692.42	59.528
692.74	61.822
693.06	62.016
693.39	60.672
693.71	61.493
694.03	62.327
694.35	63.855
694.67	59.267
694.99	64.080
695.31	63.964
695.63	66.290
695.95	65.385
696.27	62.832
696.59	66.348
696.91	66.076
697.23	61.312
697.56	59.959
697.88	61.477
698.20	56.604
698.52	57.198
698.84	62.834
699.16	60.341
699.48	61.441
699.80	64.706
700.12	61.663
700.44	65.654
700.76	60.382
701.08	63.969
701.40	64.416
701.72	71.123
702.04	70.461
702.36	65.323
702.68	67.287
703.00	63.659
703.32	63.275
703.64	65.995
703.96	64.323
704.28	67.196
704.60	67.042
704.91	68.908
705.23	66.477
705.55	70.623
705.87	65.079
706.19	70.533
706.51	73.041
706.83	69.322
707.15	67.380
707.47	61.501
707.79	62.069
708.11	63.946
708.43	60.899
708.74	60.860
709.06	60.930
709.38	64.268
709.70	63.488
710.02	64.402
710.34	65.470
710.66	68.056
710.98	63.388
711.29	66.574
711.61	66.852
711.93	66.869
712.25	66.566
712.57	71.704
712.89	67.576
713.20	71.885
713.52	65.421
713.84	67.069
714.16	61.449
714.48	58.501
714.80	64.499
715.11	64.096
715.43	62.570
715.75	62.817
716.07	66.474
716.39	65.714
716.70	65.732
717.02	72.727
717.34	70.504
717.66	73.611
717.97	74.242
718.29	70.775
718.61	60.473
718.93	68.512
719.24	68.456
719.56	72.414
719.88	61.465
720.20	66.129
720.51	67.974
720.83	65.886
721.15	70.408
721.46	64.384
721.78	70.035
722.10	70.486
722.42	67.893
722.73	66.065
723.05	67.719
723.37	67.845
723.68	67.578
724.00	71.212
724.32	73.004
724.63	75.769
724.95	66.667
725.27	68.773
725.58	71.324
725.90	64.437
726.22	64.384
726.53	68.562
726.85	65.798
727.16	65.772
727.48	61.130
727.80	67.266
728.11	70.357
728.43	63.768
728.74	67.483
729.06	60.573
729.38	67.018
729.69	69.333
730.01	67.434
730.32	64.430
730.64	67.442
730.96	61.562
731.27	58.410
731.59	59.195
731.90	59.053
732.22	62.000
732.53	55.271
732.85	61.111
733.16	56.627
733.48	64.890
733.80	60.870
734.11	63.497
734.43	61.988
734.74	60.590
735.06	59.259
735.37	57.216
735.69	57.971
736.00	66.055
736.32	59.697
736.63	61.830
736.95	62.733
737.26	62.500
737.58	64.417
737.89	60.542
738.21	60.927
738.52	65.552
738.83	68.498
739.15	63.066
739.46	65.517
739.78	64.286
740.09	61.516
740.41	61.350
740.72	64.444
741.04	65.035
741.35	69.531
741.66	63.241
741.98	67.382
742.29	70.833
742.61	69.469
742.92	67.373
743.23	66.000
743.55	61.887
743.86	67.451
744.18	66.525
744.49	66.529
744.80	70.968
745.12	74.107
745.43	68.692
745.74	74.222
746.06	63.596
746.37	71.163
746.68	71.239
747.00	72.197
747.31	68.908
747.62	59.016
747.94	68.240
748.25	63.813
748.56	67.797
748.88	71.875
749.19	71.163
749.50	67.580
749.82	68.724
750.13	73.518
750.44	62.333
750.75	63.087
751.07	63.487
751.38	63.036
751.69	60.943
752.01	64.685
752.32	61.462
752.63	64.765
752.94	63.636
753.26	66.406
753.57	68.872
753.88	60.300
754.19	62.455
754.51	60.797
754.82	59.060
755.13	58.784
755.44	64.074
755.75	64.261
756.07	62.671
756.38	55.556
756.69	58.438
757.00	61.128
757.31	59.718
757.63	56.749
757.94	59.574
758.25	55.314
758.56	54.691
758.87	57.143
759.18	59.012
759.50	56.839
759.81	59.347
760.12	57.865
760.43	57.143
760.74	57.468
761.05	55.438
761.36	58.594
761.67	54.717
761.99	58.028
762.30	58.842
762.61	56.250
762.92	59.848
763.23	63.396
763.54	61.538
763.85	62.646
764.16	62.153
764.47	55.068
764.78	60.261
765.10	54.268
765.41	56.250
765.72	58.564
766.03	59.819
766.34	63.415
766.65	62.357
766.96	60.324
767.27	64.953
767.58	65.347
767.89	68.508
768.20	75.610
768.51	67.347
768.82	61.842
769.13	63.137
769.44	58.271
769.75	60.300
770.06	65.126
770.37	56.579
770.68	66.667
770.99	63.559
771.30	69.874
771.61	61.923
771.92	59.542
772.23	59.677
772.54	68.000
772.85	69.802
773.16	64.674
773.47	66.111
773.78	68.317
774.09	69.886
774.39	76.364
774.70	70.000
775.01	67.105
775.32	70.186
775.63	82.877
775.94	74.074
776.25	82.069
776.56	77.099
776.87	79.389
777.18	71.970
777.48	83.465
777.79	78.462
778.10	81.061
778.41	72.388
778.72	73.684
779.03	65.385
779.34	72.297
779.65	75.776
779.95	63.975
780.26	61.310
780.57	73.469
780.88	82.979
781.19	80.833
781.50	72.189
781.80	66.120
782.11	64.550
782.42	64.368
782.73	66.102
783.04	70.323
783.34	69.767
783.65	65.986
783.96	71.613
784.27	63.576
784.57	69.079
784.88	74.638
785.19	75.000
785.50	76.724
785.81	82.171
786.11	68.889
786.42	68.504
786.73	74.775
787.04	88.679
787.34	71.545
787.65	71.212
787.96	71.970
788.26	79.528
788.57	70.803
788.88	62.676
789.19	69.466
789.49	68.919
789.80	71.875
790.11	71.901
790.41	74.074
790.72	70.370
791.03	80.769
791.33	79.798
791.64	74.737
791.95	87.368
792.25	82.292
792.56	83.000
792.87	82.927
793.17	85.227
793.48	80.000
793.79	94.253
794.09	90.909
794.40	87.069
794.70	76.190
795.01	68.462
795.32	65.649
795.62	70.940
795.93	76.471
796.23	73.171
796.54	80.612
796.85	81.818
797.15	85.714
797.46	95.122
797.76	85.000
798.07	96.000
798.37	88.750
798.68	81.250
798.99	100.000
799.29	72.000
799.60	81.395
799.90	93.421
800.21	93.939
800.51	97.183
800.82	124.138
801.12	115.385
801.43	86.667
801.73	105.172
802.04	88.312
802.34	95.890
802.65	129.412
802.95	139.130
803.26	112.903
803.56	110.000
803.87	94.030
804.17	100.000
804.48	107.547
804.78	91.667
805.09	87.879
805.39	104.762
805.70	126.316
806.00	92.857
806.30	101.562
806.61	84.706
806.91	71.111
807.22	72.826
807.52	73.684
807.83	88.158
808.13	95.652
808.43	117.742
808.74	93.151
809.04	100.000
809.35	104.412
809.65	92.424
809.95	121.569
810.26	114.815
810.56	106.250
810.86	112.245
811.17	107.018
811.47	95.652
811.77	106.897
812.08	84.483
812.38	109.524
812.69	90.476
812.99	97.778
813.29	140.000
813.59	180.645
813.90	86.207
814.20	96.721
814.50	106.000
814.81	96.491
815.11	131.481
815.41	116.071
815.72	119.643
816.02	102.000
816.32	141.463
816.62	115.517
816.93	130.303
817.23	129.268
817.53	110.714
817.84	88.889
818.14	121.429
818.44	116.667
818.74	105.660
819.04	128.205
819.35	166.667
819.65	123.077
819.95	124.074
820.25	121.277
820.56	140.541
820.86	150.000
821.16	102.128
821.46	144.737
821.76	123.636
822.07	95.238
822.37	107.895
822.67	130.233
822.97	126.316
823.27	123.913
823.57	131.250
823.88	125.641
824.18	142.424
824.48	143.478
824.78	127.778
825.08	152.174
825.38	151.724
825.69	117.647
825.99	104.255
826.29	80.556
826.59	157.143
826.89	156.667
827.19	137.143
827.49	170.968
827.79	180.769
828.09	102.381
828.39	147.222
828.70	129.730
829.00	153.571
829.30	187.500
829.60	136.111
829.90	154.839
830.20	130.303
830.50	135.135
830.80	220.833
831.10	176.923
831.40	171.429
831.70	204.167
832.00	160.000
832.30	208.696
832.60	170.833
832.90	190.909
833.20	260.000
833.50	163.158
833.80	114.706
834.10	123.684
834.40	152.632
834.70	106.667
835.00	176.000
835.30	113.514
835.60	171.875
835.90	167.568
836.20	146.154
836.50	159.091
836.80	119.512
837.10	178.261
837.40	353.846
837.70	152.632
838.00	150.000
838.30	150.000
838.60	204.000
838.90	290.000
839.19	243.750
839.49	140.000
839.79	158.621
840.09	165.385
840.39	206.667
840.69	242.105
840.99	157.143
841.29	221.739
841.59	195.000
841.88	192.000
842.18	366.667
842.48	164.286
842.78	162.963
843.08	200.000
843.38	172.727
843.68	257.143
843.97	571.429
844.27	139.130
844.57	2100.000
844.87	328.571
845.17	250.000
845.47	204.762
845.76	170.833
846.06	671.429
846.36	200.000
846.66	261.538
846.96	287.500
847.25	261.538
847.55	221.053
847.85	205.556
848.15	880.000
848.44	327.273
848.74	200.000
849.04	208.333
849.34	205.882
849.63	256.250
849.93	312.500
850.23	1100.000
850.53	425.000
850.82	363.636
851.12	223.529
851.42	237.500
851.71	275.000
852.01	0.000
852.31	247.059
852.61	320.000
852.90	154.167
853.20	411.111
853.50	-1600.000
853.79	180.000
854.09	162.500
854.39	158.621
854.68	168.966
854.98	242.857
855.28	116.129
855.57	321.429
855.87	188.889
856.17	170.370
856.46	226.316
856.76	138.710
857.05	252.941
857.35	309.091
857.65	276.923
857.94	185.000
858.24	388.889
858.53	335.714
858.83	642.857
859.13	200.000
859.42	466.667
859.72	337.500
860.01	341.667
860.31	1100.000
860.60	380.000
860.90	400.000
861.20	330.769
861.49	414.286
861.79	-3600.000
862.08	528.571
862.38	455.556
862.67	257.143
862.97	420.000
863.26	133.333
863.56	950.000
863.85	338.462
864.15	223.529
864.44	216.667
864.74	416.667
865.03	345.455
865.33	375.000
865.62	240.000
865.92	750.000
866.21	1125.000
866.51	680.000
866.80	272.222
867.10	800.000
867.39	2800.000
867.69	860.000
867.98	875.000
868.27	166.667
868.57	246.667
868.86	825.000
869.16	157.143
869.45	4000.000
869.75	-500.000
870.04	925.000
870.33	540.000
870.63	537.500
870.92	205.882
871.22	950.000
871.51	514.286
871.80	308.333
872.10	284.615
>>>>>End Processed Spectral Data<<<<<
