SpectraSuite Data File
++++++++++++++++++++++++++++++++++++
Date: Wed May 13 21:52:32 PDT 2015
User: schluterlab
Dark Spectrum Present: Yes
Reference Spectrum Present: Yes
Number of Sampled Component Spectra: 1
Spectrometers: USB2E3373
Integration Time (usec): 3000 (USB2E3373)
Spectra Averaged: 3 (USB2E3373)
Boxcar Smoothing: 0 (USB2E3373)
Correct for Electrical Dark: No (USB2E3373)
Strobe/Lamp Enabled: No (USB2E3373)
Correct for Detector Non-linearity: No (USB2E3373)
Correct for Stray Light: No (USB2E3373)
Number of Pixels in Processed Spectrum: 2048
>>>>>Begin Processed Spectral Data<<<<<
178.53	0.000
178.91	700.000
179.29	191.667
179.67	-650.000
180.04	-400.000
180.42	40.000
180.80	1600.000
181.18	333.333
181.56	-375.000
181.94	-125.000
182.31	-81.818
182.69	161.538
183.07	-360.000
183.45	383.333
183.83	177.778
184.20	157.143
184.58	-233.333
184.96	333.333
185.34	300.000
185.72	0.000
186.09	-700.000
186.47	-360.000
186.85	300.000
187.23	-350.000
187.61	350.000
187.98	1300.000
188.36	-12.500
188.74	0.000
189.12	0.000
189.49	0.000
189.87	150.000
190.25	440.000
190.63	1500.000
191.00	-300.000
191.38	220.000
191.76	500.000
192.14	216.667
192.51	10.526
192.89	366.667
193.27	250.000
193.65	-60.000
194.02	209.091
194.40	250.000
194.78	300.000
195.15	240.000
195.53	-320.000
195.91	-175.000
196.29	-133.333
196.66	0.000
197.04	550.000
197.42	-140.000
197.79	-40.000
198.17	-112.500
198.55	-566.667
198.92	375.000
199.30	-400.000
199.68	-110.000
200.05	50.000
200.43	200.000
200.81	-400.000
201.18	-360.000
201.56	-266.667
201.94	575.000
202.31	-17.391
202.69	-142.857
203.07	-500.000
203.44	-220.000
203.82	-400.000
204.19	-110.000
204.57	0.000
204.95	-200.000
205.32	0.000
205.70	-600.000
206.08	-275.000
206.45	-250.000
206.83	375.000
207.20	-266.667
207.58	-70.000
207.96	-1100.000
208.33	-242.857
208.71	-1600.000
209.08	287.500
209.46	375.000
209.84	0.000
210.21	120.000
210.59	1300.000
210.96	320.000
211.34	1400.000
211.71	-950.000
212.09	-183.333
212.46	-230.000
212.84	-100.000
213.22	-25.000
213.59	-1500.000
213.97	-800.000
214.34	-800.000
214.72	30.769
215.09	212.500
215.47	122.222
215.84	600.000
216.22	-150.000
216.59	-550.000
216.97	700.000
217.34	211.111
217.72	0.000
218.09	733.333
218.47	-1200.000
218.84	-257.143
219.22	-162.500
219.59	-466.667
219.97	-150.000
220.34	-62.500
220.72	-120.000
221.09	0.000
221.47	-266.667
221.84	-900.000
222.22	0.000
222.59	1200.000
222.97	-466.667
223.34	-116.667
223.72	-800.000
224.09	-600.000
224.46	-18.182
224.84	-87.500
225.21	-171.429
225.59	-325.000
225.96	-50.000
226.34	-40.000
226.71	-142.857
227.08	650.000
227.46	-75.000
227.83	-900.000
228.21	-68.750
228.58	-25.000
228.95	-52.941
229.33	-18.750
229.70	-37.500
230.08	30.769
230.45	-187.500
230.82	-91.667
231.20	314.286
231.57	-200.000
231.95	1500.000
232.32	-41.667
232.69	-29.412
233.07	-1600.000
233.44	-30.435
233.81	-700.000
234.19	29.167
234.56	-73.333
234.93	-66.667
235.31	-21.053
235.68	30.769
236.05	-30.769
236.43	-50.000
236.80	-6.061
237.17	-100.000
237.55	-23.529
237.92	-6.897
238.29	11.111
238.67	16.667
239.04	-3.226
239.41	25.532
239.79	46.809
240.16	30.233
240.53	37.500
240.91	37.500
241.28	51.786
241.65	40.323
242.02	40.789
242.40	52.174
242.77	42.029
243.14	37.179
243.51	46.809
243.89	43.269
244.26	55.660
244.63	42.308
245.00	47.917
245.38	44.538
245.75	50.820
246.12	45.865
246.49	40.650
246.87	39.496
247.24	55.405
247.61	50.993
247.98	43.590
248.36	52.663
248.73	43.258
249.10	45.455
249.47	55.376
249.84	51.053
250.22	48.756
250.59	45.327
250.96	50.909
251.33	44.019
251.70	54.393
252.08	55.649
252.45	52.263
252.82	51.331
253.19	51.362
253.56	52.518
253.94	54.093
254.31	51.408
254.68	54.027
255.05	47.525
255.42	50.000
255.79	52.761
256.16	54.574
256.54	51.746
256.91	49.684
257.28	49.686
257.65	50.318
258.02	48.680
258.39	55.263
258.76	52.035
259.14	56.250
259.51	47.472
259.88	54.201
260.25	53.611
260.62	54.213
260.99	51.724
261.36	51.554
261.73	52.346
262.10	54.198
262.47	48.889
262.85	51.990
263.22	54.615
263.59	54.286
263.96	48.905
264.33	53.846
264.70	51.860
265.07	50.463
265.44	55.632
265.81	53.089
266.18	54.214
266.55	51.528
266.92	53.390
267.29	52.058
267.66	52.866
268.03	53.909
268.40	50.636
268.77	52.686
269.14	53.265
269.51	52.156
269.88	49.898
270.25	54.025
270.62	50.205
270.99	54.724
271.36	53.968
271.73	53.012
272.10	52.762
272.47	52.207
272.84	54.134
273.21	49.706
273.58	51.639
273.95	49.623
274.32	53.172
274.69	51.548
275.06	52.650
275.43	50.282
275.80	50.000
276.17	54.880
276.54	49.556
276.91	48.432
277.28	50.000
277.65	50.000
278.02	52.321
278.39	50.622
278.76	50.167
279.13	50.772
279.50	50.172
279.87	50.543
280.23	50.991
280.60	50.519
280.97	50.000
281.34	49.842
281.71	48.780
282.08	50.940
282.45	50.656
282.82	50.639
283.19	50.152
283.56	48.906
283.92	51.682
284.29	48.674
284.66	49.588
285.03	47.720
285.40	45.317
285.77	49.249
286.14	49.240
286.51	49.775
286.87	49.077
287.24	47.935
287.61	50.452
287.98	47.353
288.35	48.286
288.72	48.350
289.08	45.442
289.45	47.724
289.82	47.352
290.19	46.704
290.56	43.466
290.93	43.923
291.29	46.375
291.66	43.579
292.03	44.959
292.40	44.145
292.77	43.373
293.13	43.654
293.50	43.660
293.87	42.933
294.24	42.460
294.60	43.303
294.97	43.783
295.34	41.821
295.71	40.867
296.08	42.801
296.44	40.944
296.81	41.657
297.18	41.000
297.55	38.797
297.91	41.242
298.28	41.768
298.65	41.379
299.02	41.270
299.38	40.736
299.75	40.144
300.12	39.535
300.48	40.468
300.85	39.723
301.22	39.837
301.59	39.671
301.95	39.837
302.32	40.373
302.69	38.757
303.05	39.646
303.42	41.364
303.79	41.325
304.15	40.854
304.52	41.398
304.89	39.535
305.25	37.431
305.62	39.696
305.99	41.023
306.35	41.484
306.72	40.387
307.09	41.293
307.45	39.723
307.82	39.368
308.19	40.543
308.55	39.406
308.92	41.945
309.29	39.439
309.65	40.260
310.02	40.060
310.38	43.089
310.75	41.026
311.12	42.566
311.48	42.235
311.85	42.028
312.22	43.037
312.58	43.188
312.95	42.289
313.31	42.241
313.68	43.225
314.05	45.085
314.41	45.437
314.78	45.446
315.14	45.463
315.51	45.576
315.87	45.042
316.24	44.169
316.61	48.128
316.97	46.759
317.34	46.257
317.70	48.707
318.07	46.761
318.43	48.329
318.80	47.469
319.16	49.072
319.53	50.000
319.89	49.684
320.26	50.739
320.62	50.973
320.99	53.295
321.35	51.450
321.72	53.898
322.08	51.845
322.45	53.839
322.81	53.974
323.18	52.147
323.54	54.874
323.91	56.820
324.27	57.516
324.64	57.491
325.00	58.005
325.37	59.727
325.73	57.997
326.10	59.714
326.46	59.615
326.83	58.981
327.19	60.569
327.56	61.805
327.92	61.625
328.29	61.686
328.65	65.469
329.01	63.237
329.38	63.913
329.74	62.575
330.11	64.653
330.47	61.111
330.84	64.621
331.20	62.767
331.56	64.764
331.93	64.169
332.29	64.639
332.66	63.220
333.02	64.205
333.38	65.526
333.75	62.201
334.11	65.625
334.48	64.778
334.84	63.693
335.20	64.237
335.57	63.969
335.93	62.887
336.29	64.799
336.66	63.846
337.02	65.391
337.38	64.230
337.75	65.891
338.11	62.767
338.47	62.414
338.84	63.144
339.20	64.903
339.56	65.017
339.93	64.736
340.29	64.731
340.65	64.328
341.02	63.478
341.38	64.105
341.74	62.605
342.11	63.006
342.47	63.598
342.83	62.663
343.20	67.005
343.56	65.086
343.92	62.063
344.28	64.367
344.65	64.163
345.01	64.407
345.37	65.378
345.73	65.768
346.10	64.526
346.46	65.122
346.82	63.965
347.19	65.269
347.55	65.751
347.91	63.835
348.27	64.117
348.63	65.144
349.00	65.409
349.36	66.876
349.72	65.352
350.08	65.523
350.45	66.406
350.81	64.319
351.17	63.202
351.53	66.064
351.89	64.178
352.26	64.015
352.62	65.969
352.98	66.134
353.34	66.023
353.70	65.187
354.07	64.784
354.43	65.008
354.79	66.987
355.15	64.363
355.51	65.148
355.87	66.536
356.24	66.774
356.60	65.442
356.96	67.613
357.32	66.563
357.68	65.928
358.04	66.408
358.40	67.287
358.77	65.443
359.13	67.782
359.49	65.254
359.85	65.807
360.21	67.695
360.57	66.388
360.93	65.478
361.29	65.729
361.66	67.578
362.02	67.902
362.38	67.504
362.74	67.150
363.10	69.487
363.46	66.643
363.82	66.962
364.18	66.280
364.54	68.198
364.90	67.666
365.26	67.304
365.62	65.838
365.98	68.114
366.35	66.879
366.71	68.474
367.07	68.533
367.43	68.153
367.79	68.381
368.15	69.058
368.51	67.932
368.87	69.784
369.23	67.402
369.59	67.653
369.95	68.433
370.31	67.643
370.67	68.646
371.03	69.414
371.39	67.637
371.75	69.143
372.11	67.735
372.47	69.214
372.83	69.001
373.19	69.137
373.55	70.376
373.91	69.024
374.27	67.981
374.63	69.275
374.99	69.499
375.35	70.137
375.71	70.720
376.07	70.802
376.42	68.516
376.78	70.542
377.14	70.915
377.50	70.535
377.86	71.182
378.22	69.975
378.58	69.798
378.94	70.375
379.30	71.768
379.66	70.345
380.02	71.752
380.38	71.084
380.74	71.189
381.09	71.472
381.45	70.496
381.81	71.719
382.17	71.708
382.53	71.077
382.89	71.472
383.25	71.049
383.61	71.186
383.97	71.438
384.32	71.834
384.68	71.993
385.04	71.900
385.40	71.606
385.76	70.195
386.12	71.078
386.48	71.599
386.83	71.965
387.19	72.980
387.55	71.367
387.91	73.370
388.27	70.900
388.62	71.973
388.98	73.091
389.34	70.489
389.70	71.062
390.06	71.750
390.42	72.552
390.77	72.005
391.13	73.232
391.49	71.157
391.85	72.268
392.20	71.303
392.56	71.492
392.92	72.967
393.28	71.354
393.64	72.905
393.99	70.747
394.35	73.333
394.71	72.628
395.07	72.704
395.42	70.445
395.78	71.429
396.14	73.304
396.50	71.084
396.85	73.359
397.21	71.223
397.57	70.994
397.92	71.078
398.28	70.728
398.64	70.856
399.00	71.373
399.35	71.623
399.71	70.938
400.07	72.108
400.42	72.414
400.78	70.151
401.14	70.693
401.49	70.761
401.85	72.113
402.21	71.703
402.57	70.325
402.92	70.526
403.28	70.732
403.63	71.358
403.99	71.529
404.35	72.444
404.70	70.634
405.06	71.051
405.42	71.357
405.77	71.198
406.13	69.486
406.49	70.282
406.84	71.245
407.20	69.745
407.55	70.260
407.91	68.630
408.27	68.185
408.62	70.902
408.98	69.790
409.34	69.926
409.69	71.345
410.05	69.900
410.40	69.568
410.76	70.698
411.11	69.154
411.47	70.405
411.83	69.370
412.18	69.521
412.54	69.987
412.89	69.969
413.25	67.552
413.60	69.969
413.96	68.602
414.31	69.729
414.67	68.063
415.03	69.350
415.38	70.079
415.74	68.811
416.09	69.200
416.45	70.813
416.80	69.128
417.16	69.771
417.51	69.792
417.87	70.040
418.22	69.101
418.58	67.674
418.93	69.115
419.29	70.495
419.64	69.338
420.00	70.032
420.35	68.022
420.71	69.531
421.06	69.803
421.42	70.134
421.77	70.694
422.12	70.544
422.48	69.956
422.83	70.348
423.19	71.075
423.54	70.377
423.90	69.477
424.25	70.942
424.61	70.055
424.96	70.018
425.31	68.144
425.67	70.782
426.02	69.022
426.38	70.211
426.73	69.884
427.09	69.794
427.44	71.227
427.79	70.368
428.15	70.153
428.50	71.843
428.85	69.742
429.21	69.105
429.56	70.935
429.92	70.120
430.27	71.370
430.62	70.042
430.98	70.069
431.33	70.553
431.68	71.140
432.04	71.493
432.39	69.630
432.74	69.283
433.10	70.831
433.45	70.592
433.80	69.885
434.16	69.470
434.51	71.250
434.86	71.731
435.22	70.515
435.57	69.963
435.92	71.653
436.28	70.931
436.63	70.785
436.98	72.679
437.34	70.757
437.69	70.366
438.04	68.930
438.39	71.918
438.75	70.203
439.10	71.371
439.45	70.339
439.81	71.182
440.16	70.319
440.51	70.630
440.86	70.480
441.22	71.027
441.57	71.150
441.92	72.006
442.27	71.483
442.63	71.798
442.98	71.354
443.33	71.445
443.68	69.900
444.03	70.939
444.39	71.591
444.74	72.722
445.09	71.586
445.44	72.056
445.79	72.225
446.15	72.657
446.50	71.916
446.85	73.223
447.20	72.556
447.55	71.349
447.91	71.742
448.26	71.584
448.61	71.577
448.96	71.469
449.31	71.902
449.66	72.412
450.02	72.200
450.37	72.562
450.72	71.010
451.07	72.539
451.42	69.432
451.77	72.368
452.12	70.707
452.47	71.530
452.83	71.344
453.18	72.247
453.53	71.753
453.88	71.446
454.23	71.014
454.58	69.853
454.93	70.750
455.28	71.869
455.63	71.429
455.98	71.029
456.34	70.629
456.69	70.927
457.04	71.084
457.39	71.618
457.74	71.215
458.09	71.623
458.44	72.209
458.79	69.797
459.14	70.449
459.49	71.890
459.84	71.195
460.19	70.228
460.54	69.708
460.89	69.876
461.24	68.927
461.59	71.256
461.94	70.354
462.29	71.385
462.64	70.317
462.99	69.752
463.34	70.166
463.69	70.425
464.04	69.508
464.39	69.921
464.74	71.130
465.09	70.490
465.44	69.416
465.79	72.800
466.14	71.209
466.49	71.320
466.84	69.635
467.19	69.873
467.54	70.382
467.89	70.019
468.24	69.760
468.59	70.108
468.94	70.370
469.29	69.399
469.64	69.317
469.99	70.069
470.34	68.240
470.68	68.773
471.03	67.913
471.38	67.246
471.73	68.244
472.08	69.485
472.43	69.591
472.78	68.154
473.13	66.953
473.48	67.515
473.83	67.922
474.17	69.271
474.52	69.256
474.87	68.034
475.22	69.143
475.57	68.098
475.92	68.484
476.27	68.939
476.61	67.950
476.96	68.075
477.31	68.015
477.66	68.305
478.01	67.198
478.36	67.248
478.70	68.314
479.05	68.479
479.40	67.343
479.75	69.022
480.10	68.180
480.45	68.171
480.79	69.039
481.14	68.338
481.49	68.229
481.84	68.049
482.19	67.717
482.53	67.905
482.88	66.683
483.23	66.121
483.58	67.344
483.92	67.267
484.27	67.200
484.62	65.601
484.97	67.939
485.31	67.214
485.66	67.504
486.01	70.508
486.36	70.566
486.70	70.116
487.05	69.132
487.40	67.683
487.75	66.896
488.09	65.092
488.44	63.933
488.79	63.815
489.13	64.573
489.48	64.386
489.83	65.386
490.17	66.001
490.52	66.339
490.87	64.395
491.22	65.285
491.56	65.357
491.91	64.186
492.26	65.861
492.60	63.877
492.95	65.112
493.30	63.857
493.64	63.981
493.99	64.831
494.34	64.355
494.68	64.391
495.03	64.081
495.37	64.282
495.72	64.411
496.07	64.832
496.41	63.641
496.76	64.488
497.11	63.709
497.45	65.224
497.80	64.210
498.14	64.081
498.49	63.137
498.84	64.119
499.18	63.116
499.53	63.614
499.87	62.106
500.22	63.116
500.56	63.741
500.91	63.783
501.26	62.414
501.60	63.186
501.95	63.105
502.29	63.544
502.64	64.368
502.98	62.765
503.33	64.428
503.67	64.070
504.02	64.118
504.36	62.605
504.71	61.992
505.06	62.048
505.40	63.505
505.75	62.818
506.09	62.596
506.44	63.256
506.78	62.113
507.13	62.474
507.47	62.248
507.82	61.172
508.16	61.266
508.51	61.467
508.85	62.157
509.19	61.640
509.54	62.038
509.88	61.290
510.23	60.632
510.57	61.706
510.92	61.207
511.26	61.991
511.61	59.879
511.95	60.970
512.30	60.633
512.64	61.691
512.98	60.000
513.33	60.958
513.67	59.341
514.02	60.034
514.36	59.270
514.70	60.681
515.05	61.556
515.39	60.731
515.74	59.621
516.08	59.882
516.42	59.793
516.77	59.695
517.11	59.553
517.46	59.724
517.80	60.048
518.14	59.155
518.49	59.433
518.83	58.234
519.17	58.012
519.52	60.676
519.86	59.259
520.20	57.307
520.55	58.458
520.89	57.495
521.23	59.615
521.58	57.965
521.92	56.128
522.26	58.035
522.61	59.147
522.95	57.707
523.29	57.524
523.64	58.106
523.98	57.624
524.32	57.719
524.66	58.506
525.01	58.388
525.35	57.538
525.69	57.654
526.04	56.156
526.38	56.533
526.72	56.870
527.06	55.255
527.41	56.386
527.75	57.744
528.09	59.428
528.43	58.684
528.78	56.008
529.12	57.762
529.46	57.070
529.80	57.087
530.15	55.792
530.49	57.412
530.83	56.060
531.17	57.671
531.51	55.496
531.86	56.640
532.20	56.926
532.54	56.483
532.88	56.705
533.22	55.960
533.57	55.166
533.91	57.548
534.25	58.008
534.59	57.722
534.93	55.676
535.27	56.433
535.62	57.632
535.96	55.823
536.30	55.319
536.64	55.776
536.98	55.081
537.32	55.018
537.66	55.078
538.01	54.577
538.35	54.420
538.69	55.452
539.03	53.490
539.37	54.125
539.71	54.366
540.05	55.128
540.39	54.508
540.73	54.888
541.07	53.673
541.42	55.421
541.76	54.736
542.10	54.028
542.44	53.015
542.78	53.782
543.12	55.323
543.46	54.457
543.80	52.953
544.14	55.403
544.48	53.948
544.82	54.069
545.16	53.144
545.50	54.355
545.84	54.488
546.18	52.735
546.52	52.788
546.86	52.014
547.20	53.610
547.54	54.325
547.88	54.723
548.22	53.094
548.56	52.702
548.90	53.451
549.24	53.056
549.58	53.167
549.92	53.925
550.26	52.620
550.60	53.378
550.94	51.194
551.28	51.173
551.62	50.902
551.96	52.782
552.30	52.547
552.64	51.907
552.98	52.770
553.32	52.776
553.66	52.605
554.00	53.420
554.34	51.429
554.68	50.634
555.02	51.647
555.36	52.496
555.69	52.804
556.03	51.823
556.37	51.422
556.71	51.016
557.05	50.480
557.39	50.942
557.73	52.269
558.07	50.565
558.41	50.265
558.75	50.269
559.08	50.281
559.42	50.905
559.76	49.924
560.10	51.115
560.44	53.206
560.78	51.727
561.12	52.698
561.45	51.224
561.79	52.270
562.13	51.125
562.47	51.357
562.81	50.649
563.15	49.929
563.48	50.929
563.82	51.026
564.16	51.930
564.50	50.136
564.84	52.297
565.17	49.868
565.51	50.134
565.85	49.967
566.19	51.722
566.52	50.000
566.86	49.937
567.20	50.947
567.54	50.835
567.88	50.336
568.21	50.788
568.55	51.278
568.89	50.249
569.23	51.054
569.56	51.982
569.90	51.956
570.24	51.444
570.57	51.928
570.91	51.531
571.25	51.115
571.59	51.112
571.92	50.572
572.26	51.173
572.60	51.063
572.93	50.422
573.27	50.744
573.61	51.540
573.95	52.221
574.28	52.127
574.62	50.753
574.96	51.329
575.29	51.530
575.63	50.896
575.97	50.734
576.30	50.441
576.64	51.375
576.98	50.984
577.31	50.413
577.65	50.696
577.98	51.604
578.32	51.226
578.66	51.239
578.99	50.399
579.33	49.675
579.67	50.305
580.00	49.689
580.34	50.630
580.67	50.196
581.01	50.257
581.35	50.365
581.68	51.316
582.02	51.676
582.35	52.040
582.69	51.053
583.02	49.610
583.36	49.352
583.70	48.730
584.03	48.450
584.37	48.443
584.70	48.815
585.04	50.193
585.37	49.648
585.71	49.855
586.04	49.825
586.38	49.171
586.72	48.412
587.05	49.718
587.39	50.068
587.72	49.415
588.06	49.384
588.39	48.335
588.73	47.954
589.06	48.173
589.40	48.194
589.73	47.000
590.07	47.357
590.40	46.763
590.73	48.096
591.07	47.514
591.40	46.826
591.74	47.043
592.07	47.832
592.41	47.834
592.74	49.035
593.08	48.650
593.41	49.679
593.75	48.934
594.08	49.188
594.41	48.190
594.75	47.376
595.08	48.581
595.42	46.958
595.75	47.144
596.09	47.306
596.42	46.691
596.75	45.941
597.09	47.816
597.42	48.093
597.75	47.333
598.09	47.222
598.42	47.204
598.76	46.977
599.09	48.299
599.42	48.263
599.76	47.240
600.09	47.063
600.42	48.814
600.76	46.896
601.09	47.834
601.42	47.707
601.76	46.100
602.09	46.777
602.42	46.884
602.76	46.309
603.09	47.762
603.42	46.781
603.76	45.752
604.09	45.850
604.42	45.626
604.76	45.570
605.09	46.171
605.42	46.604
605.75	45.739
606.09	45.157
606.42	46.800
606.75	46.277
607.09	44.504
607.42	46.366
607.75	44.639
608.08	44.950
608.42	44.799
608.75	45.055
609.08	45.076
609.41	44.213
609.75	45.134
610.08	46.105
610.41	46.016
610.74	45.476
611.07	44.238
611.41	45.087
611.74	44.617
612.07	44.450
612.40	44.649
612.73	44.512
613.07	44.180
613.40	43.667
613.73	44.312
614.06	44.776
614.39	44.024
614.72	44.919
615.06	44.389
615.39	44.978
615.72	45.194
616.05	44.707
616.38	44.444
616.71	42.292
617.05	43.857
617.38	44.116
617.71	43.689
618.04	43.388
618.37	44.101
618.70	43.402
619.03	43.162
619.36	42.278
619.69	43.056
620.03	43.039
620.36	43.702
620.69	41.827
621.02	40.769
621.35	42.191
621.68	41.565
622.01	43.123
622.34	42.189
622.67	41.895
623.00	42.249
623.33	42.857
623.66	42.156
623.99	42.986
624.32	41.966
624.65	42.656
624.99	41.440
625.32	42.868
625.65	41.628
625.98	41.153
626.31	41.388
626.64	41.015
626.97	41.263
627.30	40.719
627.63	40.657
627.96	39.134
628.29	40.558
628.62	40.619
628.95	40.681
629.28	40.887
629.61	40.766
629.94	39.168
630.26	39.901
630.59	40.360
630.92	36.747
631.25	39.547
631.58	41.435
631.91	39.767
632.24	39.297
632.57	37.667
632.90	39.790
633.23	38.729
633.56	40.408
633.89	37.321
634.22	40.165
634.55	37.759
634.88	37.990
635.20	39.000
635.53	37.209
635.86	37.692
636.19	38.834
636.52	39.024
636.85	38.480
637.18	37.637
637.51	38.077
637.83	38.773
638.16	37.600
638.49	36.182
638.82	36.993
639.15	39.096
639.48	36.230
639.81	39.028
640.13	37.746
640.46	38.559
640.79	36.691
641.12	37.130
641.45	36.390
641.77	35.935
642.10	36.460
642.43	37.736
642.76	36.120
643.09	34.824
643.41	35.885
643.74	34.733
644.07	35.113
644.40	36.816
644.73	36.780
645.05	38.045
645.38	35.382
645.71	34.014
646.04	34.512
646.36	36.458
646.69	34.091
647.02	36.066
647.35	36.197
647.67	36.784
648.00	34.058
648.33	38.136
648.66	37.229
648.98	36.180
649.31	35.736
649.64	34.429
649.96	37.283
650.29	35.458
650.62	36.409
650.94	33.966
651.27	35.336
651.60	36.014
651.92	35.305
652.25	36.683
652.58	34.818
652.90	36.195
653.23	33.277
653.56	33.884
653.88	33.788
654.21	35.495
654.54	34.053
654.86	35.772
655.19	36.695
655.52	45.068
655.84	48.224
656.17	57.195
656.49	73.232
656.82	68.800
657.15	49.417
657.47	35.410
657.80	25.740
658.13	26.102
658.45	36.594
658.78	35.098
659.10	33.154
659.43	32.804
659.75	31.198
660.08	30.966
660.41	30.527
660.73	30.854
661.06	30.442
661.38	31.783
661.71	32.582
662.03	32.770
662.36	34.071
662.68	31.828
663.01	32.415
663.33	34.125
663.66	29.712
663.98	33.258
664.31	31.429
664.63	30.180
664.96	35.230
665.28	34.764
665.61	34.989
665.93	35.974
666.26	35.232
666.58	31.263
666.91	34.305
667.23	31.336
667.56	32.644
667.88	33.879
668.21	32.366
668.53	33.103
668.86	33.333
669.18	33.570
669.50	30.876
669.83	32.697
670.15	30.000
670.48	30.575
670.80	35.230
671.13	32.494
671.45	32.192
671.77	33.836
672.10	32.164
672.42	34.924
672.75	34.107
673.07	34.000
673.39	32.649
673.72	32.934
674.04	32.377
674.37	30.691
674.69	29.630
675.01	30.342
675.34	35.449
675.66	31.373
675.98	31.858
676.31	29.638
676.63	33.333
676.95	30.588
677.28	30.963
677.60	34.069
677.92	31.486
678.25	32.755
678.57	34.420
678.89	35.394
679.22	33.540
679.54	33.469
679.86	33.789
680.18	34.423
680.51	32.115
680.83	33.528
681.15	32.613
681.48	32.665
681.80	31.288
682.12	32.708
682.44	29.376
682.77	29.053
683.09	30.580
683.41	31.860
683.73	28.348
684.06	33.186
684.38	31.410
684.70	32.383
685.02	34.091
685.34	33.464
685.67	32.083
685.99	34.875
686.31	34.138
686.63	32.904
686.96	34.323
687.28	34.531
687.60	34.405
687.92	33.852
688.24	31.800
688.56	32.895
688.89	30.290
689.21	29.596
689.53	31.081
689.85	33.933
690.17	32.308
690.49	31.159
690.82	31.742
691.14	33.333
691.46	33.411
691.78	34.725
692.10	34.607
692.42	31.648
692.74	32.174
693.06	31.011
693.39	32.084
693.71	31.556
694.03	35.000
694.35	31.757
694.67	32.000
694.99	32.990
695.31	28.682
695.63	31.707
695.95	32.570
696.27	29.315
696.59	28.495
696.91	29.050
697.23	28.426
697.56	35.252
697.88	34.511
698.20	31.317
698.52	32.944
698.84	32.057
699.16	30.260
699.48	33.086
699.80	32.558
700.12	31.099
700.44	26.761
700.76	30.899
701.08	32.326
701.40	28.443
701.72	29.538
702.04	28.302
702.36	29.268
702.68	28.659
703.00	31.579
703.32	29.526
703.64	31.627
703.96	33.138
704.28	30.723
704.60	28.659
704.91	27.273
705.23	29.747
705.55	29.655
705.87	27.817
706.19	19.780
706.51	27.465
706.83	30.573
707.15	31.402
707.47	33.058
707.79	32.741
708.11	26.478
708.43	31.472
708.74	27.128
709.06	30.481
709.38	29.395
709.70	31.231
710.02	29.907
710.34	27.000
710.66	29.967
710.98	26.316
711.29	33.766
711.61	32.258
711.93	29.032
712.25	26.923
712.57	28.421
712.89	29.670
713.20	31.560
713.52	27.372
713.84	26.129
714.16	29.450
714.48	29.430
714.80	25.240
715.11	31.686
715.43	31.056
715.75	30.124
716.07	34.036
716.39	28.283
716.70	29.496
717.02	25.098
717.34	29.545
717.66	25.431
717.97	21.429
718.29	25.197
718.61	29.614
718.93	30.233
719.24	24.354
719.56	29.213
719.88	28.731
720.20	30.830
720.51	28.906
720.83	28.794
721.15	22.358
721.46	27.099
721.78	29.880
722.10	27.490
722.42	31.048
722.73	26.255
723.05	32.245
723.37	28.151
723.68	22.800
724.00	25.957
724.32	25.941
724.63	31.276
724.95	25.641
725.27	32.068
725.58	29.630
725.90	32.636
726.22	30.797
726.53	27.059
726.85	33.577
727.16	23.333
727.48	30.651
727.80	26.953
728.11	30.738
728.43	29.297
728.74	29.365
729.06	27.600
729.38	30.040
729.69	29.181
730.01	28.253
730.32	29.151
730.64	25.758
730.96	32.168
731.27	30.100
731.59	31.746
731.90	33.981
732.22	25.000
732.53	29.730
732.85	25.168
733.16	31.683
733.48	27.703
733.80	29.054
734.11	25.676
734.43	34.056
734.74	33.634
735.06	32.853
735.37	34.650
735.69	32.686
736.00	27.723
736.32	32.624
736.63	29.310
736.95	30.822
737.26	32.069
737.58	31.597
737.89	27.148
738.21	25.267
738.52	27.757
738.83	28.980
739.15	30.380
739.46	29.961
739.78	27.113
740.09	29.452
740.41	26.786
740.72	28.369
741.04	27.600
741.35	20.614
741.66	28.000
741.98	25.962
742.29	27.723
742.61	26.829
742.92	32.895
743.23	25.472
743.55	27.477
743.86	26.009
744.18	25.980
744.49	24.873
744.80	29.592
745.12	23.832
745.43	27.488
745.74	25.676
746.06	26.168
746.37	23.394
746.68	29.327
747.00	30.144
747.31	31.731
747.62	31.651
747.94	29.258
748.25	32.569
748.56	28.000
748.88	30.516
749.19	26.667
749.50	24.757
749.82	28.638
750.13	23.750
750.44	29.231
750.75	30.996
751.07	31.317
751.38	29.787
751.69	29.730
752.01	30.078
752.32	29.231
752.63	30.597
752.94	32.400
753.26	23.849
753.57	25.833
753.88	26.721
754.19	27.092
754.51	27.444
754.82	23.077
755.13	25.652
755.44	29.675
755.75	27.600
756.07	28.413
756.38	30.576
756.69	27.304
757.00	29.907
757.31	28.155
757.63	33.025
757.94	32.486
758.25	30.952
758.56	29.620
758.87	32.143
759.18	28.707
759.50	27.273
759.81	29.766
760.12	33.538
760.43	28.274
760.74	26.554
761.05	29.834
761.36	30.372
761.67	28.097
761.99	29.210
762.30	25.912
762.61	25.926
762.92	28.205
763.23	30.328
763.54	28.139
763.85	27.347
764.16	27.236
764.47	28.000
764.78	27.857
765.10	32.787
765.41	32.523
765.72	26.398
766.03	30.363
766.34	31.538
766.65	28.870
766.96	29.108
767.27	27.723
767.58	24.719
767.89	27.778
768.20	24.309
768.51	29.146
768.82	25.962
769.13	29.646
769.44	29.289
769.75	23.504
770.06	31.390
770.37	25.980
770.68	31.553
770.99	25.243
771.30	30.252
771.61	28.163
771.92	30.705
772.23	21.622
772.54	28.177
772.85	18.605
773.16	25.926
773.47	23.077
773.78	27.586
774.09	22.500
774.39	26.708
774.70	25.850
775.01	24.138
775.32	22.857
775.63	25.564
775.94	14.286
776.25	22.400
776.56	16.529
776.87	34.921
777.18	18.919
777.48	20.721
777.79	14.961
778.10	13.761
778.41	20.175
778.72	19.328
779.03	12.676
779.34	30.405
779.65	36.620
779.95	21.854
780.26	23.022
780.57	20.863
780.88	21.127
781.19	9.244
781.50	28.859
781.80	29.240
782.11	15.698
782.42	26.415
782.73	24.837
783.04	20.690
783.34	18.321
783.65	26.846
783.96	25.385
784.27	27.857
784.57	25.532
784.88	12.500
785.19	30.909
785.50	18.182
785.81	18.095
786.11	15.126
786.42	19.469
786.73	30.189
787.04	16.514
787.34	13.861
787.65	26.667
787.96	22.314
788.26	22.464
788.57	16.667
788.88	19.512
789.19	18.400
789.49	18.321
789.80	24.242
790.11	17.925
790.41	28.713
790.72	21.277
791.03	7.609
791.33	11.765
791.64	19.753
791.95	18.478
792.25	32.955
792.56	29.487
792.87	16.667
793.17	-5.128
793.48	17.857
793.79	12.500
794.09	31.731
794.40	32.292
794.70	20.721
795.01	22.656
795.32	31.304
795.62	11.957
795.93	25.472
796.23	24.242
796.54	10.976
796.85	22.619
797.15	12.121
797.46	7.246
797.76	18.421
798.07	19.318
798.37	2.439
798.68	8.065
798.99	2.703
799.29	14.458
799.60	12.821
799.90	18.462
800.21	28.788
800.51	28.000
800.82	21.333
801.12	2.083
801.43	-13.333
801.73	12.162
802.04	18.571
802.34	8.197
802.65	10.448
802.95	7.273
803.26	1.724
803.56	16.923
803.87	18.868
804.17	-4.839
804.48	2.941
804.78	-12.195
805.09	13.043
805.39	2.941
805.70	-27.660
806.00	1.754
806.30	19.231
806.61	11.842
806.91	18.919
807.22	23.684
807.52	22.727
807.83	-18.644
808.13	-10.606
808.43	8.333
808.74	-13.793
809.04	20.635
809.35	14.286
809.65	8.333
809.95	-24.490
810.26	9.859
810.56	-10.417
810.86	10.204
811.17	7.692
811.47	-14.894
811.77	-8.333
812.08	-11.321
812.38	-59.375
812.69	-1.818
812.99	4.878
813.29	-27.027
813.59	-18.919
813.90	-1.818
814.20	21.818
814.50	1.667
814.81	12.727
815.11	5.263
815.41	34.884
815.72	17.500
816.02	11.429
816.32	-2.703
816.62	-8.333
816.93	11.111
817.23	6.667
817.53	-47.222
817.84	-16.216
818.14	0.000
818.44	-8.000
818.74	-14.286
819.04	-19.512
819.35	0.000
819.65	-11.364
819.95	-44.444
820.25	3.030
820.56	-40.476
820.86	-30.556
821.16	-6.818
821.46	-15.217
821.76	-3.448
822.07	28.261
822.37	30.303
822.67	36.585
822.97	5.405
823.27	-34.286
823.57	-3.448
823.88	-14.706
824.18	13.889
824.48	8.571
824.78	-4.762
825.08	-14.286
825.38	-11.111
825.69	0.000
825.99	2.439
826.29	-3.704
826.59	15.625
826.89	-3.226
827.19	-13.043
827.49	-30.556
827.79	0.000
828.09	-19.355
828.39	8.333
828.70	-31.250
829.00	-34.483
829.30	2.703
829.60	-66.667
829.90	-7.407
830.20	6.250
830.50	-18.182
830.80	-100.000
831.10	-9.091
831.40	-35.294
831.70	11.538
832.00	6.061
832.30	-20.588
832.60	0.000
832.90	1600.000
833.20	-14.286
833.50	-55.000
833.80	-2.632
834.10	-70.833
834.40	-40.909
834.70	-100.000
835.00	20.000
835.30	-33.333
835.60	-52.381
835.90	-33.333
836.20	-20.000
836.50	-16.667
836.80	-68.421
837.10	8.108
837.40	-3.333
837.70	-78.261
838.00	-8.333
838.30	-26.316
838.60	-180.000
838.90	-140.000
839.19	-66.667
839.49	-100.000
839.79	-52.632
840.09	-466.667
840.39	-90.000
840.69	-54.545
840.99	-4.762
841.29	-37.500
841.59	-176.923
841.88	-126.667
842.18	-42.857
842.48	-20.000
842.78	-142.857
843.08	-100.000
843.38	-225.000
843.68	-50.000
843.97	14.286
844.27	-122.222
844.57	-81.818
844.87	-120.000
845.17	-40.909
845.47	633.333
845.76	-100.000
846.06	-66.667
846.36	-1350.000
846.66	-15.789
846.96	-18.182
847.25	-122.222
847.55	-111.111
847.85	-42.857
848.15	-115.385
848.44	-200.000
848.74	-75.000
849.04	-46.154
849.34	-275.000
849.63	-145.455
849.93	-128.571
850.23	40.000
850.53	-200.000
850.82	-50.000
851.12	-26.667
851.42	-100.000
851.71	-62.500
852.01	-17.647
852.31	-46.154
852.61	450.000
852.90	-35.294
853.20	-80.000
853.50	-81.250
853.79	-78.571
854.09	-400.000
854.39	-30.000
854.68	-2.500
854.98	-9.524
855.28	-52.000
855.57	-8.333
855.87	-41.667
856.17	-12.000
856.46	3.125
856.76	0.000
857.05	12.000
857.35	-108.333
857.65	-41.176
857.94	-150.000
858.24	-58.333
858.53	0.000
858.83	-245.455
859.13	-12.000
859.42	-57.143
859.72	-275.000
860.01	-33.333
860.31	-75.000
860.60	-50.000
860.90	-300.000
861.20	-166.667
861.49	-26.667
861.79	-62.500
862.08	575.000
862.38	-91.667
862.67	414.286
862.97	325.000
863.26	-136.364
863.56	18.182
863.85	10.526
864.15	-82.353
864.44	-360.000
864.74	-80.000
865.03	-177.778
865.33	-85.714
865.62	207.143
865.92	5.263
866.21	-66.667
866.51	-90.909
866.80	-177.778
867.10	-87.500
867.39	-25.000
867.69	-73.333
867.98	-210.000
868.27	-17.647
868.57	0.000
868.86	1100.000
869.16	-275.000
869.45	-271.429
869.75	250.000
870.04	-60.000
870.33	-2300.000
870.63	-52.632
870.92	-108.333
871.22	-500.000
871.51	-114.286
871.80	-133.333
872.10	-275.000
>>>>>End Processed Spectral Data<<<<<
