SpectraSuite Data File
++++++++++++++++++++++++++++++++++++
Date: Tue May 12 17:18:28 PDT 2015
User: schluterlab
Dark Spectrum Present: Yes
Reference Spectrum Present: Yes
Number of Sampled Component Spectra: 1
Spectrometers: USB2E3373
Integration Time (usec): 3000 (USB2E3373)
Spectra Averaged: 3 (USB2E3373)
Boxcar Smoothing: 0 (USB2E3373)
Correct for Electrical Dark: No (USB2E3373)
Strobe/Lamp Enabled: No (USB2E3373)
Correct for Detector Non-linearity: No (USB2E3373)
Correct for Stray Light: No (USB2E3373)
Number of Pixels in Processed Spectrum: 2048
>>>>>Begin Processed Spectral Data<<<<<
178.53	0.000
178.91	-283.333
179.29	-600.000
179.67	-2800.000
180.04	-100.000
180.42	575.000
180.80	1550.000
181.18	0.000
181.56	-312.500
181.94	0.000
182.31	933.333
182.69	-3000.000
183.07	500.000
183.45	-3900.000
183.83	-1250.000
184.20	360.000
184.58	528.571
184.96	-269.231
185.34	-225.000
185.72	1950.000
186.09	-675.000
186.47	-2900.000
186.85	800.000
187.23	500.000
187.61	1450.000
187.98	362.500
188.36	271.429
188.74	266.667
189.12	333.333
189.49	975.000
189.87	0.000
190.25	512.500
190.63	4200.000
191.00	-225.000
191.38	-2800.000
191.76	-675.000
192.14	525.000
192.51	-3800.000
192.89	1800.000
193.27	1233.333
193.65	-966.667
194.02	-720.000
194.40	542.857
194.78	-200.000
195.15	233.333
195.53	-3100.000
195.91	-500.000
196.29	3800.000
196.66	225.000
197.04	650.000
197.42	-1800.000
197.79	625.000
198.17	325.000
198.55	0.000
198.92	457.143
199.30	1133.333
199.68	2000.000
200.05	716.667
200.43	-600.000
200.81	188.889
201.18	3700.000
201.56	316.667
201.94	-800.000
202.31	-312.500
202.69	-520.000
203.07	3400.000
203.44	-433.333
203.82	358.333
204.19	720.000
204.57	-1250.000
204.95	-975.000
205.32	-660.000
205.70	583.333
206.08	675.000
206.45	-733.333
206.83	466.667
207.20	173.684
207.58	266.667
207.96	860.000
208.33	0.000
208.71	585.714
209.08	640.000
209.46	-2900.000
209.84	-675.000
210.21	960.000
210.59	-580.000
210.96	225.000
211.34	-725.000
211.71	390.909
212.09	775.000
212.46	1900.000
212.84	-466.667
213.22	422.222
213.59	-2800.000
213.97	420.000
214.34	700.000
214.72	1200.000
215.09	1300.000
215.47	-3200.000
215.84	-280.000
216.22	-412.500
216.59	0.000
216.97	0.000
217.34	1300.000
217.72	-1400.000
218.09	900.000
218.47	612.500
218.84	900.000
219.22	933.333
219.59	900.000
219.97	457.143
220.34	511.111
220.72	2000.000
221.09	3000.000
221.47	350.000
221.84	1333.333
222.22	250.000
222.59	233.333
222.97	214.286
223.34	225.000
223.72	-1600.000
224.09	1066.667
224.46	315.385
224.84	-950.000
225.21	388.889
225.59	246.667
225.96	1400.000
226.34	-640.000
226.71	-975.000
227.08	-540.000
227.46	0.000
227.83	-450.000
228.21	-1400.000
228.58	350.000
228.95	975.000
229.33	433.333
229.70	1000.000
230.08	376.923
230.45	3500.000
230.82	-900.000
231.20	-733.333
231.57	-966.667
231.95	600.000
232.32	258.333
232.69	583.333
233.07	233.333
233.44	-1600.000
233.81	246.667
234.19	129.630
234.56	162.500
234.93	182.353
235.31	205.000
235.68	281.250
236.05	146.429
236.43	137.037
236.80	178.571
237.17	141.379
237.55	115.625
237.92	117.500
238.29	133.333
238.67	131.250
239.04	104.878
239.41	95.833
239.79	105.000
240.16	87.500
240.53	75.410
240.91	73.913
241.28	84.746
241.65	75.758
242.02	59.155
242.40	57.143
242.77	51.648
243.14	58.228
243.51	64.646
243.89	51.402
244.26	51.402
244.63	49.505
245.00	41.284
245.38	45.763
245.75	49.242
246.12	45.926
246.49	39.007
246.87	38.525
247.24	41.333
247.61	37.500
247.98	40.136
248.36	35.758
248.73	38.265
249.10	29.762
249.47	37.000
249.84	37.313
250.22	34.595
250.59	35.500
250.96	35.021
251.33	31.163
251.70	33.036
252.08	31.513
252.45	27.092
252.82	29.658
253.19	27.273
253.56	30.385
253.94	31.159
254.31	25.969
254.68	29.268
255.05	34.138
255.42	31.387
255.79	30.619
256.16	31.186
256.54	34.091
256.91	30.392
257.28	30.435
257.65	25.078
258.02	30.973
258.39	31.232
258.76	28.116
259.14	28.571
259.51	30.612
259.88	28.875
260.25	24.451
260.62	27.123
260.99	25.620
261.36	25.905
261.73	25.798
262.10	27.749
262.47	26.000
262.85	25.867
263.22	28.021
263.59	29.412
263.96	28.321
264.33	23.210
264.70	28.993
265.07	29.512
265.44	27.294
265.81	28.538
266.18	27.918
266.55	25.532
266.92	24.161
267.29	27.193
267.66	25.561
268.03	25.561
268.40	24.101
268.77	28.414
269.14	23.210
269.51	26.503
269.88	25.918
270.25	22.894
270.62	22.532
270.99	24.544
271.36	27.236
271.73	24.319
272.10	23.030
272.47	22.222
272.84	21.357
273.21	23.347
273.58	26.518
273.95	25.257
274.32	23.735
274.69	25.984
275.06	24.408
275.43	22.222
275.80	22.453
276.17	25.551
276.54	25.234
276.91	25.373
277.28	22.810
277.65	22.509
278.02	24.081
278.39	25.180
278.76	23.276
279.13	24.377
279.50	25.273
279.87	23.277
280.23	23.204
280.60	23.358
280.97	24.310
281.34	23.267
281.71	23.130
282.08	21.368
282.45	20.946
282.82	22.910
283.19	25.755
283.56	21.157
283.92	23.290
284.29	20.799
284.66	21.345
285.03	21.725
285.40	21.983
285.77	20.679
286.14	23.994
286.51	22.699
286.87	19.304
287.24	19.369
287.61	21.277
287.98	20.000
288.35	20.148
288.72	21.700
289.08	20.120
289.45	19.665
289.82	20.781
290.19	18.741
290.56	20.961
290.93	19.281
291.29	18.923
291.66	20.056
292.03	21.178
292.40	20.325
292.77	18.663
293.13	18.973
293.50	19.028
293.87	18.564
294.24	19.860
294.60	17.900
294.97	20.420
295.34	17.131
295.71	18.265
296.08	19.333
296.44	18.933
296.81	17.246
297.18	16.350
297.55	18.473
297.91	16.872
298.28	17.029
298.65	16.687
299.02	16.767
299.38	18.345
299.75	16.341
300.12	16.743
300.48	16.979
300.85	15.733
301.22	16.860
301.59	15.802
301.95	17.736
302.32	16.414
302.69	16.968
303.05	16.049
303.42	15.247
303.79	16.251
304.15	15.512
304.52	15.116
304.89	16.098
305.25	15.573
305.62	15.245
305.99	14.565
306.35	14.211
306.72	16.233
307.09	15.839
307.45	14.889
307.82	15.226
308.19	15.258
308.55	14.000
308.92	15.407
309.29	15.089
309.65	15.064
310.02	16.126
310.38	16.152
310.75	14.851
311.12	13.314
311.48	17.278
311.85	15.649
312.22	14.804
312.58	14.869
312.95	14.466
313.31	15.824
313.68	14.353
314.05	14.835
314.41	15.363
314.78	14.110
315.14	15.355
315.51	15.516
315.87	13.686
316.24	15.966
316.61	15.488
316.97	13.394
317.34	16.083
317.70	15.364
318.07	16.014
318.43	15.554
318.80	16.287
319.16	13.724
319.53	16.460
319.89	14.695
320.26	16.201
320.62	15.476
320.99	15.634
321.35	15.121
321.72	16.414
322.08	15.697
322.45	14.714
322.81	15.279
323.18	14.476
323.54	16.638
323.91	16.047
324.27	16.092
324.64	14.446
325.00	15.431
325.37	16.105
325.73	15.683
326.10	16.404
326.46	16.433
326.83	14.400
327.19	16.386
327.56	15.096
327.92	15.738
328.29	17.840
328.65	16.182
329.01	15.056
329.38	15.482
329.74	16.225
330.11	16.942
330.47	16.795
330.84	14.927
331.20	15.313
331.56	16.580
331.93	16.339
332.29	14.456
332.66	16.582
333.02	16.151
333.38	15.707
333.75	15.930
334.11	16.191
334.48	15.043
334.84	15.878
335.20	16.082
335.57	16.037
335.93	14.971
336.29	14.925
336.66	16.467
337.02	15.056
337.38	15.563
337.75	16.723
338.11	16.118
338.47	16.850
338.84	15.411
339.20	14.199
339.56	15.139
339.93	15.134
340.29	14.874
340.65	14.753
341.02	16.090
341.38	15.107
341.74	14.950
342.11	13.940
342.47	14.602
342.83	15.258
343.20	14.956
343.56	14.138
343.92	14.368
344.28	15.072
344.65	15.974
345.01	14.444
345.37	14.103
345.73	15.317
346.10	14.741
346.46	15.311
346.82	13.580
347.19	15.456
347.55	14.364
347.91	13.671
348.27	15.027
348.63	15.744
349.00	14.166
349.36	14.241
349.72	14.679
350.08	14.907
350.45	14.395
350.81	14.755
351.17	13.790
351.53	14.781
351.89	14.996
352.26	14.361
352.62	14.706
352.98	14.110
353.34	15.254
353.70	12.615
354.07	15.077
354.43	14.055
354.79	14.199
355.15	15.237
355.51	13.671
355.87	14.157
356.24	14.704
356.60	13.242
356.96	14.177
357.32	14.544
357.68	13.142
358.04	12.842
358.40	14.318
358.77	15.402
359.13	14.039
359.49	14.085
359.85	14.147
360.21	13.299
360.57	13.796
360.93	14.069
361.29	14.214
361.66	14.541
362.02	13.281
362.38	14.069
362.74	13.305
363.10	15.007
363.46	14.157
363.82	14.656
364.18	14.011
364.54	13.448
364.90	14.726
365.26	14.781
365.62	14.157
365.98	13.833
366.35	13.448
366.71	14.712
367.07	13.379
367.43	14.506
367.79	13.630
368.15	13.094
368.51	14.128
368.87	13.043
369.23	13.999
369.59	13.756
369.95	14.056
370.31	12.868
370.67	13.532
371.03	13.796
371.39	13.989
371.75	12.840
372.11	14.684
372.47	13.836
372.83	13.256
373.19	14.325
373.55	13.677
373.91	13.052
374.27	13.492
374.63	13.017
374.99	13.679
375.35	13.306
375.71	13.391
376.07	12.997
376.42	12.020
376.78	13.937
377.14	13.303
377.50	13.858
377.86	13.069
378.22	12.675
378.58	13.923
378.94	12.915
379.30	12.735
379.66	12.703
380.02	13.842
380.38	12.705
380.74	13.725
381.09	13.727
381.45	12.601
381.81	12.648
382.17	12.821
382.53	12.657
382.89	12.951
383.25	12.611
383.61	12.911
383.97	13.317
384.32	13.020
384.68	14.082
385.04	13.365
385.40	12.811
385.76	12.873
386.12	12.430
386.48	13.435
386.83	13.570
387.19	13.015
387.55	13.428
387.91	13.222
388.27	12.731
388.62	13.322
388.98	13.294
389.34	12.909
389.70	12.441
390.06	12.866
390.42	12.091
390.77	13.636
391.13	13.458
391.49	12.341
391.85	13.600
392.20	12.932
392.56	13.919
392.92	12.690
393.28	12.668
393.64	12.557
393.99	12.745
394.35	12.537
394.71	12.063
395.07	12.591
395.42	12.763
395.78	13.510
396.14	13.855
396.50	12.214
396.85	12.622
397.21	12.696
397.57	13.389
397.92	12.652
398.28	12.466
398.64	12.973
399.00	12.614
399.35	12.131
399.71	13.135
400.07	12.785
400.42	12.657
400.78	12.493
401.14	12.625
401.49	12.212
401.85	13.094
402.21	12.947
402.57	12.089
402.92	12.788
403.28	12.470
403.63	12.242
403.99	12.847
404.35	13.130
404.70	12.522
405.06	12.016
405.42	12.867
405.77	12.569
406.13	12.039
406.49	12.621
406.84	11.901
407.20	13.642
407.55	12.308
407.91	13.465
408.27	13.220
408.62	12.478
408.98	12.655
409.34	12.332
409.69	12.321
410.05	11.688
410.40	12.309
410.76	12.364
411.11	12.322
411.47	12.840
411.83	12.185
412.18	12.681
412.54	12.673
412.89	11.681
413.25	13.227
413.60	12.675
413.96	13.226
414.31	12.515
414.67	13.222
415.03	12.133
415.38	13.438
415.74	12.066
416.09	12.804
416.45	13.058
416.80	13.278
417.16	13.686
417.51	13.312
417.87	13.329
418.22	12.880
418.58	12.675
418.93	12.195
419.29	11.645
419.64	12.720
420.00	13.126
420.35	11.731
420.71	12.485
421.06	12.007
421.42	12.608
421.77	12.882
422.12	12.845
422.48	12.224
422.83	12.835
423.19	12.959
423.54	13.165
423.90	12.911
424.25	12.218
424.61	12.768
424.96	13.100
425.31	12.151
425.67	12.570
426.02	12.619
426.38	12.427
426.73	13.013
427.09	13.286
427.44	12.493
427.79	12.693
428.15	12.610
428.50	12.800
428.85	13.228
429.21	12.588
429.56	12.463
429.92	13.078
430.27	11.659
430.62	12.237
430.98	12.525
431.33	11.946
431.68	11.704
432.04	12.726
432.39	12.898
432.74	12.705
433.10	12.292
433.45	12.292
433.80	13.293
434.16	12.401
434.51	12.126
434.86	12.629
435.22	11.939
435.57	12.685
435.92	12.749
436.28	12.846
436.63	12.642
436.98	13.345
437.34	13.356
437.69	11.982
438.04	12.849
438.39	13.368
438.75	12.806
439.10	12.304
439.45	13.058
439.81	13.245
440.16	13.264
440.51	12.894
440.86	12.593
441.22	12.608
441.57	12.808
441.92	12.290
442.27	12.268
442.63	12.195
442.98	12.769
443.33	12.908
443.68	13.179
444.03	13.195
444.39	12.712
444.74	12.267
445.09	11.743
445.44	12.380
445.79	12.232
446.15	11.947
446.50	11.973
446.85	12.849
447.20	12.139
447.55	12.507
447.91	13.053
448.26	13.152
448.61	12.769
448.96	13.181
449.31	12.926
449.66	13.234
450.02	12.426
450.37	13.159
450.72	13.829
451.07	13.380
451.42	13.219
451.77	13.173
452.12	13.443
452.47	13.305
452.83	13.239
453.18	14.174
453.53	14.032
453.88	13.257
454.23	12.958
454.58	13.112
454.93	13.550
455.28	12.729
455.63	12.411
455.98	12.803
456.34	13.799
456.69	12.683
457.04	13.246
457.39	13.029
457.74	13.570
458.09	12.577
458.44	13.363
458.79	13.103
459.14	12.275
459.49	13.533
459.84	12.826
460.19	13.164
460.54	13.219
460.89	13.326
461.24	12.600
461.59	14.059
461.94	13.593
462.29	13.043
462.64	14.008
462.99	14.267
463.34	13.415
463.69	14.277
464.04	13.011
464.39	12.822
464.74	12.837
465.09	13.813
465.44	12.949
465.79	13.337
466.14	12.772
466.49	12.697
466.84	13.712
467.19	13.884
467.54	13.213
467.89	13.204
468.24	13.086
468.59	13.036
468.94	13.829
469.29	14.294
469.64	13.826
469.99	13.946
470.34	13.156
470.68	14.207
471.03	13.742
471.38	13.841
471.73	13.847
472.08	14.155
472.43	14.277
472.78	14.405
473.13	12.954
473.48	13.631
473.83	14.016
474.17	13.799
474.52	13.981
474.87	13.474
475.22	14.449
475.57	13.012
475.92	13.183
476.27	13.384
476.61	12.976
476.96	13.584
477.31	13.676
477.66	14.600
478.01	14.286
478.36	13.491
478.70	13.350
479.05	13.598
479.40	13.343
479.75	13.952
480.10	13.698
480.45	13.119
480.79	13.779
481.14	12.791
481.49	13.312
481.84	12.665
482.19	13.188
482.53	13.131
482.88	13.754
483.23	12.945
483.58	13.016
483.92	13.665
484.27	12.842
484.62	13.031
484.97	13.011
485.31	11.580
485.66	11.492
486.01	11.124
486.36	11.108
486.70	10.850
487.05	11.756
487.40	11.800
487.75	12.007
488.09	12.358
488.44	12.556
488.79	12.773
489.13	13.102
489.48	13.224
489.83	12.636
490.17	13.749
490.52	13.221
490.87	13.190
491.22	13.076
491.56	13.263
491.91	12.769
492.26	13.497
492.60	13.440
492.95	13.910
493.30	13.922
493.64	13.342
493.99	13.462
494.34	13.268
494.68	13.280
495.03	14.145
495.37	14.183
495.72	13.753
496.07	13.342
496.41	13.423
496.76	13.423
497.11	13.539
497.45	13.634
497.80	13.855
498.14	13.176
498.49	13.463
498.84	13.598
499.18	14.077
499.53	13.734
499.87	13.432
500.22	13.957
500.56	14.113
500.91	14.518
501.26	14.194
501.60	13.616
501.95	12.634
502.29	14.089
502.64	13.498
502.98	12.984
503.33	13.898
503.67	14.216
504.02	13.166
504.36	13.891
504.71	13.813
505.06	14.078
505.40	13.617
505.75	13.330
506.09	14.419
506.44	14.286
506.78	13.516
507.13	13.960
507.47	13.489
507.82	14.745
508.16	15.091
508.51	13.623
508.85	13.723
509.19	14.733
509.54	14.062
509.88	13.923
510.23	13.971
510.57	13.948
510.92	13.736
511.26	14.458
511.61	13.786
511.95	14.783
512.30	15.200
512.64	13.863
512.98	14.044
513.33	14.498
513.67	14.759
514.02	14.286
514.36	14.330
514.70	14.613
515.05	14.172
515.39	14.254
515.74	15.200
516.08	14.542
516.42	15.847
516.77	14.667
517.11	14.507
517.46	15.086
517.80	14.910
518.14	15.493
518.49	14.112
518.83	13.901
519.17	15.031
519.52	14.691
519.86	15.368
520.20	15.178
520.55	14.867
520.89	15.115
521.23	15.187
521.58	15.204
521.92	14.985
522.26	15.344
522.61	15.508
522.95	15.315
523.29	15.029
523.64	14.682
523.98	14.789
524.32	14.706
524.66	15.014
525.01	15.503
525.35	14.850
525.69	15.232
526.04	17.192
526.38	15.127
526.72	15.811
527.06	15.494
527.41	15.659
527.75	14.912
528.09	14.449
528.43	15.375
528.78	15.206
529.12	16.195
529.46	14.494
529.80	15.537
530.15	15.734
530.49	14.982
530.83	15.478
531.17	15.314
531.51	15.941
531.86	15.399
532.20	15.760
532.54	15.066
532.88	15.865
533.22	16.332
533.57	15.253
533.91	15.210
534.25	14.484
534.59	15.439
534.93	14.733
535.27	14.456
535.62	14.411
535.96	15.130
536.30	15.966
536.64	14.534
536.98	14.663
537.32	16.250
537.66	14.605
538.01	15.913
538.35	15.097
538.69	14.806
539.03	15.174
539.37	15.413
539.71	15.864
540.05	14.708
540.39	15.912
540.73	15.063
541.07	14.868
541.42	15.423
541.76	14.797
542.10	15.783
542.44	15.274
542.78	14.789
543.12	14.785
543.46	14.850
543.80	15.351
544.14	15.232
544.48	14.416
544.82	15.046
545.16	14.511
545.50	15.058
545.84	14.962
546.18	15.995
546.52	16.328
546.86	15.603
547.20	14.858
547.54	15.453
547.88	15.511
548.22	15.179
548.56	14.202
548.90	14.531
549.24	15.982
549.58	14.369
549.92	15.324
550.26	15.213
550.60	16.035
550.94	16.079
551.28	16.276
551.62	16.276
551.96	16.149
552.30	14.239
552.64	15.793
552.98	14.240
553.32	14.533
553.66	15.049
554.00	14.736
554.34	15.912
554.68	15.927
555.02	15.343
555.36	15.293
555.69	15.510
556.03	15.669
556.37	15.424
556.71	15.971
557.05	13.630
557.39	15.600
557.73	15.701
558.07	16.298
558.41	16.450
558.75	16.416
559.08	16.798
559.42	16.464
559.76	16.108
560.10	15.210
560.44	15.594
560.78	15.281
561.12	14.685
561.45	14.768
561.79	14.607
562.13	14.972
562.47	14.601
562.81	16.005
563.15	15.708
563.48	14.783
563.82	15.658
564.16	15.734
564.50	14.045
564.84	15.502
565.17	15.270
565.51	14.963
565.85	15.793
566.19	14.405
566.52	14.380
566.86	15.703
567.20	14.775
567.54	14.192
567.88	14.241
568.21	13.430
568.55	13.375
568.89	14.599
569.23	13.115
569.56	13.179
569.90	13.079
570.24	13.118
570.57	12.784
570.91	12.200
571.25	11.714
571.59	11.732
571.92	12.056
572.26	11.482
572.60	11.830
572.93	12.076
573.27	11.890
573.61	11.559
573.95	11.529
574.28	11.609
574.62	11.272
574.96	11.099
575.29	11.003
575.63	11.119
575.97	10.906
576.30	11.162
576.64	11.457
576.98	11.354
577.31	11.265
577.65	11.079
577.98	11.103
578.32	10.550
578.66	10.964
578.99	11.433
579.33	11.367
579.67	11.216
580.00	11.053
580.34	11.086
580.67	11.320
581.01	11.565
581.35	10.992
581.68	10.416
582.02	10.670
582.35	10.440
582.69	10.970
583.02	10.899
583.36	11.179
583.70	11.229
584.03	11.807
584.37	11.307
584.70	11.271
585.04	10.992
585.37	10.911
585.71	11.213
586.04	10.920
586.38	11.061
586.72	11.326
587.05	11.374
587.39	11.302
587.72	11.149
588.06	11.721
588.39	11.540
588.73	11.577
589.06	11.555
589.40	11.894
589.73	12.029
590.07	12.286
590.40	12.439
590.73	12.596
591.07	13.169
591.40	11.856
591.74	12.297
592.07	12.146
592.41	13.070
592.74	12.193
593.08	11.719
593.41	12.029
593.75	11.596
594.08	12.042
594.41	11.828
594.75	12.226
595.08	12.346
595.42	12.311
595.75	11.978
596.09	12.478
596.42	12.345
596.75	12.941
597.09	12.877
597.42	12.367
597.75	12.576
598.09	12.310
598.42	12.648
598.76	12.182
599.09	12.615
599.42	11.453
599.76	11.940
600.09	11.525
600.42	12.120
600.76	12.339
601.09	11.667
601.42	11.968
601.76	12.317
602.09	12.031
602.42	12.015
602.76	12.258
603.09	11.991
603.42	12.183
603.76	11.750
604.09	11.980
604.42	12.128
604.76	12.327
605.09	12.571
605.42	12.800
605.75	12.554
606.09	12.548
606.42	12.063
606.75	12.048
607.09	12.594
607.42	12.575
607.75	12.699
608.08	12.266
608.42	12.500
608.75	12.195
609.08	12.538
609.41	12.545
609.75	12.729
610.08	12.410
610.41	12.341
610.74	12.511
611.07	12.779
611.41	12.975
611.74	12.859
612.07	12.717
612.40	12.622
612.73	13.280
613.07	12.722
613.40	13.484
613.73	13.230
614.06	13.050
614.39	12.929
614.72	13.260
615.06	13.304
615.39	12.673
615.72	12.875
616.05	13.661
616.38	12.988
616.71	13.456
617.05	12.740
617.38	13.034
617.71	14.286
618.04	13.741
618.37	13.341
618.70	13.972
619.03	13.553
619.36	14.447
619.69	13.984
620.03	15.068
620.36	14.451
620.69	15.070
621.02	14.130
621.35	14.613
621.68	15.044
622.01	15.720
622.34	14.348
622.67	16.152
623.00	15.044
623.33	14.710
623.66	14.305
623.99	14.658
624.32	15.921
624.65	14.483
624.99	14.604
625.32	14.963
625.65	13.793
625.98	15.202
626.31	15.875
626.64	15.490
626.97	14.767
627.30	15.606
627.63	14.992
627.96	14.867
628.29	15.347
628.62	15.483
628.95	15.957
629.28	15.863
629.61	15.290
629.94	15.644
630.26	16.811
630.59	15.691
630.92	16.861
631.25	17.316
631.58	17.358
631.91	15.890
632.24	16.521
632.57	15.815
632.90	17.288
633.23	18.153
633.56	17.281
633.89	17.256
634.22	17.330
634.55	17.742
634.88	19.277
635.20	18.274
635.53	18.351
635.86	18.121
636.19	17.733
636.52	16.108
636.85	17.044
637.18	17.226
637.51	16.760
637.83	15.904
638.16	18.523
638.49	18.084
638.82	18.545
639.15	17.156
639.48	19.194
639.81	18.926
640.13	19.018
640.46	19.216
640.79	17.295
641.12	16.798
641.45	19.664
641.77	20.343
642.10	18.876
642.43	19.915
642.76	18.608
643.09	19.452
643.41	19.355
643.74	17.554
644.07	20.206
644.40	21.154
644.73	20.420
645.05	21.842
645.38	20.980
645.71	18.968
646.04	20.153
646.36	18.623
646.69	19.520
647.02	20.160
647.35	18.740
647.67	20.097
648.00	21.661
648.33	20.301
648.66	20.606
648.98	17.391
649.31	17.679
649.64	17.704
649.96	18.919
650.29	18.571
650.62	21.060
650.94	21.084
651.27	21.850
651.60	19.875
651.92	20.276
652.25	21.102
652.58	19.149
652.90	19.012
653.23	20.089
653.56	21.068
653.88	20.117
654.21	18.915
654.54	18.887
654.86	20.501
655.19	18.734
655.52	14.991
655.84	9.265
656.17	10.057
656.49	14.308
656.82	16.184
657.15	13.142
657.47	10.036
657.80	7.571
658.13	6.226
658.45	8.708
658.78	10.570
659.10	11.059
659.43	11.739
659.75	11.700
660.08	13.596
660.41	15.880
660.73	18.821
661.06	21.021
661.38	23.339
661.71	22.302
662.03	21.483
662.36	23.619
662.68	20.670
663.01	23.063
663.33	20.755
663.66	21.105
663.98	22.619
664.31	21.269
664.63	23.563
664.96	23.827
665.28	19.962
665.61	20.000
665.93	21.887
666.26	21.308
666.58	24.404
666.91	22.008
667.23	21.486
667.56	23.203
667.88	23.651
668.21	22.746
668.53	22.177
668.86	22.244
669.18	22.200
669.50	20.041
669.83	22.177
670.15	23.077
670.48	18.164
670.80	23.506
671.13	22.311
671.45	23.447
671.77	22.820
672.10	20.467
672.42	19.737
672.75	20.253
673.07	20.509
673.39	19.010
673.72	20.069
674.04	20.430
674.37	23.230
674.69	18.401
675.01	20.336
675.34	20.155
675.66	23.047
675.98	21.696
676.31	22.400
676.63	19.881
676.95	24.008
677.28	23.124
677.60	21.932
677.92	19.048
678.25	19.186
678.57	20.857
678.89	21.700
679.22	20.956
679.54	20.107
679.86	21.117
680.18	19.684
680.51	17.579
680.83	20.270
681.15	18.371
681.48	20.486
681.80	19.089
682.12	19.896
682.44	18.378
682.77	20.819
683.09	20.000
683.41	19.184
683.73	20.079
684.06	18.254
684.38	19.186
684.70	20.863
685.02	18.403
685.34	19.190
685.67	20.579
685.99	18.883
686.31	19.260
686.63	18.211
686.96	20.098
687.28	17.785
687.60	19.113
687.92	19.095
688.24	20.345
688.56	19.573
688.89	18.164
689.21	21.002
689.53	22.332
689.85	21.341
690.17	20.583
690.49	20.363
690.82	20.798
691.14	22.828
691.46	22.793
691.78	22.027
692.10	19.466
692.42	19.419
692.74	20.543
693.06	20.155
693.39	21.937
693.71	22.200
694.03	19.724
694.35	23.494
694.67	22.811
694.99	20.843
695.31	23.874
695.63	21.493
695.95	22.398
696.27	21.681
696.59	24.344
696.91	22.532
697.23	22.172
697.56	17.012
697.88	18.164
698.20	20.566
698.52	20.623
698.84	19.713
699.16	20.896
699.48	21.398
699.80	25.490
700.12	23.557
700.44	21.729
700.76	25.537
701.08	25.065
701.40	22.597
701.72	26.203
702.04	27.100
702.36	23.656
702.68	23.404
703.00	21.303
703.32	21.836
703.64	21.914
703.96	23.177
704.28	26.455
704.60	24.789
704.91	24.090
705.23	25.284
705.55	25.223
705.87	23.175
706.19	25.392
706.51	28.527
706.83	27.729
707.15	25.936
707.47	23.245
707.79	22.069
708.11	19.728
708.43	21.124
708.74	20.136
709.06	20.233
709.38	25.558
709.70	23.706
710.02	20.109
710.34	22.099
710.66	25.000
710.98	25.410
711.29	24.513
711.61	25.905
711.93	24.620
712.25	25.301
712.57	24.759
712.89	27.576
713.20	26.518
713.52	25.545
713.84	23.565
714.16	19.130
714.48	21.037
714.80	23.848
715.11	23.670
715.43	21.508
715.75	19.155
716.07	23.121
716.39	20.286
716.70	23.676
717.02	26.936
717.34	25.899
717.66	26.736
717.97	32.576
718.29	31.690
718.61	21.959
718.93	26.644
719.24	22.819
719.56	20.000
719.88	24.522
720.20	26.452
720.51	25.163
720.83	25.753
721.15	25.850
721.46	27.397
721.78	25.087
722.10	27.778
722.42	28.428
722.73	25.271
723.05	26.316
723.37	30.389
723.68	25.000
724.00	30.682
724.32	25.856
724.63	27.692
724.95	23.922
725.27	24.907
725.58	26.471
725.90	24.648
726.22	22.260
726.53	27.425
726.85	27.036
727.16	29.866
727.48	23.588
727.80	26.259
728.11	26.071
728.43	20.290
728.74	21.678
729.06	22.939
729.38	25.965
729.69	29.333
730.01	27.961
730.32	27.517
730.64	27.907
730.96	25.526
731.27	19.878
731.59	21.552
731.90	20.056
732.22	24.571
732.53	20.228
732.85	23.099
733.16	22.892
733.48	26.959
733.80	24.348
734.11	26.380
734.43	20.468
734.74	20.107
735.06	20.899
735.37	21.134
735.69	21.739
736.00	22.630
736.32	20.303
736.63	23.028
736.95	24.224
737.26	22.866
737.58	21.166
737.89	24.699
738.21	22.517
738.52	23.746
738.83	32.601
739.15	25.436
739.46	25.517
739.78	21.429
740.09	22.449
740.41	22.393
740.72	24.444
741.04	22.028
741.35	23.437
741.66	28.063
741.98	31.330
742.29	30.093
742.61	25.221
742.92	26.695
743.23	28.800
743.55	24.528
743.86	25.490
744.18	22.881
744.49	26.860
744.80	33.641
745.12	31.250
745.43	29.439
745.74	28.444
746.06	26.754
746.37	33.023
746.68	32.743
747.00	30.493
747.31	31.933
747.62	25.820
747.94	28.755
748.25	24.514
748.56	30.508
748.88	29.018
749.19	26.512
749.50	31.963
749.82	27.572
750.13	27.273
750.44	25.000
750.75	23.490
751.07	26.645
751.38	25.413
751.69	25.253
752.01	23.776
752.32	22.259
752.63	26.174
752.94	25.874
753.26	27.344
753.57	30.739
753.88	25.468
754.19	27.076
754.51	24.252
754.82	23.154
755.13	25.338
755.44	28.889
755.75	26.804
756.07	21.918
756.38	21.569
756.69	23.438
757.00	22.849
757.31	24.507
757.63	20.937
757.94	22.606
758.25	21.256
758.56	18.764
758.87	22.807
759.18	26.453
759.50	21.581
759.81	20.772
760.12	25.281
760.43	22.409
760.74	22.532
761.05	18.302
761.36	16.927
761.67	22.102
761.99	23.944
762.30	22.186
762.61	21.181
762.92	26.136
763.23	25.283
763.54	28.077
763.85	23.346
764.16	29.167
764.47	26.014
764.78	25.081
765.10	20.732
765.41	18.182
765.72	19.890
766.03	22.054
766.34	24.042
766.65	24.715
766.96	29.960
767.27	28.037
767.58	31.683
767.89	30.939
768.20	33.537
768.51	28.571
768.82	30.263
769.13	26.275
769.44	23.684
769.75	19.850
770.06	30.252
770.37	24.123
770.68	27.556
770.99	25.847
771.30	26.360
771.61	24.231
771.92	23.664
772.23	25.403
772.54	32.000
772.85	30.198
773.16	25.543
773.47	24.444
773.78	28.218
774.09	31.250
774.39	36.970
774.70	28.824
775.01	34.868
775.32	32.298
775.63	43.151
775.94	43.210
776.25	33.793
776.56	41.985
776.87	35.878
777.18	41.667
777.48	44.094
777.79	41.538
778.10	34.848
778.41	42.537
778.72	43.609
779.03	39.103
779.34	30.405
779.65	31.056
779.95	30.435
780.26	32.143
780.57	41.497
780.88	39.716
781.19	33.333
781.50	32.544
781.80	34.973
782.11	31.746
782.42	28.161
782.73	36.723
783.04	36.129
783.34	33.333
783.65	32.653
783.96	38.710
784.27	24.503
784.57	33.553
784.88	33.333
785.19	36.667
785.50	44.828
785.81	48.062
786.11	40.000
786.42	38.583
786.73	40.541
787.04	47.170
787.34	39.024
787.65	40.152
787.96	37.121
788.26	39.370
788.57	37.226
788.88	35.915
789.19	38.931
789.49	37.838
789.80	39.062
790.11	42.149
790.41	51.852
790.72	37.037
791.03	48.077
791.33	44.444
791.64	47.368
791.95	57.895
792.25	53.125
792.56	51.000
792.87	53.659
793.17	38.636
793.48	67.059
793.79	51.724
794.09	48.864
794.40	46.552
794.70	43.651
795.01	37.692
795.32	33.588
795.62	30.769
795.93	43.697
796.23	39.024
796.54	39.796
796.85	45.455
797.15	59.740
797.46	63.415
797.76	41.250
798.07	61.333
798.37	57.500
798.68	58.750
798.99	59.756
799.29	48.000
799.60	53.488
799.90	55.263
800.21	65.152
800.51	49.296
800.82	65.517
801.12	69.231
801.43	68.000
801.73	56.897
802.04	45.455
802.34	58.904
802.65	66.667
802.95	73.913
803.26	66.129
803.56	83.333
803.87	65.672
804.17	63.492
804.48	67.925
804.78	40.278
805.09	66.667
805.39	69.841
805.70	71.930
806.00	61.429
806.30	67.188
806.61	65.882
806.91	53.333
807.22	53.261
807.52	61.842
807.83	68.421
808.13	73.913
808.43	85.484
808.74	75.342
809.04	87.500
809.35	69.118
809.65	78.788
809.95	88.235
810.26	98.148
810.56	90.625
810.86	77.551
811.17	85.965
811.47	91.304
811.77	77.586
812.08	60.345
812.38	83.333
812.69	123.810
812.99	75.556
813.29	94.286
813.59	116.129
813.90	58.621
814.20	78.689
814.50	76.000
814.81	50.877
815.11	75.926
815.41	62.500
815.72	85.714
816.02	92.000
816.32	104.878
816.62	93.103
816.93	96.970
817.23	92.683
817.53	80.357
817.84	95.556
818.14	85.714
818.44	85.417
818.74	92.453
819.04	87.179
819.35	121.212
819.65	100.000
819.95	105.556
820.25	104.255
820.56	124.324
820.86	100.000
821.16	78.723
821.46	105.263
821.76	81.818
822.07	83.333
822.37	107.895
822.67	102.326
822.97	73.684
823.27	110.870
823.57	112.500
823.88	87.179
824.18	100.000
824.48	147.826
824.78	122.222
825.08	182.609
825.38	134.483
825.69	138.235
825.99	70.213
826.29	88.889
826.59	122.857
826.89	120.000
827.19	82.857
827.49	138.710
827.79	123.077
828.09	71.429
828.39	105.556
828.70	89.189
829.00	128.571
829.30	200.000
829.60	105.556
829.90	112.903
830.20	121.212
830.50	127.027
830.80	166.667
831.10	126.923
831.40	138.095
831.70	191.667
832.00	113.333
832.30	130.435
832.60	183.333
832.90	145.455
833.20	145.000
833.50	147.368
833.80	114.706
834.10	121.053
834.40	152.632
834.70	93.333
835.00	128.000
835.30	113.514
835.60	106.250
835.90	124.324
836.20	142.308
836.50	104.545
836.80	112.195
837.10	147.826
837.40	230.769
837.70	168.421
838.00	136.667
838.30	187.500
838.60	132.000
838.90	260.000
839.19	150.000
839.49	143.333
839.79	106.897
840.09	138.462
840.39	240.000
840.69	168.421
840.99	90.476
841.29	182.609
841.59	180.000
841.88	152.000
842.18	311.111
842.48	132.143
842.78	185.185
843.08	200.000
843.38	227.273
843.68	235.714
843.97	400.000
844.27	143.478
844.57	1900.000
844.87	342.857
845.17	233.333
845.47	138.095
845.76	154.167
846.06	500.000
846.36	182.353
846.66	238.462
846.96	212.500
847.25	215.385
847.55	210.526
847.85	266.667
848.15	500.000
848.44	290.909
848.74	157.143
849.04	191.667
849.34	152.941
849.63	287.500
849.93	237.500
850.23	666.667
850.53	362.500
850.82	309.091
851.12	152.941
851.42	166.667
851.71	281.250
852.01	0.000
852.31	241.176
852.61	360.000
852.90	170.833
853.20	311.111
853.50	-2700.000
853.79	128.000
854.09	134.375
854.39	106.897
854.68	144.828
854.98	195.238
855.28	129.032
855.57	314.286
855.87	166.667
856.17	159.259
856.46	168.421
856.76	119.355
857.05	217.647
857.35	309.091
857.65	184.615
857.94	140.000
858.24	400.000
858.53	307.143
858.83	585.714
859.13	204.348
859.42	188.889
859.72	362.500
860.01	208.333
860.31	1075.000
860.60	410.000
860.90	300.000
861.20	292.308
861.49	528.571
861.79	-3200.000
862.08	557.143
862.38	277.778
862.67	250.000
862.97	450.000
863.26	133.333
863.56	850.000
863.85	353.846
864.15	258.824
864.44	211.111
864.74	358.333
865.03	254.545
865.33	337.500
865.62	280.000
865.92	650.000
866.21	975.000
866.51	780.000
866.80	244.444
867.10	1000.000
867.39	2200.000
867.69	460.000
867.98	700.000
868.27	176.190
868.57	226.667
868.86	925.000
869.16	147.619
869.45	3300.000
869.75	-433.333
870.04	725.000
870.33	480.000
870.63	425.000
870.92	223.529
871.22	950.000
871.51	271.429
871.80	325.000
872.10	276.923
>>>>>End Processed Spectral Data<<<<<
