SpectraSuite Data File
++++++++++++++++++++++++++++++++++++
Date: Tue May 12 17:13:08 PDT 2015
User: schluterlab
Dark Spectrum Present: Yes
Reference Spectrum Present: Yes
Number of Sampled Component Spectra: 1
Spectrometers: USB2E3373
Integration Time (usec): 3000 (USB2E3373)
Spectra Averaged: 3 (USB2E3373)
Boxcar Smoothing: 0 (USB2E3373)
Correct for Electrical Dark: No (USB2E3373)
Strobe/Lamp Enabled: No (USB2E3373)
Correct for Detector Non-linearity: No (USB2E3373)
Correct for Stray Light: No (USB2E3373)
Number of Pixels in Processed Spectrum: 2048
>>>>>Begin Processed Spectral Data<<<<<
178.53	0.000
178.91	-291.667
179.29	-400.000
179.67	-3300.000
180.04	-100.000
180.42	800.000
180.80	1150.000
181.18	0.000
181.56	-462.500
181.94	0.000
182.31	1000.000
182.69	-3000.000
183.07	700.000
183.45	-3400.000
183.83	-1300.000
184.20	400.000
184.58	442.857
184.96	-292.308
185.34	-125.000
185.72	1750.000
186.09	-825.000
186.47	-3400.000
186.85	1066.667
187.23	700.000
187.61	1900.000
187.98	575.000
188.36	221.429
188.74	258.333
189.12	300.000
189.49	775.000
189.87	0.000
190.25	500.000
190.63	2800.000
191.00	-266.667
191.38	-3400.000
191.76	-675.000
192.14	537.500
192.51	-2400.000
192.89	1400.000
193.27	1133.333
193.65	-1000.000
194.02	-800.000
194.40	457.143
194.78	-114.286
195.15	213.333
195.53	-3000.000
195.91	-540.000
196.29	4300.000
196.66	268.750
197.04	800.000
197.42	-1250.000
197.79	625.000
198.17	283.333
198.55	0.000
198.92	400.000
199.30	1100.000
199.68	2000.000
200.05	700.000
200.43	-416.667
200.81	177.778
201.18	3700.000
201.56	308.333
201.94	-800.000
202.31	-312.500
202.69	-600.000
203.07	2900.000
203.44	-466.667
203.82	300.000
204.19	660.000
204.57	-1450.000
204.95	-650.000
205.32	-680.000
205.70	483.333
206.08	725.000
206.45	-966.667
206.83	388.889
207.20	178.947
207.58	300.000
207.96	780.000
208.33	0.000
208.71	500.000
209.08	660.000
209.46	-3400.000
209.84	-675.000
210.21	840.000
210.59	-580.000
210.96	283.333
211.34	-1075.000
211.71	354.545
212.09	825.000
212.46	1500.000
212.84	-466.667
213.22	433.333
213.59	-3500.000
213.97	290.000
214.34	775.000
214.72	866.667
215.09	900.000
215.47	-2400.000
215.84	-300.000
216.22	-387.500
216.59	0.000
216.97	0.000
217.34	1350.000
217.72	-1200.000
218.09	1133.333
218.47	400.000
218.84	825.000
219.22	966.667
219.59	866.667
219.97	500.000
220.34	366.667
220.72	1850.000
221.09	3100.000
221.47	200.000
221.84	1133.333
222.22	410.000
222.59	255.556
222.97	235.714
223.34	250.000
223.72	-2000.000
224.09	1166.667
224.46	200.000
224.84	-950.000
225.21	288.889
225.59	206.667
225.96	1100.000
226.34	-660.000
226.71	-375.000
227.08	-480.000
227.46	0.000
227.83	-666.667
228.21	-1700.000
228.58	375.000
228.95	925.000
229.33	366.667
229.70	1050.000
230.08	315.385
230.45	2500.000
230.82	-900.000
231.20	-866.667
231.57	-1000.000
231.95	720.000
232.32	291.667
232.69	483.333
233.07	225.000
233.44	-1150.000
233.81	220.000
234.19	151.852
234.56	200.000
234.93	152.941
235.31	210.000
235.68	231.250
236.05	200.000
236.43	155.556
236.80	150.000
237.17	151.724
237.55	106.250
237.92	100.000
238.29	96.970
238.67	106.250
239.04	87.805
239.41	54.167
239.79	65.000
240.16	81.250
240.53	85.246
240.91	72.464
241.28	67.797
241.65	51.515
242.02	83.099
242.40	62.857
242.77	56.044
243.14	50.633
243.51	57.576
243.89	55.140
244.26	45.794
244.63	53.465
245.00	48.624
245.38	47.458
245.75	43.939
246.12	46.667
246.49	42.553
246.87	35.246
247.24	40.000
247.61	40.625
247.98	36.735
248.36	32.727
248.73	40.816
249.10	30.357
249.47	31.500
249.84	36.318
250.22	34.054
250.59	29.000
250.96	29.958
251.33	28.837
251.70	32.589
252.08	28.992
252.45	30.677
252.82	26.996
253.19	23.715
253.56	29.615
253.94	30.797
254.31	30.233
254.68	30.314
255.05	31.034
255.42	27.737
255.79	30.619
256.16	30.508
256.54	25.974
256.91	28.431
257.28	26.756
257.65	22.884
258.02	24.484
258.39	26.934
258.76	26.957
259.14	22.571
259.51	22.741
259.88	27.356
260.25	22.253
260.62	25.753
260.99	22.865
261.36	25.070
261.73	25.266
262.10	25.131
262.47	23.000
262.85	19.733
263.22	24.422
263.59	22.506
263.96	24.311
264.33	25.679
264.70	24.816
265.07	25.366
265.44	25.688
265.81	23.349
266.18	25.172
266.55	24.823
266.92	22.819
267.29	22.149
267.66	23.094
268.03	20.179
268.40	24.101
268.77	24.229
269.14	22.343
269.51	23.831
269.88	25.102
270.25	21.598
270.62	22.103
270.99	23.327
271.36	24.390
271.73	23.270
272.10	20.404
272.47	22.024
272.84	20.559
273.21	22.314
273.58	22.065
273.95	22.177
274.32	23.541
274.69	23.228
275.06	22.951
275.43	22.605
275.80	19.434
276.17	24.449
276.54	22.243
276.91	22.575
277.28	20.255
277.65	21.218
278.02	21.140
278.39	22.122
278.76	22.069
279.13	19.929
279.50	22.909
279.87	21.043
280.23	21.547
280.60	22.810
280.97	19.310
281.34	21.617
281.71	21.217
282.08	22.564
282.45	20.101
282.82	21.070
283.19	19.237
283.56	20.000
283.92	20.521
284.29	21.464
284.66	20.840
285.03	21.559
285.40	21.818
285.77	19.753
286.14	18.576
286.51	19.325
286.87	19.304
287.24	19.820
287.61	18.693
287.98	19.104
288.35	19.407
288.72	19.879
289.08	20.420
289.45	21.189
289.82	20.313
290.19	19.912
290.56	21.689
290.93	21.727
291.29	19.613
291.66	19.350
292.03	20.617
292.40	19.512
292.77	17.270
293.13	19.686
293.50	18.219
293.87	18.428
294.24	19.580
294.60	18.304
294.97	20.000
295.34	18.459
295.71	19.317
296.08	18.933
296.44	19.568
296.81	19.355
297.18	18.758
297.55	20.320
297.91	19.089
298.28	19.082
298.65	19.509
299.02	19.180
299.38	20.264
299.75	17.439
300.12	19.037
300.48	20.960
300.85	19.309
301.22	20.581
301.59	19.340
301.95	18.786
302.32	21.071
302.69	19.344
303.05	20.763
303.42	19.170
303.79	19.935
304.15	19.912
304.52	18.393
304.89	18.657
305.25	20.467
305.62	21.002
305.99	19.239
306.35	20.105
306.72	20.708
307.09	20.704
307.45	20.063
307.82	20.473
308.19	21.031
308.55	20.000
308.92	20.020
309.29	22.288
309.65	21.209
310.02	21.501
310.38	20.738
310.75	21.601
311.12	19.540
311.48	22.394
311.85	21.851
312.22	22.159
312.58	21.574
312.95	23.495
313.31	22.940
313.68	22.608
314.05	24.542
314.41	23.184
314.78	22.254
315.14	23.791
315.51	24.787
315.87	23.631
316.24	24.463
316.61	22.471
316.97	24.220
317.34	26.146
317.70	26.076
318.07	26.068
318.43	25.483
318.80	26.007
319.16	26.311
319.53	26.637
319.89	27.330
320.26	28.399
320.62	27.747
320.99	28.789
321.35	28.386
321.72	28.463
322.08	29.086
322.45	28.792
322.81	29.643
323.18	29.840
323.54	30.226
323.91	31.732
324.27	30.239
324.64	30.709
325.00	33.103
325.37	32.040
325.73	31.535
326.10	33.803
326.46	33.774
326.83	32.240
327.19	34.217
327.56	33.147
327.92	36.311
328.29	35.352
328.65	35.531
329.01	35.329
329.38	35.195
329.74	35.952
330.11	36.056
330.47	35.550
330.84	35.203
331.20	34.687
331.56	37.047
331.93	36.356
332.29	35.799
332.66	36.820
333.02	35.481
333.38	36.736
333.75	36.447
334.11	37.416
334.48	36.667
334.84	34.882
335.20	36.441
335.57	35.852
335.93	37.342
336.29	34.080
336.66	38.165
337.02	36.612
337.38	35.942
337.75	34.713
338.11	36.034
338.47	36.918
338.84	35.817
339.20	35.671
339.56	35.492
339.93	35.702
340.29	34.538
340.65	35.373
341.02	35.961
341.38	36.453
341.74	35.050
342.11	35.559
342.47	35.685
342.83	36.916
343.20	34.600
343.56	33.519
343.92	35.838
344.28	35.646
344.65	36.023
345.01	33.968
345.37	34.375
345.73	35.635
346.10	33.785
346.46	33.812
346.82	33.642
347.19	35.317
347.55	34.426
347.91	34.592
348.27	34.392
348.63	35.364
349.00	34.653
349.36	34.397
349.72	34.404
350.08	34.860
350.45	34.806
350.81	34.709
351.17	33.898
351.53	34.180
351.89	34.110
352.26	33.333
352.62	34.314
352.98	34.279
353.34	34.515
353.70	33.869
354.07	35.231
354.43	33.026
354.79	32.498
355.15	34.763
355.51	33.837
355.87	34.187
356.24	34.873
356.60	33.866
356.96	33.510
357.32	33.534
357.68	33.627
358.04	34.347
358.40	32.684
358.77	34.636
359.13	33.033
359.49	33.136
359.85	33.135
360.21	32.987
360.57	33.504
360.93	33.333
361.29	33.261
361.66	34.303
362.02	32.812
362.38	33.694
362.74	34.395
363.10	34.081
363.46	32.942
363.82	32.889
364.18	33.642
364.54	32.761
364.90	33.133
365.26	33.588
365.62	32.942
365.98	32.072
366.35	32.276
366.71	33.518
367.07	31.741
367.43	32.572
367.79	32.979
368.15	32.564
368.51	33.218
368.87	32.677
369.23	32.987
369.59	32.367
369.95	33.147
370.31	32.033
370.67	32.755
371.03	33.193
371.39	31.579
371.75	32.380
372.11	33.311
372.47	32.603
372.83	33.039
373.19	33.379
373.55	32.715
373.91	31.008
374.27	31.812
374.63	32.881
374.99	33.491
375.35	32.392
375.71	33.443
376.07	31.631
376.42	31.330
376.78	32.306
377.14	32.176
377.50	31.211
377.86	32.287
378.22	31.444
378.58	32.385
378.94	32.830
379.30	32.201
379.66	31.728
380.02	32.199
380.38	31.909
380.74	32.526
381.09	31.717
381.45	30.462
381.81	31.324
382.17	31.990
382.53	30.534
382.89	31.224
383.25	30.965
383.61	31.124
383.97	31.194
384.32	32.248
384.68	32.145
385.04	31.887
385.40	31.554
385.76	31.422
386.12	32.344
386.48	31.550
386.83	31.601
387.19	30.860
387.55	32.627
387.91	31.409
388.27	32.719
388.62	31.279
388.98	31.020
389.34	30.577
389.70	31.368
390.06	30.671
390.42	31.647
390.77	30.958
391.13	32.227
391.49	30.611
391.85	31.569
392.20	30.095
392.56	31.063
392.92	30.208
393.28	31.278
393.64	30.103
393.99	31.357
394.35	30.724
394.71	30.458
395.07	30.231
395.42	30.445
395.78	30.845
396.14	31.506
396.50	30.626
396.85	30.183
397.21	30.566
397.57	30.066
397.92	29.578
398.28	30.557
398.64	30.483
399.00	30.465
399.35	29.308
399.71	30.243
400.07	30.365
400.42	29.910
400.78	30.381
401.14	29.888
401.49	30.472
401.85	30.012
402.21	29.174
402.57	30.281
402.92	29.758
403.28	28.640
403.63	29.665
403.99	29.011
404.35	30.129
404.70	30.124
405.06	29.085
405.42	29.503
405.77	29.217
406.13	29.555
406.49	29.107
406.84	28.652
407.20	30.023
407.55	30.400
407.91	30.313
408.27	29.533
408.62	29.687
408.98	29.509
409.34	29.047
409.69	29.185
410.05	28.026
410.40	28.857
410.76	29.307
411.11	29.147
411.47	29.383
411.83	28.178
412.18	28.442
412.54	28.468
412.89	27.965
413.25	28.791
413.60	29.264
413.96	28.785
414.31	28.217
414.67	29.299
415.03	28.352
415.38	30.410
415.74	29.627
416.09	29.669
416.45	29.541
416.80	29.442
417.16	28.644
417.51	28.726
417.87	28.911
418.22	28.979
418.58	29.936
418.93	28.911
419.29	28.219
419.64	29.497
420.00	29.475
420.35	28.339
420.71	28.005
421.06	28.546
421.42	28.728
421.77	29.872
422.12	28.997
422.48	28.762
422.83	29.129
423.19	28.942
423.54	27.976
423.90	29.728
424.25	28.839
424.61	28.613
424.96	28.233
425.31	29.447
425.67	29.742
426.02	29.333
426.38	28.821
426.73	29.092
427.09	29.537
427.44	28.419
427.79	28.874
428.15	30.348
428.50	29.486
428.85	30.276
429.21	28.633
429.56	29.312
429.92	29.090
430.27	28.447
430.62	27.509
430.98	28.543
431.33	29.385
431.68	28.494
432.04	28.350
432.39	30.022
432.74	28.981
433.10	29.181
433.45	29.351
433.80	29.619
434.16	29.112
434.51	29.515
434.86	30.158
435.22	29.173
435.57	29.342
435.92	29.596
436.28	30.300
436.63	29.335
436.98	30.124
437.34	28.995
437.69	28.275
438.04	29.194
438.39	30.006
438.75	29.287
439.10	29.412
439.45	28.999
439.81	29.497
440.16	29.279
440.51	28.998
440.86	29.402
441.22	28.950
441.57	30.184
441.92	28.875
442.27	28.918
442.63	28.862
442.98	29.364
443.33	28.388
443.68	29.175
444.03	28.841
444.39	29.049
444.74	29.348
445.09	28.752
445.44	29.915
445.79	28.411
446.15	29.000
446.50	29.325
446.85	29.432
447.20	29.851
447.55	28.820
447.91	29.355
448.26	29.233
448.61	29.685
448.96	28.540
449.31	30.033
449.66	29.457
450.02	28.147
450.37	29.761
450.72	29.146
451.07	29.843
451.42	28.631
451.77	29.439
452.12	29.722
452.47	29.951
452.83	30.141
453.18	29.369
453.53	30.018
453.88	29.257
454.23	29.808
454.58	29.545
454.93	29.491
455.28	29.743
455.63	30.083
455.98	28.821
456.34	30.638
456.69	29.878
457.04	28.819
457.39	29.143
457.74	29.842
458.09	28.860
458.44	29.189
458.79	28.435
459.14	28.696
459.49	29.502
459.84	29.783
460.19	28.814
460.54	29.573
460.89	28.998
461.24	28.694
461.59	29.252
461.94	29.078
462.29	29.805
462.64	30.214
462.99	30.582
463.34	29.877
463.69	29.522
464.04	29.016
464.39	28.620
464.74	28.546
465.09	28.207
465.44	29.271
465.79	28.525
466.14	28.352
466.49	27.618
466.84	29.208
467.19	29.467
467.54	28.709
467.89	29.343
468.24	29.126
468.59	28.810
468.94	29.348
469.29	29.383
469.64	29.196
469.99	29.306
470.34	29.032
470.68	28.966
471.03	29.820
471.38	29.338
471.73	29.523
472.08	30.463
472.43	29.733
472.78	29.513
473.13	28.723
473.48	28.851
473.83	30.094
474.17	29.362
474.52	29.265
474.87	28.596
475.22	29.412
475.57	28.227
475.92	28.513
476.27	27.639
476.61	27.989
476.96	28.474
477.31	28.329
477.66	30.059
478.01	28.314
478.36	28.167
478.70	27.990
479.05	28.609
479.40	29.365
479.75	29.345
480.10	28.461
480.45	28.571
480.79	28.249
481.14	28.245
481.49	28.134
481.84	28.100
482.19	27.948
482.53	27.317
482.88	27.957
483.23	27.876
483.58	28.097
483.92	28.839
484.27	27.526
484.62	27.929
484.97	27.542
485.31	27.032
485.66	25.909
486.01	25.130
486.36	25.089
486.70	25.169
487.05	25.259
487.40	26.163
487.75	26.011
488.09	26.335
488.44	26.769
488.79	26.588
489.13	27.846
489.48	27.367
489.83	27.606
490.17	27.291
490.52	28.467
490.87	28.103
491.22	26.950
491.56	27.800
491.91	28.315
492.26	28.151
492.60	27.882
492.95	28.274
493.30	26.979
493.64	28.122
493.99	28.533
494.34	27.387
494.68	27.357
495.03	27.571
495.37	28.231
495.72	27.599
496.07	27.269
496.41	26.890
496.76	27.607
497.11	27.721
497.45	28.058
497.80	28.406
498.14	27.601
498.49	27.855
498.84	27.757
499.18	27.057
499.53	27.469
499.87	27.089
500.22	26.854
500.56	28.041
500.91	28.293
501.26	28.571
501.60	27.732
501.95	27.151
502.29	27.378
502.64	26.864
502.98	26.323
503.33	26.815
503.67	26.799
504.02	27.586
504.36	27.557
504.71	28.051
505.06	28.062
505.40	27.375
505.75	27.456
506.09	27.205
506.44	27.303
506.78	27.741
507.13	28.551
507.47	27.996
507.82	27.883
508.16	28.123
508.51	28.164
508.85	27.398
509.19	27.949
509.54	28.174
509.88	28.394
510.23	28.186
510.57	26.882
510.92	27.572
511.26	26.556
511.61	27.671
511.95	26.630
512.30	27.000
512.64	27.622
512.98	27.729
513.33	27.459
513.67	28.845
514.02	27.481
514.36	27.570
514.70	27.040
515.05	27.917
515.39	27.796
515.74	28.759
516.08	28.214
516.42	28.689
516.77	27.733
517.11	28.480
517.46	28.448
517.80	27.963
518.14	28.732
518.49	27.674
518.83	26.648
519.17	27.842
519.52	27.908
519.86	27.902
520.20	29.425
520.55	28.208
520.89	27.816
521.23	28.680
521.58	28.112
521.92	27.289
522.26	27.725
522.61	29.055
522.95	28.889
523.29	28.538
523.64	27.514
523.98	28.580
524.32	28.547
524.66	28.116
525.01	28.580
525.35	27.873
525.69	28.477
526.04	29.209
526.38	27.075
526.72	27.685
527.06	27.262
527.41	28.356
527.75	27.145
528.09	26.972
528.43	27.944
528.78	28.623
529.12	28.898
529.46	28.054
529.80	27.395
530.15	27.873
530.49	27.677
530.83	27.422
531.17	28.044
531.51	27.836
531.86	27.536
532.20	27.256
532.54	27.370
532.88	27.608
533.22	27.179
533.57	26.724
533.91	26.748
534.25	26.832
534.59	27.778
534.93	26.621
535.27	26.636
535.62	26.663
535.96	26.596
536.30	28.885
536.64	26.708
536.98	25.362
537.32	28.500
537.66	26.786
538.01	27.183
538.35	28.197
538.69	26.820
539.03	27.301
539.37	26.092
539.71	26.914
540.05	27.138
540.39	27.358
540.73	27.278
541.07	26.286
541.42	27.488
541.76	27.744
542.10	27.127
542.44	26.683
542.78	26.872
543.12	26.994
543.46	27.005
543.80	27.381
544.14	27.616
544.48	25.912
544.82	26.300
545.16	25.987
545.50	26.798
545.84	27.083
546.18	28.218
546.52	27.016
546.86	27.015
547.20	26.809
547.54	26.409
547.88	26.156
548.22	26.108
548.56	25.339
548.90	26.453
549.24	26.532
549.58	25.580
549.92	26.588
550.26	26.572
550.60	26.747
550.94	26.391
551.28	27.793
551.62	28.207
551.96	26.959
552.30	26.302
552.64	27.055
552.98	24.936
553.32	25.544
553.66	26.645
554.00	26.448
554.34	27.230
554.68	26.747
555.02	26.477
555.36	26.596
555.69	26.702
556.03	26.051
556.37	25.940
556.71	26.662
557.05	26.081
557.39	26.600
557.73	25.539
558.07	26.090
558.41	26.731
558.75	26.539
559.08	26.447
559.42	28.203
559.76	26.871
560.10	26.497
560.44	26.344
560.78	27.046
561.12	26.065
561.45	24.343
561.79	25.281
562.13	24.763
562.47	26.411
562.81	25.895
563.15	25.986
563.48	24.410
563.82	25.265
564.16	25.498
564.50	25.497
564.84	25.167
565.17	25.134
565.51	26.293
565.85	26.095
566.19	25.179
566.52	25.030
566.86	25.686
567.20	24.944
567.54	25.655
567.88	24.309
568.21	23.714
568.55	23.881
568.89	24.316
569.23	23.123
569.56	23.123
569.90	22.206
570.24	22.385
570.57	22.388
570.91	21.747
571.25	21.352
571.59	21.038
571.92	20.452
572.26	20.323
572.60	20.689
572.93	21.593
573.27	21.281
573.61	20.980
573.95	20.891
574.28	20.916
574.62	20.727
574.96	20.479
575.29	20.172
575.63	20.424
575.97	20.521
576.30	20.400
576.64	20.749
576.98	20.107
577.31	21.030
577.65	20.596
577.98	19.838
578.32	19.767
578.66	20.082
578.99	20.076
579.33	20.816
579.67	20.817
580.00	20.316
580.34	20.049
580.67	19.508
581.01	20.255
581.35	20.016
581.68	19.476
582.02	19.540
582.35	19.608
582.69	19.763
583.02	19.813
583.36	20.143
583.70	20.567
584.03	20.905
584.37	20.545
584.70	20.105
585.04	20.128
585.37	19.612
585.71	20.404
586.04	19.964
586.38	20.158
586.72	20.129
587.05	20.587
587.39	20.101
587.72	20.712
588.06	20.139
588.39	20.368
588.73	20.485
589.06	20.776
589.40	21.252
589.73	21.010
590.07	21.174
590.40	21.742
590.73	21.924
591.07	21.784
591.40	21.796
591.74	21.510
592.07	21.339
592.41	21.663
592.74	20.725
593.08	20.020
593.41	20.317
593.75	20.293
594.08	20.388
594.41	20.691
594.75	20.719
595.08	20.439
595.42	21.725
595.75	21.027
596.09	21.620
596.42	20.867
596.75	21.554
597.09	21.255
597.42	20.898
597.75	20.974
598.09	21.256
598.42	21.501
598.76	20.779
599.09	20.964
599.42	20.277
599.76	20.692
600.09	20.441
600.42	20.753
600.76	20.156
601.09	20.400
601.42	20.627
601.76	20.337
602.09	21.008
602.42	20.665
602.76	20.569
603.09	20.814
603.42	20.954
603.76	20.499
604.09	20.376
604.42	20.113
604.76	20.111
605.09	20.898
605.42	20.967
605.75	20.805
606.09	20.658
606.42	20.819
606.75	20.443
607.09	20.766
607.42	20.450
607.75	21.139
608.08	20.755
608.42	21.015
608.75	20.240
609.08	20.326
609.41	21.727
609.75	21.932
610.08	21.223
610.41	21.300
610.74	21.818
611.07	21.965
611.41	21.779
611.74	21.702
612.07	20.809
612.40	21.735
612.73	21.967
613.07	21.845
613.40	22.105
613.73	22.117
614.06	20.800
614.39	21.667
614.72	20.894
615.06	21.316
615.39	21.386
615.72	20.716
616.05	21.848
616.38	21.410
616.71	21.812
617.05	21.527
617.38	20.899
617.71	22.328
618.04	22.546
618.37	22.513
618.70	22.286
619.03	21.490
619.36	23.178
619.69	22.823
620.03	23.483
620.36	22.286
620.69	23.116
621.02	23.370
621.35	22.206
621.68	22.493
622.01	24.133
622.34	24.035
622.67	23.174
623.00	22.532
623.33	23.347
623.66	22.222
623.99	23.151
624.32	23.103
624.65	21.791
624.99	22.989
625.32	23.313
625.65	22.828
625.98	22.594
626.31	23.665
626.64	22.931
626.97	23.948
627.30	24.068
627.63	24.254
627.96	24.022
628.29	24.010
628.62	23.781
628.95	24.379
629.28	26.643
629.61	23.726
629.94	24.201
630.26	24.177
630.59	26.064
630.92	23.677
631.25	25.023
631.58	26.037
631.91	24.738
632.24	23.615
632.57	25.540
632.90	27.329
633.23	27.177
633.56	26.765
633.89	26.474
634.22	27.557
634.55	26.022
634.88	26.616
635.20	26.009
635.53	26.829
635.86	26.846
636.19	27.048
636.52	25.730
636.85	24.811
637.18	26.761
637.51	24.693
637.83	25.286
638.16	26.846
638.49	25.030
638.82	28.756
639.15	25.029
639.48	27.133
639.81	26.862
640.13	28.466
640.46	26.296
640.79	26.528
641.12	24.803
641.45	27.038
641.77	27.213
642.10	26.104
642.43	26.600
642.76	25.994
643.09	26.945
643.41	26.648
643.74	27.626
644.07	27.729
644.40	27.959
644.73	30.030
645.05	28.975
645.38	29.709
645.71	28.832
646.04	29.008
646.36	28.482
646.69	28.000
647.02	29.120
647.35	28.976
647.67	30.146
648.00	28.013
648.33	26.917
648.66	27.727
648.98	26.957
649.31	24.561
649.64	24.758
649.96	26.031
650.29	26.571
650.62	27.982
650.94	28.464
651.27	29.984
651.60	29.264
651.92	28.879
652.25	29.764
652.58	27.660
652.90	27.695
653.23	27.474
653.56	28.783
653.88	26.872
654.21	27.419
654.54	25.769
654.86	27.581
655.19	26.517
655.52	21.550
655.84	15.248
656.17	17.177
656.49	24.737
656.82	28.405
657.15	22.593
657.47	17.009
657.80	12.782
658.13	10.221
658.45	13.824
658.78	16.983
659.10	17.715
659.43	18.334
659.75	19.018
660.08	21.303
660.41	23.593
660.73	25.972
661.06	25.976
661.38	29.983
661.71	29.676
662.03	28.897
662.36	28.381
662.68	29.795
663.01	29.730
663.33	27.736
663.66	27.416
663.98	27.381
664.31	30.597
664.63	31.418
664.96	30.394
665.28	26.742
665.61	27.170
665.93	29.245
666.26	28.037
666.58	30.642
666.91	28.571
667.23	29.518
667.56	32.033
667.88	30.705
668.21	28.689
668.53	29.435
668.86	31.263
669.18	28.921
669.50	27.479
669.83	30.390
670.15	29.938
670.48	29.297
670.80	30.677
671.13	30.279
671.45	32.465
671.77	30.983
672.10	30.341
672.42	25.493
672.75	25.316
673.07	27.186
673.39	24.281
673.72	26.298
674.04	28.853
674.37	28.675
674.69	29.182
675.01	28.358
675.34	25.969
675.66	29.492
675.98	26.430
676.31	29.400
676.63	28.628
676.95	29.563
677.28	28.803
677.60	28.974
677.92	26.984
678.25	30.620
678.57	28.305
678.89	28.210
679.22	27.022
679.54	27.580
679.86	28.447
680.18	27.768
680.51	25.705
680.83	24.324
681.15	27.903
681.48	27.431
681.80	28.546
682.12	28.720
682.44	25.766
682.77	28.114
683.09	26.990
683.41	29.592
683.73	28.937
684.06	27.183
684.38	27.519
684.70	25.000
685.02	26.042
685.34	27.113
685.67	27.170
685.99	24.138
686.31	25.578
686.63	25.203
686.96	25.327
687.28	24.832
687.60	25.939
687.92	24.623
688.24	27.759
688.56	27.580
688.89	25.621
689.21	27.746
689.53	29.644
689.85	25.813
690.17	25.631
690.49	26.815
690.82	28.782
691.14	26.667
691.46	30.390
691.78	26.121
692.10	26.145
692.42	25.771
692.74	26.938
693.06	27.713
693.39	26.877
693.71	25.933
694.03	26.627
694.35	30.321
694.67	29.124
694.99	25.942
695.31	28.378
695.63	28.507
695.95	28.281
696.27	27.434
696.59	26.730
696.91	27.089
697.23	30.317
697.56	27.178
697.88	25.948
698.20	26.415
698.52	22.374
698.84	24.846
699.16	30.917
699.48	29.661
699.80	28.758
700.12	26.097
700.44	30.374
700.76	31.504
701.08	26.893
701.40	30.909
701.72	34.225
702.04	31.707
702.36	32.258
702.68	29.787
703.00	25.564
703.32	28.536
703.64	29.723
703.96	28.646
704.28	30.952
704.60	28.451
704.91	31.092
705.23	30.966
705.55	28.783
705.87	31.429
706.19	33.229
706.51	37.931
706.83	31.563
707.15	31.818
707.47	28.329
707.79	28.046
708.11	26.757
708.43	27.416
708.74	26.018
709.06	26.744
709.38	31.017
709.70	28.883
710.02	28.533
710.34	30.663
710.66	31.667
710.98	29.781
711.29	27.577
711.61	30.641
711.93	31.003
712.25	29.518
712.57	31.833
712.89	34.242
713.20	31.949
713.52	31.464
713.84	34.139
714.16	27.826
714.48	26.513
714.80	31.707
715.11	25.798
715.43	26.816
715.75	28.169
716.07	30.925
716.39	29.143
716.70	30.530
717.02	34.007
717.34	30.935
717.66	34.722
717.97	35.227
718.29	33.803
718.61	24.662
718.93	31.488
719.24	30.537
719.56	28.966
719.88	30.255
720.20	32.903
720.51	30.065
720.83	30.435
721.15	30.952
721.46	31.849
721.78	29.617
722.10	32.292
722.42	33.779
722.73	32.491
723.05	30.526
723.37	32.509
723.68	34.766
724.00	29.924
724.32	32.319
724.63	33.846
724.95	30.196
725.27	32.714
725.58	30.515
725.90	34.155
726.22	30.137
726.53	30.435
726.85	31.596
727.16	30.872
727.48	31.229
727.80	34.173
728.11	32.143
728.43	31.159
728.74	36.014
729.06	27.599
729.38	31.228
729.69	34.000
730.01	34.211
730.32	30.201
730.64	29.236
730.96	25.526
731.27	22.018
731.59	27.011
731.90	25.348
732.22	27.714
732.53	25.641
732.85	29.240
733.16	27.108
733.48	26.332
733.80	25.797
734.11	30.061
734.43	28.070
734.74	27.078
735.06	25.397
735.37	23.454
735.69	23.478
736.00	30.581
736.32	24.545
736.63	23.028
736.95	27.329
737.26	29.573
737.58	28.528
737.89	28.012
738.21	27.483
738.52	28.428
738.83	36.630
739.15	29.965
739.46	27.241
739.78	29.932
740.09	30.029
740.41	27.301
740.72	29.524
741.04	29.021
741.35	31.641
741.66	32.411
741.98	35.193
742.29	33.796
742.61	31.858
742.92	26.695
743.23	32.000
743.55	27.547
743.86	30.588
744.18	33.051
744.49	32.645
744.80	33.180
745.12	35.714
745.43	40.187
745.74	36.889
746.06	32.018
746.37	35.349
746.68	33.186
747.00	34.081
747.31	36.555
747.62	32.787
747.94	30.472
748.25	28.405
748.56	32.203
748.88	36.161
749.19	35.814
749.50	31.050
749.82	32.099
750.13	31.621
750.44	27.667
750.75	33.557
751.07	30.921
751.38	30.033
751.69	29.293
752.01	29.720
752.32	29.568
752.63	32.550
752.94	29.021
753.26	35.938
753.57	30.350
753.88	27.341
754.19	34.657
754.51	28.904
754.82	24.161
755.13	30.405
755.44	30.741
755.75	29.210
756.07	30.137
756.38	26.144
756.69	25.938
757.00	27.003
757.31	29.014
757.63	25.620
757.94	23.936
758.25	26.087
758.56	21.968
758.87	24.060
759.18	27.326
759.50	22.492
759.81	27.003
760.12	27.528
760.43	26.331
760.74	24.810
761.05	25.199
761.36	24.219
761.67	25.067
761.99	25.634
762.30	23.794
762.61	26.736
762.92	27.273
763.23	29.434
763.54	27.692
763.85	25.681
764.16	31.250
764.47	30.743
764.78	22.801
765.10	27.439
765.41	22.727
765.72	24.309
766.03	25.982
766.34	27.178
766.65	30.038
766.96	27.935
767.27	35.514
767.58	36.634
767.89	40.884
768.20	35.366
768.51	34.184
768.82	26.754
769.13	29.804
769.44	30.075
769.75	27.341
770.06	28.571
770.37	30.702
770.68	28.000
770.99	28.814
771.30	29.707
771.61	30.385
771.92	24.046
772.23	27.823
772.54	32.444
772.85	34.653
773.16	32.609
773.47	32.222
773.78	27.723
774.09	32.386
774.39	35.758
774.70	35.882
775.01	34.211
775.32	34.783
775.63	40.411
775.94	46.914
776.25	42.069
776.56	43.511
776.87	49.618
777.18	37.879
777.48	46.457
777.79	42.308
778.10	50.000
778.41	44.030
778.72	43.609
779.03	40.385
779.34	34.459
779.65	34.783
779.95	36.025
780.26	37.500
780.57	45.578
780.88	39.716
781.19	43.333
781.50	38.462
781.80	34.973
782.11	34.921
782.42	35.057
782.73	37.853
783.04	38.065
783.34	37.209
783.65	40.816
783.96	40.000
784.27	35.099
784.57	38.158
784.88	40.580
785.19	43.333
785.50	47.414
785.81	47.287
786.11	42.222
786.42	41.732
786.73	40.541
787.04	42.453
787.34	39.024
787.65	41.667
787.96	49.242
788.26	40.945
788.57	45.255
788.88	45.070
789.19	48.855
789.49	41.892
789.80	42.969
790.11	38.017
790.41	44.444
790.72	38.889
791.03	52.885
791.33	60.606
791.64	56.842
791.95	47.368
792.25	47.917
792.56	45.000
792.87	48.780
793.17	50.000
793.48	45.882
793.79	45.977
794.09	46.591
794.40	53.448
794.70	43.651
795.01	43.077
795.32	38.168
795.62	33.333
795.93	51.261
796.23	48.780
796.54	45.918
796.85	44.318
797.15	63.636
797.46	59.756
797.76	53.750
798.07	66.667
798.37	57.500
798.68	55.000
798.99	59.756
799.29	53.333
799.60	38.372
799.90	63.158
800.21	63.636
800.51	54.930
800.82	62.069
801.12	64.615
801.43	65.333
801.73	56.897
802.04	64.935
802.34	60.274
802.65	66.667
802.95	78.261
803.26	70.968
803.56	71.667
803.87	64.179
804.17	88.889
804.48	54.717
804.78	70.833
805.09	69.697
805.39	60.317
805.70	64.912
806.00	70.000
806.30	75.000
806.61	65.882
806.91	57.778
807.22	57.609
807.52	46.053
807.83	59.211
808.13	60.870
808.43	80.645
808.74	69.863
809.04	58.929
809.35	75.000
809.65	60.606
809.95	86.275
810.26	105.556
810.56	81.250
810.86	77.551
811.17	70.175
811.47	86.957
811.77	63.793
812.08	82.759
812.38	88.095
812.69	88.095
812.99	75.556
813.29	82.857
813.59	119.355
813.90	63.793
814.20	88.525
814.50	66.000
814.81	59.649
815.11	77.778
815.41	75.000
815.72	91.071
816.02	92.000
816.32	78.049
816.62	86.207
816.93	133.333
817.23	92.683
817.53	67.857
817.84	71.111
818.14	100.000
818.44	89.583
818.74	79.245
819.04	61.538
819.35	109.091
819.65	94.231
819.95	105.556
820.25	102.128
820.56	89.189
820.86	126.316
821.16	82.979
821.46	81.579
821.76	78.182
822.07	85.714
822.37	100.000
822.67	106.977
822.97	89.474
823.27	84.783
823.57	118.750
823.88	82.051
824.18	103.030
824.48	152.174
824.78	113.889
825.08	160.870
825.38	120.690
825.69	111.765
825.99	82.979
826.29	66.667
826.59	105.714
826.89	120.000
827.19	74.286
827.49	122.581
827.79	126.923
828.09	88.095
828.39	97.222
828.70	64.865
829.00	139.286
829.30	131.250
829.60	88.889
829.90	122.581
830.20	69.697
830.50	102.703
830.80	166.667
831.10	153.846
831.40	176.190
831.70	154.167
832.00	100.000
832.30	139.130
832.60	145.833
832.90	148.485
833.20	155.000
833.50	113.158
833.80	97.059
834.10	102.632
834.40	157.895
834.70	103.333
835.00	132.000
835.30	105.405
835.60	143.750
835.90	129.730
836.20	126.923
836.50	145.455
836.80	95.122
837.10	130.435
837.40	300.000
837.70	100.000
838.00	116.667
838.30	137.500
838.60	140.000
838.90	280.000
839.19	187.500
839.49	113.333
839.79	117.241
840.09	130.769
840.39	233.333
840.69	194.737
840.99	114.286
841.29	152.174
841.59	155.000
841.88	156.000
842.18	211.111
842.48	132.143
842.78	177.778
843.08	230.769
843.38	190.909
843.68	250.000
843.97	385.714
844.27	143.478
844.57	1200.000
844.87	278.571
845.17	216.667
845.47	119.048
845.76	183.333
846.06	428.571
846.36	141.176
846.66	261.538
846.96	212.500
847.25	261.538
847.55	173.684
847.85	161.111
848.15	460.000
848.44	300.000
848.74	114.286
849.04	187.500
849.34	158.824
849.63	250.000
849.93	193.750
850.23	800.000
850.53	237.500
850.82	254.545
851.12	188.235
851.42	175.000
851.71	225.000
852.01	0.000
852.31	135.294
852.61	400.000
852.90	125.000
853.20	322.222
853.50	-2400.000
853.79	152.000
854.09	131.250
854.39	120.690
854.68	151.724
854.98	166.667
855.28	145.161
855.57	250.000
855.87	144.444
856.17	144.444
856.46	136.842
856.76	138.710
857.05	229.412
857.35	200.000
857.65	238.462
857.94	175.000
858.24	311.111
858.53	242.857
858.83	514.286
859.13	169.565
859.42	333.333
859.72	275.000
860.01	175.000
860.31	875.000
860.60	290.000
860.90	425.000
861.20	230.769
861.49	457.143
861.79	-3000.000
862.08	442.857
862.38	300.000
862.67	285.714
862.97	410.000
863.26	130.000
863.56	900.000
863.85	307.692
864.15	270.588
864.44	161.111
864.74	375.000
865.03	418.182
865.33	362.500
865.62	280.000
865.92	533.333
866.21	675.000
866.51	660.000
866.80	227.778
867.10	1133.333
867.39	3800.000
867.69	660.000
867.98	625.000
868.27	166.667
868.57	226.667
868.86	600.000
869.16	133.333
869.45	3200.000
869.75	-366.667
870.04	575.000
870.33	660.000
870.63	337.500
870.92	211.765
871.22	925.000
871.51	400.000
871.80	266.667
872.10	315.385
>>>>>End Processed Spectral Data<<<<<
