SpectraSuite Data File
++++++++++++++++++++++++++++++++++++
Date: Tue May 12 17:08:06 PDT 2015
User: schluterlab
Dark Spectrum Present: Yes
Reference Spectrum Present: Yes
Number of Sampled Component Spectra: 1
Spectrometers: USB2E3373
Integration Time (usec): 3000 (USB2E3373)
Spectra Averaged: 3 (USB2E3373)
Boxcar Smoothing: 0 (USB2E3373)
Correct for Electrical Dark: No (USB2E3373)
Strobe/Lamp Enabled: No (USB2E3373)
Correct for Detector Non-linearity: No (USB2E3373)
Correct for Stray Light: No (USB2E3373)
Number of Pixels in Processed Spectrum: 2048
>>>>>Begin Processed Spectral Data<<<<<
178.53	0.000
178.91	-266.667
179.29	-975.000
179.67	-3300.000
180.04	-186.667
180.42	625.000
180.80	1650.000
181.18	0.000
181.56	-287.500
181.94	0.000
182.31	1166.667
182.69	-3100.000
183.07	542.857
183.45	-4200.000
183.83	-1350.000
184.20	310.000
184.58	500.000
184.96	-184.615
185.34	-208.333
185.72	1750.000
186.09	-800.000
186.47	-3400.000
186.85	1033.333
187.23	720.000
187.61	2000.000
187.98	462.500
188.36	235.714
188.74	325.000
189.12	358.333
189.49	950.000
189.87	0.000
190.25	412.500
190.63	2700.000
191.00	-225.000
191.38	-2400.000
191.76	-650.000
192.14	587.500
192.51	-2800.000
192.89	1500.000
193.27	733.333
193.65	-900.000
194.02	-780.000
194.40	600.000
194.78	-214.286
195.15	286.667
195.53	-2700.000
195.91	-880.000
196.29	4600.000
196.66	162.500
197.04	750.000
197.42	-1200.000
197.79	625.000
198.17	316.667
198.55	0.000
198.92	585.714
199.30	1266.667
199.68	2100.000
200.05	500.000
200.43	-433.333
200.81	244.444
201.18	3100.000
201.56	283.333
201.94	-700.000
202.31	-437.500
202.69	-440.000
203.07	2300.000
203.44	-416.667
203.82	358.333
204.19	700.000
204.57	-1400.000
204.95	-725.000
205.32	-820.000
205.70	533.333
206.08	925.000
206.45	-966.667
206.83	444.444
207.20	215.789
207.58	275.000
207.96	560.000
208.33	0.000
208.71	571.429
209.08	580.000
209.46	-2600.000
209.84	-725.000
210.21	700.000
210.59	-520.000
210.96	325.000
211.34	-975.000
211.71	345.455
212.09	850.000
212.46	1500.000
212.84	-516.667
213.22	288.889
213.59	-3100.000
213.97	290.000
214.34	775.000
214.72	1300.000
215.09	1000.000
215.47	-2700.000
215.84	-430.000
216.22	-412.500
216.59	0.000
216.97	0.000
217.34	1500.000
217.72	-1350.000
218.09	1466.667
218.47	400.000
218.84	800.000
219.22	966.667
219.59	700.000
219.97	557.143
220.34	444.444
220.72	1250.000
221.09	2700.000
221.47	300.000
221.84	966.667
222.22	410.000
222.59	322.222
222.97	257.143
223.34	193.750
223.72	-1600.000
224.09	1133.333
224.46	307.692
224.84	-675.000
225.21	244.444
225.59	286.667
225.96	1400.000
226.34	-620.000
226.71	-625.000
227.08	-600.000
227.46	0.000
227.83	-500.000
228.21	-1350.000
228.58	416.667
228.95	975.000
229.33	388.889
229.70	800.000
230.08	338.462
230.45	3300.000
230.82	-950.000
231.20	-733.333
231.57	-700.000
231.95	580.000
232.32	283.333
232.69	700.000
233.07	241.667
233.44	-1550.000
233.81	233.333
234.19	148.148
234.56	168.750
234.93	176.471
235.31	195.000
235.68	250.000
236.05	146.429
236.43	166.667
236.80	250.000
237.17	120.690
237.55	131.250
237.92	110.000
238.29	109.091
238.67	90.625
239.04	92.683
239.41	66.667
239.79	77.500
240.16	83.333
240.53	54.098
240.91	69.565
241.28	71.186
241.65	39.394
242.02	64.789
242.40	70.000
242.77	49.451
243.14	48.101
243.51	50.505
243.89	39.252
244.26	41.121
244.63	47.525
245.00	38.532
245.38	35.593
245.75	38.636
246.12	37.778
246.49	28.369
246.87	27.049
247.24	38.000
247.61	34.375
247.98	37.415
248.36	26.667
248.73	31.122
249.10	26.190
249.47	33.500
249.84	21.891
250.22	27.568
250.59	24.500
250.96	27.004
251.33	26.047
251.70	28.125
252.08	30.672
252.45	25.498
252.82	25.095
253.19	22.925
253.56	23.462
253.94	23.551
254.31	22.481
254.68	26.481
255.05	26.207
255.42	24.453
255.79	25.081
256.16	21.695
256.54	24.351
256.91	22.876
257.28	22.074
257.65	19.749
258.02	22.124
258.39	21.777
258.76	20.870
259.14	21.714
259.51	19.534
259.88	20.365
260.25	17.582
260.62	22.466
260.99	17.080
261.36	18.106
261.73	18.883
262.10	20.942
262.47	17.500
262.85	17.333
263.22	19.023
263.59	20.205
263.96	19.799
264.33	17.037
264.70	17.936
265.07	17.317
265.44	17.202
265.81	16.981
266.18	18.993
266.55	18.676
266.92	17.002
267.29	18.421
267.66	17.040
268.03	17.489
268.40	18.393
268.77	17.621
269.14	16.269
269.51	17.817
269.88	18.776
270.25	14.039
270.62	17.811
270.99	17.444
271.36	18.293
271.73	16.143
272.10	17.374
272.47	13.889
272.84	14.571
273.21	16.322
273.58	18.219
273.95	15.195
274.32	17.315
274.69	17.126
275.06	17.668
275.43	16.667
275.80	14.906
276.17	17.831
276.54	16.449
276.91	17.351
277.28	16.058
277.65	14.760
278.02	13.787
278.39	16.727
278.76	15.172
279.13	13.879
279.50	18.364
279.87	15.642
280.23	14.365
280.60	15.693
280.97	14.828
281.34	14.686
281.71	15.826
282.08	15.897
282.45	15.203
282.82	15.385
283.19	15.262
283.56	15.041
283.92	16.612
284.29	14.975
284.66	13.950
285.03	15.423
285.40	13.719
285.77	15.895
286.14	16.254
286.51	15.644
286.87	14.082
287.24	13.814
287.61	14.742
287.98	15.821
288.35	14.963
288.72	14.112
289.08	13.814
289.45	16.768
289.82	16.875
290.19	14.641
290.56	15.429
290.93	14.245
291.29	14.779
291.66	14.972
292.03	14.586
292.40	15.583
292.77	14.624
293.13	16.120
293.50	14.710
293.87	13.686
294.24	15.804
294.60	14.805
294.97	14.685
295.34	15.007
295.71	14.980
296.08	14.800
296.44	15.629
296.81	14.516
297.18	13.435
297.55	14.655
297.91	14.532
298.28	15.459
298.65	16.074
299.02	14.837
299.38	14.868
299.75	13.902
300.12	14.908
300.48	15.457
300.85	14.422
301.22	16.047
301.59	13.679
301.95	13.886
302.32	13.853
302.69	15.611
303.05	15.713
303.42	13.341
303.79	16.035
304.15	15.182
304.52	14.799
304.89	15.885
305.25	14.572
305.62	15.352
305.99	14.457
306.35	14.000
306.72	15.505
307.09	14.700
307.45	15.206
307.82	14.918
308.19	15.155
308.55	16.000
308.92	15.800
309.29	16.174
309.65	15.362
310.02	16.024
310.38	14.457
310.75	14.079
311.12	15.134
311.48	15.830
311.85	16.126
312.22	15.855
312.58	16.229
312.95	16.699
313.31	16.479
313.68	15.291
314.05	17.033
314.41	14.898
314.78	16.288
315.14	16.777
315.51	17.313
315.87	16.880
316.24	16.527
316.61	16.652
316.97	16.055
317.34	17.969
317.70	17.471
318.07	17.972
318.43	17.663
318.80	17.776
319.16	17.745
319.53	17.788
319.89	17.563
320.26	19.088
320.62	18.040
320.99	18.494
321.35	18.831
321.72	18.975
322.08	19.575
322.45	18.892
322.81	18.207
323.18	19.716
323.54	19.948
323.91	20.127
324.27	19.187
324.64	19.723
325.00	19.914
325.37	19.983
325.73	20.658
326.10	21.872
326.46	21.635
326.83	20.000
327.19	21.928
327.56	21.406
327.92	20.656
328.29	21.440
328.65	23.202
329.01	22.070
329.38	21.997
329.74	22.374
330.11	22.328
330.47	22.421
330.84	21.484
331.20	22.673
331.56	22.798
331.93	23.439
332.29	21.429
332.66	22.704
333.02	21.649
333.38	22.251
333.75	22.769
334.11	22.987
334.48	23.248
334.84	21.453
335.20	22.583
335.57	21.411
335.93	21.194
336.29	22.139
336.66	23.928
337.02	20.787
337.38	22.356
337.75	22.804
338.11	22.363
338.47	22.693
338.84	22.185
339.20	22.078
339.56	22.708
339.93	22.408
340.29	21.933
340.65	23.135
341.02	22.607
341.38	22.906
341.74	21.595
342.11	21.703
342.47	22.231
342.83	22.477
343.20	23.201
343.56	22.002
343.92	21.552
344.28	21.930
344.65	22.983
345.01	22.063
345.37	21.234
345.73	21.825
346.10	22.470
346.46	22.648
346.82	21.682
347.19	22.798
347.55	21.390
347.91	22.205
348.27	22.386
348.63	21.440
349.00	22.620
349.36	22.646
349.72	21.942
350.08	23.059
350.45	21.782
350.81	22.936
351.17	21.957
351.53	22.633
351.89	21.989
352.26	22.676
352.62	21.644
352.98	21.856
353.34	22.881
353.70	21.560
354.07	22.769
354.43	21.813
354.79	22.096
355.15	22.282
355.51	21.601
355.87	21.913
356.24	22.094
356.60	21.689
356.96	22.441
357.32	22.758
357.68	21.880
358.04	22.568
358.40	22.414
358.77	22.915
359.13	21.622
359.49	21.942
359.85	22.115
360.21	21.842
360.57	22.190
360.93	22.655
361.29	22.727
361.66	22.968
362.02	21.662
362.38	22.367
362.74	22.151
363.10	23.001
363.46	21.685
363.82	23.633
364.18	22.546
364.54	22.961
364.90	22.691
365.26	23.317
365.62	22.307
365.98	22.712
366.35	22.069
366.71	22.554
367.07	22.662
367.43	23.036
367.79	22.340
368.15	21.777
368.51	23.019
368.87	21.264
369.23	22.869
369.59	22.252
369.95	23.636
370.31	21.766
370.67	23.040
371.03	23.739
371.39	24.169
371.75	22.959
372.11	23.929
372.47	23.493
372.83	23.521
373.19	24.400
373.55	22.749
373.91	21.685
374.27	22.751
374.63	22.508
374.99	23.518
375.35	23.925
375.71	24.274
376.07	22.679
376.42	22.954
376.78	23.057
377.14	23.394
377.50	23.658
377.86	23.382
378.22	23.400
378.58	24.274
378.94	24.080
379.30	24.318
379.66	24.022
380.02	24.282
380.38	24.005
380.74	24.856
381.09	23.890
381.45	22.948
381.81	23.286
382.17	23.199
382.53	23.695
382.89	24.837
383.25	24.038
383.61	23.343
383.97	23.695
384.32	23.810
384.68	25.431
385.04	24.619
385.40	24.733
385.76	23.932
386.12	25.603
386.48	24.438
386.83	24.694
387.19	23.616
387.55	23.557
387.91	24.942
388.27	24.390
388.62	24.824
388.98	23.732
389.34	24.569
389.70	23.703
390.06	24.146
390.42	24.059
390.77	24.324
391.13	25.045
391.49	24.622
391.85	25.292
392.20	23.957
392.56	25.388
392.92	23.975
393.28	24.608
393.64	24.255
393.99	23.889
394.35	24.485
394.71	24.849
395.07	24.574
395.42	24.180
395.78	25.108
396.14	25.060
396.50	23.706
396.85	25.000
397.21	25.511
397.57	24.925
397.92	23.744
398.28	24.379
398.64	25.131
399.00	23.624
399.35	24.638
399.71	24.724
400.07	24.486
400.42	23.821
400.78	24.223
401.14	23.723
401.49	23.733
401.85	24.508
402.21	23.843
402.57	24.895
402.92	24.303
403.28	24.165
403.63	24.485
403.99	24.065
404.35	24.795
404.70	24.454
405.06	22.740
405.42	23.100
405.77	24.421
406.13	23.482
406.49	23.991
406.84	23.576
407.20	24.201
407.55	23.877
407.91	24.825
408.27	24.318
408.62	24.423
408.98	24.483
409.34	23.787
409.69	24.456
410.05	23.733
410.40	23.969
410.76	23.583
411.11	24.052
411.47	23.025
411.83	23.843
412.18	23.490
412.54	24.384
412.89	23.009
413.25	24.629
413.60	24.007
413.96	23.160
414.31	23.908
414.67	24.767
415.03	24.074
415.38	24.858
415.74	23.942
416.09	24.547
416.45	26.050
416.80	26.171
417.16	24.507
417.51	24.841
417.87	24.718
418.22	24.544
418.58	25.032
418.93	25.521
419.29	24.214
419.64	25.500
420.00	25.119
420.35	24.564
420.71	25.321
421.06	24.367
421.42	25.043
421.77	25.541
422.12	24.862
422.48	24.910
422.83	26.228
423.19	25.270
423.54	25.672
423.90	25.878
424.25	25.647
424.61	26.001
424.96	25.071
425.31	25.287
425.67	26.543
426.02	25.911
426.38	25.496
426.73	26.027
427.09	25.860
427.44	25.549
427.79	26.129
428.15	26.753
428.50	26.229
428.85	27.748
429.21	26.040
429.56	26.570
429.92	26.902
430.27	26.899
430.62	25.893
430.98	26.397
431.33	26.512
431.68	26.173
432.04	26.953
432.39	28.046
432.74	27.635
433.10	27.187
433.45	28.030
433.80	27.634
434.16	28.271
434.51	28.173
434.86	27.708
435.22	28.363
435.57	27.267
435.92	28.173
436.28	28.514
436.63	28.147
436.98	28.660
437.34	28.425
437.69	28.275
438.04	28.978
438.39	28.255
438.75	28.118
439.10	28.980
439.45	27.586
439.81	28.687
440.16	28.509
440.51	28.941
440.86	29.630
441.22	27.814
441.57	29.081
441.92	28.332
442.27	28.247
442.63	28.811
442.98	28.933
443.33	28.816
443.68	29.678
444.03	28.228
444.39	28.814
444.74	29.762
445.09	29.331
445.44	29.224
445.79	29.435
446.15	29.158
446.50	29.061
446.85	29.532
447.20	29.104
447.55	29.527
447.91	30.155
448.26	28.914
448.61	29.685
448.96	30.719
449.31	29.923
449.66	30.952
450.02	29.065
450.37	29.872
450.72	30.248
451.07	30.541
451.42	30.053
451.77	30.241
452.12	29.949
452.47	29.405
452.83	29.859
453.18	30.871
453.53	30.491
453.88	31.086
454.23	31.087
454.58	29.895
454.93	31.024
455.28	30.783
455.63	30.792
455.98	30.288
456.34	31.550
456.69	30.488
457.04	31.384
457.39	30.400
457.74	30.856
458.09	29.815
458.44	30.011
458.79	31.034
459.14	30.987
459.49	31.087
459.84	30.870
460.19	30.339
460.54	31.624
460.89	31.130
461.24	31.271
461.59	30.952
461.94	31.324
462.29	31.064
462.64	31.219
462.99	30.774
463.34	30.784
463.69	31.579
464.04	31.146
464.39	31.025
464.74	30.246
465.09	30.296
465.44	30.740
465.79	29.995
466.14	30.896
466.49	30.657
466.84	31.048
467.19	30.931
467.54	30.931
467.89	31.338
468.24	31.152
468.59	31.310
468.94	31.280
469.29	31.888
469.64	30.932
469.99	31.877
470.34	30.930
470.68	31.034
471.03	32.021
471.38	32.318
471.73	33.050
472.08	32.746
472.43	32.154
472.78	31.818
473.13	31.164
473.48	32.763
473.83	32.214
474.17	32.280
474.52	31.694
474.87	31.211
475.22	32.496
475.57	31.007
475.92	31.732
476.27	31.012
476.61	31.206
476.96	31.661
477.31	32.134
477.66	31.830
478.01	31.305
478.36	32.080
478.70	30.968
479.05	31.642
479.40	32.440
479.75	32.522
480.10	31.510
480.45	30.906
480.79	31.935
481.14	31.194
481.49	31.473
481.84	31.486
482.19	31.921
482.53	31.181
482.88	31.407
483.23	30.853
483.58	31.732
483.92	32.358
484.27	31.721
484.62	30.942
484.97	30.736
485.31	30.171
485.66	29.441
486.01	28.609
486.36	28.119
486.70	28.226
487.05	28.305
487.40	29.368
487.75	29.020
488.09	29.006
488.44	30.242
488.79	30.684
489.13	30.944
489.48	31.562
489.83	30.984
490.17	30.471
490.52	32.300
490.87	31.940
491.22	32.890
491.56	32.411
491.91	32.303
492.26	32.294
492.60	32.483
492.95	31.672
493.30	31.847
493.64	32.570
493.99	31.440
494.34	31.869
494.68	32.094
495.03	32.510
495.37	32.508
495.72	32.494
496.07	32.345
496.41	32.276
496.76	31.659
497.11	32.605
497.45	32.091
497.80	32.437
498.14	32.686
498.49	32.916
498.84	32.290
499.18	32.038
499.53	32.981
499.87	32.255
500.22	33.395
500.56	32.126
500.91	32.699
501.26	32.292
501.60	32.013
501.95	32.841
502.29	33.067
502.64	31.187
502.98	32.237
503.33	33.007
503.67	32.053
504.02	32.333
504.36	32.941
504.71	32.829
505.06	34.022
505.40	33.552
505.75	32.928
506.09	33.084
506.44	33.506
506.78	33.932
507.13	33.059
507.47	32.606
507.82	33.479
508.16	33.660
508.51	32.705
508.85	33.476
509.19	33.186
509.54	32.568
509.88	33.267
510.23	32.990
510.57	32.819
510.92	33.966
511.26	33.484
511.61	33.580
511.95	33.201
512.30	33.500
512.64	33.074
512.98	33.214
513.33	33.914
513.67	33.351
514.02	33.870
514.36	33.541
514.70	33.973
515.05	34.044
515.39	34.759
515.74	34.281
516.08	35.240
516.42	35.738
516.77	33.920
517.11	34.827
517.46	34.159
517.80	34.899
518.14	35.831
518.49	33.848
518.83	34.121
519.17	35.219
519.52	34.899
519.86	34.823
520.20	35.397
520.55	35.218
520.89	35.517
521.23	36.624
521.58	34.366
521.92	35.510
522.26	35.664
522.61	35.948
522.95	37.177
523.29	35.673
523.64	35.491
523.98	35.622
524.32	35.294
524.66	35.652
525.01	35.148
525.35	35.415
525.69	36.484
526.04	36.645
526.38	35.962
526.72	35.263
527.06	35.837
527.41	36.215
527.75	35.606
528.09	35.280
528.43	35.204
528.78	36.017
529.12	37.146
529.46	35.301
529.80	35.981
530.15	35.887
530.49	35.379
530.83	35.344
531.17	36.408
531.51	35.745
531.86	35.386
532.20	35.229
532.54	36.158
532.88	35.915
533.22	35.954
533.57	36.730
533.91	34.674
534.25	33.930
534.59	35.497
534.93	34.869
535.27	34.092
535.62	34.539
535.96	34.279
536.30	36.197
536.64	34.783
536.98	35.368
537.32	35.500
537.66	34.503
538.01	34.923
538.35	34.810
538.69	34.466
539.03	34.888
539.37	35.012
539.71	33.642
540.05	34.769
540.39	35.786
540.73	35.316
541.07	34.504
541.42	35.634
541.76	34.772
542.10	34.525
542.44	35.474
542.78	35.053
543.12	34.417
543.46	34.524
543.80	35.589
544.14	35.418
544.48	34.550
544.82	34.312
545.16	34.244
545.50	34.726
545.84	33.649
546.18	35.696
546.52	35.541
546.86	35.525
547.20	35.465
547.54	34.769
547.88	35.158
548.22	34.730
548.56	34.590
548.90	34.520
549.24	34.934
549.58	34.601
549.92	35.298
550.26	35.024
550.60	35.196
550.94	36.296
551.28	35.931
551.62	36.000
551.96	35.878
552.30	35.069
552.64	35.275
552.98	34.343
553.32	34.827
553.66	35.505
554.00	35.907
554.34	37.284
554.68	35.349
555.02	36.320
555.36	35.505
555.69	34.620
556.03	34.331
556.37	35.373
556.71	36.441
557.05	35.256
557.39	35.333
557.73	36.388
558.07	36.419
558.41	35.230
558.75	35.773
559.08	36.741
559.42	35.934
559.76	36.422
560.10	35.650
560.44	36.231
560.78	35.934
561.12	35.855
561.45	35.044
561.79	35.206
562.13	34.618
562.47	35.691
562.81	35.068
563.15	35.553
563.48	33.851
563.82	34.747
564.16	34.328
564.50	34.659
564.84	34.650
565.17	33.987
565.51	35.222
565.85	35.163
566.19	34.702
566.52	35.018
566.86	35.085
567.20	34.213
567.54	33.352
567.88	33.490
568.21	32.701
568.55	32.588
568.89	32.162
569.23	32.097
569.56	32.268
569.90	30.758
570.24	30.733
570.57	30.500
570.91	29.860
571.25	29.004
571.59	29.047
571.92	29.090
572.26	29.164
572.60	28.631
572.93	29.155
573.27	29.179
573.61	28.695
573.95	28.611
574.28	28.478
574.62	28.249
574.96	27.690
575.29	27.598
575.63	27.892
575.97	27.580
576.30	27.639
576.64	28.290
576.98	28.094
577.31	28.130
577.65	27.489
577.98	26.958
578.32	26.826
578.66	27.411
578.99	27.984
579.33	27.537
579.67	27.856
580.00	27.150
580.34	27.604
580.67	27.427
581.01	27.913
581.35	27.390
581.68	27.197
582.02	27.192
582.35	26.987
582.69	27.581
583.02	27.314
583.36	27.673
583.70	27.969
584.03	28.884
584.37	28.041
584.70	28.241
585.04	27.576
585.37	27.412
585.71	27.551
586.04	27.787
586.38	28.274
586.72	28.623
587.05	28.847
587.39	28.799
587.72	28.495
588.06	28.284
588.39	28.019
588.73	28.575
589.06	29.180
589.40	28.764
589.73	29.367
590.07	30.371
590.40	30.976
590.73	29.967
591.07	30.892
591.40	30.659
591.74	30.804
592.07	29.950
592.41	30.496
592.74	29.843
593.08	29.069
593.41	28.217
593.75	28.843
594.08	29.473
594.41	29.782
594.75	29.897
595.08	30.041
595.42	30.086
595.75	29.714
596.09	30.136
596.42	29.862
596.75	30.849
597.09	30.871
597.42	29.878
597.75	30.588
598.09	30.283
598.42	29.621
598.76	30.378
599.09	30.232
599.42	30.138
599.76	29.545
600.09	28.678
600.42	29.351
600.76	29.606
601.09	29.997
601.42	29.602
601.76	28.965
602.09	30.132
602.42	29.945
602.76	30.019
603.09	30.505
603.42	30.202
603.76	29.863
604.09	29.786
604.42	30.584
604.76	30.304
605.09	30.122
605.42	30.516
605.75	30.004
606.09	29.686
606.42	30.515
606.75	30.043
607.09	29.175
607.42	29.851
607.75	29.777
608.08	29.773
608.42	30.872
608.75	30.252
609.08	29.916
609.41	30.909
609.75	31.410
610.08	31.025
610.41	30.830
610.74	30.909
611.07	31.287
611.41	31.511
611.74	31.262
612.07	31.118
612.40	32.212
612.73	32.002
613.07	31.678
613.40	32.331
613.73	31.503
614.06	31.300
614.39	32.374
614.72	31.040
615.06	30.415
615.39	30.891
615.72	30.203
616.05	32.396
616.38	32.065
616.71	32.393
617.05	32.180
617.38	32.191
617.71	32.283
618.04	31.744
618.37	31.795
618.70	32.217
619.03	32.967
619.36	34.171
619.69	33.509
620.03	35.225
620.36	33.462
620.69	35.057
621.02	35.734
621.35	33.596
621.68	34.661
622.01	35.572
622.34	34.013
622.67	34.199
623.00	34.309
623.33	33.941
623.66	33.733
623.99	34.110
624.32	34.350
624.65	33.706
624.99	34.821
625.32	34.335
625.65	33.310
625.98	34.100
626.31	34.644
626.64	33.789
626.97	34.353
627.30	35.481
627.63	35.400
627.96	35.915
628.29	36.799
628.62	35.586
628.95	37.943
629.28	37.686
629.61	36.380
629.94	36.906
630.26	36.482
630.59	37.057
630.92	36.413
631.25	35.721
631.58	40.019
631.91	38.440
632.24	39.067
632.57	36.837
632.90	39.441
633.23	38.405
633.56	39.621
633.89	39.871
634.22	39.720
634.55	38.817
634.88	40.416
635.20	38.453
635.53	41.696
635.86	40.492
636.19	40.180
636.52	38.270
636.85	38.727
637.18	38.570
637.51	38.659
637.83	39.130
638.16	40.914
638.49	40.359
638.82	39.085
639.15	39.365
639.48	42.299
639.81	40.781
640.13	39.755
640.46	39.697
640.79	41.222
641.12	42.257
641.45	42.691
641.77	41.215
642.10	40.964
642.43	42.817
642.76	41.761
643.09	42.651
643.41	42.076
643.74	42.302
644.07	43.363
644.40	42.160
644.73	43.243
645.05	45.319
645.38	43.032
645.71	41.730
646.04	44.885
646.36	44.914
646.69	43.520
647.02	43.520
647.35	42.835
647.67	43.112
648.00	45.928
648.33	42.556
648.66	43.030
648.98	42.029
649.31	37.787
649.64	38.589
649.96	38.549
650.29	39.286
650.62	43.004
650.94	42.018
651.27	43.541
651.60	43.036
651.92	41.475
652.25	45.354
652.58	41.560
652.90	41.018
653.23	41.654
653.56	40.950
653.88	41.850
654.21	40.323
654.54	41.581
654.86	40.413
655.19	39.578
655.52	31.601
655.84	23.057
656.17	26.538
656.49	37.593
656.82	42.875
657.15	34.530
657.47	26.086
657.80	19.572
658.13	15.447
658.45	20.702
658.78	25.475
659.10	25.691
659.43	27.012
659.75	28.659
660.08	31.328
660.41	33.575
660.73	39.900
661.06	41.592
661.38	43.441
661.71	44.424
662.03	43.156
662.36	44.762
662.68	45.438
663.01	43.784
663.33	44.906
663.66	46.154
663.98	45.040
664.31	44.030
664.63	47.318
664.96	45.216
665.28	44.256
665.61	41.698
665.93	45.849
666.26	44.299
666.58	44.954
666.91	44.595
667.23	42.771
667.56	45.585
667.88	48.548
668.21	45.287
668.53	47.177
668.86	45.491
669.18	43.788
669.50	45.868
669.83	44.764
670.15	43.451
670.48	44.922
670.80	44.223
671.13	43.028
671.45	45.090
671.77	44.156
672.10	43.447
672.42	38.651
672.75	41.930
673.07	41.653
673.39	40.895
673.72	41.522
674.04	41.935
674.37	40.835
674.69	41.636
675.01	41.978
675.34	41.473
675.66	44.141
675.98	43.195
676.31	42.200
676.63	42.744
676.95	42.857
677.28	42.394
677.60	42.455
677.92	43.254
678.25	44.574
678.57	46.182
678.89	40.868
679.22	40.993
679.54	40.569
679.86	39.267
680.18	40.598
680.51	37.313
680.83	40.372
681.15	42.288
681.48	42.361
681.80	39.580
682.12	42.042
682.44	39.279
682.77	41.993
683.09	41.553
683.41	42.653
683.73	42.717
684.06	43.452
684.38	42.054
684.70	41.007
685.02	39.410
685.34	40.493
685.67	40.193
685.99	40.722
686.31	39.137
686.63	40.000
686.96	40.196
687.28	37.752
687.60	40.273
687.92	39.028
688.24	41.207
688.56	41.281
688.89	39.579
689.21	40.462
689.53	42.490
689.85	41.057
690.17	41.165
690.49	44.153
690.82	39.496
691.14	42.424
691.46	42.916
691.78	40.741
692.10	40.649
692.42	36.842
692.74	41.667
693.06	39.922
693.39	40.711
693.71	38.310
694.03	42.209
694.35	44.177
694.67	39.715
694.99	42.794
695.31	40.766
695.63	43.439
695.95	41.855
696.27	46.239
696.59	42.482
696.91	42.532
697.23	43.213
697.56	37.759
697.88	36.727
698.20	41.132
698.52	38.521
698.84	41.478
699.16	42.644
699.48	40.042
699.80	42.484
700.12	44.342
700.44	46.262
700.76	44.391
701.08	45.953
701.40	44.675
701.72	50.267
702.04	48.509
702.36	44.355
702.68	46.277
703.00	41.855
703.32	44.665
703.64	39.043
703.96	42.448
704.28	47.090
704.60	44.507
704.91	47.059
705.23	45.739
705.55	45.697
705.87	48.571
706.19	49.530
706.51	51.097
706.83	50.147
707.15	46.524
707.47	43.099
707.79	42.299
708.11	40.816
708.43	37.753
708.74	37.557
709.06	42.326
709.38	45.161
709.70	44.142
710.02	40.761
710.34	45.028
710.66	45.000
710.98	44.262
711.29	42.897
711.61	49.025
711.93	46.809
712.25	42.470
712.57	49.839
712.89	46.061
713.20	46.965
713.52	45.794
713.84	43.202
714.16	41.449
714.48	39.769
714.80	41.463
715.11	40.426
715.43	42.737
715.75	42.817
716.07	41.040
716.39	46.857
716.70	46.106
717.02	47.138
717.34	47.122
717.66	48.958
717.97	49.242
718.29	51.761
718.61	44.595
718.93	48.443
719.24	46.980
719.56	43.793
719.88	42.994
720.20	45.484
720.51	42.157
720.83	43.478
721.15	46.599
721.46	46.918
721.78	48.432
722.10	45.486
722.42	50.167
722.73	40.794
723.05	45.965
723.37	47.703
723.68	47.656
724.00	45.076
724.32	51.331
724.63	42.308
724.95	49.020
725.27	46.097
725.58	45.221
725.90	44.718
726.22	44.178
726.53	45.819
726.85	45.928
727.16	47.651
727.48	43.854
727.80	46.043
728.11	43.571
728.43	44.203
728.74	46.154
729.06	43.011
729.38	50.175
729.69	46.667
730.01	48.026
730.32	46.309
730.64	44.850
730.96	42.342
731.27	38.838
731.59	35.920
731.90	32.312
732.22	40.571
732.53	36.467
732.85	39.181
733.16	39.759
733.48	39.812
733.80	40.580
734.11	41.718
734.43	39.181
734.74	38.874
735.06	38.624
735.37	34.794
735.69	34.493
736.00	42.202
736.32	33.939
736.63	35.331
736.95	43.168
737.26	39.329
737.58	40.798
737.89	38.855
738.21	41.722
738.52	42.475
738.83	47.619
739.15	44.251
739.46	38.276
739.78	46.599
740.09	38.192
740.41	38.344
740.72	41.905
741.04	42.657
741.35	46.875
741.66	46.245
741.98	46.352
742.29	50.926
742.61	46.018
742.92	44.068
743.23	40.400
743.55	40.377
743.86	44.314
744.18	50.424
744.49	43.802
744.80	49.309
745.12	45.089
745.43	50.000
745.74	52.000
746.06	44.737
746.37	47.442
746.68	47.788
747.00	44.843
747.31	47.479
747.62	41.393
747.94	47.210
748.25	41.245
748.56	47.881
748.88	48.214
749.19	45.581
749.50	45.662
749.82	47.325
750.13	44.269
750.44	36.333
750.75	40.940
751.07	42.105
751.38	37.624
751.69	39.057
752.01	40.909
752.32	37.209
752.63	40.940
752.94	38.112
753.26	39.453
753.57	45.914
753.88	41.573
754.19	38.989
754.51	41.860
754.82	36.913
755.13	42.905
755.44	44.074
755.75	41.237
756.07	42.466
756.38	36.275
756.69	40.312
757.00	40.356
757.31	39.718
757.63	34.435
757.94	33.511
758.25	34.058
758.56	32.723
758.87	32.331
759.18	35.174
759.50	37.690
759.81	36.795
760.12	37.079
760.43	35.574
760.74	34.430
761.05	35.013
761.36	33.073
761.67	32.884
761.99	38.310
762.30	37.299
762.61	35.764
762.92	40.152
763.23	41.509
763.54	40.000
763.85	38.521
764.16	39.931
764.47	39.865
764.78	35.505
765.10	32.622
765.41	35.227
765.72	34.254
766.03	33.233
766.34	37.282
766.65	40.304
766.96	41.700
767.27	46.262
767.58	48.020
767.89	50.276
768.20	53.659
768.51	41.327
768.82	44.298
769.13	38.039
769.44	40.602
769.75	38.577
770.06	39.076
770.37	43.421
770.68	43.556
770.99	43.644
771.30	39.331
771.61	39.615
771.92	43.893
772.23	38.710
772.54	49.778
772.85	50.000
773.16	46.739
773.47	41.667
773.78	40.099
774.09	45.455
774.39	54.545
774.70	48.235
775.01	43.421
775.32	52.174
775.63	53.425
775.94	57.407
776.25	49.655
776.56	65.649
776.87	58.015
777.18	40.152
777.48	68.504
777.79	64.615
778.10	50.758
778.41	58.955
778.72	51.880
779.03	50.000
779.34	46.622
779.65	47.826
779.95	47.826
780.26	44.048
780.57	49.660
780.88	54.610
781.19	57.500
781.50	49.112
781.80	48.087
782.11	45.503
782.42	38.506
782.73	45.763
783.04	40.000
783.34	44.961
783.65	41.497
783.96	48.387
784.27	41.722
784.57	33.553
784.88	47.101
785.19	50.000
785.50	56.034
785.81	59.690
786.11	54.074
786.42	55.118
786.73	53.153
787.04	59.434
787.34	41.463
787.65	57.576
787.96	54.545
788.26	57.480
788.57	56.204
788.88	48.592
789.19	54.962
789.49	52.027
789.80	49.219
790.11	47.934
790.41	51.852
790.72	50.000
791.03	53.846
791.33	71.717
791.64	62.105
791.95	66.316
792.25	59.375
792.56	64.000
792.87	84.146
793.17	52.273
793.48	61.176
793.79	65.517
794.09	65.909
794.40	59.483
794.70	58.730
795.01	42.308
795.32	46.565
795.62	56.410
795.93	54.622
796.23	56.911
796.54	62.245
796.85	60.227
797.15	90.909
797.46	69.512
797.76	47.500
798.07	69.333
798.37	63.750
798.68	68.750
798.99	75.610
799.29	54.667
799.60	55.814
799.90	59.211
800.21	53.030
800.51	84.507
800.82	72.414
801.12	90.769
801.43	77.333
801.73	84.483
802.04	63.636
802.34	72.603
802.65	101.961
802.95	97.826
803.26	82.258
803.56	108.333
803.87	79.104
804.17	73.016
804.48	92.453
804.78	68.056
805.09	71.212
805.39	84.127
805.70	75.439
806.00	61.429
806.30	87.500
806.61	60.000
806.91	64.444
807.22	54.348
807.52	61.842
807.83	77.632
808.13	92.754
808.43	75.806
808.74	84.932
809.04	78.571
809.35	76.471
809.65	69.697
809.95	72.549
810.26	100.000
810.56	81.250
810.86	93.878
811.17	91.228
811.47	82.609
811.77	77.586
812.08	70.690
812.38	78.571
812.69	111.905
812.99	97.778
813.29	94.286
813.59	119.355
813.90	74.138
814.20	96.721
814.50	86.000
814.81	59.649
815.11	92.593
815.41	82.143
815.72	91.071
816.02	108.000
816.32	119.512
816.62	91.379
816.93	136.364
817.23	146.341
817.53	76.786
817.84	86.667
818.14	102.381
818.44	79.167
818.74	92.453
819.04	105.128
819.35	133.333
819.65	115.385
819.95	124.074
820.25	104.255
820.56	137.838
820.86	115.789
821.16	100.000
821.46	121.053
821.76	92.727
822.07	76.190
822.37	136.842
822.67	118.605
822.97	71.053
823.27	115.217
823.57	137.500
823.88	112.821
824.18	115.152
824.48	121.739
824.78	133.333
825.08	126.087
825.38	148.276
825.69	129.412
825.99	104.255
826.29	83.333
826.59	120.000
826.89	126.667
827.19	71.429
827.49	122.581
827.79	165.385
828.09	95.238
828.39	111.111
828.70	97.297
829.00	175.000
829.30	256.250
829.60	83.333
829.90	129.032
830.20	112.121
830.50	127.027
830.80	175.000
831.10	176.923
831.40	147.619
831.70	208.333
832.00	146.667
832.30	173.913
832.60	183.333
832.90	136.364
833.20	170.000
833.50	113.158
833.80	114.706
834.10	113.158
834.40	163.158
834.70	116.667
835.00	144.000
835.30	94.595
835.60	128.125
835.90	137.838
836.20	161.538
836.50	172.727
836.80	87.805
837.10	104.348
837.40	284.615
837.70	210.526
838.00	143.333
838.30	175.000
838.60	148.000
838.90	310.000
839.19	206.250
839.49	143.333
839.79	124.138
840.09	119.231
840.39	146.667
840.69	189.474
840.99	138.095
841.29	147.826
841.59	200.000
841.88	164.000
842.18	355.556
842.48	132.143
842.78	125.926
843.08	192.308
843.38	168.182
843.68	271.429
843.97	514.286
844.27	186.957
844.57	1400.000
844.87	342.857
845.17	183.333
845.47	119.048
845.76	187.500
846.06	485.714
846.36	194.118
846.66	253.846
846.96	225.000
847.25	246.154
847.55	110.526
847.85	205.556
848.15	520.000
848.44	345.455
848.74	152.381
849.04	166.667
849.34	152.941
849.63	262.500
849.93	218.750
850.23	1066.667
850.53	412.500
850.82	354.545
851.12	158.824
851.42	158.333
851.71	275.000
852.01	0.000
852.31	217.647
852.61	460.000
852.90	187.500
853.20	377.778
853.50	-2700.000
853.79	136.000
854.09	146.875
854.39	106.897
854.68	148.276
854.98	195.238
855.28	109.677
855.57	178.571
855.87	200.000
856.17	133.333
856.46	152.632
856.76	154.839
857.05	241.176
857.35	263.636
857.65	246.154
857.94	160.000
858.24	355.556
858.53	264.286
858.83	428.571
859.13	130.435
859.42	322.222
859.72	337.500
860.01	250.000
860.31	925.000
860.60	380.000
860.90	350.000
861.20	261.538
861.49	457.143
861.79	-2900.000
862.08	600.000
862.38	400.000
862.67	235.714
862.97	380.000
863.26	143.333
863.56	825.000
863.85	276.923
864.15	223.529
864.44	238.889
864.74	341.667
865.03	400.000
865.33	300.000
865.62	273.333
865.92	666.667
866.21	925.000
866.51	640.000
866.80	211.111
867.10	733.333
867.39	2900.000
867.69	740.000
867.98	650.000
868.27	204.762
868.57	246.667
868.86	775.000
869.16	142.857
869.45	2900.000
869.75	-333.333
870.04	675.000
870.33	780.000
870.63	412.500
870.92	158.824
871.22	700.000
871.51	400.000
871.80	300.000
872.10	315.385
>>>>>End Processed Spectral Data<<<<<
