SpectraSuite Data File
++++++++++++++++++++++++++++++++++++
Date: Tue May 12 17:01:33 PDT 2015
User: schluterlab
Dark Spectrum Present: Yes
Reference Spectrum Present: Yes
Number of Sampled Component Spectra: 1
Spectrometers: USB2E3373
Integration Time (usec): 3000 (USB2E3373)
Spectra Averaged: 3 (USB2E3373)
Boxcar Smoothing: 0 (USB2E3373)
Correct for Electrical Dark: No (USB2E3373)
Strobe/Lamp Enabled: No (USB2E3373)
Correct for Detector Non-linearity: No (USB2E3373)
Correct for Stray Light: No (USB2E3373)
Number of Pixels in Processed Spectrum: 2048
>>>>>Begin Processed Spectral Data<<<<<
178.53	0.000
178.91	-291.667
179.29	-575.000
179.67	-3400.000
180.04	-140.000
180.42	800.000
180.80	1850.000
181.18	0.000
181.56	-275.000
181.94	0.000
182.31	1000.000
182.69	-3700.000
183.07	771.429
183.45	-3400.000
183.83	-1950.000
184.20	350.000
184.58	485.714
184.96	-246.154
185.34	-166.667
185.72	1850.000
186.09	-900.000
186.47	-2700.000
186.85	1066.667
187.23	600.000
187.61	2150.000
187.98	537.500
188.36	314.286
188.74	258.333
189.12	308.333
189.49	800.000
189.87	0.000
190.25	462.500
190.63	2200.000
191.00	-225.000
191.38	-3400.000
191.76	-725.000
192.14	500.000
192.51	-3400.000
192.89	1400.000
193.27	900.000
193.65	-1300.000
194.02	-520.000
194.40	442.857
194.78	-150.000
195.15	260.000
195.53	-3200.000
195.91	-740.000
196.29	3500.000
196.66	225.000
197.04	950.000
197.42	-1500.000
197.79	775.000
198.17	400.000
198.55	0.000
198.92	457.143
199.30	1100.000
199.68	1900.000
200.05	583.333
200.43	-466.667
200.81	194.444
201.18	3100.000
201.56	208.333
201.94	-775.000
202.31	-275.000
202.69	-720.000
203.07	3800.000
203.44	-516.667
203.82	350.000
204.19	820.000
204.57	-1450.000
204.95	-625.000
205.32	-700.000
205.70	600.000
206.08	875.000
206.45	-733.333
206.83	377.778
207.20	200.000
207.58	366.667
207.96	560.000
208.33	0.000
208.71	557.143
209.08	620.000
209.46	-3600.000
209.84	-675.000
210.21	760.000
210.59	-640.000
210.96	375.000
211.34	-850.000
211.71	390.909
212.09	750.000
212.46	1800.000
212.84	-483.333
213.22	355.556
213.59	-3400.000
213.97	300.000
214.34	1000.000
214.72	866.667
215.09	966.667
215.47	-3100.000
215.84	-390.000
216.22	-287.500
216.59	0.000
216.97	0.000
217.34	1700.000
217.72	-1450.000
218.09	1166.667
218.47	462.500
218.84	850.000
219.22	1100.000
219.59	733.333
219.97	500.000
220.34	377.778
220.72	1550.000
221.09	4100.000
221.47	300.000
221.84	1233.333
222.22	320.000
222.59	294.444
222.97	228.571
223.34	243.750
223.72	-1550.000
224.09	1100.000
224.46	315.385
224.84	-725.000
225.21	322.222
225.59	300.000
225.96	1466.667
226.34	-680.000
226.71	-725.000
227.08	-660.000
227.46	0.000
227.83	-500.000
228.21	-1550.000
228.58	358.333
228.95	875.000
229.33	311.111
229.70	1000.000
230.08	346.154
230.45	2900.000
230.82	-700.000
231.20	-933.333
231.57	-1033.333
231.95	680.000
232.32	308.333
232.69	550.000
233.07	266.667
233.44	-1550.000
233.81	226.667
234.19	155.556
234.56	231.250
234.93	194.118
235.31	225.000
235.68	293.750
236.05	164.286
236.43	177.778
236.80	342.857
237.17	158.621
237.55	140.625
237.92	130.000
238.29	109.091
238.67	137.500
239.04	121.951
239.41	85.417
239.79	105.000
240.16	110.417
240.53	80.328
240.91	91.304
241.28	86.441
241.65	83.333
242.02	95.775
242.40	90.000
242.77	79.121
243.14	63.291
243.51	68.687
243.89	57.009
244.26	56.075
244.63	67.327
245.00	68.807
245.38	59.322
245.75	61.364
246.12	62.963
246.49	49.645
246.87	57.377
247.24	64.667
247.61	51.875
247.98	65.306
248.36	48.485
248.73	57.143
249.10	55.357
249.47	49.000
249.84	49.254
250.22	54.595
250.59	52.500
250.96	49.367
251.33	50.233
251.70	50.446
252.08	49.580
252.45	50.598
252.82	47.909
253.19	50.198
253.56	48.077
253.94	49.275
254.31	51.163
254.68	53.659
255.05	48.966
255.42	43.796
255.79	45.603
256.16	47.797
256.54	46.104
256.91	45.425
257.28	45.485
257.65	41.379
258.02	45.428
258.39	47.278
258.76	46.957
259.14	42.286
259.51	48.980
259.88	47.720
260.25	44.231
260.62	47.945
260.99	41.047
261.36	44.011
261.73	44.149
262.10	46.073
262.47	43.000
262.85	47.200
263.22	44.987
263.59	44.246
263.96	45.614
264.33	43.210
264.70	44.717
265.07	41.707
265.44	43.807
265.81	43.396
266.18	45.538
266.55	43.735
266.92	45.190
267.29	46.711
267.66	41.031
268.03	41.928
268.40	43.975
268.77	43.612
269.14	44.252
269.51	46.548
269.88	43.061
270.25	44.924
270.62	42.918
270.99	43.205
271.36	44.919
271.73	42.138
272.10	41.212
272.47	41.270
272.84	41.517
273.21	42.769
273.58	42.105
273.95	43.326
274.32	44.553
274.69	45.276
275.06	41.530
275.43	41.954
275.80	40.755
276.17	41.360
276.54	44.112
276.91	43.843
277.28	41.788
277.65	42.066
278.02	41.360
278.39	41.727
278.76	41.207
279.13	41.459
279.50	44.182
279.87	40.223
280.23	39.042
280.60	40.328
280.97	40.517
281.34	41.419
281.71	41.217
282.08	41.709
282.45	39.696
282.82	40.635
283.19	37.997
283.56	38.017
283.92	40.554
284.29	39.601
284.66	38.992
285.03	41.128
285.40	41.322
285.77	37.500
286.14	40.402
286.51	39.264
286.87	38.924
287.24	36.336
287.61	39.058
287.98	37.313
288.35	38.963
288.72	38.240
289.08	37.988
289.45	37.652
289.82	37.656
290.19	35.725
290.56	38.574
290.93	37.122
291.29	38.674
291.66	35.311
292.03	36.466
292.40	35.366
292.77	34.401
293.13	35.806
293.50	36.167
293.87	33.469
294.24	35.664
294.60	36.070
294.97	34.545
295.34	35.458
295.71	32.983
296.08	35.200
296.44	33.672
296.81	31.638
297.18	32.319
297.55	32.635
297.91	31.773
298.28	32.729
298.65	31.779
299.02	29.916
299.38	31.535
299.75	31.951
300.12	31.766
300.48	32.553
300.85	31.228
301.22	30.698
301.59	30.542
301.95	29.988
302.32	31.898
302.69	31.674
303.05	31.201
303.42	30.493
303.79	31.419
304.15	30.693
304.52	29.387
304.89	29.957
305.25	31.702
305.62	31.023
305.99	30.326
306.35	29.579
306.72	30.593
307.09	30.331
307.45	30.517
307.82	30.350
308.19	30.206
308.55	31.000
308.92	30.716
309.29	32.249
309.65	31.021
310.02	31.643
310.38	30.808
310.75	31.340
311.12	30.556
311.48	32.625
311.85	31.489
312.22	31.996
312.58	32.459
312.95	30.777
313.31	31.835
313.68	30.019
314.05	32.601
314.41	32.682
314.78	33.239
315.14	33.365
315.51	33.869
315.87	33.668
316.24	33.707
316.61	33.930
316.97	33.486
317.34	34.591
317.70	35.909
318.07	35.676
318.43	35.062
318.80	36.515
319.16	36.189
319.53	36.106
319.89	36.649
320.26	38.827
320.62	38.370
320.99	37.083
321.35	38.219
321.72	39.089
322.08	40.166
322.45	40.054
322.81	39.067
323.18	40.231
323.54	40.679
323.91	40.163
324.27	40.937
324.64	41.176
325.00	41.293
325.37	40.472
325.73	40.725
326.10	42.419
326.46	41.866
326.83	42.000
327.19	43.133
327.56	42.652
327.92	44.262
328.29	43.372
328.65	43.322
329.01	42.772
329.38	43.316
329.74	42.442
330.11	43.267
330.47	44.416
330.84	43.313
331.20	42.217
331.56	42.746
331.93	43.713
332.29	42.602
332.66	43.112
333.02	43.729
333.38	44.241
333.75	42.702
334.11	44.463
334.48	43.077
334.84	43.497
335.20	44.055
335.57	42.233
335.93	42.725
336.29	42.786
336.66	43.396
337.02	42.173
337.38	43.078
337.75	41.976
338.11	43.797
338.47	42.506
338.84	41.998
339.20	43.377
339.56	42.977
339.93	42.642
340.29	40.504
340.65	41.576
341.02	41.512
341.38	42.118
341.74	42.774
342.11	41.903
342.47	40.771
342.83	42.330
343.20	42.118
343.56	40.508
343.92	40.793
344.28	41.707
344.65	42.461
345.01	41.190
345.37	40.705
345.73	40.714
346.10	40.319
346.46	42.344
346.82	40.201
347.19	41.731
347.55	40.359
347.91	40.106
348.27	40.201
348.63	40.585
349.00	40.213
349.36	40.545
349.72	40.138
350.08	40.683
350.45	39.223
350.81	39.832
351.17	39.522
351.53	40.416
351.89	39.782
352.26	39.456
352.62	39.517
352.98	38.267
353.34	40.678
353.70	39.067
354.07	38.692
354.43	39.708
354.79	38.269
355.15	39.740
355.51	38.595
355.87	38.404
356.24	38.722
356.60	38.737
356.96	37.983
357.32	38.131
357.68	39.207
358.04	39.058
358.40	39.055
358.77	38.467
359.13	38.138
359.49	38.844
359.85	38.794
360.21	37.593
360.57	37.664
360.93	37.879
361.29	37.446
361.66	38.180
362.02	36.790
362.38	37.662
362.74	37.438
363.10	37.588
363.46	36.671
363.82	36.816
364.18	37.198
364.54	37.268
364.90	37.015
365.26	38.376
365.62	36.602
365.98	35.926
366.35	37.448
366.71	37.335
367.07	37.611
367.43	36.803
367.79	36.436
368.15	36.092
368.51	36.733
368.87	36.073
369.23	35.897
369.59	36.817
369.95	37.413
370.31	35.934
370.67	36.294
371.03	36.345
371.39	35.803
371.75	35.939
372.11	36.166
372.47	35.685
372.83	36.778
373.19	36.875
373.55	36.357
373.91	34.530
374.27	35.648
374.63	35.254
374.99	35.580
375.35	35.685
375.71	36.741
376.07	35.809
376.42	34.207
376.78	35.581
377.14	35.911
377.50	34.332
377.86	33.953
378.22	35.161
378.58	35.896
378.94	35.546
379.30	34.748
379.66	35.160
380.02	35.601
380.38	34.836
380.74	35.582
381.09	34.404
381.45	34.913
381.81	33.747
382.17	35.226
382.53	34.733
382.89	34.654
383.25	34.044
383.61	33.718
383.97	33.413
384.32	34.539
384.68	35.056
385.04	33.705
385.40	34.164
385.76	34.172
386.12	34.323
386.48	35.015
386.83	34.352
387.19	34.276
387.55	34.099
387.91	34.296
388.27	33.789
388.62	34.214
388.98	33.061
389.34	33.314
389.70	33.785
390.06	34.024
390.42	34.917
390.77	34.152
391.13	34.400
391.49	34.059
391.85	34.523
392.20	34.327
392.56	33.931
392.92	33.464
393.28	33.296
393.64	33.372
393.99	33.195
394.35	32.666
394.71	32.811
395.07	32.968
395.42	32.728
395.78	34.115
396.14	33.795
396.50	33.032
396.85	33.232
397.21	32.431
397.57	32.576
397.92	32.178
398.28	32.929
398.64	33.042
399.00	32.603
399.35	31.884
399.71	31.623
400.07	32.763
400.42	32.239
400.78	32.317
401.14	32.824
401.49	30.876
401.85	32.793
402.21	32.220
402.57	31.777
402.92	32.061
403.28	31.862
403.63	32.254
403.99	32.388
404.35	32.767
404.70	32.723
405.06	32.004
405.42	31.598
405.77	31.202
406.13	31.670
406.49	31.779
406.84	31.585
407.20	31.336
407.55	31.938
407.91	32.355
408.27	32.444
408.62	31.756
408.98	31.402
409.34	31.502
409.69	31.487
410.05	31.604
410.40	30.801
410.76	31.425
411.11	31.754
411.47	30.988
411.83	30.639
412.18	31.341
412.54	30.931
412.89	31.386
413.25	31.015
413.60	31.484
413.96	31.119
414.31	30.579
414.67	32.464
415.03	31.418
415.38	31.483
415.74	31.522
416.09	31.480
416.45	31.674
416.80	32.649
417.16	30.745
417.51	31.529
417.87	31.101
418.22	30.923
418.58	30.955
418.93	31.053
419.29	30.376
419.64	30.890
420.00	31.981
420.35	30.836
420.71	31.097
421.06	30.606
421.42	31.146
421.77	30.927
422.12	30.816
422.48	30.200
422.83	31.641
423.19	30.238
423.54	30.444
423.90	30.691
424.25	31.040
424.61	30.702
424.96	30.830
425.31	30.378
425.67	30.976
426.02	31.296
426.38	29.988
426.73	31.290
427.09	31.376
427.44	30.557
427.79	31.103
428.15	32.174
428.50	30.971
428.85	31.452
429.21	30.902
429.56	30.359
429.92	29.836
430.27	31.205
430.62	30.739
430.98	30.040
431.33	30.292
431.68	29.827
432.04	30.109
432.39	30.461
432.74	30.445
433.10	30.177
433.45	31.419
433.80	31.164
434.16	29.532
434.51	30.237
434.86	31.355
435.22	30.416
435.57	30.883
435.92	30.791
436.28	31.164
436.63	31.388
436.98	30.687
437.34	29.852
437.69	29.563
438.04	30.753
438.39	30.064
438.75	30.122
439.10	30.059
439.45	30.187
439.81	30.075
440.16	30.490
440.51	30.068
440.86	31.168
441.22	30.465
441.57	30.446
441.92	29.418
442.27	29.794
442.63	30.488
442.98	30.119
443.33	29.298
443.68	30.734
444.03	30.631
444.39	30.556
444.74	30.331
445.09	30.437
445.44	29.968
445.79	29.776
446.15	30.526
446.50	30.169
446.85	29.831
447.20	29.403
447.55	30.071
447.91	30.581
448.26	30.724
448.61	30.735
448.96	30.501
449.31	30.143
449.66	29.900
450.02	29.876
450.37	30.483
450.72	30.854
451.07	30.076
451.42	30.765
451.77	30.584
452.12	29.779
452.47	30.741
452.83	29.803
453.18	30.571
453.53	30.195
453.88	30.914
454.23	30.099
454.58	30.245
454.93	29.430
455.28	30.110
455.63	30.792
455.98	29.385
456.34	31.064
456.69	30.793
457.04	29.475
457.39	29.829
457.74	30.574
458.09	29.141
458.44	30.449
458.79	29.390
459.14	29.569
459.49	29.162
459.84	30.380
460.19	29.322
460.54	30.484
460.89	29.957
461.24	28.637
461.59	29.875
461.94	30.024
462.29	29.805
462.64	29.711
462.99	29.750
463.34	30.136
463.69	30.067
464.04	30.800
464.39	28.964
464.74	28.722
465.09	28.845
465.44	28.781
465.79	29.178
466.14	28.829
466.49	29.680
466.84	28.930
467.19	29.291
467.54	28.829
467.89	29.108
468.24	28.605
468.59	28.988
468.94	28.080
469.29	29.078
469.64	28.939
469.99	28.985
470.34	29.032
470.68	28.276
471.03	29.686
471.38	29.205
471.73	28.870
472.08	29.159
472.43	29.423
472.78	29.193
473.13	27.472
473.48	28.240
473.83	28.504
474.17	29.848
474.52	28.318
474.87	28.312
475.22	28.384
475.57	28.646
475.92	28.462
476.27	28.237
476.61	27.721
476.96	27.429
477.31	28.123
477.66	29.415
478.01	28.004
478.36	28.630
478.70	27.990
479.05	28.452
479.40	28.175
479.75	28.153
480.10	28.267
480.45	27.824
480.79	28.065
481.14	27.580
481.49	27.219
481.84	27.221
482.19	27.817
482.53	27.975
482.88	27.554
483.23	27.740
483.58	28.411
483.92	28.428
484.27	27.783
484.62	28.268
484.97	26.996
485.31	27.346
485.66	27.965
486.01	27.641
486.36	27.326
486.70	26.517
487.05	26.782
487.40	26.567
487.75	26.530
488.09	26.676
488.44	27.024
488.79	26.519
489.13	27.697
489.48	27.367
489.83	26.606
490.17	26.920
490.52	27.390
490.87	26.767
491.22	26.995
491.56	27.053
491.91	26.434
492.26	26.949
492.60	27.380
492.95	26.778
493.30	26.615
493.64	27.314
493.99	26.476
494.34	26.625
494.68	26.073
495.03	27.256
495.37	27.870
495.72	27.413
496.07	26.460
496.41	27.411
496.76	27.142
497.11	28.021
497.45	26.786
497.80	26.460
498.14	26.537
498.49	26.695
498.84	26.963
499.18	25.823
499.53	27.699
499.87	26.730
500.22	27.038
500.56	27.112
500.91	27.458
501.26	26.412
501.60	26.321
501.95	25.672
502.29	26.933
502.64	26.334
502.98	25.567
503.33	26.414
503.67	26.093
504.02	26.019
504.36	26.290
504.71	26.159
505.06	26.654
505.40	26.673
505.75	26.333
506.09	26.365
506.44	25.846
506.78	26.371
507.13	25.933
507.47	26.104
507.82	26.277
508.16	26.801
508.51	26.522
508.85	25.926
509.19	26.334
509.54	25.684
509.88	26.753
510.23	25.686
510.57	24.952
510.92	26.673
511.26	26.255
511.61	25.406
511.95	26.531
512.30	24.800
512.64	25.493
512.98	24.962
513.33	26.076
513.67	25.997
514.02	25.766
514.36	25.078
514.70	25.973
515.05	25.306
515.39	26.206
515.74	25.588
516.08	25.000
516.42	26.557
516.77	25.653
517.11	26.613
517.46	26.131
517.80	24.904
518.14	26.141
518.49	24.807
518.83	24.780
519.17	24.792
519.52	25.505
519.86	24.905
520.20	25.260
520.55	24.816
520.89	24.540
521.23	26.110
521.58	25.703
521.92	24.257
522.26	24.763
522.61	25.312
522.95	24.745
523.29	24.971
523.64	25.202
523.98	25.352
524.32	25.260
524.66	25.449
525.01	24.852
525.35	24.985
525.69	25.707
526.04	25.223
526.38	24.367
526.72	24.224
527.06	24.956
527.41	25.212
527.75	25.198
528.09	24.744
528.43	25.503
528.78	24.627
529.12	25.226
529.46	24.196
529.80	24.533
530.15	25.044
530.49	24.428
530.83	24.375
531.17	25.092
531.51	25.015
531.86	24.396
532.20	24.413
532.54	24.670
532.88	25.172
533.22	24.741
533.57	25.564
533.91	24.476
534.25	24.005
534.59	25.088
534.93	24.460
535.27	24.360
535.62	24.562
535.96	23.995
536.30	26.082
536.64	24.224
536.98	23.851
537.32	25.000
537.66	23.852
538.01	24.954
538.35	24.329
538.69	24.515
539.03	24.565
539.37	24.515
539.71	25.494
540.05	24.431
540.39	24.528
540.73	24.494
541.07	23.588
541.42	24.876
541.76	24.661
542.10	24.044
542.44	25.000
542.78	24.921
543.12	24.049
543.46	24.248
543.80	24.373
544.14	24.582
544.48	23.905
544.82	24.465
545.16	23.558
545.50	24.401
545.84	24.811
546.18	24.707
546.52	25.180
546.86	24.178
547.20	23.385
547.54	23.623
547.88	25.182
548.22	24.590
548.56	23.807
548.90	24.081
549.24	23.689
549.58	23.454
549.92	24.034
550.26	24.882
550.60	24.351
550.94	23.813
551.28	24.138
551.62	24.759
551.96	23.716
552.30	23.336
552.64	23.883
552.98	23.711
553.32	23.239
553.66	23.518
554.00	23.488
554.34	24.101
554.68	24.059
555.02	23.218
555.36	23.537
555.69	24.149
556.03	23.567
556.37	23.773
556.71	24.120
557.05	23.001
557.39	23.667
557.73	24.394
558.07	23.407
558.41	24.195
558.75	23.735
559.08	24.589
559.42	23.622
559.76	23.664
560.10	23.400
560.44	23.557
560.78	24.105
561.12	24.412
561.45	23.154
561.79	22.909
562.13	22.805
562.47	23.102
562.81	23.682
563.15	23.723
563.48	22.360
563.82	23.830
564.16	23.632
564.50	23.086
564.84	22.675
565.17	23.589
565.51	24.323
565.85	23.627
566.19	23.393
566.52	23.285
566.86	23.526
567.20	24.382
567.54	22.926
567.88	23.735
568.21	23.165
568.55	23.687
568.89	23.358
569.23	23.512
569.56	23.562
569.90	23.069
570.24	23.373
570.57	23.589
570.91	23.214
571.25	22.865
571.59	23.181
571.92	22.605
572.26	22.695
572.60	22.938
572.93	23.260
573.27	22.947
573.61	23.200
573.95	23.033
574.28	23.485
574.62	23.032
574.96	22.694
575.29	22.142
575.63	22.709
575.97	22.176
576.30	22.070
576.64	22.549
576.98	22.800
577.31	23.091
577.65	23.074
577.98	22.340
578.32	22.527
578.66	22.706
578.99	23.054
579.33	23.072
579.67	22.571
580.00	22.495
580.34	22.150
580.67	22.506
581.01	22.844
581.35	23.276
581.68	22.369
582.02	22.674
582.35	22.453
582.69	22.723
583.02	22.237
583.36	22.232
583.70	22.250
584.03	22.421
584.37	22.792
584.70	22.095
585.04	22.389
585.37	22.408
585.71	22.899
586.04	22.767
586.38	22.432
586.72	22.445
587.05	22.362
587.39	22.427
587.72	22.640
588.06	22.374
588.39	22.416
588.73	22.746
589.06	22.498
589.40	22.879
589.73	22.288
590.07	22.375
590.40	22.787
590.73	23.503
591.07	22.922
591.40	22.076
591.74	22.565
592.07	21.589
592.41	22.902
592.74	22.190
593.08	22.428
593.41	23.040
593.75	22.225
594.08	22.729
594.41	21.799
594.75	21.644
595.08	22.737
595.42	22.844
595.75	21.816
596.09	23.323
596.42	22.178
596.75	22.796
597.09	23.236
597.42	22.571
597.75	21.866
598.09	21.953
598.42	22.358
598.76	22.282
599.09	23.060
599.42	22.457
599.76	22.592
600.09	22.136
600.42	22.756
600.76	22.434
601.09	21.678
601.42	21.471
601.76	22.163
602.09	21.854
602.42	21.996
602.76	21.670
603.09	22.323
603.42	22.679
603.76	21.945
604.09	22.005
604.42	21.620
604.76	22.126
605.09	21.918
605.42	22.145
605.75	22.385
606.09	22.341
606.42	22.172
606.75	22.620
607.09	22.029
607.42	21.495
607.75	21.815
608.08	22.096
608.42	22.693
608.75	22.294
609.08	22.217
609.41	22.045
609.75	22.848
610.08	22.122
610.41	22.486
610.74	21.948
611.07	22.647
611.41	21.640
611.74	22.371
612.07	21.773
612.40	22.466
612.73	21.767
613.07	21.744
613.40	22.456
613.73	22.267
614.06	21.650
614.39	22.273
614.72	22.250
615.06	22.008
615.39	21.832
615.72	21.733
616.05	22.351
616.38	21.461
616.71	21.867
617.05	21.582
617.38	21.348
617.71	22.328
618.04	22.098
618.37	22.290
618.70	22.229
619.03	21.245
619.36	22.236
619.69	21.966
620.03	23.092
620.36	21.452
620.69	22.989
621.02	22.758
621.35	21.060
621.68	21.755
622.01	23.469
622.34	21.850
622.67	22.893
623.00	22.464
623.33	21.997
623.66	22.089
623.99	22.123
624.32	21.883
624.65	21.659
624.99	21.771
625.32	22.044
625.65	21.517
625.98	20.990
626.31	21.068
626.64	21.716
626.97	20.964
627.30	22.516
627.63	21.664
627.96	22.066
628.29	22.607
628.62	20.274
628.95	21.011
629.28	22.612
629.61	23.023
629.94	21.521
630.26	22.184
630.59	22.074
630.92	21.614
631.25	22.847
631.58	23.915
631.91	20.742
632.24	21.866
632.57	22.004
632.90	22.567
633.23	21.406
633.56	21.812
633.89	22.079
634.22	22.497
634.55	21.398
634.88	23.220
635.20	23.094
635.53	22.067
635.86	22.260
636.19	21.324
636.52	21.297
636.85	21.791
637.18	22.752
637.51	20.670
637.83	21.053
638.16	21.923
638.49	22.635
638.82	22.066
639.15	21.152
639.48	22.038
639.81	22.222
640.13	22.822
640.46	22.124
640.79	22.627
641.12	21.260
641.45	20.957
641.77	24.042
642.10	21.151
642.43	23.471
642.76	21.733
643.09	22.334
643.41	22.581
643.74	20.863
644.07	21.386
644.40	23.077
644.73	23.874
645.05	23.626
645.38	22.358
645.71	21.548
646.04	22.901
646.36	21.753
646.69	21.920
647.02	23.520
647.35	22.205
647.67	22.366
648.00	21.661
648.33	22.707
648.66	23.030
648.98	22.174
649.31	21.323
649.64	21.300
649.96	23.329
650.29	21.571
650.62	22.533
650.94	21.687
651.27	23.285
651.60	23.318
651.92	22.273
652.25	25.354
652.58	20.993
652.90	22.006
653.23	22.452
653.56	22.255
653.88	21.439
654.21	22.581
654.54	22.548
654.86	21.386
655.19	23.615
655.52	21.210
655.84	19.249
656.17	23.186
656.49	33.944
656.82	39.913
657.15	32.086
657.47	23.660
657.80	16.568
658.13	12.596
658.45	17.053
658.78	20.348
659.10	21.263
659.43	21.332
659.75	22.962
660.08	23.747
660.41	22.232
660.73	25.721
661.06	23.874
661.38	24.702
661.71	23.921
662.03	21.483
662.36	23.619
662.68	22.719
663.01	23.784
663.33	22.264
663.66	21.893
663.98	23.413
664.31	23.881
664.63	23.563
664.96	24.578
665.28	22.411
665.61	24.151
665.93	24.151
666.26	22.243
666.58	26.239
666.91	23.359
667.23	21.285
667.56	22.998
667.88	24.274
668.21	23.770
668.53	23.387
668.86	26.253
669.18	21.385
669.50	25.413
669.83	23.819
670.15	20.374
670.48	20.898
670.80	22.510
671.13	24.104
671.45	24.850
671.77	22.635
672.10	25.314
672.42	21.053
672.75	23.892
673.07	22.734
673.39	23.642
673.72	22.318
674.04	22.581
674.37	22.868
674.69	22.862
675.01	23.881
675.34	24.419
675.66	22.461
675.98	23.077
676.31	22.600
676.63	21.670
676.95	24.206
677.28	23.124
677.60	24.547
677.92	21.230
678.25	25.581
678.57	23.464
678.89	22.966
679.22	24.265
679.54	22.598
679.86	22.339
680.18	24.253
680.51	20.730
680.83	22.973
681.15	22.877
681.48	23.437
681.80	23.292
682.12	23.529
682.44	21.081
682.77	23.310
683.09	22.330
683.41	23.469
683.73	24.016
684.06	21.429
684.38	23.062
684.70	23.381
685.02	24.479
685.34	24.296
685.67	23.151
685.99	21.675
686.31	22.496
686.63	23.089
686.96	24.510
687.28	21.812
687.60	23.720
687.92	24.456
688.24	25.862
688.56	22.954
688.89	22.562
689.21	23.892
689.53	24.111
689.85	22.967
690.17	24.466
690.49	26.210
690.82	24.580
691.14	23.838
691.46	25.462
691.78	23.782
692.10	24.618
692.42	23.593
692.74	23.643
693.06	25.581
693.39	22.727
693.71	22.004
694.03	24.063
694.35	26.707
694.67	26.069
694.99	22.395
695.31	23.874
695.63	23.982
695.95	24.661
696.27	25.664
696.59	23.866
696.91	23.038
697.23	25.566
697.56	24.896
697.88	21.357
698.20	24.528
698.52	23.735
698.84	25.257
699.16	26.652
699.48	23.941
699.80	27.669
700.12	27.252
700.44	20.794
700.76	25.776
701.08	23.238
701.40	22.857
701.72	25.936
702.04	23.577
702.36	26.344
702.68	24.468
703.00	25.063
703.32	26.055
703.64	25.945
703.96	25.521
704.28	26.984
704.60	26.479
704.91	26.611
705.23	25.852
705.55	26.706
705.87	23.175
706.19	22.884
706.51	27.900
706.83	25.074
707.15	28.610
707.47	25.182
707.79	26.667
708.11	25.850
708.43	24.944
708.74	23.077
709.06	24.186
709.38	26.055
709.70	24.523
710.02	25.272
710.34	23.481
710.66	24.722
710.98	24.317
711.29	27.298
711.61	26.462
711.93	31.003
712.25	27.108
712.57	27.974
712.89	33.030
713.20	30.671
713.52	30.841
713.84	27.795
714.16	23.478
714.48	21.614
714.80	24.661
715.11	23.404
715.43	26.257
715.75	27.042
716.07	28.902
716.39	28.571
716.70	23.988
717.02	26.936
717.34	31.655
717.66	29.861
717.97	31.061
718.29	28.169
718.61	29.392
718.93	26.298
719.24	30.201
719.56	25.517
719.88	24.522
720.20	27.097
720.51	28.431
720.83	28.763
721.15	29.592
721.46	31.164
721.78	27.875
722.10	30.208
722.42	28.763
722.73	24.188
723.05	26.667
723.37	30.742
723.68	28.125
724.00	29.545
724.32	27.757
724.63	24.615
724.95	29.804
725.27	25.651
725.58	29.412
725.90	23.944
726.22	27.055
726.53	25.753
726.85	26.710
727.16	29.195
727.48	24.252
727.80	30.216
728.11	30.714
728.43	26.087
728.74	29.021
729.06	24.373
729.38	27.719
729.69	33.667
730.01	28.947
730.32	29.530
730.64	34.551
730.96	32.132
731.27	23.547
731.59	27.299
731.90	27.855
732.22	30.000
732.53	26.781
732.85	28.947
733.16	28.313
733.48	28.213
733.80	29.275
734.11	27.914
734.43	26.901
734.74	26.542
735.06	32.275
735.37	24.485
735.69	28.116
736.00	29.969
736.32	22.424
736.63	25.552
736.95	25.466
737.26	30.183
737.58	28.528
737.89	26.807
738.21	26.490
738.52	26.756
738.83	30.769
739.15	30.314
739.46	25.862
739.78	29.932
740.09	32.070
740.41	27.607
740.72	30.794
741.04	29.021
741.35	29.297
741.66	28.458
741.98	29.614
742.29	32.870
742.61	30.973
742.92	31.356
743.23	32.400
743.55	28.302
743.86	28.627
744.18	30.508
744.49	34.711
744.80	30.415
745.12	32.143
745.43	32.243
745.74	32.889
746.06	32.018
746.37	35.814
746.68	33.186
747.00	34.529
747.31	30.672
747.62	29.508
747.94	31.760
748.25	29.961
748.56	29.661
748.88	31.696
749.19	35.814
749.50	29.680
749.82	28.807
750.13	30.040
750.44	23.333
750.75	31.208
751.07	25.658
751.38	27.393
751.69	26.263
752.01	29.371
752.32	28.904
752.63	30.201
752.94	32.867
753.26	32.031
753.57	29.183
753.88	29.588
754.19	31.047
754.51	25.249
754.82	27.517
755.13	23.649
755.44	30.741
755.75	31.959
756.07	28.425
756.38	28.105
756.69	30.000
757.00	30.564
757.31	28.451
757.63	28.375
757.94	25.266
758.25	27.536
758.56	25.629
758.87	28.822
759.18	27.326
759.50	25.228
759.81	26.113
760.12	26.124
760.43	28.011
760.74	29.873
761.05	27.321
761.36	26.302
761.67	29.650
761.99	29.577
762.30	29.582
762.61	27.431
762.92	31.061
763.23	31.321
763.54	29.231
763.85	29.572
764.16	34.722
764.47	27.703
764.78	26.384
765.10	27.744
765.41	26.136
765.72	27.624
766.03	28.701
766.34	32.404
766.65	33.080
766.96	34.413
767.27	32.243
767.58	38.614
767.89	37.569
768.20	42.683
768.51	33.163
768.82	31.579
769.13	33.333
769.44	30.075
769.75	26.217
770.06	33.193
770.37	31.140
770.68	25.778
770.99	30.932
771.30	30.126
771.61	33.077
771.92	26.336
772.23	33.468
772.54	34.222
772.85	37.129
773.16	38.043
773.47	33.889
773.78	37.129
774.09	38.636
774.39	40.606
774.70	34.706
775.01	36.842
775.32	34.783
775.63	42.466
775.94	43.827
776.25	38.621
776.56	49.618
776.87	45.038
777.18	41.667
777.48	43.307
777.79	43.846
778.10	43.939
778.41	41.791
778.72	39.850
779.03	35.897
779.34	40.541
779.65	38.509
779.95	34.783
780.26	39.286
780.57	46.939
780.88	50.355
781.19	49.167
781.50	42.604
781.80	36.066
782.11	34.921
782.42	35.057
782.73	36.158
783.04	38.710
783.34	38.760
783.65	34.694
783.96	43.871
784.27	36.424
784.57	41.447
784.88	50.725
785.19	44.167
785.50	38.793
785.81	45.736
786.11	38.519
786.42	45.669
786.73	46.847
787.04	50.000
787.34	39.837
787.65	48.485
787.96	43.939
788.26	38.583
788.57	40.876
788.88	43.662
789.19	41.221
789.49	41.892
789.80	46.094
790.11	44.628
790.41	51.852
790.72	45.370
791.03	57.692
791.33	53.535
791.64	54.737
791.95	51.579
792.25	36.458
792.56	52.000
792.87	52.439
793.17	39.773
793.48	45.882
793.79	65.517
794.09	60.227
794.40	47.414
794.70	40.476
795.01	36.154
795.32	42.748
795.62	42.735
795.93	49.580
796.23	51.220
796.54	58.163
796.85	54.545
797.15	70.130
797.46	78.049
797.76	46.250
798.07	50.667
798.37	61.250
798.68	60.000
798.99	69.512
799.29	64.000
799.60	59.302
799.90	65.789
800.21	74.242
800.51	77.465
800.82	62.069
801.12	73.846
801.43	72.000
801.73	62.069
802.04	67.532
802.34	61.644
802.65	52.941
802.95	78.261
803.26	80.645
803.56	98.333
803.87	56.716
804.17	84.127
804.48	73.585
804.78	59.722
805.09	62.121
805.39	88.889
805.70	63.158
806.00	61.429
806.30	76.563
806.61	50.588
806.91	52.222
807.22	43.478
807.52	69.737
807.83	73.684
808.13	50.725
808.43	59.677
808.74	57.534
809.04	60.714
809.35	66.176
809.65	72.727
809.95	68.627
810.26	100.000
810.56	92.188
810.86	93.878
811.17	92.982
811.47	80.435
811.77	86.207
812.08	60.345
812.38	78.571
812.69	90.476
812.99	77.778
813.29	94.286
813.59	96.774
813.90	60.345
814.20	72.131
814.50	72.000
814.81	87.719
815.11	98.148
815.41	71.429
815.72	76.786
816.02	98.000
816.32	92.683
816.62	84.483
816.93	84.848
817.23	85.366
817.53	73.214
817.84	91.111
818.14	109.524
818.44	102.083
818.74	83.019
819.04	92.308
819.35	87.879
819.65	98.077
819.95	101.852
820.25	95.745
820.56	121.622
820.86	94.737
821.16	97.872
821.46	100.000
821.76	100.000
822.07	66.667
822.37	123.684
822.67	134.884
822.97	81.579
823.27	102.174
823.57	100.000
823.88	123.077
824.18	93.939
824.48	139.130
824.78	122.222
825.08	160.870
825.38	131.034
825.69	129.412
825.99	89.362
826.29	69.444
826.59	97.143
826.89	106.667
827.19	80.000
827.49	151.613
827.79	184.615
828.09	104.762
828.39	100.000
828.70	86.486
829.00	160.714
829.30	193.750
829.60	125.000
829.90	87.097
830.20	87.879
830.50	124.324
830.80	145.833
831.10	176.923
831.40	190.476
831.70	204.167
832.00	103.333
832.30	160.870
832.60	183.333
832.90	169.697
833.20	170.000
833.50	150.000
833.80	111.765
834.10	110.526
834.40	142.105
834.70	120.000
835.00	132.000
835.30	94.595
835.60	140.625
835.90	113.514
836.20	157.692
836.50	109.091
836.80	119.512
837.10	165.217
837.40	253.846
837.70	142.105
838.00	140.000
838.30	166.667
838.60	160.000
838.90	320.000
839.19	175.000
839.49	170.000
839.79	106.897
840.09	157.692
840.39	180.000
840.69	189.474
840.99	152.381
841.29	156.522
841.59	185.000
841.88	152.000
842.18	266.667
842.48	157.143
842.78	148.148
843.08	123.077
843.38	177.273
843.68	185.714
843.97	371.429
844.27	178.261
844.57	1250.000
844.87	292.857
845.17	216.667
845.47	152.381
845.76	175.000
846.06	385.714
846.36	223.529
846.66	161.538
846.96	243.750
847.25	261.538
847.55	142.105
847.85	188.889
848.15	720.000
848.44	318.182
848.74	185.714
849.04	154.167
849.34	182.353
849.63	206.250
849.93	243.750
850.23	733.333
850.53	375.000
850.82	354.545
851.12	200.000
851.42	141.667
851.71	237.500
852.01	0.000
852.31	194.118
852.61	410.000
852.90	137.500
853.20	255.556
853.50	-1900.000
853.79	156.000
854.09	162.500
854.39	120.690
854.68	151.724
854.98	204.762
855.28	135.484
855.57	235.714
855.87	177.778
856.17	129.630
856.46	210.526
856.76	93.548
857.05	235.294
857.35	281.818
857.65	253.846
857.94	140.000
858.24	377.778
858.53	307.143
858.83	542.857
859.13	178.261
859.42	366.667
859.72	437.500
860.01	333.333
860.31	900.000
860.60	360.000
860.90	337.500
861.20	269.231
861.49	500.000
861.79	-2700.000
862.08	442.857
862.38	300.000
862.67	235.714
862.97	410.000
863.26	156.667
863.56	775.000
863.85	346.154
864.15	247.059
864.44	211.111
864.74	283.333
865.03	245.455
865.33	375.000
865.62	233.333
865.92	566.667
866.21	675.000
866.51	700.000
866.80	261.111
867.10	833.333
867.39	3300.000
867.69	460.000
867.98	800.000
868.27	138.095
868.57	220.000
868.86	1000.000
869.16	166.667
869.45	2800.000
869.75	-433.333
870.04	700.000
870.33	600.000
870.63	312.500
870.92	223.529
871.22	675.000
871.51	485.714
871.80	358.333
872.10	253.846
>>>>>End Processed Spectral Data<<<<<
