SpectraSuite Data File
++++++++++++++++++++++++++++++++++++
Date: Tue May 12 17:24:17 PDT 2015
User: schluterlab
Dark Spectrum Present: Yes
Reference Spectrum Present: Yes
Number of Sampled Component Spectra: 1
Spectrometers: USB2E3373
Integration Time (usec): 3000 (USB2E3373)
Spectra Averaged: 3 (USB2E3373)
Boxcar Smoothing: 0 (USB2E3373)
Correct for Electrical Dark: No (USB2E3373)
Strobe/Lamp Enabled: No (USB2E3373)
Correct for Detector Non-linearity: No (USB2E3373)
Correct for Stray Light: No (USB2E3373)
Number of Pixels in Processed Spectrum: 2048
>>>>>Begin Processed Spectral Data<<<<<
178.53	0.000
178.91	-258.333
179.29	-700.000
179.67	-3700.000
180.04	-120.000
180.42	775.000
180.80	1250.000
181.18	0.000
181.56	-400.000
181.94	0.000
182.31	1200.000
182.69	-3800.000
183.07	500.000
183.45	-3100.000
183.83	-1350.000
184.20	440.000
184.58	500.000
184.96	-246.154
185.34	-208.333
185.72	1800.000
186.09	-825.000
186.47	-3300.000
186.85	900.000
187.23	700.000
187.61	1400.000
187.98	437.500
188.36	200.000
188.74	283.333
189.12	316.667
189.49	975.000
189.87	0.000
190.25	412.500
190.63	2100.000
191.00	-241.667
191.38	-3300.000
191.76	-675.000
192.14	525.000
192.51	-3200.000
192.89	1900.000
193.27	1066.667
193.65	-866.667
194.02	-760.000
194.40	471.429
194.78	-221.429
195.15	266.667
195.53	-3300.000
195.91	-620.000
196.29	4000.000
196.66	206.250
197.04	975.000
197.42	-1500.000
197.79	550.000
198.17	333.333
198.55	0.000
198.92	585.714
199.30	1600.000
199.68	2300.000
200.05	650.000
200.43	-566.667
200.81	261.111
201.18	3000.000
201.56	325.000
201.94	-825.000
202.31	-400.000
202.69	-620.000
203.07	3100.000
203.44	-466.667
203.82	291.667
204.19	700.000
204.57	-1250.000
204.95	-850.000
205.32	-660.000
205.70	566.667
206.08	925.000
206.45	-833.333
206.83	333.333
207.20	189.474
207.58	316.667
207.96	680.000
208.33	0.000
208.71	671.429
209.08	620.000
209.46	-2200.000
209.84	-750.000
210.21	940.000
210.59	-580.000
210.96	350.000
211.34	-875.000
211.71	345.455
212.09	700.000
212.46	2200.000
212.84	-433.333
213.22	455.556
213.59	-3000.000
213.97	400.000
214.34	1075.000
214.72	1300.000
215.09	1266.667
215.47	-3300.000
215.84	-280.000
216.22	-312.500
216.59	0.000
216.97	0.000
217.34	1750.000
217.72	-1200.000
218.09	1066.667
218.47	375.000
218.84	1025.000
219.22	1166.667
219.59	1233.333
219.97	485.714
220.34	355.556
220.72	2100.000
221.09	4400.000
221.47	266.667
221.84	766.667
222.22	290.000
222.59	277.778
222.97	214.286
223.34	212.500
223.72	-1650.000
224.09	900.000
224.46	246.154
224.84	-750.000
225.21	400.000
225.59	233.333
225.96	1366.667
226.34	-700.000
226.71	-750.000
227.08	-580.000
227.46	0.000
227.83	-666.667
228.21	-1600.000
228.58	441.667
228.95	1075.000
229.33	400.000
229.70	975.000
230.08	338.462
230.45	3200.000
230.82	-750.000
231.20	-900.000
231.57	-1100.000
231.95	600.000
232.32	266.667
232.69	666.667
233.07	300.000
233.44	-2100.000
233.81	233.333
234.19	170.370
234.56	250.000
234.93	229.412
235.31	210.000
235.68	256.250
236.05	153.571
236.43	192.593
236.80	221.429
237.17	168.966
237.55	125.000
237.92	122.500
238.29	148.485
238.67	128.125
239.04	124.390
239.41	93.750
239.79	107.500
240.16	112.500
240.53	96.721
240.91	82.609
241.28	101.695
241.65	83.333
242.02	90.141
242.40	88.571
242.77	78.022
243.14	73.418
243.51	91.919
243.89	70.093
244.26	69.159
244.63	63.366
245.00	68.807
245.38	62.712
245.75	65.152
246.12	67.407
246.49	63.121
246.87	64.754
247.24	66.667
247.61	63.750
247.98	68.027
248.36	50.909
248.73	57.653
249.10	54.167
249.47	54.000
249.84	57.214
250.22	61.081
250.59	52.000
250.96	54.430
251.33	54.419
251.70	52.232
252.08	58.824
252.45	53.785
252.82	44.487
253.19	47.431
253.56	50.385
253.94	53.986
254.31	50.775
254.68	51.916
255.05	51.724
255.42	56.204
255.79	50.489
256.16	50.847
256.54	52.922
256.91	55.229
257.28	54.181
257.65	49.530
258.02	47.788
258.39	48.711
258.76	52.464
259.14	48.000
259.51	48.688
259.88	48.936
260.25	45.879
260.62	49.315
260.99	44.628
261.36	49.582
261.73	50.798
262.10	48.691
262.47	47.750
262.85	47.733
263.22	48.843
263.59	46.803
263.96	45.865
264.33	45.432
264.70	48.403
265.07	49.268
265.44	45.183
265.81	46.462
266.18	47.140
266.55	47.518
266.92	45.414
267.29	47.368
267.66	43.722
268.03	44.843
268.40	43.763
268.77	49.119
269.14	45.987
269.51	45.434
269.88	44.694
270.25	41.253
270.62	46.137
270.99	48.073
271.36	44.512
271.73	44.864
272.10	42.222
272.47	45.635
272.84	41.916
273.21	42.355
273.58	44.130
273.95	42.916
274.32	46.693
274.69	48.031
275.06	44.991
275.43	43.870
275.80	44.717
276.17	42.279
276.54	46.168
276.91	44.590
277.28	42.701
277.65	43.173
278.02	43.382
278.39	42.986
278.76	42.586
279.13	43.238
279.50	45.636
279.87	43.389
280.23	44.199
280.60	41.971
280.97	43.448
281.34	42.574
281.71	40.870
282.08	43.590
282.45	41.892
282.82	44.649
283.19	40.859
283.56	41.488
283.92	41.368
284.29	42.263
284.66	38.992
285.03	42.123
285.40	42.479
285.77	40.432
286.14	41.486
286.51	37.577
286.87	38.924
287.24	39.790
287.61	40.881
287.98	39.851
288.35	38.963
288.72	39.150
289.08	39.039
289.45	39.482
289.82	40.469
290.19	35.286
290.56	40.175
290.93	36.978
291.29	38.260
291.66	37.006
292.03	38.289
292.40	34.282
292.77	35.097
293.13	38.231
293.50	36.437
293.87	33.604
294.24	36.643
294.60	34.993
294.97	35.105
295.34	36.653
295.71	35.611
296.08	34.267
296.44	34.180
296.81	34.615
297.18	31.812
297.55	35.099
297.91	32.759
298.28	33.454
298.65	34.969
299.02	33.414
299.38	32.134
299.75	33.049
300.12	32.798
300.48	33.958
300.85	32.300
301.22	33.140
301.59	33.137
301.95	32.322
302.32	33.178
302.69	32.805
303.05	34.231
303.42	30.942
303.79	31.853
304.15	31.683
304.52	31.501
304.89	31.663
305.25	32.814
305.62	31.450
305.99	31.304
306.35	31.579
306.72	34.235
307.09	33.437
307.45	33.369
307.82	33.333
308.19	32.577
308.55	31.700
308.92	33.857
309.29	33.826
309.65	33.201
310.02	34.280
310.38	34.297
310.75	34.233
311.12	32.375
311.48	34.556
311.85	35.115
312.22	35.053
312.58	35.763
312.95	35.437
313.31	36.798
313.68	38.086
314.05	37.271
314.41	35.940
314.78	37.784
315.14	39.905
315.51	39.830
315.87	39.690
316.24	40.523
316.61	39.481
316.97	40.367
317.34	41.599
317.70	41.528
318.07	43.861
318.43	44.464
318.80	44.308
319.16	45.804
319.53	47.080
319.89	45.968
320.26	49.162
320.62	48.443
320.99	49.571
321.35	48.887
321.72	50.664
322.08	52.170
322.45	51.771
322.81	53.888
323.18	55.062
323.54	57.143
323.91	58.296
324.27	58.886
324.64	59.343
325.00	60.690
325.37	63.406
325.73	64.165
326.10	65.700
326.46	65.813
326.83	65.760
327.19	67.550
327.56	68.770
327.92	71.311
328.29	71.440
328.65	73.031
329.01	72.370
329.38	71.658
329.74	70.623
330.11	72.372
330.47	75.448
330.84	73.770
331.20	76.142
331.56	76.684
331.93	77.246
332.29	74.830
332.66	77.806
333.02	79.038
333.38	78.709
333.75	78.982
334.11	77.685
334.48	78.632
334.84	78.209
335.20	79.299
335.57	78.757
335.93	79.058
336.29	76.617
336.66	82.075
337.02	80.667
337.38	80.653
337.75	83.530
338.11	80.422
338.47	80.779
338.84	80.271
339.20	81.472
339.56	79.983
339.93	80.017
340.29	82.101
340.65	82.397
341.02	80.290
341.38	81.199
341.74	83.472
342.11	83.890
342.47	82.199
342.83	83.839
343.20	82.538
343.56	80.461
343.92	84.063
344.28	82.217
344.65	84.841
345.01	82.540
345.37	83.494
345.73	83.333
346.10	82.789
346.46	82.935
346.82	82.562
347.19	84.080
347.55	82.358
347.91	82.326
348.27	81.797
348.63	84.573
349.00	81.950
349.36	84.436
349.72	83.180
350.08	84.860
350.45	82.711
350.81	84.404
351.17	83.744
351.53	83.141
351.89	82.906
352.26	83.069
352.62	83.258
352.98	85.583
353.34	85.593
353.70	84.862
354.07	86.154
354.43	83.794
354.79	84.662
355.15	85.452
355.51	84.517
355.87	84.940
356.24	83.372
356.60	85.236
356.96	85.747
357.32	83.421
357.68	84.361
358.04	85.942
358.40	84.858
358.77	85.500
359.13	85.210
359.49	83.617
359.85	86.150
360.21	84.175
360.57	84.307
360.93	84.488
361.29	86.003
361.66	86.130
362.02	85.582
362.38	86.724
362.74	86.129
363.10	86.816
363.46	85.566
363.82	84.993
364.18	87.127
364.54	88.698
364.90	85.743
365.26	87.509
365.62	85.635
365.98	85.341
366.35	85.241
366.71	86.745
367.07	86.212
367.43	85.897
367.79	85.372
368.15	84.668
368.51	87.388
368.87	87.500
369.23	87.872
369.59	87.323
369.95	87.622
370.31	87.064
370.67	86.121
371.03	85.294
371.39	87.119
371.75	89.463
372.11	86.540
372.47	85.753
372.83	86.880
373.19	86.429
373.55	85.773
373.91	86.878
374.27	85.714
374.63	87.186
374.99	86.321
375.35	88.575
375.71	88.391
376.07	86.870
376.42	85.422
376.78	87.925
377.14	88.139
377.50	86.454
377.86	87.252
378.22	86.472
378.58	86.380
378.94	87.387
379.30	87.204
379.66	86.153
380.02	87.918
380.38	87.002
380.74	88.524
381.09	86.215
381.45	85.145
381.81	86.702
382.17	87.057
382.53	86.023
382.89	87.463
383.25	88.692
383.61	84.841
383.97	86.503
384.32	87.281
384.68	88.295
385.04	86.694
385.40	85.350
385.76	85.606
386.12	86.333
386.48	87.781
386.83	87.958
387.19	86.455
387.55	85.512
387.91	86.778
388.27	85.901
388.62	86.620
388.98	86.531
389.34	84.949
389.70	86.144
390.06	85.549
390.42	85.873
390.77	84.582
391.13	86.844
391.49	85.057
391.85	86.831
392.20	84.386
392.56	85.245
392.92	84.952
393.28	84.753
393.64	84.576
393.99	84.351
394.35	85.168
394.71	82.931
395.07	84.428
395.42	84.426
395.78	85.071
396.14	85.602
396.50	83.333
396.85	83.780
397.21	84.176
397.57	84.758
397.92	83.420
398.28	84.501
398.64	84.119
399.00	82.790
399.35	83.145
399.71	82.781
400.07	83.733
400.42	83.761
400.78	84.340
401.14	83.617
401.49	82.834
401.85	82.966
402.21	83.597
402.57	84.680
402.92	83.394
403.28	82.458
403.63	83.284
403.99	82.388
404.35	83.939
404.70	84.761
405.06	82.257
405.42	82.585
405.77	82.029
406.13	81.236
406.49	81.353
406.84	80.711
407.20	80.765
407.55	82.400
407.91	80.855
408.27	81.443
408.62	82.318
408.98	81.017
409.34	80.947
409.69	80.212
410.05	80.322
410.40	80.860
410.76	80.595
411.11	80.332
411.47	79.753
411.83	79.789
412.18	80.978
412.54	78.739
412.89	78.938
413.25	79.190
413.60	80.199
413.96	79.832
414.31	78.808
414.67	81.068
415.03	79.374
415.38	78.991
415.74	79.848
416.09	79.700
416.45	80.155
416.80	81.078
417.16	78.421
417.51	79.682
417.87	79.599
418.22	79.769
418.58	78.790
418.93	79.239
419.29	78.127
419.64	78.498
420.00	78.998
420.35	79.326
420.71	78.880
421.06	79.812
421.42	79.620
421.77	80.067
422.12	78.390
422.48	76.220
422.83	78.850
423.19	77.646
423.54	76.906
423.90	77.633
424.25	78.701
424.61	77.539
424.96	78.938
425.31	79.420
425.67	79.461
426.02	78.800
426.38	78.413
426.73	78.890
427.09	78.470
427.44	77.715
427.79	78.559
428.15	79.081
428.50	78.571
428.85	78.072
429.21	76.445
429.56	77.418
429.92	77.026
430.27	77.068
430.62	76.701
430.98	75.998
431.33	77.722
431.68	75.309
432.04	76.513
432.39	77.168
432.74	76.756
433.10	77.796
433.45	76.910
433.80	79.261
434.16	76.511
434.51	78.431
434.86	77.572
435.22	77.472
435.57	78.423
435.92	78.315
436.28	77.304
436.63	77.202
436.98	79.842
437.34	77.283
437.69	75.364
438.04	77.258
438.39	76.766
438.75	75.223
439.10	76.579
439.45	75.523
439.81	77.154
440.16	75.454
440.51	77.140
440.86	77.208
441.22	75.379
441.57	75.171
441.92	75.864
442.27	75.567
442.63	75.407
442.98	74.892
443.33	76.540
443.68	75.905
444.03	75.589
444.39	75.895
444.74	73.810
445.09	74.671
445.44	74.495
445.79	75.926
446.15	75.263
446.50	75.211
446.85	74.751
447.20	74.677
447.55	76.128
447.91	76.718
448.26	73.642
448.61	75.677
448.96	75.545
449.31	75.633
449.66	75.360
450.02	74.824
450.37	76.291
450.72	75.427
451.07	74.985
451.42	74.985
451.77	76.231
452.12	73.625
452.47	74.241
452.83	75.099
453.18	74.234
453.53	75.015
453.88	75.600
454.23	74.608
454.58	73.368
454.93	74.678
455.28	75.092
455.63	76.005
455.98	73.096
456.34	75.015
456.69	75.671
457.04	74.165
457.39	73.714
457.74	73.311
458.09	73.554
458.44	71.851
458.79	72.944
459.14	74.414
459.49	73.103
459.84	73.750
460.19	72.486
460.54	73.219
460.89	73.507
461.24	70.619
461.59	73.186
461.94	72.281
462.29	72.311
462.64	73.178
462.99	71.977
463.34	72.456
463.69	72.111
464.04	74.324
464.39	72.066
464.74	71.454
465.09	71.039
465.44	72.307
465.79	72.074
466.14	69.793
466.49	72.111
466.84	69.788
467.19	71.588
467.54	71.411
467.89	71.420
468.24	71.395
468.59	69.643
468.94	71.679
469.29	70.922
469.64	70.225
469.99	70.758
470.34	72.106
470.68	71.379
471.03	73.182
471.38	71.457
471.73	71.718
472.08	73.190
472.43	71.633
472.78	70.935
473.13	71.089
473.48	70.660
473.83	70.141
474.17	71.368
474.52	70.438
474.87	68.789
475.22	70.417
475.57	68.993
475.92	69.852
476.27	68.879
476.61	69.383
476.96	69.018
477.31	69.254
477.66	70.907
478.01	68.644
478.36	70.185
478.70	66.849
479.05	70.607
479.40	68.800
479.75	69.613
480.10	67.861
480.45	67.927
480.79	67.972
481.14	67.427
481.49	66.880
481.84	66.403
482.19	67.904
482.53	68.028
482.88	67.070
483.23	68.426
483.58	67.774
483.92	68.556
484.27	66.995
484.62	65.535
484.97	65.446
485.31	65.016
485.66	63.390
486.01	62.054
486.36	61.084
486.70	61.844
487.05	62.822
487.40	63.438
487.75	63.667
488.09	63.494
488.44	64.085
488.79	64.457
489.13	65.957
489.48	65.362
489.83	66.305
490.17	64.946
490.52	66.451
490.87	64.698
491.22	66.002
491.56	66.403
491.91	65.771
492.26	66.548
492.60	66.879
492.95	66.606
493.30	66.606
493.64	65.588
493.99	65.072
494.34	66.428
494.68	66.135
495.03	65.694
495.37	66.412
495.72	64.988
496.07	64.690
496.41	64.205
496.76	64.120
497.11	64.567
497.45	65.585
497.80	65.524
498.14	65.280
498.49	64.903
498.84	65.327
499.18	63.985
499.53	65.090
499.87	63.971
500.22	64.855
500.56	64.949
500.91	65.121
501.26	64.309
501.60	64.709
501.95	65.099
502.29	63.600
502.64	63.652
502.98	63.539
503.33	64.143
503.67	63.753
504.02	63.368
504.36	64.344
504.71	65.184
505.06	63.773
505.40	63.547
505.75	63.143
506.09	63.649
506.44	64.333
506.78	64.461
507.13	64.857
507.47	63.270
507.82	64.380
508.16	63.988
508.51	63.961
508.85	62.915
509.19	64.856
509.54	64.258
509.88	63.899
510.23	64.069
510.57	62.934
510.92	64.635
511.26	65.311
511.61	62.875
511.95	63.216
512.30	63.250
512.64	64.486
512.98	63.865
513.33	63.730
513.67	64.474
514.02	64.312
514.36	63.396
514.70	63.253
515.05	64.145
515.39	65.241
515.74	65.828
516.08	64.706
516.42	65.519
516.77	64.373
517.11	64.213
517.46	63.578
517.80	62.698
518.14	65.634
518.49	64.223
518.83	62.198
519.17	63.783
519.52	64.555
519.86	64.196
520.20	63.233
520.55	63.765
520.89	63.448
521.23	65.070
521.58	64.257
521.92	65.481
522.26	64.218
522.61	65.419
522.95	65.165
523.29	65.380
523.64	64.046
523.98	65.200
524.32	64.302
524.66	63.942
525.01	64.260
525.35	64.054
525.69	65.804
526.04	64.128
526.38	63.861
526.72	63.723
527.06	63.749
527.41	64.027
527.75	65.368
528.09	62.613
528.43	63.331
528.78	63.626
529.12	65.081
529.46	62.011
529.80	62.033
530.15	63.111
530.49	63.779
530.83	64.534
531.17	62.423
531.51	63.948
531.86	62.681
532.20	63.412
532.54	64.218
532.88	64.710
533.22	62.279
533.57	63.941
533.91	61.655
534.25	60.819
534.59	62.749
534.93	61.377
535.27	60.615
535.62	61.552
535.96	61.525
536.30	63.437
536.64	60.994
536.98	61.045
537.32	62.625
537.66	62.436
538.01	61.858
538.35	61.634
538.69	61.165
539.03	60.572
539.37	60.316
539.71	61.728
540.05	61.231
540.39	61.384
540.73	61.519
541.07	60.602
541.42	61.692
541.76	61.097
542.10	60.358
542.44	61.845
542.78	61.171
543.12	60.859
543.46	59.837
543.80	60.777
544.14	60.000
544.48	59.550
544.82	60.367
545.16	58.409
545.50	59.865
545.84	60.985
546.18	62.614
546.52	60.590
546.86	60.671
547.20	58.915
547.54	58.708
547.88	58.820
548.22	59.563
548.56	57.513
548.90	58.541
549.24	58.749
549.58	59.923
549.92	60.511
550.26	60.446
550.60	59.814
550.94	61.669
551.28	60.897
551.62	62.069
551.96	60.473
552.30	58.668
552.64	60.129
552.98	60.116
553.32	59.923
553.66	59.088
554.00	58.687
554.34	60.453
554.68	60.148
555.02	60.353
555.36	58.843
555.69	58.901
556.03	59.554
556.37	59.210
556.71	59.257
557.05	58.191
557.39	58.667
557.73	59.906
558.07	60.630
558.41	59.836
558.75	59.439
559.08	61.687
559.42	61.775
559.76	60.442
560.10	59.670
560.44	58.792
560.78	60.294
561.12	59.123
561.45	59.074
561.79	56.492
562.13	59.191
562.47	57.560
562.81	58.816
563.15	58.759
563.48	56.646
563.82	59.201
564.16	57.836
564.50	55.937
564.84	57.264
565.17	55.318
565.51	58.190
565.85	58.853
566.19	57.321
566.52	57.461
566.86	57.151
567.20	56.236
567.54	55.131
567.88	56.390
568.21	54.019
568.55	54.086
568.89	53.513
569.23	53.192
569.56	52.955
569.90	50.449
570.24	51.584
570.57	50.454
570.91	50.172
571.25	50.000
571.59	49.323
571.92	48.224
572.26	49.191
572.60	49.014
572.93	49.827
573.27	49.540
573.61	48.890
573.95	48.282
574.28	48.667
574.62	47.485
574.96	47.785
575.29	47.657
575.63	47.091
575.97	46.689
576.30	47.304
576.64	47.507
576.98	46.970
577.31	47.391
577.65	47.085
577.98	46.431
578.32	46.161
578.66	46.656
578.99	47.095
579.33	46.843
579.67	46.827
580.00	46.480
580.34	46.424
580.67	45.772
581.01	46.654
581.35	46.850
581.68	45.877
582.02	45.565
582.35	45.709
582.69	45.534
583.02	46.364
583.36	46.741
583.70	47.337
584.03	47.726
584.37	47.249
584.70	47.226
585.04	46.467
585.37	45.852
585.71	47.213
586.04	45.693
586.38	46.948
586.72	46.384
587.05	47.195
587.39	46.928
587.72	46.792
588.06	46.784
588.39	47.032
588.73	46.935
589.06	48.001
589.40	48.263
589.73	48.312
590.07	48.456
590.40	49.617
590.73	50.165
591.07	50.095
591.40	48.663
591.74	50.284
592.07	48.794
592.41	48.042
592.74	48.444
593.08	47.884
593.41	47.187
593.75	47.262
594.08	48.291
594.41	47.312
594.75	48.733
595.08	48.320
595.42	47.103
595.75	47.055
596.09	48.210
596.42	47.451
596.75	49.159
597.09	48.287
597.42	48.490
597.75	48.114
598.09	48.666
598.42	48.144
598.76	47.224
599.09	47.223
599.42	46.955
599.76	47.151
600.09	46.034
600.42	47.756
600.76	47.451
601.09	47.083
601.42	47.307
601.76	47.583
602.09	47.572
602.42	46.839
602.76	47.362
603.09	48.831
603.42	46.642
603.76	47.108
604.09	47.304
604.42	47.345
604.76	47.610
605.09	48.531
605.42	48.070
605.75	47.730
606.09	47.284
606.42	47.651
606.75	47.105
607.09	46.348
607.42	47.810
607.75	47.930
608.08	47.725
608.42	48.784
608.75	48.053
609.08	48.526
609.41	48.864
609.75	47.985
610.08	49.146
610.41	47.431
610.74	48.571
611.07	48.977
611.41	49.583
611.74	49.283
612.07	49.711
612.40	48.294
612.73	49.875
613.07	49.569
613.40	49.724
613.73	49.975
614.06	48.650
614.39	49.394
614.72	49.221
615.06	48.813
615.39	48.465
615.72	47.919
616.05	49.121
616.38	49.467
616.71	49.485
617.05	49.314
617.38	49.831
617.71	49.213
618.04	50.140
618.37	50.361
618.70	50.231
619.03	50.244
619.36	51.382
619.69	51.451
620.03	52.381
620.36	51.830
620.69	52.554
621.02	52.038
621.35	51.289
621.68	52.655
622.01	54.317
622.34	51.493
622.67	52.388
623.00	51.804
623.33	50.877
623.66	51.963
623.99	52.397
624.32	51.829
624.65	49.770
624.99	52.671
625.32	51.503
625.65	50.690
625.98	52.441
626.31	53.561
626.64	52.999
626.97	53.558
627.30	53.649
627.63	54.474
627.96	52.034
628.29	54.785
628.62	52.438
628.95	54.787
629.28	55.039
629.61	54.482
629.94	54.019
630.26	55.806
630.59	56.738
630.92	56.502
631.25	54.669
631.58	57.088
631.91	56.042
632.24	56.268
632.57	54.617
632.90	59.006
633.23	58.027
633.56	60.063
633.89	58.199
634.22	58.342
634.55	58.065
634.88	59.146
635.20	59.193
635.53	59.930
635.86	59.620
636.19	58.474
636.52	57.297
636.85	58.576
637.18	56.663
637.51	58.212
637.83	57.323
638.16	59.672
638.49	58.443
638.82	57.981
639.15	57.109
639.48	58.412
639.81	59.463
640.13	59.509
640.46	59.418
640.79	59.428
641.12	60.761
641.45	60.414
641.77	61.823
642.10	60.241
642.43	62.020
642.76	60.795
643.09	61.527
643.41	62.272
643.74	62.878
644.07	61.504
644.40	59.024
644.73	62.312
645.05	61.961
645.38	64.012
645.71	61.002
646.04	60.763
646.36	64.476
646.69	61.600
647.02	63.200
647.35	61.102
647.67	63.371
648.00	64.495
648.33	59.699
648.66	63.939
648.98	58.986
649.31	57.220
649.64	57.538
649.96	58.890
650.29	57.143
650.62	60.530
650.94	62.500
651.27	62.679
651.60	62.128
651.92	60.369
652.25	63.150
652.58	57.021
652.90	59.281
653.23	58.050
653.56	59.792
653.88	57.122
654.21	58.798
654.54	57.540
654.86	59.882
655.19	57.388
655.52	48.382
655.84	36.813
656.17	42.052
656.49	59.912
656.82	68.845
657.15	55.086
657.47	41.322
657.80	30.742
658.13	24.531
658.45	33.212
658.78	39.846
659.10	40.445
659.43	41.086
659.75	43.295
660.08	46.617
660.41	49.456
660.73	56.587
661.06	58.709
661.38	60.647
661.71	61.691
662.03	63.498
662.36	63.429
662.68	61.453
663.01	63.243
663.33	61.321
663.66	63.905
663.98	65.476
664.31	61.194
664.63	62.835
664.96	62.852
665.28	60.640
665.61	61.509
665.93	64.906
666.26	64.112
666.58	63.853
666.91	62.548
667.23	64.056
667.56	63.039
667.88	64.523
668.21	64.139
668.53	66.129
668.86	60.521
669.18	63.340
669.50	64.463
669.83	63.039
670.15	64.865
670.48	59.766
670.80	63.347
671.13	61.952
671.45	61.723
671.77	62.523
672.10	61.759
672.42	56.250
672.75	55.063
673.07	57.711
673.39	54.952
673.72	58.304
674.04	60.215
674.37	57.713
674.69	59.480
675.01	58.209
675.34	60.659
675.66	63.867
675.98	59.566
676.31	61.600
676.63	59.443
676.95	59.722
677.28	61.663
677.60	60.161
677.92	58.333
678.25	62.597
678.57	61.080
678.89	59.494
679.22	59.375
679.54	57.651
679.86	58.813
680.18	56.415
680.51	56.053
680.83	55.912
681.15	59.099
681.48	58.333
681.80	57.618
682.12	56.055
682.44	57.117
682.77	57.117
683.09	59.223
683.41	61.429
683.73	58.858
684.06	58.730
684.38	62.984
684.70	56.655
685.02	56.076
685.34	58.627
685.67	53.537
685.99	54.516
686.31	55.162
686.63	57.073
686.96	55.229
687.28	55.537
687.60	55.802
687.92	54.439
688.24	54.828
688.56	55.160
688.89	55.641
689.21	56.647
689.53	59.289
689.85	56.707
690.17	56.117
690.49	60.484
690.82	58.193
691.14	57.980
691.46	58.932
691.78	56.140
692.10	56.870
692.42	54.265
692.74	59.302
693.06	60.078
693.39	54.941
693.71	56.385
694.03	57.002
694.35	58.635
694.67	56.415
694.99	58.315
695.31	61.712
695.63	58.824
695.95	59.729
696.27	58.628
696.59	59.427
696.91	57.215
697.23	59.729
697.56	55.394
697.88	55.289
698.20	55.094
698.52	52.724
698.84	56.057
699.16	57.143
699.48	57.627
699.80	58.388
700.12	60.277
700.44	56.075
700.76	61.098
701.08	61.097
701.40	59.481
701.72	63.636
702.04	62.873
702.36	62.097
702.68	58.245
703.00	53.634
703.32	60.546
703.64	59.698
703.96	63.281
704.28	61.640
704.60	63.099
704.91	62.465
705.23	61.648
705.55	67.953
705.87	66.349
706.19	69.906
706.51	64.263
706.83	63.717
707.15	62.032
707.47	58.838
707.79	56.782
708.11	57.370
708.43	54.607
708.74	52.941
709.06	52.791
709.38	56.824
709.70	56.403
710.02	58.424
710.34	57.182
710.66	58.889
710.98	58.743
711.29	57.382
711.61	59.610
711.93	64.134
712.25	63.253
712.57	61.415
712.89	61.212
713.20	66.773
713.52	62.305
713.84	62.236
714.16	58.551
714.48	54.755
714.80	57.453
715.11	56.915
715.43	56.704
715.75	59.155
716.07	59.538
716.39	58.286
716.70	60.436
717.02	64.646
717.34	67.266
717.66	64.931
717.97	71.591
718.29	67.606
718.61	62.838
718.93	58.131
719.24	61.745
719.56	64.828
719.88	57.962
720.20	62.581
720.51	57.190
720.83	58.863
721.15	63.946
721.46	59.932
721.78	63.763
722.10	57.639
722.42	64.883
722.73	61.011
723.05	62.105
723.37	61.837
723.68	61.719
724.00	62.500
724.32	61.217
724.63	63.846
724.95	64.706
725.27	57.993
725.58	60.662
725.90	57.394
726.22	60.616
726.53	57.191
726.85	57.003
727.16	60.067
727.48	57.475
727.80	60.072
728.11	60.714
728.43	57.971
728.74	60.839
729.06	55.197
729.38	59.649
729.69	59.667
730.01	58.224
730.32	65.101
730.64	58.472
730.96	54.354
731.27	50.459
731.59	56.034
731.90	53.760
732.22	56.571
732.53	51.567
732.85	52.339
733.16	52.410
733.48	55.172
733.80	57.391
734.11	56.442
734.43	48.246
734.74	54.692
735.06	51.852
735.37	49.742
735.69	52.464
736.00	57.187
736.32	53.030
736.63	53.312
736.95	53.106
737.26	59.756
737.58	53.067
737.89	51.205
738.21	52.980
738.52	56.856
738.83	59.707
739.15	63.066
739.46	57.931
739.78	57.823
740.09	56.851
740.41	54.908
740.72	57.778
741.04	59.091
741.35	66.406
741.66	59.684
741.98	61.803
742.29	66.204
742.61	56.637
742.92	61.441
743.23	56.800
743.55	61.132
743.86	53.725
744.18	61.864
744.49	59.091
744.80	64.516
745.12	65.179
745.43	65.421
745.74	60.889
746.06	56.140
746.37	64.186
746.68	70.354
747.00	59.641
747.31	61.345
747.62	56.557
747.94	64.807
748.25	57.198
748.56	67.373
748.88	61.161
749.19	60.465
749.50	66.667
749.82	62.140
750.13	57.312
750.44	52.000
750.75	56.711
751.07	56.908
751.38	56.766
751.69	57.912
752.01	53.147
752.32	52.159
752.63	57.718
752.94	53.846
753.26	61.719
753.57	61.868
753.88	58.052
754.19	57.401
754.51	56.146
754.82	54.027
755.13	52.703
755.44	58.889
755.75	58.419
756.07	53.082
756.38	52.614
756.69	51.250
757.00	53.709
757.31	52.394
757.63	51.240
757.94	49.734
758.25	50.000
758.56	47.368
758.87	48.872
759.18	53.198
759.50	49.544
759.81	53.116
760.12	49.157
760.43	45.658
760.74	47.595
761.05	48.276
761.36	46.615
761.67	50.674
761.99	49.577
762.30	52.733
762.61	54.167
762.92	55.682
763.23	52.075
763.54	51.923
763.85	55.253
764.16	53.125
764.47	49.662
764.78	48.208
765.10	47.561
765.41	49.432
765.72	48.619
766.03	46.526
766.34	51.916
766.65	53.232
766.96	59.514
767.27	59.346
767.58	61.881
767.89	65.746
768.20	65.854
768.51	57.653
768.82	57.456
769.13	57.647
769.44	53.759
769.75	48.315
770.06	53.782
770.37	53.509
770.68	53.333
770.99	57.627
771.30	58.996
771.61	51.538
771.92	48.473
772.23	54.839
772.54	57.778
772.85	62.376
773.16	64.674
773.47	57.778
773.78	58.416
774.09	65.909
774.39	63.030
774.70	65.294
775.01	65.132
775.32	60.870
775.63	64.384
775.94	67.901
776.25	76.552
776.56	67.176
776.87	71.756
777.18	63.636
777.48	79.528
777.79	83.077
778.10	74.242
778.41	67.910
778.72	67.669
779.03	61.538
779.34	61.486
779.65	62.112
779.95	59.627
780.26	63.690
780.57	75.510
780.88	66.667
781.19	75.000
781.50	63.905
781.80	61.202
782.11	57.143
782.42	60.345
782.73	57.627
783.04	56.774
783.34	69.767
783.65	66.667
783.96	64.516
784.27	55.629
784.57	60.526
784.88	68.116
785.19	65.833
785.50	75.862
785.81	72.093
786.11	62.963
786.42	74.803
786.73	73.874
787.04	72.642
787.34	63.415
787.65	60.606
787.96	67.424
788.26	65.354
788.57	73.723
788.88	58.451
789.19	65.649
789.49	68.919
789.80	69.531
790.11	68.595
790.41	68.519
790.72	75.926
791.03	79.808
791.33	71.717
791.64	83.158
791.95	85.263
792.25	70.833
792.56	75.000
792.87	79.268
793.17	75.000
793.48	81.176
793.79	74.713
794.09	81.818
794.40	75.000
794.70	61.905
795.01	59.231
795.32	56.489
795.62	62.393
795.93	74.790
796.23	65.041
796.54	79.592
796.85	77.273
797.15	84.416
797.46	84.146
797.76	85.000
798.07	80.000
798.37	86.250
798.68	81.250
798.99	91.463
799.29	88.000
799.60	70.930
799.90	80.263
800.21	98.485
800.51	95.775
800.82	87.931
801.12	101.538
801.43	80.000
801.73	89.655
802.04	75.325
802.34	87.671
802.65	123.529
802.95	95.652
803.26	100.000
803.56	128.333
803.87	77.612
804.17	93.651
804.48	94.340
804.78	73.611
805.09	101.515
805.39	88.889
805.70	105.263
806.00	92.857
806.30	114.062
806.61	78.824
806.91	88.889
807.22	73.913
807.52	86.842
807.83	85.526
808.13	97.101
808.43	96.774
808.74	94.521
809.04	92.857
809.35	97.059
809.65	90.909
809.95	100.000
810.26	124.074
810.56	115.625
810.86	118.367
811.17	91.228
811.47	100.000
811.77	93.103
812.08	86.207
812.38	121.429
812.69	111.905
812.99	95.556
813.29	151.429
813.59	190.323
813.90	106.897
814.20	90.164
814.50	92.000
814.81	75.439
815.11	120.370
815.41	108.929
815.72	119.643
816.02	100.000
816.32	136.585
816.62	115.517
816.93	115.152
817.23	136.585
817.53	108.929
817.84	95.556
818.14	116.667
818.44	120.833
818.74	115.094
819.04	102.564
819.35	124.242
819.65	126.923
819.95	124.074
820.25	112.766
820.56	140.541
820.86	131.579
821.16	112.766
821.46	139.474
821.76	107.273
822.07	88.095
822.37	110.526
822.67	120.930
822.97	100.000
823.27	136.957
823.57	150.000
823.88	125.641
824.18	109.091
824.48	195.652
824.78	130.556
825.08	169.565
825.38	151.724
825.69	126.471
825.99	80.851
826.29	113.889
826.59	128.571
826.89	166.667
827.19	100.000
827.49	148.387
827.79	161.538
828.09	88.095
828.39	102.778
828.70	94.595
829.00	182.143
829.30	262.500
829.60	147.222
829.90	109.677
830.20	106.061
830.50	137.838
830.80	212.500
831.10	184.615
831.40	180.952
831.70	200.000
832.00	140.000
832.30	208.696
832.60	166.667
832.90	166.667
833.20	170.000
833.50	121.053
833.80	126.471
834.10	102.632
834.40	173.684
834.70	130.000
835.00	192.000
835.30	81.081
835.60	168.750
835.90	124.324
836.20	161.538
836.50	177.273
836.80	109.756
837.10	182.609
837.40	323.077
837.70	168.421
838.00	123.333
838.30	183.333
838.60	140.000
838.90	390.000
839.19	243.750
839.49	180.000
839.79	141.379
840.09	200.000
840.39	213.333
840.69	226.316
840.99	152.381
841.29	204.348
841.59	205.000
841.88	184.000
842.18	311.111
842.48	167.857
842.78	125.926
843.08	215.385
843.38	177.273
843.68	250.000
843.97	500.000
844.27	178.261
844.57	1650.000
844.87	300.000
845.17	250.000
845.47	190.476
845.76	141.667
846.06	442.857
846.36	129.412
846.66	292.308
846.96	256.250
847.25	300.000
847.55	178.947
847.85	177.778
848.15	520.000
848.44	290.909
848.74	161.905
849.04	183.333
849.34	182.353
849.63	243.750
849.93	262.500
850.23	1066.667
850.53	375.000
850.82	400.000
851.12	170.588
851.42	162.500
851.71	262.500
852.01	0.000
852.31	223.529
852.61	480.000
852.90	191.667
853.20	411.111
853.50	-2700.000
853.79	176.000
854.09	175.000
854.39	155.172
854.68	162.069
854.98	214.286
855.28	138.710
855.57	221.429
855.87	161.111
856.17	140.741
856.46	184.211
856.76	151.613
857.05	241.176
857.35	300.000
857.65	261.538
857.94	190.000
858.24	388.889
858.53	314.286
858.83	685.714
859.13	173.913
859.42	311.111
859.72	275.000
860.01	258.333
860.31	775.000
860.60	470.000
860.90	462.500
861.20	230.769
861.49	285.714
861.79	-3800.000
862.08	414.286
862.38	333.333
862.67	242.857
862.97	330.000
863.26	133.333
863.56	725.000
863.85	307.692
864.15	247.059
864.44	233.333
864.74	391.667
865.03	363.636
865.33	387.500
865.62	240.000
865.92	500.000
866.21	850.000
866.51	660.000
866.80	227.778
867.10	666.667
867.39	2900.000
867.69	860.000
867.98	825.000
868.27	190.476
868.57	260.000
868.86	1050.000
869.16	185.714
869.45	3100.000
869.75	-783.333
870.04	825.000
870.33	620.000
870.63	400.000
870.92	182.353
871.22	775.000
871.51	385.714
871.80	416.667
872.10	284.615
>>>>>End Processed Spectral Data<<<<<
