SpectraSuite Data File
++++++++++++++++++++++++++++++++++++
Date: Tue May 12 15:22:41 PDT 2015
User: schluterlab
Dark Spectrum Present: Yes
Reference Spectrum Present: Yes
Number of Sampled Component Spectra: 1
Spectrometers: USB2E3373
Integration Time (usec): 3000 (USB2E3373)
Spectra Averaged: 3 (USB2E3373)
Boxcar Smoothing: 0 (USB2E3373)
Correct for Electrical Dark: No (USB2E3373)
Strobe/Lamp Enabled: No (USB2E3373)
Correct for Detector Non-linearity: No (USB2E3373)
Correct for Stray Light: No (USB2E3373)
Number of Pixels in Processed Spectrum: 2048
>>>>>Begin Processed Spectral Data<<<<<
178.53	0.000
178.91	-191.667
179.29	-600.000
179.67	-3700.000
180.04	-126.667
180.42	825.000
180.80	2100.000
181.18	0.000
181.56	-387.500
181.94	0.000
182.31	1000.000
182.69	-2900.000
183.07	557.143
183.45	-2800.000
183.83	-2050.000
184.20	460.000
184.58	457.143
184.96	-292.308
185.34	-266.667
185.72	1350.000
186.09	-675.000
186.47	-3600.000
186.85	866.667
187.23	540.000
187.61	1250.000
187.98	512.500
188.36	307.143
188.74	333.333
189.12	283.333
189.49	850.000
189.87	0.000
190.25	387.500
190.63	1800.000
191.00	-150.000
191.38	-2500.000
191.76	-700.000
192.14	500.000
192.51	-2900.000
192.89	1450.000
193.27	1066.667
193.65	-1000.000
194.02	-820.000
194.40	457.143
194.78	-150.000
195.15	180.000
195.53	-2200.000
195.91	-500.000
196.29	4700.000
196.66	225.000
197.04	800.000
197.42	-1150.000
197.79	450.000
198.17	291.667
198.55	0.000
198.92	485.714
199.30	1033.333
199.68	1800.000
200.05	616.667
200.43	-433.333
200.81	183.333
201.18	3300.000
201.56	275.000
201.94	-675.000
202.31	-250.000
202.69	-400.000
203.07	2900.000
203.44	-383.333
203.82	216.667
204.19	680.000
204.57	-1450.000
204.95	-750.000
205.32	-460.000
205.70	583.333
206.08	975.000
206.45	-566.667
206.83	344.444
207.20	173.684
207.58	208.333
207.96	920.000
208.33	0.000
208.71	557.143
209.08	740.000
209.46	-2500.000
209.84	-925.000
210.21	900.000
210.59	-420.000
210.96	300.000
211.34	-675.000
211.71	372.727
212.09	925.000
212.46	1700.000
212.84	-500.000
213.22	400.000
213.59	-2800.000
213.97	290.000
214.34	1000.000
214.72	633.333
215.09	766.667
215.47	-2800.000
215.84	-270.000
216.22	-350.000
216.59	0.000
216.97	0.000
217.34	1600.000
217.72	-1450.000
218.09	1033.333
218.47	500.000
218.84	775.000
219.22	1200.000
219.59	1066.667
219.97	557.143
220.34	333.333
220.72	1550.000
221.09	3100.000
221.47	291.667
221.84	1200.000
222.22	370.000
222.59	211.111
222.97	285.714
223.34	243.750
223.72	-1650.000
224.09	1333.333
224.46	269.231
224.84	-700.000
225.21	433.333
225.59	266.667
225.96	1200.000
226.34	-520.000
226.71	-650.000
227.08	-720.000
227.46	0.000
227.83	-533.333
228.21	-1650.000
228.58	358.333
228.95	875.000
229.33	300.000
229.70	800.000
230.08	330.769
230.45	2900.000
230.82	-925.000
231.20	-833.333
231.57	-766.667
231.95	520.000
232.32	325.000
232.69	400.000
233.07	341.667
233.44	-1800.000
233.81	246.667
234.19	159.259
234.56	225.000
234.93	176.471
235.31	185.000
235.68	231.250
236.05	160.714
236.43	118.519
236.80	214.286
237.17	134.483
237.55	96.875
237.92	85.000
238.29	112.121
238.67	100.000
239.04	100.000
239.41	64.583
239.79	60.000
240.16	68.750
240.53	49.180
240.91	50.725
241.28	49.153
241.65	40.909
242.02	57.746
242.40	51.429
242.77	41.758
243.14	29.114
243.51	35.354
243.89	22.430
244.26	42.056
244.63	26.733
245.00	29.358
245.38	24.576
245.75	25.000
246.12	31.852
246.49	24.823
246.87	22.131
247.24	31.333
247.61	22.500
247.98	27.891
248.36	12.727
248.73	25.510
249.10	22.024
249.47	20.500
249.84	21.891
250.22	20.000
250.59	17.000
250.96	16.878
251.33	14.419
251.70	16.518
252.08	17.227
252.45	14.343
252.82	14.449
253.19	15.415
253.56	15.769
253.94	14.855
254.31	12.791
254.68	12.892
255.05	15.862
255.42	11.314
255.79	13.681
256.16	13.898
256.54	13.636
256.91	12.418
257.28	13.043
257.65	11.912
258.02	12.094
258.39	15.473
258.76	15.362
259.14	7.714
259.51	12.245
259.88	11.246
260.25	11.813
260.62	10.685
260.99	7.438
261.36	9.471
261.73	11.702
262.10	10.471
262.47	9.250
262.85	7.733
263.22	9.512
263.59	11.509
263.96	13.283
264.33	9.877
264.70	9.582
265.07	10.000
265.44	11.239
265.81	11.085
266.18	10.297
266.55	9.693
266.92	8.501
267.29	11.623
267.66	9.417
268.03	4.260
268.40	11.205
268.77	9.912
269.14	7.158
269.51	9.131
269.88	10.204
270.25	7.127
270.62	6.652
270.99	11.765
271.36	9.350
271.73	7.338
272.10	6.465
272.47	7.738
272.84	7.784
273.21	9.298
273.58	9.717
273.95	5.955
274.32	6.809
274.69	9.646
275.06	10.018
275.43	9.387
275.80	6.981
276.17	9.926
276.54	9.533
276.91	8.209
277.28	7.664
277.65	8.118
278.02	10.110
278.39	7.374
278.76	8.793
279.13	8.363
279.50	7.091
279.87	8.194
280.23	5.893
280.60	7.117
280.97	6.897
281.34	7.261
281.71	9.913
282.08	9.060
282.45	6.588
282.82	7.358
283.19	6.836
283.56	8.099
283.92	7.492
284.29	7.654
284.66	7.059
285.03	8.458
285.40	5.289
285.77	5.401
286.14	7.585
286.51	8.129
286.87	7.278
287.24	5.105
287.61	6.839
287.98	7.761
288.35	8.148
288.72	5.766
289.08	4.955
289.45	7.470
289.82	7.813
290.19	7.613
290.56	7.715
290.93	6.619
291.29	6.077
291.66	4.379
292.03	7.293
292.40	6.640
292.77	5.571
293.13	6.990
293.50	6.613
293.87	6.504
294.24	6.573
294.60	7.537
294.97	7.552
295.34	6.773
295.71	7.490
296.08	7.067
296.44	6.607
296.81	7.196
297.18	6.210
297.55	6.404
297.91	5.296
298.28	6.884
298.65	6.503
299.02	6.152
299.38	6.475
299.75	6.220
300.12	5.505
300.48	6.674
300.85	7.032
301.22	5.698
301.59	4.363
301.95	5.018
302.32	6.170
302.69	7.240
303.05	6.061
303.42	5.830
303.79	6.717
304.15	5.611
304.52	5.074
304.89	7.143
305.25	6.452
305.62	5.970
305.99	5.217
306.35	5.579
306.72	5.307
307.09	5.694
307.45	5.280
307.82	6.790
308.19	6.495
308.55	5.200
308.92	7.164
309.29	7.692
309.65	5.946
310.02	6.389
310.38	7.378
310.75	5.689
311.12	6.801
311.48	8.012
311.85	7.156
312.22	7.259
312.58	5.442
312.95	7.087
313.31	7.303
313.68	7.411
314.05	8.608
314.41	7.542
314.78	6.629
315.14	7.962
315.51	8.136
315.87	7.208
316.24	7.563
316.61	9.400
316.97	8.440
317.34	9.344
317.70	9.658
318.07	9.609
318.43	11.160
318.80	9.545
319.16	10.752
319.53	10.973
319.89	9.229
320.26	11.359
320.62	12.179
320.99	11.058
321.35	11.967
321.72	11.385
322.08	12.373
322.45	12.716
322.81	12.168
323.18	12.966
323.54	13.328
323.91	14.506
324.27	13.528
324.64	12.976
325.00	14.914
325.37	15.683
325.73	15.177
326.10	15.576
326.46	15.937
326.83	15.840
327.19	16.867
327.56	17.252
327.92	17.541
328.29	19.394
328.65	18.408
329.01	17.707
329.38	19.120
329.74	18.275
330.11	18.766
330.47	19.864
330.84	19.672
331.20	18.782
331.56	20.812
331.93	20.274
332.29	18.878
332.66	19.728
333.02	19.674
333.38	20.768
333.75	21.351
334.11	20.638
334.48	20.342
334.84	20.524
335.20	20.701
335.57	20.739
335.93	20.017
336.29	19.486
336.66	21.698
337.02	19.760
337.38	21.496
337.75	21.622
338.11	21.435
338.47	20.999
338.84	21.592
339.20	20.606
339.56	21.699
339.93	21.070
340.29	19.916
340.65	21.039
341.02	21.561
341.38	20.361
341.74	20.598
342.11	20.952
342.47	20.098
342.83	22.149
343.20	20.938
343.56	21.048
343.92	21.470
344.28	22.089
344.65	21.679
345.01	20.635
345.37	21.715
345.73	21.984
346.10	20.080
346.46	21.770
346.82	20.370
347.19	22.720
347.55	21.858
347.91	21.828
348.27	20.759
348.63	22.310
349.00	22.925
349.36	21.167
349.72	22.630
350.08	22.283
350.45	22.315
350.81	22.171
351.17	22.111
351.53	22.017
351.89	20.824
352.26	21.164
352.62	22.021
352.98	24.003
353.34	22.650
353.70	22.171
354.07	22.231
354.43	21.966
354.79	21.944
355.15	22.665
355.51	22.432
355.87	23.193
356.24	22.787
356.60	23.516
356.96	22.062
357.32	21.854
357.68	23.789
358.04	23.100
358.40	23.313
358.77	23.817
359.13	23.123
359.49	22.313
359.85	23.529
360.21	23.180
360.57	23.212
360.93	23.016
361.29	23.737
361.66	24.161
362.02	22.230
362.38	23.088
362.74	23.213
363.10	24.123
363.46	23.204
363.82	24.053
364.18	23.613
364.54	23.462
364.90	24.431
365.26	24.080
365.62	24.448
365.98	23.056
366.35	23.931
366.71	24.636
367.07	23.549
367.43	24.110
367.79	24.269
368.15	24.559
368.51	25.431
368.87	23.370
369.23	23.562
369.59	24.343
369.95	24.685
370.31	23.546
370.67	24.358
371.03	25.630
371.39	24.792
371.75	24.634
372.11	24.065
372.47	24.521
372.83	23.657
373.19	24.812
373.55	24.605
373.91	24.102
374.27	25.132
374.63	24.271
374.99	24.394
375.35	24.530
375.71	24.670
376.07	25.133
376.42	23.849
376.78	24.470
377.14	25.164
377.50	25.094
377.86	24.984
378.22	25.107
378.58	25.182
378.94	24.744
379.30	23.408
379.66	24.804
380.02	25.279
380.38	24.649
380.74	24.510
381.09	24.357
381.45	23.121
381.81	23.700
382.17	23.748
382.53	23.935
382.89	23.773
383.25	24.926
383.61	23.746
383.97	23.935
384.32	24.051
384.68	24.183
385.04	23.740
385.40	23.784
385.76	23.757
386.12	23.500
386.48	23.891
386.83	23.716
387.19	23.910
387.55	22.968
387.91	23.095
388.27	23.319
388.62	23.122
388.98	22.274
389.34	22.546
389.70	22.406
390.06	23.049
390.42	22.394
390.77	22.604
391.13	23.114
391.49	21.960
391.85	22.338
392.20	22.229
392.56	22.401
392.92	22.403
393.28	21.525
393.64	21.846
393.99	22.407
394.35	21.483
394.71	21.110
395.07	20.681
395.42	21.136
395.78	21.838
396.14	21.627
396.50	21.360
396.85	20.610
397.21	21.119
397.57	20.980
397.92	20.682
398.28	19.581
398.64	20.710
399.00	20.363
399.35	19.860
399.71	20.971
400.07	19.863
400.42	19.821
400.78	19.883
401.14	19.671
401.49	19.873
401.85	19.815
402.21	18.688
402.57	19.270
402.92	19.455
403.28	18.437
403.63	19.011
403.99	18.999
404.35	18.992
404.70	19.551
405.06	18.978
405.42	17.594
405.77	17.751
406.13	18.221
406.49	17.908
406.84	17.710
407.20	17.922
407.55	17.600
407.91	17.677
408.27	18.496
408.62	17.386
408.98	17.090
409.34	17.124
409.69	17.548
410.05	17.591
410.40	17.373
410.76	16.485
411.11	16.647
411.47	17.593
411.83	16.520
412.18	16.002
412.54	17.357
412.89	16.991
413.25	17.959
413.60	17.114
413.96	17.056
414.31	16.883
414.67	18.560
415.03	16.922
415.38	17.224
415.74	17.814
416.09	17.239
416.45	17.906
416.80	18.153
417.16	17.632
417.51	18.217
417.87	17.772
418.22	17.375
418.58	18.471
418.93	18.084
419.29	17.991
419.64	18.413
420.00	18.556
420.35	18.002
420.71	18.670
421.06	18.069
421.42	19.056
421.77	19.545
422.12	18.412
422.48	19.055
422.83	20.145
423.19	20.194
423.54	20.077
423.90	20.668
424.25	21.134
424.61	21.706
424.96	20.440
425.31	21.018
425.67	21.324
426.02	21.312
426.38	19.953
426.73	21.400
427.09	21.886
427.44	21.328
427.79	21.841
428.15	21.921
428.50	23.486
428.85	23.398
429.21	22.961
429.56	23.280
429.92	23.073
430.27	22.545
430.62	22.516
430.98	23.902
431.33	23.286
431.68	22.914
432.04	24.108
432.39	25.247
432.74	25.937
433.10	25.028
433.45	25.675
433.80	26.862
434.16	25.276
434.51	26.471
434.86	27.490
435.22	26.202
435.57	26.615
435.92	27.547
436.28	28.111
436.63	28.363
436.98	28.209
437.34	28.596
437.69	27.156
438.04	28.333
438.39	29.305
438.75	28.953
439.10	29.520
439.45	29.678
439.81	29.960
440.16	29.059
440.51	30.405
440.86	30.484
441.22	30.195
441.57	30.184
441.92	30.652
442.27	31.031
442.63	31.402
442.98	30.711
443.33	31.976
443.68	31.841
444.03	31.998
444.39	32.109
444.74	31.781
445.09	31.859
445.44	32.572
445.79	33.674
446.15	33.316
446.50	33.386
446.85	33.317
447.20	33.532
447.55	34.203
447.91	34.417
448.26	35.037
448.61	34.881
448.96	34.804
449.31	36.524
449.66	35.050
450.02	34.090
450.37	34.703
450.72	36.419
451.07	36.533
451.42	36.159
451.77	36.541
452.12	37.266
452.47	36.574
452.83	37.183
453.18	36.456
453.53	37.063
453.88	37.143
454.23	37.013
454.58	35.781
454.93	37.278
455.28	37.638
455.63	37.766
455.98	37.845
456.34	38.116
456.69	38.049
457.04	38.365
457.39	38.400
457.74	37.669
458.09	37.002
458.44	38.171
458.79	38.621
459.14	37.589
459.49	39.015
459.84	38.098
460.19	38.305
460.54	38.462
460.89	38.486
461.24	38.087
461.59	39.456
461.94	38.416
462.29	38.101
462.64	39.196
462.99	39.859
463.34	39.274
463.69	40.351
464.04	39.954
464.39	39.554
464.74	38.394
465.09	39.176
465.44	39.445
465.79	39.684
466.14	39.110
466.49	39.067
466.84	39.465
467.19	39.895
467.54	39.580
467.89	39.965
468.24	38.854
468.59	39.583
468.94	40.580
469.29	39.035
469.64	39.293
469.99	39.910
470.34	40.228
470.68	40.138
471.03	41.094
471.38	40.993
471.73	39.451
472.08	41.357
472.43	41.465
472.78	40.589
473.13	40.300
473.48	40.587
473.83	40.518
474.17	40.851
474.52	40.699
474.87	40.136
475.22	40.091
475.57	40.399
475.92	40.164
476.27	40.152
476.61	40.054
476.96	40.596
477.31	41.234
477.66	41.224
478.01	40.588
478.36	41.246
478.70	40.993
479.05	40.743
479.40	41.419
479.75	41.162
480.10	41.336
480.45	40.616
480.79	40.184
481.14	40.418
481.49	39.890
481.84	41.205
482.19	41.004
482.53	40.492
482.88	40.502
483.23	40.144
483.58	40.709
483.92	41.179
484.27	40.582
484.62	40.068
484.97	40.319
485.31	40.042
485.66	40.063
486.01	39.565
486.36	39.226
486.70	38.386
487.05	38.173
487.40	39.364
487.75	39.834
488.09	40.312
488.44	39.675
488.79	40.299
489.13	41.097
489.48	40.511
489.83	40.033
490.17	39.554
490.52	40.568
490.87	40.043
491.22	40.824
491.56	40.184
491.91	40.502
492.26	40.802
492.60	41.048
492.95	40.553
493.30	39.945
493.64	40.881
493.99	40.161
494.34	40.161
494.68	40.018
495.03	40.683
495.37	41.603
495.72	40.979
496.07	40.207
496.41	41.008
496.76	41.072
497.11	41.345
497.45	39.807
497.80	41.335
498.14	41.100
498.49	40.483
498.84	40.794
499.18	40.082
499.53	40.101
499.87	40.207
500.22	40.949
500.56	40.947
500.91	40.677
501.26	41.341
501.60	40.301
501.95	41.084
502.29	39.911
502.64	40.979
502.98	39.840
503.33	40.713
503.67	40.486
504.02	40.439
504.36	40.452
504.71	40.918
505.06	40.122
505.40	40.664
505.75	39.850
506.09	40.317
506.44	40.977
506.78	41.588
507.13	40.233
507.47	40.417
507.82	40.681
508.16	41.205
508.51	40.918
508.85	40.076
509.19	40.627
509.54	40.771
509.88	41.770
510.23	40.686
510.57	39.768
510.92	40.410
511.26	40.863
511.61	38.946
511.95	39.721
512.30	39.950
512.64	40.395
512.98	39.979
513.33	40.369
513.67	40.497
514.02	39.377
514.36	40.291
514.70	39.680
515.05	40.170
515.39	40.954
515.74	40.623
516.08	40.632
516.42	42.459
516.77	40.373
517.11	39.413
517.46	40.625
517.80	40.360
518.14	40.845
518.49	39.912
518.83	39.341
519.17	40.266
519.52	41.016
519.86	40.545
520.20	40.274
520.55	39.740
520.89	40.632
521.23	40.362
521.58	39.071
521.92	40.117
522.26	39.159
522.61	39.037
522.95	39.640
523.29	38.713
523.64	38.671
523.98	39.965
524.32	38.062
524.66	39.362
525.01	39.112
525.35	38.715
525.69	40.217
526.04	38.905
526.38	38.788
526.72	38.305
527.06	37.670
527.41	39.238
527.75	38.040
528.09	37.989
528.43	38.377
528.78	37.984
529.12	38.651
529.46	37.113
529.80	37.909
530.15	37.655
530.49	36.342
530.83	37.904
531.17	37.761
531.51	37.032
531.86	36.775
532.20	36.959
532.54	36.535
532.88	37.227
533.22	36.807
533.57	37.828
533.91	35.956
534.25	35.776
534.59	36.608
534.93	35.609
535.27	35.401
535.62	35.589
535.96	36.111
536.30	37.416
536.64	35.590
536.98	36.375
537.32	36.938
537.66	35.268
538.01	35.604
538.35	37.305
538.69	34.951
539.03	35.323
539.37	35.255
539.71	36.543
540.05	36.308
540.39	35.283
540.73	35.506
541.07	35.194
541.42	35.634
541.76	35.758
542.10	35.573
542.44	35.287
542.78	35.242
543.12	35.092
543.46	36.028
543.80	35.902
544.14	35.232
544.48	35.036
544.82	35.352
545.16	35.337
545.50	35.710
545.84	35.795
546.18	36.801
546.52	36.393
546.86	36.235
547.20	35.788
547.54	34.832
547.88	35.401
548.22	35.641
548.56	35.180
548.90	36.240
549.24	36.071
549.58	35.889
549.92	36.477
550.26	35.903
550.60	36.261
550.94	36.771
551.28	36.276
551.62	38.759
551.96	36.959
552.30	36.519
552.64	36.375
552.98	35.180
553.32	36.172
553.66	36.938
554.00	36.615
554.34	37.284
554.68	36.828
555.02	36.660
555.36	36.436
555.69	36.976
556.03	36.369
556.37	37.285
556.71	37.549
557.05	35.387
557.39	36.600
557.73	36.725
558.07	36.419
558.41	37.766
558.75	36.525
559.08	37.527
559.42	38.368
559.76	37.705
560.10	36.752
560.44	36.629
560.78	37.532
561.12	38.017
561.45	36.421
561.79	37.203
562.13	36.829
562.47	36.275
562.81	36.109
563.15	36.716
563.48	35.714
563.82	36.993
564.16	37.127
564.50	36.407
564.84	36.900
565.17	35.116
565.51	36.330
565.85	35.965
566.19	35.952
566.52	35.259
566.86	36.486
567.20	35.506
567.54	35.207
567.88	36.515
568.21	34.648
568.55	34.630
568.89	35.675
569.23	34.297
569.56	34.864
569.90	34.172
570.24	33.935
570.57	34.263
570.91	33.541
571.25	33.719
571.59	33.221
571.92	33.100
572.26	32.561
572.60	32.769
572.93	32.979
573.27	32.797
573.61	32.458
573.95	32.819
574.28	32.550
574.62	32.091
574.96	31.939
575.29	31.899
575.63	31.731
575.97	31.037
576.30	31.486
576.64	32.109
576.98	31.948
577.31	31.915
577.65	32.362
577.98	31.788
578.32	31.462
578.66	31.221
578.99	31.529
579.33	32.364
579.67	32.033
580.00	31.896
580.34	31.940
580.67	31.991
581.01	32.302
581.35	32.638
581.68	31.917
582.02	32.761
582.35	31.973
582.69	32.492
583.02	32.563
583.36	33.179
583.70	33.318
584.03	34.377
584.37	34.250
584.70	34.038
585.04	33.738
585.37	33.702
585.71	34.674
586.04	34.117
586.38	34.690
586.72	35.032
587.05	34.869
587.39	35.550
587.72	35.399
588.06	35.684
588.39	35.312
588.73	35.522
589.06	35.921
589.40	36.369
589.73	36.382
590.07	36.822
590.40	37.178
590.73	38.230
591.07	37.571
591.40	36.846
591.74	38.068
592.07	37.604
592.41	37.690
592.74	36.873
593.08	37.077
593.41	36.535
593.75	36.662
594.08	36.680
594.41	36.527
594.75	37.089
595.08	37.449
595.42	37.558
595.75	37.249
596.09	38.651
596.42	36.926
596.75	39.303
597.09	38.919
597.42	38.367
597.75	37.241
598.09	37.915
598.42	38.025
598.76	37.317
599.09	38.065
599.42	37.163
599.76	37.246
600.09	36.983
600.42	37.880
600.76	37.288
601.09	37.625
601.42	37.276
601.76	38.310
602.09	38.521
602.42	37.006
602.76	38.178
603.09	38.386
603.42	39.046
603.76	38.467
604.09	38.111
604.42	38.343
604.76	39.036
605.09	38.857
605.42	38.358
605.75	38.176
606.09	37.988
606.42	37.693
606.75	38.243
607.09	37.623
607.42	38.168
607.75	37.460
608.08	38.790
608.42	37.961
608.75	38.425
609.08	38.099
609.41	38.545
609.75	38.599
610.08	38.534
610.41	38.472
610.74	38.052
611.07	38.881
611.41	38.971
611.74	39.484
612.07	38.825
612.40	38.109
612.73	39.541
613.07	39.736
613.40	38.396
613.73	40.339
614.06	38.250
614.39	38.838
614.72	38.774
615.06	38.378
615.39	38.069
615.72	38.141
616.05	38.674
616.38	38.305
616.71	38.687
617.05	39.099
617.38	39.270
617.71	40.270
618.04	39.764
618.37	39.411
618.70	39.261
619.03	38.828
619.36	40.013
619.69	39.776
620.03	39.856
620.36	40.398
620.69	39.974
621.02	40.489
621.35	39.327
621.68	40.487
622.01	41.402
622.34	39.913
622.67	40.520
623.00	39.619
623.33	40.081
623.66	39.521
623.99	40.959
624.32	39.770
624.65	39.236
624.99	39.824
625.32	40.615
625.65	38.414
625.98	38.563
626.31	41.469
626.64	38.800
626.97	39.097
627.30	40.373
627.63	41.837
627.96	40.689
628.29	40.759
628.62	40.291
628.95	42.465
629.28	43.120
629.61	40.246
629.94	41.227
630.26	39.948
630.59	41.489
630.92	41.256
631.25	43.336
631.58	42.623
631.91	41.865
632.24	40.719
632.57	41.650
632.90	42.547
633.23	43.757
633.56	42.677
633.89	41.908
634.22	42.626
634.55	42.043
634.88	43.812
635.20	43.049
635.53	41.812
635.86	41.499
636.19	43.434
636.52	41.081
636.85	42.395
637.18	42.145
637.51	42.682
637.83	40.618
638.16	43.025
638.49	42.635
638.82	42.371
639.15	41.716
639.48	44.076
639.81	42.247
640.13	44.049
640.46	42.351
640.79	44.993
641.12	43.438
641.45	44.502
641.77	42.801
642.10	42.972
642.43	45.804
642.76	43.182
643.09	45.245
643.41	45.021
643.74	44.317
644.07	44.985
644.40	43.343
644.73	45.796
645.05	45.171
645.38	44.870
645.71	44.765
646.04	44.275
646.36	48.200
646.69	46.880
647.02	46.400
647.35	42.520
647.67	44.084
648.00	45.928
648.33	43.308
648.66	41.818
648.98	43.768
649.31	42.915
649.64	43.292
649.96	44.523
650.29	42.571
650.62	46.981
650.94	46.084
651.27	45.455
651.60	43.662
651.92	42.857
652.25	46.457
652.58	44.255
652.90	43.563
653.23	42.984
653.56	43.472
653.88	44.493
654.21	42.522
654.54	42.460
654.86	42.625
655.19	43.404
655.52	38.671
655.84	33.620
656.17	40.465
656.49	58.630
656.82	66.214
657.15	52.465
657.47	39.218
657.80	29.706
658.13	23.751
658.45	31.758
658.78	38.321
659.10	38.928
659.43	40.013
659.75	41.411
660.08	42.544
660.41	43.920
660.73	46.299
661.06	44.745
661.38	44.804
661.71	46.043
662.03	42.776
662.36	46.667
662.68	44.320
663.01	46.306
663.33	42.642
663.66	45.562
663.98	47.817
664.31	44.963
664.63	44.253
664.96	48.593
665.28	44.256
665.61	45.660
665.93	46.604
666.26	45.234
666.58	46.972
666.91	44.981
667.23	46.185
667.56	45.380
667.88	48.133
668.21	46.721
668.53	46.573
668.86	46.092
669.18	45.214
669.50	44.008
669.83	44.969
670.15	48.025
670.48	44.531
670.80	46.614
671.13	45.219
671.45	48.096
671.77	45.640
672.10	45.063
672.42	43.092
672.75	43.196
673.07	44.038
673.39	42.013
673.72	45.848
674.04	45.341
674.37	44.646
674.69	43.680
675.01	44.030
675.34	43.023
675.66	43.945
675.98	46.154
676.31	45.600
676.63	47.117
676.95	44.048
677.28	45.842
677.60	45.272
677.92	46.032
678.25	43.605
678.57	45.065
678.89	46.293
679.22	45.956
679.54	44.484
679.86	44.154
680.18	43.409
680.51	40.630
680.83	42.736
681.15	44.887
681.48	42.708
681.80	43.958
682.12	43.080
682.44	41.622
682.77	42.171
683.09	45.243
683.41	46.327
683.73	45.866
684.06	44.444
684.38	46.124
684.70	43.885
685.02	44.965
685.34	45.070
685.67	44.373
685.99	44.992
686.31	41.448
686.63	41.951
686.96	44.281
687.28	41.443
687.60	43.515
687.92	44.054
688.24	44.828
688.56	43.060
688.89	44.168
689.21	43.353
689.53	47.431
689.85	45.935
690.17	44.078
690.49	46.774
690.82	48.109
691.14	47.475
691.46	48.871
691.78	45.809
692.10	46.947
692.42	42.468
692.74	44.574
693.06	44.574
693.39	44.466
693.71	44.794
694.03	46.746
694.35	48.996
694.67	43.788
694.99	46.785
695.31	46.622
695.63	42.534
695.95	47.511
696.27	46.460
696.59	48.687
696.91	46.329
697.23	46.154
697.56	43.776
697.88	42.315
698.20	43.962
698.52	42.218
698.84	44.353
699.16	47.761
699.48	44.915
699.80	47.277
700.12	48.037
700.44	47.196
700.76	45.107
701.08	45.692
701.40	44.675
701.72	51.337
702.04	49.593
702.36	48.925
702.68	47.340
703.00	47.368
703.32	49.132
703.64	48.363
703.96	49.219
704.28	47.884
704.60	48.732
704.91	45.658
705.23	47.443
705.55	50.742
705.87	48.571
706.19	49.216
706.51	50.470
706.83	48.378
707.15	47.059
707.47	45.521
707.79	47.356
708.11	45.351
708.43	45.393
708.74	44.118
709.06	45.349
709.38	49.132
709.70	47.139
710.02	44.293
710.34	46.685
710.66	46.111
710.98	46.995
711.29	46.797
711.61	46.518
711.93	49.848
712.25	48.494
712.57	51.447
712.89	49.091
713.20	51.438
713.52	51.402
713.84	49.245
714.16	44.638
714.48	45.821
714.80	47.425
715.11	46.543
715.43	46.648
715.75	47.887
716.07	47.688
716.39	47.429
716.70	44.237
717.02	53.872
717.34	50.000
717.66	50.347
717.97	54.924
718.29	51.408
718.61	44.595
718.93	48.789
719.24	51.342
719.56	49.310
719.88	47.452
720.20	46.774
720.51	48.039
720.83	46.823
721.15	50.000
721.46	51.712
721.78	50.523
722.10	52.083
722.42	50.502
722.73	48.375
723.05	52.982
723.37	49.117
723.68	48.828
724.00	51.894
724.32	53.992
724.63	51.923
724.95	52.941
725.27	49.442
725.58	52.206
725.90	46.831
726.22	46.918
726.53	51.171
726.85	48.208
727.16	52.685
727.48	51.163
727.80	53.957
728.11	48.929
728.43	51.812
728.74	51.399
729.06	47.670
729.38	55.789
729.69	54.000
730.01	50.987
730.32	46.309
730.64	52.824
730.96	47.147
731.27	39.450
731.59	44.540
731.90	42.340
732.22	47.714
732.53	46.439
732.85	48.830
733.16	45.783
733.48	47.649
733.80	46.667
734.11	50.307
734.43	46.199
734.74	47.185
735.06	48.942
735.37	45.103
735.69	47.246
736.00	49.235
736.32	43.333
736.63	47.319
736.95	50.621
737.26	48.476
737.58	45.092
737.89	43.976
738.21	48.013
738.52	51.171
738.83	49.817
739.15	51.568
739.46	46.552
739.78	50.000
740.09	46.064
740.41	50.307
740.72	50.159
741.04	50.350
741.35	51.172
741.66	54.150
741.98	53.219
742.29	52.778
742.61	52.655
742.92	52.542
743.23	51.200
743.55	48.679
743.86	49.412
744.18	54.661
744.49	52.893
744.80	52.074
745.12	57.589
745.43	54.206
745.74	52.889
746.06	49.561
746.37	60.465
746.68	54.867
747.00	56.951
747.31	51.681
747.62	51.230
747.94	51.073
748.25	51.751
748.56	53.390
748.88	54.018
749.19	54.884
749.50	47.945
749.82	55.967
750.13	54.150
750.44	50.333
750.75	45.638
751.07	46.053
751.38	48.515
751.69	50.168
752.01	49.301
752.32	45.515
752.63	50.671
752.94	48.601
753.26	53.906
753.57	52.918
753.88	50.187
754.19	53.069
754.51	45.847
754.82	47.315
755.13	48.649
755.44	52.593
755.75	53.608
756.07	47.945
756.38	47.386
756.69	51.562
757.00	47.774
757.31	48.169
757.63	44.904
757.94	47.074
758.25	45.411
758.56	45.080
758.87	45.363
759.18	49.709
759.50	47.416
759.81	49.852
760.12	45.506
760.43	45.378
760.74	47.089
761.05	47.745
761.36	42.708
761.67	45.553
761.99	42.254
762.30	43.730
762.61	45.139
762.92	51.136
763.23	51.321
763.54	51.538
763.85	51.362
764.16	50.694
764.47	47.297
764.78	49.186
765.10	44.512
765.41	42.898
765.72	43.646
766.03	44.713
766.34	49.477
766.65	57.795
766.96	54.251
767.27	54.206
767.58	57.921
767.89	59.116
768.20	65.854
768.51	50.510
768.82	53.070
769.13	49.020
769.44	52.632
769.75	46.067
770.06	52.521
770.37	46.930
770.68	45.778
770.99	52.542
771.30	57.322
771.61	53.462
771.92	52.290
772.23	49.194
772.54	54.222
772.85	58.911
773.16	49.457
773.47	52.778
773.78	54.950
774.09	60.795
774.39	59.394
774.70	52.941
775.01	49.342
775.32	49.689
775.63	67.808
775.94	62.346
776.25	61.379
776.56	61.069
776.87	71.756
777.18	65.152
777.48	70.079
777.79	61.538
778.10	63.636
778.41	63.433
778.72	60.150
779.03	51.923
779.34	59.459
779.65	54.658
779.95	59.006
780.26	56.548
780.57	65.306
780.88	59.574
781.19	62.500
781.50	47.337
781.80	60.656
782.11	53.439
782.42	54.598
782.73	55.367
783.04	52.258
783.34	60.465
783.65	51.701
783.96	56.129
784.27	58.278
784.57	51.316
784.88	66.667
785.19	61.667
785.50	63.793
785.81	64.341
786.11	60.741
786.42	60.630
786.73	72.973
787.04	67.925
787.34	61.789
787.65	65.152
787.96	57.576
788.26	60.630
788.57	62.774
788.88	57.746
789.19	64.122
789.49	66.216
789.80	51.563
790.11	64.463
790.41	62.963
790.72	62.037
791.03	62.500
791.33	69.697
791.64	73.684
791.95	61.053
792.25	68.750
792.56	61.000
792.87	70.732
793.17	63.636
793.48	77.647
793.79	77.011
794.09	75.000
794.40	68.103
794.70	69.841
795.01	53.077
795.32	56.489
795.62	52.137
795.93	66.387
796.23	65.854
796.54	66.327
796.85	73.864
797.15	80.519
797.46	80.488
797.76	66.250
798.07	84.000
798.37	80.000
798.68	88.750
798.99	80.488
799.29	73.333
799.60	56.977
799.90	80.263
800.21	89.394
800.51	84.507
800.82	94.828
801.12	83.077
801.43	93.333
801.73	86.207
802.04	77.922
802.34	79.452
802.65	88.235
802.95	82.609
803.26	100.000
803.56	98.333
803.87	79.104
804.17	88.889
804.48	98.113
804.78	79.167
805.09	101.515
805.39	104.762
805.70	98.246
806.00	71.429
806.30	81.250
806.61	58.824
806.91	74.444
807.22	67.391
807.52	69.737
807.83	85.526
808.13	86.957
808.43	85.484
808.74	83.562
809.04	87.500
809.35	100.000
809.65	96.970
809.95	96.078
810.26	103.704
810.56	98.438
810.86	106.122
811.17	98.246
811.47	84.783
811.77	96.552
812.08	77.586
812.38	111.905
812.69	102.381
812.99	82.222
813.29	128.571
813.59	138.710
813.90	65.517
814.20	98.361
814.50	86.000
814.81	80.702
815.11	103.704
815.41	98.214
815.72	92.857
816.02	104.000
816.32	126.829
816.62	101.724
816.93	133.333
817.23	104.878
817.53	91.071
817.84	91.111
818.14	109.524
818.44	100.000
818.74	100.000
819.04	115.385
819.35	139.394
819.65	96.154
819.95	118.519
820.25	123.404
820.56	132.432
820.86	123.684
821.16	93.617
821.46	131.579
821.76	96.364
822.07	85.714
822.37	121.053
822.67	132.558
822.97	89.474
823.27	104.348
823.57	143.750
823.88	97.436
824.18	115.152
824.48	147.826
824.78	141.667
825.08	156.522
825.38	134.483
825.69	123.529
825.99	110.638
826.29	77.778
826.59	148.571
826.89	146.667
827.19	137.143
827.49	170.968
827.79	165.385
828.09	130.952
828.39	100.000
828.70	97.297
829.00	135.714
829.30	150.000
829.60	133.333
829.90	135.484
830.20	90.909
830.50	137.838
830.80	133.333
831.10	153.846
831.40	204.762
831.70	183.333
832.00	106.667
832.30	200.000
832.60	195.833
832.90	157.576
833.20	160.000
833.50	131.579
833.80	108.824
834.10	121.053
834.40	168.421
834.70	103.333
835.00	136.000
835.30	102.703
835.60	146.875
835.90	113.514
836.20	169.231
836.50	150.000
836.80	112.195
837.10	147.826
837.40	292.308
837.70	194.737
838.00	150.000
838.30	204.167
838.60	192.000
838.90	350.000
839.19	137.500
839.49	136.667
839.79	117.241
840.09	150.000
840.39	253.333
840.69	215.789
840.99	104.762
841.29	169.565
841.59	200.000
841.88	160.000
842.18	344.444
842.48	135.714
842.78	162.963
843.08	192.308
843.38	154.545
843.68	250.000
843.97	428.571
844.27	160.870
844.57	1450.000
844.87	278.571
845.17	222.222
845.47	147.619
845.76	158.333
846.06	457.143
846.36	217.647
846.66	223.077
846.96	206.250
847.25	261.538
847.55	226.316
847.85	155.556
848.15	400.000
848.44	263.636
848.74	147.619
849.04	166.667
849.34	235.294
849.63	237.500
849.93	237.500
850.23	900.000
850.53	400.000
850.82	281.818
851.12	176.471
851.42	145.833
851.71	268.750
852.01	0.000
852.31	205.882
852.61	380.000
852.90	145.833
853.20	355.556
853.50	-1600.000
853.79	180.000
854.09	121.875
854.39	165.517
854.68	137.931
854.98	200.000
855.28	112.903
855.57	257.143
855.87	172.222
856.17	148.148
856.46	189.474
856.76	119.355
857.05	247.059
857.35	218.182
857.65	246.154
857.94	185.000
858.24	300.000
858.53	307.143
858.83	657.143
859.13	226.087
859.42	366.667
859.72	387.500
860.01	250.000
860.31	850.000
860.60	360.000
860.90	425.000
861.20	276.923
861.49	471.429
861.79	-2600.000
862.08	528.571
862.38	344.444
862.67	178.571
862.97	410.000
863.26	130.000
863.56	725.000
863.85	284.615
864.15	288.235
864.44	194.444
864.74	333.333
865.03	327.273
865.33	387.500
865.62	233.333
865.92	516.667
866.21	775.000
866.51	660.000
866.80	211.111
867.10	966.667
867.39	3400.000
867.69	820.000
867.98	800.000
868.27	180.952
868.57	246.667
868.86	600.000
869.16	180.952
869.45	3200.000
869.75	-400.000
870.04	700.000
870.33	600.000
870.63	350.000
870.92	211.765
871.22	850.000
871.51	542.857
871.80	300.000
872.10	276.923
>>>>>End Processed Spectral Data<<<<<
