SpectraSuite Data File
++++++++++++++++++++++++++++++++++++
Date: Tue May 12 15:29:15 PDT 2015
User: schluterlab
Dark Spectrum Present: Yes
Reference Spectrum Present: Yes
Number of Sampled Component Spectra: 1
Spectrometers: USB2E3373
Integration Time (usec): 3000 (USB2E3373)
Spectra Averaged: 3 (USB2E3373)
Boxcar Smoothing: 0 (USB2E3373)
Correct for Electrical Dark: No (USB2E3373)
Strobe/Lamp Enabled: No (USB2E3373)
Correct for Detector Non-linearity: No (USB2E3373)
Correct for Stray Light: No (USB2E3373)
Number of Pixels in Processed Spectrum: 2048
>>>>>Begin Processed Spectral Data<<<<<
178.53	0.000
178.91	-316.667
179.29	-875.000
179.67	-3200.000
180.04	-120.000
180.42	850.000
180.80	1900.000
181.18	0.000
181.56	-337.500
181.94	0.000
182.31	1266.667
182.69	-3700.000
183.07	671.429
183.45	-4500.000
183.83	-1500.000
184.20	400.000
184.58	642.857
184.96	-230.769
185.34	-208.333
185.72	1700.000
186.09	-900.000
186.47	-3000.000
186.85	1133.333
187.23	640.000
187.61	2300.000
187.98	537.500
188.36	364.286
188.74	416.667
189.12	383.333
189.49	900.000
189.87	0.000
190.25	562.500
190.63	3600.000
191.00	-291.667
191.38	-3500.000
191.76	-1025.000
192.14	512.500
192.51	-2400.000
192.89	1650.000
193.27	1100.000
193.65	-1466.667
194.02	-600.000
194.40	571.429
194.78	-214.286
195.15	246.667
195.53	-2900.000
195.91	-560.000
196.29	4100.000
196.66	293.750
197.04	750.000
197.42	-1650.000
197.79	700.000
198.17	391.667
198.55	0.000
198.92	642.857
199.30	1466.667
199.68	2200.000
200.05	633.333
200.43	-633.333
200.81	233.333
201.18	4000.000
201.56	425.000
201.94	-825.000
202.31	-412.500
202.69	-520.000
203.07	2500.000
203.44	-533.333
203.82	358.333
204.19	660.000
204.57	-1400.000
204.95	-800.000
205.32	-620.000
205.70	566.667
206.08	850.000
206.45	-1000.000
206.83	400.000
207.20	221.053
207.58	308.333
207.96	740.000
208.33	0.000
208.71	657.143
209.08	780.000
209.46	-3500.000
209.84	-1100.000
210.21	880.000
210.59	-760.000
210.96	308.333
211.34	-925.000
211.71	427.273
212.09	1100.000
212.46	2000.000
212.84	-533.333
213.22	500.000
213.59	-3500.000
213.97	300.000
214.34	1000.000
214.72	1500.000
215.09	1233.333
215.47	-3200.000
215.84	-370.000
216.22	-412.500
216.59	0.000
216.97	0.000
217.34	2100.000
217.72	-1700.000
218.09	1033.333
218.47	550.000
218.84	975.000
219.22	1100.000
219.59	933.333
219.97	571.429
220.34	433.333
220.72	2350.000
221.09	4200.000
221.47	325.000
221.84	1333.333
222.22	320.000
222.59	294.444
222.97	235.714
223.34	275.000
223.72	-1750.000
224.09	1200.000
224.46	200.000
224.84	-725.000
225.21	500.000
225.59	286.667
225.96	1366.667
226.34	-860.000
226.71	-700.000
227.08	-600.000
227.46	0.000
227.83	-500.000
228.21	-1950.000
228.58	316.667
228.95	900.000
229.33	344.444
229.70	1225.000
230.08	438.462
230.45	3900.000
230.82	-850.000
231.20	-1000.000
231.57	-1166.667
231.95	700.000
232.32	383.333
232.69	850.000
233.07	300.000
233.44	-1950.000
233.81	280.000
234.19	192.593
234.56	306.250
234.93	252.941
235.31	265.000
235.68	281.250
236.05	160.714
236.43	181.481
236.80	271.429
237.17	141.379
237.55	175.000
237.92	145.000
238.29	181.818
238.67	162.500
239.04	121.951
239.41	104.167
239.79	97.500
240.16	106.250
240.53	98.361
240.91	91.304
241.28	105.085
241.65	96.970
242.02	90.141
242.40	97.143
242.77	76.923
243.14	91.139
243.51	83.838
243.89	70.093
244.26	68.224
244.63	70.297
245.00	74.312
245.38	55.085
245.75	64.394
246.12	63.704
246.49	63.121
246.87	60.656
247.24	59.333
247.61	58.125
247.98	65.306
248.36	58.182
248.73	58.163
249.10	54.762
249.47	57.000
249.84	51.741
250.22	60.541
250.59	54.500
250.96	50.633
251.33	51.628
251.70	50.000
252.08	49.580
252.45	50.996
252.82	51.711
253.19	43.478
253.56	51.538
253.94	50.362
254.31	47.287
254.68	49.826
255.05	45.862
255.42	48.175
255.79	51.466
256.16	51.525
256.54	50.000
256.91	46.405
257.28	47.157
257.65	42.947
258.02	49.263
258.39	48.138
258.76	47.246
259.14	44.857
259.51	45.481
259.88	49.544
260.25	44.780
260.62	47.397
260.99	41.598
261.36	45.682
261.73	45.745
262.10	47.644
262.47	44.750
262.85	47.733
263.22	44.987
263.59	45.269
263.96	44.862
264.33	45.679
264.70	45.700
265.07	48.293
265.44	44.266
265.81	45.519
266.18	42.563
266.55	43.026
266.92	42.953
267.29	44.956
267.66	41.256
268.03	42.825
268.40	40.803
268.77	42.952
269.14	41.649
269.51	42.539
269.88	44.286
270.25	38.877
270.62	41.845
270.99	41.176
271.36	44.715
271.73	42.348
272.10	39.596
272.47	41.071
272.84	40.120
273.21	41.942
273.58	43.320
273.95	41.889
274.32	40.467
274.69	45.079
275.06	42.987
275.43	41.188
275.80	40.943
276.17	41.360
276.54	42.056
276.91	43.470
277.28	40.693
277.65	39.668
278.02	41.176
278.39	40.647
278.76	39.310
279.13	40.391
279.50	40.727
279.87	40.410
280.23	39.779
280.60	42.518
280.97	42.586
281.34	39.604
281.71	41.391
282.08	39.658
282.45	37.669
282.82	37.793
283.19	39.746
283.56	38.182
283.92	41.531
284.29	41.265
284.66	38.824
285.03	40.962
285.40	38.678
285.77	37.191
286.14	40.867
286.51	39.110
286.87	37.816
287.24	38.739
287.61	40.578
287.98	39.851
288.35	40.148
288.72	37.329
289.08	40.691
289.45	39.482
289.82	39.531
290.19	39.824
290.56	40.175
290.93	39.712
291.29	40.331
291.66	37.571
292.03	37.588
292.40	41.057
292.77	39.554
293.13	40.086
293.50	40.081
293.87	38.618
294.24	39.161
294.60	41.588
294.97	42.657
295.34	40.505
295.71	40.473
296.08	40.267
296.44	40.025
296.81	38.089
297.18	39.670
297.55	42.488
297.91	39.286
298.28	40.459
298.65	38.405
299.02	40.169
299.38	41.127
299.75	40.854
300.12	40.138
300.48	41.101
300.85	42.670
301.22	40.814
301.59	40.802
301.95	41.774
302.32	42.026
302.69	43.326
303.05	41.414
303.42	39.686
303.79	40.195
304.15	42.244
304.52	41.543
304.89	42.431
305.25	42.380
305.62	41.578
305.99	42.500
306.35	40.526
306.72	42.040
307.09	41.304
307.45	42.872
307.82	42.284
308.19	42.165
308.55	42.900
308.92	43.180
309.29	44.773
309.65	44.896
310.02	44.828
310.38	44.367
310.75	44.648
311.12	43.487
311.48	44.981
311.85	45.897
312.22	45.463
312.58	47.036
312.95	46.990
313.31	46.161
313.68	46.435
314.05	47.253
314.41	47.114
314.78	46.780
315.14	48.531
315.51	48.534
315.87	47.719
316.24	47.993
316.61	48.970
316.97	48.532
317.34	50.854
317.70	49.605
318.07	50.979
318.43	50.967
318.80	52.277
319.16	50.874
319.53	50.973
319.89	52.240
320.26	53.631
320.62	53.297
320.99	53.480
321.35	53.618
321.72	54.080
322.08	55.586
322.45	57.402
322.81	55.810
323.18	57.105
323.54	56.882
323.91	59.112
324.27	58.267
324.64	57.007
325.00	59.741
325.37	59.865
325.73	60.287
326.10	61.806
326.46	60.694
326.83	59.840
327.19	61.687
327.56	59.425
327.92	62.705
328.29	62.520
328.65	63.271
329.01	62.361
329.38	62.690
329.74	61.401
330.11	63.249
330.47	64.194
330.84	60.397
331.20	62.267
331.56	62.176
331.93	63.730
332.29	61.395
332.66	62.415
333.02	61.426
333.38	63.962
333.75	62.385
334.11	62.668
334.48	63.932
334.84	60.980
335.20	60.222
335.57	61.209
335.93	61.901
336.29	60.697
336.66	63.808
337.02	61.163
337.38	60.963
337.75	61.993
338.11	61.350
338.47	62.405
338.84	61.304
339.20	61.472
339.56	61.060
339.93	60.201
340.29	60.336
340.65	60.855
341.02	60.257
341.38	60.509
341.74	61.711
342.11	62.270
342.47	60.952
342.83	60.377
343.20	60.711
343.56	59.253
343.92	60.776
344.28	59.809
344.65	60.962
345.01	59.603
345.37	60.256
345.73	58.968
346.10	59.681
346.46	59.490
346.82	58.256
347.19	59.660
347.55	58.782
347.91	58.535
348.27	59.334
348.63	59.573
349.00	57.959
349.36	59.767
349.72	59.174
350.08	60.637
350.45	59.101
350.81	60.168
351.17	58.552
351.53	58.814
351.89	57.964
352.26	57.974
352.62	59.879
352.98	59.969
353.34	60.015
353.70	58.869
354.07	59.462
354.43	59.831
354.79	59.529
355.15	59.418
355.51	61.254
355.87	60.768
356.24	60.123
356.60	59.132
356.96	59.136
357.32	58.855
357.68	58.811
358.04	59.043
358.40	59.070
358.77	59.504
359.13	58.408
359.49	59.674
359.85	59.643
360.21	57.727
360.57	58.321
360.93	59.307
361.29	59.885
361.66	58.166
362.02	59.091
362.38	59.957
362.74	59.094
363.10	58.626
363.46	58.564
363.82	59.116
364.18	59.957
364.54	59.013
364.90	58.233
365.26	60.722
365.62	59.738
365.98	58.156
366.35	59.172
366.71	60.097
367.07	60.068
367.43	58.160
367.79	59.043
368.15	57.938
368.51	58.856
368.87	60.190
369.23	59.044
369.59	58.395
369.95	59.930
370.31	58.522
370.67	59.403
371.03	58.543
371.39	60.596
371.75	59.456
372.11	58.668
372.47	58.973
372.83	59.619
373.19	60.658
373.55	59.794
373.91	59.116
374.27	60.119
374.63	58.915
374.99	59.501
375.35	61.559
375.71	61.148
376.07	59.814
376.42	59.399
376.78	60.629
377.14	60.157
377.50	59.613
377.86	60.090
378.22	60.756
378.58	60.835
378.94	60.531
379.30	60.764
379.66	60.205
380.02	60.293
380.38	59.602
380.74	60.957
381.09	59.463
381.45	59.133
381.81	59.574
382.17	60.501
382.53	60.648
382.89	59.373
383.25	59.621
383.61	59.251
383.97	58.488
384.32	60.398
384.68	61.022
385.04	59.965
385.40	59.193
385.76	59.626
386.12	60.297
386.48	60.486
386.83	59.474
387.19	59.894
387.55	60.601
387.91	59.296
388.27	59.429
388.62	59.742
388.98	59.300
389.34	58.656
389.70	58.726
390.06	58.720
390.42	58.853
390.77	58.047
391.13	58.721
391.49	57.350
391.85	59.323
392.20	58.880
392.56	58.423
392.92	59.573
393.28	58.800
393.64	57.397
393.99	58.210
394.35	58.093
394.71	57.238
395.07	58.394
395.42	59.251
395.78	58.544
396.14	57.831
396.50	57.822
396.85	58.476
397.21	56.919
397.57	58.159
397.92	56.846
398.28	58.191
398.64	57.417
399.00	56.334
399.35	56.683
399.71	55.850
400.07	57.078
400.42	58.567
400.78	57.771
401.14	57.487
401.49	57.604
401.85	56.315
402.21	57.235
402.57	57.092
402.92	57.333
403.28	56.265
403.63	56.151
403.99	55.187
404.35	57.503
404.70	57.531
405.06	55.811
405.42	57.391
405.77	56.064
406.13	55.260
406.49	55.884
406.84	55.274
407.20	56.336
407.55	55.631
407.91	55.712
408.27	56.034
408.62	56.357
408.98	55.411
409.34	54.763
409.69	55.196
410.05	54.323
410.40	54.005
410.76	53.978
411.11	55.213
411.47	54.321
411.83	54.013
412.18	55.374
412.54	54.354
412.89	55.575
413.25	55.074
413.60	54.498
413.96	54.159
414.31	55.254
414.67	56.176
415.03	56.194
415.38	54.259
415.74	55.085
416.09	55.278
416.45	55.591
416.80	55.228
417.16	54.297
417.51	56.306
417.87	55.632
418.22	54.860
418.58	55.924
418.93	54.491
419.29	54.837
419.64	56.027
420.00	56.146
420.35	55.865
420.71	55.018
421.06	55.562
421.42	55.383
421.77	55.580
422.12	55.623
422.48	54.751
422.83	54.855
423.19	55.292
423.54	55.787
423.90	55.719
424.25	57.017
424.61	56.181
424.96	56.014
425.31	56.267
425.67	56.397
426.02	56.366
426.38	56.709
426.73	55.986
427.09	56.584
427.44	56.669
427.79	57.176
428.15	57.278
428.50	56.571
428.85	56.849
429.21	56.726
429.56	56.680
429.92	56.937
430.27	56.797
430.62	55.507
430.98	55.838
431.33	55.746
431.68	56.049
432.04	55.923
432.39	56.476
432.74	59.426
433.10	58.084
433.45	58.128
433.80	58.356
434.16	57.068
434.51	58.875
434.86	58.193
435.22	58.293
435.57	58.921
435.92	59.932
436.28	59.677
436.63	59.049
436.98	59.797
437.34	58.390
437.69	58.511
438.04	58.817
438.39	59.019
438.75	58.630
439.10	58.662
439.45	57.547
439.81	59.283
440.16	58.668
440.51	58.615
440.86	60.399
441.22	59.145
441.57	59.633
441.92	59.970
442.27	59.021
442.63	58.384
442.98	59.267
443.33	59.775
443.68	58.853
444.03	59.331
444.39	59.934
444.74	58.954
445.09	58.662
445.44	59.139
445.79	58.967
446.15	58.579
446.50	59.177
446.85	58.964
447.20	59.652
447.55	60.413
447.91	59.776
448.26	59.052
448.61	60.365
448.96	61.329
449.31	61.551
449.66	60.465
450.02	59.481
450.37	60.966
450.72	61.157
451.07	59.919
451.42	59.870
451.77	61.512
452.12	60.522
452.47	59.781
452.83	61.070
453.18	60.541
453.53	61.338
453.88	61.200
454.23	60.198
454.58	59.965
454.93	61.312
455.28	60.955
455.63	61.052
455.98	60.857
456.34	61.702
456.69	60.183
457.04	61.277
457.39	60.971
457.74	61.036
458.09	60.303
458.44	61.227
458.79	60.053
459.14	61.102
459.49	60.249
459.84	61.304
460.19	60.226
460.54	61.538
460.89	61.141
461.24	59.336
461.59	60.601
461.94	60.757
462.29	61.327
462.64	61.935
462.99	61.612
463.34	61.050
463.69	61.464
464.04	61.255
464.39	60.618
464.74	60.199
465.09	60.940
465.44	60.609
465.79	60.479
466.14	60.254
466.49	59.957
466.84	60.145
467.19	59.754
467.54	60.721
467.89	60.857
468.24	61.610
468.59	61.190
468.94	60.628
469.29	61.148
469.64	61.286
469.99	59.704
470.34	61.733
470.68	61.310
471.03	61.708
471.38	61.987
471.73	61.137
472.08	61.905
472.43	62.632
472.78	61.652
473.13	60.075
473.48	61.491
473.83	60.306
474.17	62.188
474.52	61.552
474.87	60.034
475.22	61.336
475.57	60.021
475.92	61.318
476.27	60.283
476.61	60.429
476.96	59.300
477.31	61.234
477.66	62.050
478.01	60.444
478.36	60.865
478.70	59.702
479.05	61.559
479.40	60.764
479.75	59.583
480.10	61.423
480.45	60.644
480.79	60.461
481.14	60.295
481.49	58.875
481.84	60.334
482.19	59.869
482.53	58.191
482.88	60.394
483.23	59.856
483.58	60.368
483.92	60.832
484.27	59.075
484.62	59.975
484.97	58.785
485.31	59.191
485.66	59.278
486.01	57.887
486.36	56.517
486.70	55.367
487.05	55.980
487.40	56.387
487.75	57.261
488.09	57.841
488.44	58.094
488.79	60.292
489.13	59.985
489.48	59.688
489.83	59.842
490.17	58.175
490.52	59.819
490.87	59.138
491.22	59.929
491.56	59.376
491.91	58.826
492.26	59.332
492.60	59.772
492.95	58.405
493.30	58.781
493.64	58.625
493.99	57.916
494.34	60.601
494.68	59.805
495.03	58.734
495.37	58.712
495.72	60.420
496.07	59.030
496.41	58.992
496.76	57.999
497.11	57.755
497.45	59.053
497.80	59.453
498.14	58.807
498.49	58.960
498.84	60.654
499.18	58.867
499.53	58.475
499.87	58.895
500.22	60.295
500.56	58.821
500.91	60.111
501.26	59.394
501.60	59.426
501.95	59.050
502.29	58.933
502.64	59.153
502.98	57.670
503.33	58.441
503.67	58.896
504.02	58.352
504.36	58.688
504.71	60.454
505.06	59.690
505.40	58.680
505.75	58.138
506.09	58.609
506.44	60.338
506.78	59.026
507.13	60.397
507.47	58.855
507.82	59.659
508.16	62.028
508.51	59.855
508.85	59.497
509.19	59.863
509.54	59.277
509.88	59.821
510.23	58.922
510.57	58.736
510.92	60.140
511.26	61.295
511.61	58.986
511.95	58.537
512.30	58.550
512.64	60.228
512.98	59.354
513.33	60.041
513.67	59.762
514.02	60.468
514.36	59.553
514.70	60.640
515.05	60.256
515.39	61.020
515.74	61.728
516.08	60.839
516.42	62.350
516.77	60.000
517.11	59.680
517.46	60.614
517.80	59.803
518.14	61.239
518.49	59.978
518.83	59.890
519.17	61.009
519.52	60.513
519.86	62.071
520.20	60.438
520.55	59.299
520.89	61.092
521.23	61.215
521.58	59.839
521.92	60.758
522.26	60.841
522.61	61.616
522.95	61.141
523.29	60.409
523.64	60.116
523.98	60.622
524.32	59.804
524.66	60.464
525.01	60.296
525.35	59.929
525.69	60.927
526.04	60.976
526.38	60.918
526.72	60.501
527.06	59.255
527.41	60.701
527.75	60.377
528.09	59.723
528.43	60.708
528.78	60.048
529.12	62.793
529.46	58.971
529.80	58.995
530.15	59.163
530.49	59.085
530.83	60.512
531.17	60.209
531.51	59.166
531.86	59.300
532.20	58.900
532.54	60.075
532.88	60.337
533.22	59.476
533.57	60.769
533.91	57.459
534.25	57.877
534.59	58.713
534.93	58.362
535.27	56.631
535.62	58.343
535.96	58.747
536.30	60.634
536.64	58.509
536.98	58.087
537.32	58.312
537.66	58.737
538.01	57.585
538.35	59.139
538.69	57.888
539.03	57.649
539.37	56.371
539.71	58.395
540.05	58.215
540.39	58.365
540.73	58.228
541.07	58.532
541.42	57.400
541.76	57.028
542.10	56.843
542.44	57.668
542.78	58.653
543.12	56.258
543.46	57.206
543.80	58.083
544.14	57.214
544.48	58.090
544.82	57.125
545.16	56.709
545.50	56.976
545.84	57.449
546.18	58.257
546.52	58.820
546.86	57.834
547.20	57.558
547.54	56.555
547.88	57.056
548.22	58.591
548.56	56.276
548.90	55.635
549.24	56.601
549.58	56.121
549.92	58.153
550.26	58.350
550.60	58.350
550.94	59.905
551.28	57.241
551.62	58.759
551.96	56.824
552.30	55.372
552.64	58.317
552.98	56.057
553.32	56.210
553.66	56.352
554.00	57.014
554.34	58.123
554.68	57.325
555.02	57.230
555.36	57.048
555.69	56.021
556.03	55.987
556.37	56.469
556.71	58.018
557.05	56.946
557.39	56.800
557.73	57.412
558.07	56.003
558.41	55.106
558.75	56.430
559.08	56.826
559.42	57.695
559.76	56.593
560.10	57.192
560.44	56.271
560.78	55.563
561.12	57.533
561.45	55.507
561.79	56.617
562.13	56.412
562.47	57.755
562.81	56.344
563.15	56.626
563.48	55.280
563.82	56.893
564.16	55.846
564.50	54.491
564.84	55.076
565.17	55.615
565.51	57.204
565.85	56.447
566.19	56.310
566.52	54.212
566.86	56.918
567.20	55.449
567.54	54.858
567.88	55.764
568.21	53.220
568.55	53.453
568.89	53.376
569.23	52.977
569.56	53.594
569.90	52.425
570.24	52.402
570.57	52.109
570.91	51.669
571.25	50.890
571.59	50.508
571.92	49.865
572.26	50.081
572.60	49.986
572.93	51.294
573.27	50.804
573.61	50.433
573.95	50.598
574.28	50.339
574.62	49.814
574.96	49.005
575.29	49.785
575.63	48.975
575.97	48.296
576.30	49.760
576.64	49.526
576.98	49.501
577.31	50.190
577.65	49.354
577.98	49.625
578.32	48.545
578.66	48.989
578.99	48.983
579.33	48.940
579.67	48.835
580.00	49.897
580.34	48.838
580.67	48.546
581.01	49.243
581.35	48.559
581.68	48.427
582.02	48.650
582.35	48.586
582.69	48.738
583.02	49.132
583.36	49.357
583.70	49.020
584.03	51.230
584.37	50.404
584.70	49.540
585.04	49.584
585.37	49.459
585.71	49.438
586.04	48.903
586.38	49.390
586.72	49.575
587.05	49.691
587.39	49.937
587.72	50.085
588.06	49.888
588.39	49.616
588.73	49.469
589.06	49.985
589.40	51.362
589.73	50.475
590.07	51.030
590.40	51.324
590.73	52.259
591.07	50.968
591.40	50.978
591.74	50.852
592.07	50.666
592.41	51.119
592.74	50.934
593.08	49.935
593.41	49.521
593.75	49.341
594.08	48.999
594.41	49.365
594.75	50.411
595.08	50.652
595.42	50.000
595.75	50.115
596.09	51.025
596.42	50.910
596.75	51.803
597.09	51.259
597.42	51.224
597.75	50.183
598.09	50.677
598.42	51.408
598.76	49.422
599.09	50.129
599.42	48.651
599.76	49.966
600.09	48.542
600.42	49.378
600.76	49.286
601.09	50.086
601.42	48.962
601.76	50.054
602.09	50.331
602.42	48.614
602.76	49.981
603.09	50.452
603.42	50.018
603.76	50.470
604.09	48.896
604.42	49.793
604.76	50.099
605.09	50.531
605.42	49.777
605.75	49.625
606.09	49.311
606.42	48.891
606.75	49.786
607.09	49.151
607.42	49.819
607.75	49.283
608.08	49.634
608.42	50.294
608.75	49.508
609.08	50.242
609.41	50.545
609.75	50.687
610.08	50.899
610.41	50.198
610.74	49.654
611.07	49.795
611.41	50.278
611.74	50.669
612.07	51.060
612.40	50.828
612.73	50.524
613.07	50.380
613.40	50.877
613.73	50.924
614.06	50.450
614.39	49.949
614.72	48.970
615.06	49.159
615.39	49.950
615.72	49.564
616.05	50.427
616.38	49.772
616.71	51.275
617.05	51.126
617.38	51.011
617.71	51.856
618.04	50.869
618.37	49.639
618.70	50.404
619.03	52.015
619.36	51.131
619.69	50.660
620.03	51.859
620.36	52.023
620.69	52.299
621.02	51.766
621.35	51.504
621.68	51.844
622.01	52.177
622.34	52.877
622.67	51.124
623.00	50.374
623.33	52.901
623.66	50.965
623.99	52.329
624.32	51.897
624.65	49.177
624.99	51.724
625.32	52.037
625.65	50.690
625.98	51.604
626.31	53.338
626.64	51.936
626.97	51.186
627.30	50.621
627.63	53.454
627.96	52.113
628.29	51.568
628.62	51.326
628.95	54.699
629.28	52.498
629.61	53.076
629.94	53.241
630.26	53.466
630.59	52.660
630.92	53.812
631.25	53.128
631.58	55.159
631.91	53.187
632.24	54.422
632.57	52.750
632.90	55.176
633.23	55.614
633.56	55.005
633.89	54.770
634.22	55.221
634.55	55.806
634.88	54.326
635.20	54.036
635.53	55.633
635.86	54.698
636.19	55.331
636.52	53.514
636.85	52.535
637.18	53.629
637.51	55.307
637.83	53.661
638.16	54.865
638.49	55.210
638.82	56.925
639.15	53.584
639.48	55.924
639.81	54.090
640.13	55.215
640.46	55.247
640.79	57.347
641.12	55.643
641.45	56.016
641.77	56.539
642.10	55.957
642.43	56.188
642.76	55.824
643.09	56.340
643.41	54.698
643.74	58.417
644.07	56.932
644.40	54.142
644.73	56.006
645.05	56.761
645.38	58.806
645.71	54.932
646.04	55.573
646.36	54.773
646.69	53.440
647.02	56.800
647.35	53.701
647.67	56.078
648.00	55.700
648.33	54.135
648.66	56.212
648.98	55.797
649.31	52.227
649.64	53.665
649.96	56.046
650.29	55.000
650.62	56.259
650.94	56.476
651.27	58.054
651.60	56.338
651.92	55.453
652.25	57.165
652.58	52.482
652.90	54.042
653.23	54.801
653.56	54.303
653.88	54.038
654.21	54.985
654.54	52.123
654.86	55.310
655.19	53.694
655.52	44.974
655.84	39.217
656.17	46.754
656.49	66.633
656.82	76.305
657.15	61.373
657.47	46.004
657.80	34.442
658.13	27.543
658.45	36.777
658.78	44.972
659.10	45.363
659.43	46.639
659.75	48.948
660.08	51.190
660.41	52.359
660.73	56.462
661.06	56.306
661.38	56.388
661.71	56.835
662.03	55.703
662.36	56.381
662.68	55.680
663.01	56.036
663.33	55.849
663.66	56.607
663.98	56.746
664.31	57.463
664.63	54.406
664.96	57.786
665.28	55.179
665.61	56.981
665.93	56.415
666.26	57.383
666.58	57.431
666.91	55.212
667.23	57.631
667.56	60.575
667.88	58.091
668.21	58.197
668.53	54.032
668.86	56.313
669.18	57.026
669.50	52.686
669.83	57.700
670.15	55.509
670.48	53.125
670.80	55.976
671.13	56.773
671.45	55.912
671.77	54.731
672.10	53.321
672.42	52.961
672.75	53.481
673.07	52.623
673.39	50.958
673.72	52.941
674.04	54.659
674.37	53.539
674.69	52.974
675.01	49.440
675.34	54.651
675.66	57.227
675.98	54.832
676.31	55.000
676.63	55.865
676.95	57.540
677.28	52.941
677.60	55.131
677.92	55.357
678.25	53.876
678.57	54.562
678.89	52.622
679.22	53.493
679.54	52.669
679.86	53.927
680.18	52.724
680.51	50.415
680.83	52.534
681.15	51.300
681.48	51.910
681.80	50.788
682.12	53.114
682.44	52.793
682.77	53.025
683.09	51.262
683.41	54.286
683.73	54.134
684.06	56.548
684.38	54.264
684.70	54.137
685.02	51.562
685.34	52.465
685.67	51.286
685.99	51.232
686.31	49.769
686.63	51.707
686.96	50.980
687.28	49.832
687.60	49.659
687.92	50.084
688.24	52.586
688.56	50.890
688.89	51.434
689.21	49.133
689.53	55.534
689.85	53.049
690.17	51.845
690.49	52.823
690.82	55.462
691.14	53.535
691.46	54.415
691.78	53.606
692.10	51.145
692.42	48.457
692.74	53.488
693.06	51.550
693.39	51.779
693.71	48.919
694.03	54.043
694.35	53.614
694.67	50.305
694.99	52.328
695.31	55.405
695.63	49.774
695.95	55.204
696.27	56.416
696.59	54.893
696.91	52.911
697.23	53.394
697.56	51.037
697.88	50.299
698.20	49.245
698.52	47.665
698.84	51.540
699.16	51.812
699.48	51.907
699.80	53.159
700.12	54.734
700.44	52.570
700.76	54.654
701.08	57.963
701.40	51.948
701.72	56.952
702.04	58.537
702.36	55.914
702.68	55.319
703.00	52.381
703.32	53.598
703.64	53.652
703.96	52.604
704.28	56.085
704.60	56.056
704.91	54.062
705.23	51.420
705.55	54.006
705.87	56.508
706.19	57.680
706.51	60.502
706.83	55.752
707.15	53.476
707.47	53.995
707.79	54.483
708.11	51.247
708.43	53.258
708.74	50.226
709.06	49.302
709.38	53.102
709.70	53.678
710.02	53.804
710.34	54.144
710.66	54.722
710.98	53.005
711.29	56.267
711.61	54.875
711.93	51.368
712.25	54.217
712.57	55.949
712.89	55.152
713.20	56.869
713.52	58.879
713.84	57.704
714.16	52.174
714.48	50.720
714.80	53.117
715.11	49.468
715.43	51.676
715.75	52.676
716.07	54.046
716.39	51.143
716.70	52.336
717.02	56.566
717.34	57.914
717.66	59.375
717.97	60.985
718.29	56.690
718.61	53.041
718.93	56.747
719.24	58.389
719.56	56.552
719.88	52.548
720.20	51.935
720.51	55.229
720.83	54.181
721.15	56.463
721.46	59.589
721.78	58.537
722.10	57.639
722.42	54.849
722.73	54.874
723.05	56.842
723.37	54.417
723.68	55.078
724.00	53.788
724.32	57.414
724.63	58.462
724.95	60.784
725.27	53.903
725.58	57.353
725.90	54.930
726.22	51.712
726.53	54.515
726.85	54.397
727.16	54.362
727.48	56.146
727.80	57.914
728.11	54.643
728.43	50.725
728.74	54.545
729.06	53.405
729.38	55.789
729.69	57.000
730.01	54.276
730.32	55.369
730.64	55.482
730.96	50.450
731.27	46.789
731.59	49.138
731.90	47.354
732.22	55.143
732.53	50.997
732.85	50.877
733.16	52.711
733.48	56.426
733.80	53.913
734.11	55.521
734.43	47.368
734.74	44.504
735.06	53.439
735.37	46.649
735.69	50.435
736.00	50.459
736.32	50.909
736.63	47.634
736.95	52.174
737.26	50.305
737.58	51.840
737.89	47.892
738.21	47.020
738.52	48.829
738.83	58.974
739.15	46.341
739.46	51.034
739.78	54.762
740.09	48.688
740.41	52.761
740.72	52.698
741.04	55.944
741.35	57.422
741.66	54.150
741.98	61.373
742.29	61.111
742.61	57.522
742.92	56.780
743.23	56.400
743.55	54.340
743.86	50.980
744.18	56.780
744.49	59.091
744.80	59.447
745.12	58.036
745.43	63.084
745.74	59.556
746.06	51.754
746.37	56.744
746.68	61.947
747.00	50.224
747.31	52.101
747.62	53.279
747.94	59.227
748.25	51.751
748.56	58.051
748.88	54.911
749.19	54.419
749.50	57.534
749.82	56.379
750.13	55.336
750.44	48.333
750.75	52.349
751.07	51.316
751.38	49.505
751.69	55.892
752.01	53.147
752.32	53.821
752.63	54.362
752.94	50.699
753.26	53.906
753.57	54.864
753.88	54.682
754.19	54.874
754.51	53.488
754.82	49.664
755.13	51.689
755.44	53.333
755.75	53.265
756.07	51.712
756.38	48.366
756.69	50.625
757.00	51.632
757.31	47.042
757.63	45.455
757.94	45.479
758.25	47.343
758.56	46.911
758.87	48.371
759.18	50.872
759.50	46.201
759.81	52.819
760.12	48.315
760.43	49.580
760.74	47.848
761.05	46.684
761.36	45.312
761.67	49.596
761.99	49.014
762.30	49.196
762.61	47.569
762.92	54.167
763.23	56.604
763.54	48.462
763.85	48.638
764.16	50.347
764.47	50.338
764.78	47.883
765.10	48.780
765.41	47.727
765.72	46.133
766.03	47.432
766.34	51.916
766.65	56.274
766.96	51.417
767.27	57.477
767.58	55.446
767.89	55.249
768.20	68.902
768.51	54.082
768.82	49.561
769.13	50.196
769.44	51.504
769.75	54.682
770.06	58.824
770.37	53.509
770.68	49.778
770.99	55.932
771.30	53.975
771.61	54.231
771.92	52.672
772.23	52.419
772.54	54.667
772.85	57.921
773.16	58.696
773.47	57.222
773.78	54.950
774.09	58.523
774.39	63.636
774.70	61.176
775.01	57.895
775.32	59.627
775.63	65.068
775.94	66.049
776.25	58.621
776.56	70.229
776.87	71.756
777.18	71.212
777.48	81.102
777.79	60.000
778.10	65.152
778.41	72.388
778.72	66.917
779.03	54.487
779.34	56.081
779.65	67.702
779.95	60.248
780.26	63.095
780.57	77.551
780.88	65.248
781.19	81.667
781.50	59.172
781.80	59.016
782.11	57.672
782.42	54.598
782.73	61.582
783.04	55.484
783.34	51.163
783.65	56.463
783.96	61.290
784.27	60.265
784.57	63.816
784.88	61.594
785.19	65.000
785.50	71.552
785.81	68.992
786.11	66.667
786.42	63.780
786.73	66.667
787.04	67.925
787.34	58.537
787.65	63.636
787.96	61.364
788.26	73.228
788.57	64.964
788.88	66.901
789.19	57.252
789.49	60.811
789.80	64.063
790.11	66.942
790.41	75.926
790.72	67.593
791.03	72.115
791.33	73.737
791.64	75.789
791.95	67.368
792.25	64.583
792.56	86.000
792.87	80.488
793.17	73.864
793.48	75.294
793.79	87.356
794.09	75.000
794.40	75.000
794.70	71.429
795.01	64.615
795.32	59.542
795.62	59.829
795.93	74.790
796.23	69.106
796.54	80.612
796.85	62.500
797.15	89.610
797.46	74.390
797.76	80.000
798.07	92.000
798.37	85.000
798.68	85.000
798.99	82.927
799.29	88.000
799.60	69.767
799.90	82.895
800.21	101.515
800.51	97.183
800.82	98.276
801.12	95.385
801.43	86.667
801.73	110.345
802.04	72.727
802.34	84.932
802.65	119.608
802.95	108.696
803.26	88.710
803.56	108.333
803.87	94.030
804.17	93.651
804.48	109.434
804.78	91.667
805.09	93.939
805.39	93.651
805.70	110.526
806.00	97.143
806.30	101.562
806.61	65.882
806.91	83.333
807.22	72.826
807.52	77.632
807.83	102.632
808.13	101.449
808.43	100.000
808.74	90.411
809.04	101.786
809.35	100.000
809.65	98.485
809.95	129.412
810.26	101.852
810.56	100.000
810.86	106.122
811.17	96.491
811.47	141.304
811.77	100.000
812.08	87.931
812.38	119.048
812.69	119.048
812.99	120.000
813.29	137.143
813.59	164.516
813.90	79.310
814.20	103.279
814.50	112.000
814.81	98.246
815.11	118.519
815.41	110.714
815.72	98.214
816.02	106.000
816.32	131.707
816.62	113.793
816.93	124.242
817.23	134.146
817.53	116.071
817.84	106.667
818.14	114.286
818.44	114.583
818.74	103.774
819.04	100.000
819.35	121.212
819.65	126.923
819.95	129.630
820.25	123.404
820.56	137.838
820.86	131.579
821.16	95.745
821.46	142.105
821.76	118.182
822.07	76.190
822.37	118.421
822.67	141.860
822.97	105.263
823.27	128.261
823.57	162.500
823.88	112.821
824.18	145.455
824.48	182.609
824.78	147.222
825.08	204.348
825.38	182.759
825.69	147.059
825.99	95.745
826.29	100.000
826.59	154.286
826.89	153.333
827.19	145.714
827.49	154.839
827.79	180.769
828.09	100.000
828.39	125.000
828.70	102.703
829.00	189.286
829.30	256.250
829.60	113.889
829.90	141.935
830.20	127.273
830.50	132.432
830.80	183.333
831.10	192.308
831.40	185.714
831.70	195.833
832.00	150.000
832.30	217.391
832.60	187.500
832.90	154.545
833.20	240.000
833.50	136.842
833.80	138.235
834.10	115.789
834.40	178.947
834.70	123.333
835.00	196.000
835.30	132.432
835.60	159.375
835.90	164.865
836.20	169.231
836.50	163.636
836.80	141.463
837.10	139.130
837.40	330.769
837.70	263.158
838.00	136.667
838.30	200.000
838.60	208.000
838.90	420.000
839.19	187.500
839.49	156.667
839.79	158.621
840.09	173.077
840.39	266.667
840.69	210.526
840.99	200.000
841.29	195.652
841.59	240.000
841.88	172.000
842.18	388.889
842.48	178.571
842.78	181.481
843.08	192.308
843.38	200.000
843.68	264.286
843.97	614.286
844.27	182.609
844.57	900.000
844.87	342.857
845.17	266.667
845.47	142.857
845.76	187.500
846.06	757.143
846.36	264.706
846.66	376.923
846.96	275.000
847.25	346.154
847.55	210.526
847.85	183.333
848.15	760.000
848.44	327.273
848.74	152.381
849.04	229.167
849.34	194.118
849.63	250.000
849.93	293.750
850.23	766.667
850.53	600.000
850.82	427.273
851.12	205.882
851.42	183.333
851.71	225.000
852.01	0.000
852.31	252.941
852.61	500.000
852.90	158.333
853.20	444.444
853.50	-2900.000
853.79	152.000
854.09	178.125
854.39	165.517
854.68	148.276
854.98	266.667
855.28	132.258
855.57	207.143
855.87	177.778
856.17	122.222
856.46	184.211
856.76	148.387
857.05	305.882
857.35	263.636
857.65	284.615
857.94	175.000
858.24	411.111
858.53	314.286
858.83	685.714
859.13	226.087
859.42	355.556
859.72	412.500
860.01	350.000
860.31	1100.000
860.60	460.000
860.90	387.500
861.20	369.231
861.49	442.857
861.79	-3700.000
862.08	542.857
862.38	355.556
862.67	321.429
862.97	450.000
863.26	136.667
863.56	825.000
863.85	315.385
864.15	264.706
864.44	144.444
864.74	408.333
865.03	290.909
865.33	412.500
865.62	260.000
865.92	600.000
866.21	1025.000
866.51	860.000
866.80	194.444
867.10	1066.667
867.39	3600.000
867.69	820.000
867.98	1050.000
868.27	209.524
868.57	300.000
868.86	900.000
869.16	171.429
869.45	4000.000
869.75	-550.000
870.04	975.000
870.33	920.000
870.63	400.000
870.92	276.471
871.22	925.000
871.51	500.000
871.80	341.667
872.10	284.615
>>>>>End Processed Spectral Data<<<<<
