SpectraSuite Data File
++++++++++++++++++++++++++++++++++++
Date: Tue May 12 17:22:00 PDT 2015
User: schluterlab
Dark Spectrum Present: Yes
Reference Spectrum Present: Yes
Number of Sampled Component Spectra: 1
Spectrometers: USB2E3373
Integration Time (usec): 3000 (USB2E3373)
Spectra Averaged: 3 (USB2E3373)
Boxcar Smoothing: 0 (USB2E3373)
Correct for Electrical Dark: No (USB2E3373)
Strobe/Lamp Enabled: No (USB2E3373)
Correct for Detector Non-linearity: No (USB2E3373)
Correct for Stray Light: No (USB2E3373)
Number of Pixels in Processed Spectrum: 2048
>>>>>Begin Processed Spectral Data<<<<<
178.53	0.000
178.91	-191.667
179.29	-725.000
179.67	-2700.000
180.04	-153.333
180.42	750.000
180.80	1350.000
181.18	0.000
181.56	-275.000
181.94	0.000
182.31	1133.333
182.69	-3300.000
183.07	428.571
183.45	-3500.000
183.83	-1500.000
184.20	390.000
184.58	614.286
184.96	-307.692
185.34	-200.000
185.72	1900.000
186.09	-750.000
186.47	-3400.000
186.85	1100.000
187.23	580.000
187.61	1450.000
187.98	562.500
188.36	228.571
188.74	275.000
189.12	333.333
189.49	825.000
189.87	0.000
190.25	400.000
190.63	2300.000
191.00	-233.333
191.38	-3700.000
191.76	-775.000
192.14	512.500
192.51	-2900.000
192.89	1700.000
193.27	1200.000
193.65	-933.333
194.02	-820.000
194.40	500.000
194.78	-214.286
195.15	266.667
195.53	-3300.000
195.91	-700.000
196.29	3400.000
196.66	300.000
197.04	800.000
197.42	-1500.000
197.79	725.000
198.17	300.000
198.55	0.000
198.92	428.571
199.30	1100.000
199.68	2050.000
200.05	583.333
200.43	-516.667
200.81	205.556
201.18	3800.000
201.56	225.000
201.94	-725.000
202.31	-362.500
202.69	-660.000
203.07	2800.000
203.44	-500.000
203.82	316.667
204.19	800.000
204.57	-1100.000
204.95	-675.000
205.32	-700.000
205.70	466.667
206.08	825.000
206.45	-666.667
206.83	433.333
207.20	157.895
207.58	241.667
207.96	720.000
208.33	0.000
208.71	528.571
209.08	720.000
209.46	-3100.000
209.84	-700.000
210.21	720.000
210.59	-520.000
210.96	300.000
211.34	-925.000
211.71	290.909
212.09	825.000
212.46	1650.000
212.84	-466.667
213.22	400.000
213.59	-3000.000
213.97	240.000
214.34	775.000
214.72	1166.667
215.09	966.667
215.47	-3900.000
215.84	-210.000
216.22	-262.500
216.59	0.000
216.97	0.000
217.34	1100.000
217.72	-1300.000
218.09	1266.667
218.47	425.000
218.84	800.000
219.22	1100.000
219.59	800.000
219.97	500.000
220.34	466.667
220.72	1250.000
221.09	2800.000
221.47	258.333
221.84	1033.333
222.22	420.000
222.59	261.111
222.97	235.714
223.34	218.750
223.72	-1700.000
224.09	1200.000
224.46	323.077
224.84	-550.000
225.21	333.333
225.59	200.000
225.96	1133.333
226.34	-640.000
226.71	-700.000
227.08	-640.000
227.46	0.000
227.83	-566.667
228.21	-1450.000
228.58	308.333
228.95	875.000
229.33	277.778
229.70	1025.000
230.08	292.308
230.45	2900.000
230.82	-675.000
231.20	-866.667
231.57	-900.000
231.95	560.000
232.32	191.667
232.69	616.667
233.07	258.333
233.44	-1250.000
233.81	226.667
234.19	118.519
234.56	193.750
234.93	147.059
235.31	185.000
235.68	243.750
236.05	107.143
236.43	118.519
236.80	178.571
237.17	117.241
237.55	78.125
237.92	80.000
238.29	124.242
238.67	112.500
239.04	87.805
239.41	60.417
239.79	60.000
240.16	56.250
240.53	60.656
240.91	50.725
241.28	47.458
241.65	45.455
242.02	63.380
242.40	50.000
242.77	43.956
243.14	37.975
243.51	39.394
243.89	32.710
244.26	32.710
244.63	29.703
245.00	25.688
245.38	26.271
245.75	36.364
246.12	32.593
246.49	30.496
246.87	23.770
247.24	26.000
247.61	18.750
247.98	25.850
248.36	16.970
248.73	25.510
249.10	16.071
249.47	21.000
249.84	18.408
250.22	25.946
250.59	14.500
250.96	20.675
251.33	19.535
251.70	20.089
252.08	18.487
252.45	17.131
252.82	17.110
253.19	13.439
253.56	15.000
253.94	16.304
254.31	12.791
254.68	14.983
255.05	17.586
255.42	16.788
255.79	15.309
256.16	14.915
256.54	17.208
256.91	16.013
257.28	13.378
257.65	13.480
258.02	13.274
258.39	14.613
258.76	15.362
259.14	10.571
259.51	13.120
259.88	16.109
260.25	12.088
260.62	13.425
260.99	10.193
261.36	11.699
261.73	9.574
262.10	10.471
262.47	9.250
262.85	10.400
263.22	10.797
263.59	9.974
263.96	11.278
264.33	11.358
264.70	11.794
265.07	12.439
265.44	11.468
265.81	9.434
266.18	9.153
266.55	7.801
266.92	10.067
267.29	8.553
267.66	10.762
268.03	6.951
268.40	11.416
268.77	11.674
269.14	9.111
269.51	8.018
269.88	11.224
270.25	7.127
270.62	9.442
270.99	12.779
271.36	13.008
271.73	8.805
272.10	7.071
272.47	7.540
272.84	7.784
273.21	8.264
273.58	9.919
273.95	7.598
274.32	9.339
274.69	10.827
275.06	9.472
275.43	6.705
275.80	7.170
276.17	8.088
276.54	8.224
276.91	10.448
277.28	7.482
277.65	7.380
278.02	7.537
278.39	6.835
278.76	9.483
279.13	8.185
279.50	7.455
279.87	7.821
280.23	8.656
280.60	9.124
280.97	7.759
281.34	8.086
281.71	7.304
282.08	9.060
282.45	7.264
282.82	8.528
283.19	7.631
283.56	8.099
283.92	8.632
284.29	8.652
284.66	7.059
285.03	7.629
285.40	7.438
285.77	7.407
286.14	7.430
286.51	8.282
286.87	6.962
287.24	6.757
287.61	6.535
287.98	6.567
288.35	8.000
288.72	6.829
289.08	7.057
289.45	7.622
289.82	7.969
290.19	6.149
290.56	6.987
290.93	8.345
291.29	7.044
291.66	5.508
292.03	6.732
292.40	7.859
292.77	5.710
293.13	6.562
293.50	6.343
293.87	6.098
294.24	6.993
294.60	8.345
294.97	8.671
295.34	5.710
295.71	7.622
296.08	7.600
296.44	6.226
296.81	6.079
297.18	5.957
297.55	6.773
297.91	5.788
298.28	5.676
298.65	7.117
299.02	6.514
299.38	6.235
299.75	6.098
300.12	6.422
300.48	5.855
300.85	6.079
301.22	7.209
301.59	5.307
301.95	5.368
302.32	7.800
302.69	6.222
303.05	5.499
303.42	5.381
303.79	6.067
304.15	6.381
304.52	5.708
304.89	7.783
305.25	5.673
305.62	6.077
305.99	4.239
306.35	4.526
306.72	6.035
307.09	6.211
307.45	5.913
307.82	5.350
308.19	6.804
308.55	6.100
308.92	5.790
309.29	5.917
309.65	6.046
310.02	5.882
310.38	5.683
310.75	4.629
311.12	4.119
311.48	5.695
311.85	5.821
312.22	4.776
312.58	4.470
312.95	5.243
313.31	4.401
313.68	5.629
314.05	6.502
314.41	5.680
314.78	4.451
315.14	5.213
315.51	5.582
315.87	5.201
316.24	5.789
316.61	5.372
316.97	4.037
317.34	5.660
317.70	4.829
318.07	5.605
318.43	6.063
318.80	5.954
319.16	4.808
319.53	4.956
319.89	5.556
320.26	7.542
320.62	5.769
320.99	5.052
321.35	5.844
321.72	6.641
322.08	6.648
322.45	5.995
322.81	4.849
323.18	6.306
323.54	6.969
323.91	6.800
324.27	4.598
324.64	4.498
325.00	6.207
325.37	7.420
325.73	6.155
326.10	7.539
326.46	6.524
326.83	5.360
327.19	7.068
327.56	5.431
327.92	5.328
328.29	7.447
328.65	7.962
329.01	6.416
329.38	6.684
329.74	6.149
330.11	7.211
330.47	7.332
330.84	6.299
331.20	6.768
331.56	7.340
331.93	6.416
332.29	5.102
332.66	7.313
333.02	6.100
333.38	5.323
333.75	7.506
334.11	5.201
334.48	6.667
334.84	6.672
335.20	6.330
335.57	6.633
335.93	6.140
336.29	6.219
336.66	6.175
337.02	5.902
337.38	6.965
337.75	6.588
338.11	6.751
338.47	6.435
338.84	6.181
339.20	5.108
339.56	6.392
339.93	5.686
340.29	5.042
340.65	6.287
341.02	6.597
341.38	6.322
341.74	6.478
342.11	5.259
342.47	5.168
342.83	6.645
343.20	7.437
343.56	5.481
343.92	5.367
344.28	5.502
344.65	5.460
345.01	6.984
345.37	5.609
345.73	5.556
346.10	5.498
346.46	5.582
346.82	5.633
347.19	6.646
347.55	4.762
347.91	5.665
348.27	4.028
348.63	5.538
349.00	5.788
349.36	5.992
349.72	5.963
350.08	5.823
350.45	5.864
350.81	6.193
351.17	5.008
351.53	4.465
351.89	5.439
352.26	5.669
352.62	5.354
352.98	5.138
353.34	6.857
353.70	4.664
354.07	5.769
354.43	5.300
354.79	5.163
355.15	5.513
355.51	4.909
355.87	6.401
356.24	5.235
356.60	5.175
356.96	4.852
357.32	5.200
357.68	5.653
358.04	5.167
358.40	5.097
358.77	5.785
359.13	4.880
359.49	5.708
359.85	5.063
360.21	4.681
360.57	4.526
360.93	5.195
361.29	5.628
361.66	5.667
362.02	4.688
362.38	4.762
362.74	5.237
363.10	4.769
363.46	5.732
363.82	5.540
364.18	5.832
364.54	6.009
364.90	5.154
365.26	5.621
365.62	5.525
365.98	4.749
366.35	4.414
366.71	5.552
367.07	5.188
367.43	5.709
367.79	6.250
368.15	4.613
368.51	5.513
368.87	4.688
369.23	5.128
369.59	5.462
369.95	4.615
370.31	4.723
370.67	5.482
371.03	5.952
371.39	5.679
371.75	5.024
372.11	6.118
372.47	5.068
372.83	5.574
373.19	5.757
373.55	5.979
373.91	3.660
374.27	5.291
374.63	5.492
374.99	5.121
375.35	5.309
375.71	5.475
376.07	4.841
376.42	4.987
376.78	5.523
377.14	5.701
377.50	5.306
377.86	5.253
378.22	5.302
378.58	6.053
378.94	5.130
379.30	4.730
379.66	5.238
380.02	6.217
380.38	4.333
380.74	5.479
381.09	5.257
381.45	5.491
381.81	4.905
382.17	3.968
382.53	4.559
382.89	5.086
383.25	4.855
383.61	5.533
383.97	4.919
384.32	5.485
384.68	6.179
385.04	4.748
385.40	5.101
385.76	5.091
386.12	5.442
386.48	4.073
386.83	4.768
387.19	5.065
387.55	4.888
387.91	5.196
388.27	4.938
388.62	5.340
388.98	5.248
389.34	4.759
389.70	4.540
390.06	5.183
390.42	4.688
390.77	5.283
391.13	5.311
391.49	5.505
391.85	5.108
392.20	5.006
392.56	5.496
392.92	4.885
393.28	5.157
393.64	4.358
393.99	5.098
394.35	5.650
394.71	4.765
395.07	4.623
395.42	5.152
395.78	5.552
396.14	5.602
396.50	5.295
396.85	4.939
397.21	4.693
397.57	5.380
397.92	4.564
398.28	4.357
398.64	6.166
399.00	4.864
399.35	4.831
399.71	5.243
400.07	5.365
400.42	4.716
400.78	4.692
401.14	5.167
401.49	4.724
401.85	5.504
402.21	5.272
402.57	4.369
402.92	5.152
403.28	4.535
403.63	5.297
403.99	5.066
404.35	5.041
404.70	5.493
405.06	5.166
405.42	5.506
405.77	4.961
406.13	5.098
406.49	5.628
406.84	4.343
407.20	5.537
407.55	4.554
407.91	5.743
408.27	5.518
408.62	4.731
408.98	4.731
409.34	4.325
409.69	5.289
410.05	4.830
410.40	5.124
410.76	5.094
411.11	5.450
411.47	5.062
411.83	5.038
412.18	4.891
412.54	4.865
412.89	5.074
413.25	5.359
413.60	5.549
413.96	4.548
414.31	5.136
414.67	5.711
415.03	4.789
415.38	5.426
415.74	5.054
416.09	5.434
416.45	5.624
416.80	5.837
417.16	4.774
417.51	5.414
417.87	4.819
418.22	4.800
418.58	5.159
418.93	4.938
419.29	4.683
419.64	5.148
420.00	5.967
420.35	4.936
420.71	4.901
421.06	3.885
421.42	4.836
421.77	4.997
422.12	5.127
422.48	4.828
422.83	4.911
423.19	5.184
423.54	4.608
423.90	5.436
424.25	4.458
424.61	5.049
424.96	4.404
425.31	4.652
425.67	5.051
426.02	4.655
426.38	4.259
426.73	4.916
427.09	5.338
427.44	4.164
427.79	4.631
428.15	4.950
428.50	5.314
428.85	4.997
429.21	4.322
429.56	5.085
429.92	5.221
430.27	4.644
430.62	4.699
430.98	4.641
431.33	4.284
431.68	4.642
432.04	4.915
432.39	4.940
432.74	5.504
433.10	4.374
433.45	4.710
433.80	5.461
434.16	4.467
434.51	5.315
434.86	5.879
435.22	4.376
435.57	5.157
435.92	4.610
436.28	5.530
436.63	5.835
436.98	4.899
437.34	5.308
437.69	4.591
438.04	5.108
438.39	5.137
438.75	5.290
439.10	4.695
439.45	5.031
439.81	5.899
440.16	4.843
440.51	5.011
440.86	5.356
441.22	4.600
441.57	5.249
441.92	4.640
442.27	4.433
442.63	4.065
442.98	4.849
443.33	4.874
443.68	4.728
444.03	5.090
444.39	4.661
444.74	5.072
445.09	4.687
445.44	5.154
445.79	4.776
446.15	5.368
446.50	4.694
446.85	4.432
447.20	4.627
447.55	4.676
447.91	6.340
448.26	5.112
448.61	5.030
448.96	4.902
449.31	4.785
449.66	5.094
450.02	4.916
450.37	4.831
450.72	4.904
451.07	5.526
451.42	5.216
451.77	5.269
452.12	5.445
452.47	5.893
452.83	5.634
453.18	5.465
453.53	5.921
453.88	6.171
454.23	6.043
454.58	6.061
454.93	5.763
455.28	5.386
455.63	5.792
455.98	5.753
456.34	5.897
456.69	5.366
457.04	5.430
457.39	5.543
457.74	6.813
458.09	4.885
458.44	5.641
458.79	4.934
459.14	4.746
459.49	5.606
459.84	5.326
460.19	5.311
460.54	5.812
460.89	5.704
461.24	5.384
461.59	5.215
461.94	5.437
462.29	5.378
462.64	5.779
462.99	5.438
463.34	5.768
463.69	5.808
464.04	4.951
464.39	5.896
464.74	4.513
465.09	5.572
465.44	5.223
465.79	4.682
466.14	5.299
466.49	5.209
466.84	5.407
467.19	5.214
467.54	5.646
467.89	6.573
468.24	5.211
468.59	5.655
468.94	5.616
469.29	6.659
469.64	6.624
469.99	6.170
470.34	5.946
470.68	5.655
471.03	5.203
471.38	5.430
471.73	5.356
472.08	5.871
472.43	6.145
472.78	5.378
473.13	4.944
473.48	4.951
473.83	5.889
474.17	5.106
474.52	6.339
474.87	5.117
475.22	5.311
475.57	5.247
475.92	5.519
476.27	4.788
476.61	4.987
476.96	5.904
477.31	5.450
477.66	5.904
478.01	5.982
478.36	5.201
478.70	5.062
479.05	4.812
479.40	5.109
479.75	5.263
480.10	5.276
480.45	4.809
480.79	5.161
481.14	5.040
481.49	4.849
481.84	5.233
482.19	5.240
482.53	4.963
482.88	5.466
483.23	4.511
483.58	4.892
483.92	5.667
484.27	5.094
484.62	4.966
484.97	5.220
485.31	4.883
485.66	4.481
486.01	3.869
486.36	3.961
486.70	4.110
487.05	3.939
487.40	4.250
487.75	4.487
488.09	4.403
488.44	4.621
488.79	4.859
489.13	4.853
489.48	4.754
489.83	4.629
490.17	4.707
490.52	4.953
490.87	5.388
491.22	5.275
491.56	5.402
491.91	5.018
492.26	5.122
492.60	5.513
492.95	4.939
493.30	4.959
493.64	5.121
493.99	5.411
494.34	5.065
494.68	4.825
495.03	5.658
495.37	5.313
495.72	5.921
496.07	5.391
496.41	5.430
496.76	5.361
497.11	5.827
497.45	5.699
497.80	5.236
498.14	5.594
498.49	5.385
498.84	5.935
499.18	4.890
499.53	5.834
499.87	5.211
500.22	5.113
500.56	5.525
500.91	5.705
501.26	5.880
501.60	5.373
501.95	4.480
502.29	5.511
502.64	5.602
502.98	5.425
503.33	5.434
503.67	5.740
504.02	4.792
504.36	6.018
504.71	5.345
505.06	5.537
505.40	5.288
505.75	5.239
506.09	6.020
506.44	5.686
506.78	5.482
507.13	5.138
507.47	5.531
507.82	6.423
508.16	5.928
508.51	5.507
508.85	5.888
509.19	5.188
509.54	5.518
509.88	5.868
510.23	5.784
510.57	5.502
510.92	5.594
511.26	5.873
511.61	5.564
511.95	5.874
512.30	5.900
512.64	5.296
512.98	5.484
513.33	5.584
513.67	6.007
514.02	5.558
514.36	5.296
514.70	5.760
515.05	4.955
515.39	6.469
515.74	5.960
516.08	5.664
516.42	6.284
516.77	6.293
517.11	5.920
517.46	6.412
517.80	6.008
518.14	5.746
518.49	5.843
518.83	5.275
519.17	5.768
519.52	6.117
519.86	6.376
520.20	6.247
520.55	5.540
520.89	5.862
521.23	6.133
521.58	5.967
521.92	6.647
522.26	6.102
522.61	6.239
522.95	6.667
523.29	5.789
523.64	5.260
523.98	6.455
524.32	6.113
524.66	6.435
525.01	6.272
525.35	6.423
525.69	6.623
526.04	6.544
526.38	6.298
526.72	6.504
527.06	6.150
527.41	7.134
527.75	6.573
528.09	5.960
528.43	6.711
528.78	6.321
529.12	6.261
529.46	6.487
529.80	7.068
530.15	7.012
530.49	5.836
530.83	6.520
531.17	6.150
531.51	5.947
531.86	6.582
532.20	6.489
532.54	6.089
532.88	6.184
533.22	6.642
533.57	7.016
533.91	6.352
534.25	6.174
534.59	5.906
534.93	6.769
535.27	5.862
535.62	6.009
535.96	6.442
536.30	6.581
536.64	6.335
536.98	6.167
537.32	7.250
537.66	5.548
538.01	6.873
538.35	6.301
538.69	5.947
539.03	5.784
539.37	6.493
539.71	7.037
540.05	6.462
540.39	6.981
540.73	6.329
541.07	5.521
541.42	6.530
541.76	7.460
542.10	5.980
542.44	6.421
542.78	6.230
543.12	6.687
543.46	6.391
543.80	5.952
544.14	6.254
544.48	6.204
544.82	6.972
545.16	6.254
545.50	6.392
545.84	6.818
546.18	7.217
546.52	6.557
546.86	7.544
547.20	6.977
547.54	6.840
547.88	6.691
548.22	6.436
548.56	6.305
548.90	6.465
549.24	6.949
549.58	6.443
549.92	6.287
550.26	6.288
550.60	6.454
550.94	6.106
551.28	7.586
551.62	7.586
551.96	6.689
552.30	5.999
552.64	6.731
552.98	5.799
553.32	5.698
553.66	6.710
554.00	6.692
554.34	6.458
554.68	7.191
555.02	7.060
555.36	6.250
555.69	6.872
556.03	7.006
556.37	6.628
556.71	7.692
557.05	5.570
557.39	7.333
557.73	7.278
558.07	7.579
558.41	7.539
558.75	8.003
559.08	6.433
559.42	6.872
559.76	7.056
560.10	6.401
560.44	6.702
560.78	7.673
561.12	6.548
561.45	6.008
561.79	6.429
562.13	6.064
562.47	6.100
562.81	6.701
563.15	6.529
563.48	5.404
563.82	7.049
564.16	6.468
564.50	6.088
564.84	7.234
565.17	6.655
565.51	6.466
565.85	7.403
566.19	6.905
566.52	6.197
566.86	6.538
567.20	7.303
567.54	6.114
567.88	6.625
568.21	6.390
568.55	6.712
568.89	6.296
569.23	5.349
569.56	5.831
569.90	5.138
570.24	5.486
570.57	5.419
570.91	5.211
571.25	5.605
571.59	4.935
571.92	5.140
572.26	4.906
572.60	4.749
572.93	5.233
573.27	5.342
573.61	4.710
573.95	4.980
574.28	5.187
574.62	4.984
574.96	4.905
575.29	4.845
575.63	4.782
575.97	4.966
576.30	4.733
576.64	5.084
576.98	4.504
577.31	5.084
577.65	5.185
577.98	4.734
578.32	4.712
578.66	4.802
578.99	4.720
579.33	5.097
579.67	4.939
580.00	4.701
580.34	4.806
580.67	4.676
581.01	4.894
581.35	4.631
581.68	4.358
582.02	4.518
582.35	4.467
582.69	4.701
583.02	4.734
583.36	4.366
583.70	5.073
584.03	4.897
584.37	5.048
584.70	4.827
585.04	4.806
585.37	4.396
585.71	4.989
586.04	4.680
586.38	4.836
586.72	4.762
587.05	5.044
587.39	4.753
587.72	5.245
588.06	4.619
588.39	4.811
588.73	5.012
589.06	4.873
589.40	5.102
589.73	4.851
590.07	5.594
590.40	5.261
590.73	5.692
591.07	5.693
591.40	4.631
591.74	5.235
592.07	5.449
592.41	5.436
592.74	5.016
593.08	4.785
593.41	4.997
593.75	4.802
594.08	5.082
594.41	4.920
594.75	5.240
595.08	5.144
595.42	5.365
595.75	5.594
596.09	5.005
596.42	5.171
596.75	5.649
597.09	5.819
597.42	5.510
597.75	4.706
598.09	5.458
598.42	5.549
598.76	5.243
599.09	5.333
599.42	5.017
599.76	5.563
600.09	4.915
600.42	5.145
600.76	4.963
601.09	5.212
601.42	5.315
601.76	5.084
602.09	5.519
602.42	5.360
602.76	5.427
603.09	5.354
603.42	5.358
603.76	4.845
604.09	5.212
604.42	5.009
604.76	5.689
605.09	5.184
605.42	5.811
605.75	5.488
606.09	6.044
606.42	5.411
606.75	5.674
607.09	5.527
607.42	5.344
607.75	5.414
608.08	5.605
608.42	5.285
608.75	5.220
609.08	5.191
609.41	5.727
609.75	5.678
610.08	5.351
610.41	5.753
610.74	4.892
611.07	5.503
611.41	5.885
611.74	4.924
612.07	5.299
612.40	5.409
612.73	5.941
613.07	5.981
613.40	5.313
613.73	5.891
614.06	5.550
614.39	5.960
614.72	5.023
615.06	5.638
615.39	6.188
615.72	5.470
616.05	5.776
616.38	5.784
616.71	6.294
617.05	5.711
617.38	6.124
617.71	6.018
618.04	5.216
618.37	6.059
618.70	6.062
619.03	5.861
619.36	6.721
619.69	6.069
620.03	7.306
620.36	5.716
620.69	6.130
621.02	6.997
621.35	5.946
621.68	6.858
622.01	7.085
622.34	5.535
622.67	6.952
623.00	6.331
623.33	6.410
623.66	5.589
623.99	7.055
624.32	5.623
624.65	6.517
624.99	7.032
625.32	6.947
625.65	6.207
625.98	6.485
626.31	6.751
626.64	6.302
626.97	5.279
627.30	6.677
627.63	6.829
627.96	6.573
628.29	6.766
628.62	6.330
628.95	8.156
629.28	7.713
629.61	6.503
629.94	6.914
630.26	7.626
630.59	8.067
630.92	6.726
631.25	7.253
631.58	7.522
631.91	7.517
632.24	6.803
632.57	6.778
632.90	7.143
633.23	7.975
633.56	8.430
633.89	7.717
634.22	8.181
634.55	8.387
634.88	7.448
635.20	7.848
635.53	7.317
635.86	8.054
636.19	6.510
636.52	7.459
636.85	7.120
637.18	8.451
637.51	6.816
637.83	6.636
638.16	8.441
638.49	7.904
638.82	8.920
639.15	7.638
639.48	8.057
639.81	8.425
640.13	7.607
640.46	8.344
640.79	7.412
641.12	6.824
641.45	9.185
641.77	8.587
642.10	7.497
642.43	7.966
642.76	8.381
643.09	7.637
643.41	7.854
643.74	7.770
644.07	8.850
644.40	7.692
644.73	10.811
645.05	10.698
645.38	9.342
645.71	9.712
646.04	10.382
646.36	10.172
646.69	8.160
647.02	10.080
647.35	8.189
647.67	8.104
648.00	10.586
648.33	10.677
648.66	9.091
648.98	7.971
649.31	8.232
649.64	7.746
649.96	7.397
650.29	7.429
650.62	9.720
650.94	10.693
651.27	10.048
651.60	8.294
651.92	11.060
652.25	9.291
652.58	8.794
652.90	7.485
653.23	7.533
653.56	8.902
653.88	9.104
654.21	8.358
654.54	8.931
654.86	7.522
655.19	10.422
655.52	7.070
655.84	3.843
656.17	3.785
656.49	5.558
656.82	6.484
657.15	5.336
657.47	3.962
657.80	3.005
658.13	2.434
658.45	3.201
658.78	3.682
659.10	3.915
659.43	4.512
659.75	4.733
660.08	5.388
660.41	6.806
660.73	8.908
661.06	9.309
661.38	7.836
661.71	8.453
662.03	7.224
662.36	10.667
662.68	9.870
663.01	13.333
663.33	10.755
663.66	11.440
663.98	11.508
664.31	12.500
664.63	11.686
664.96	9.756
665.28	9.981
665.61	10.000
665.93	10.755
666.26	9.346
666.58	11.193
666.91	11.969
667.23	10.442
667.56	11.088
667.88	10.373
668.21	10.246
668.53	11.290
668.86	12.425
669.18	10.998
669.50	8.678
669.83	8.830
670.15	10.187
670.48	9.570
670.80	12.151
671.13	11.355
671.45	12.826
671.77	13.544
672.10	10.054
672.42	9.539
672.75	8.544
673.07	9.380
673.39	7.987
673.72	11.073
674.04	10.932
674.37	8.893
674.69	11.152
675.01	9.328
675.34	8.333
675.66	14.453
675.98	9.270
676.31	10.400
676.63	9.344
676.95	10.913
677.28	8.925
677.60	11.670
677.92	9.722
678.25	11.822
678.57	11.918
678.89	10.850
679.22	11.765
679.54	11.210
679.86	10.995
680.18	8.612
680.51	8.126
680.83	9.966
681.15	10.399
681.48	11.806
681.80	10.333
682.12	10.900
682.44	9.550
682.77	10.498
683.09	11.650
683.41	11.429
683.73	10.630
684.06	7.937
684.38	9.690
684.70	9.532
685.02	9.028
685.34	10.035
685.67	11.254
685.99	8.867
686.31	7.704
686.63	8.293
686.96	11.111
687.28	9.060
687.60	7.338
687.92	10.218
688.24	11.207
688.56	10.854
688.89	6.692
689.21	11.175
689.53	10.672
689.85	11.789
690.17	12.233
690.49	12.298
690.82	9.874
691.14	13.737
691.46	13.347
691.78	11.306
692.10	10.687
692.42	10.526
692.74	9.884
693.06	12.791
693.39	9.881
693.71	10.806
694.03	9.862
694.35	10.843
694.67	8.554
694.99	13.525
695.31	11.486
695.63	9.955
695.95	10.633
696.27	13.053
696.59	11.933
696.91	9.620
697.23	14.253
697.56	11.203
697.88	9.182
698.20	11.887
698.52	10.117
698.84	12.936
699.16	12.154
699.48	11.441
699.80	13.725
700.12	11.085
700.44	11.215
700.76	13.365
701.08	11.749
701.40	9.610
701.72	15.241
702.04	13.821
702.36	15.591
702.68	12.234
703.00	11.028
703.32	10.918
703.64	11.839
703.96	11.979
704.28	12.963
704.60	13.521
704.91	11.485
705.23	15.625
705.55	13.056
705.87	13.333
706.19	16.928
706.51	15.361
706.83	16.519
707.15	15.241
707.47	14.528
707.79	12.874
708.11	12.698
708.43	13.034
708.74	12.670
709.06	14.186
709.38	13.151
709.70	9.537
710.02	11.685
710.34	15.193
710.66	13.333
710.98	10.929
711.29	10.028
711.61	11.978
711.93	13.374
712.25	14.157
712.57	12.540
712.89	15.758
713.20	15.335
713.52	12.461
713.84	13.595
714.16	11.014
714.48	10.086
714.80	14.634
715.11	11.968
715.43	12.291
715.75	14.366
716.07	11.850
716.39	13.143
716.70	13.396
717.02	14.478
717.34	16.547
717.66	15.625
717.97	20.833
718.29	16.197
718.61	13.851
718.93	15.225
719.24	14.765
719.56	14.483
719.88	11.783
720.20	16.774
720.51	13.399
720.83	17.057
721.15	14.626
721.46	14.041
721.78	16.028
722.10	14.236
722.42	16.054
722.73	14.079
723.05	16.140
723.37	14.134
723.68	14.844
724.00	17.803
724.32	17.110
724.63	16.538
724.95	10.980
725.27	17.100
725.58	17.647
725.90	13.028
726.22	15.411
726.53	16.388
726.85	16.938
727.16	16.107
727.48	16.944
727.80	19.424
728.11	17.143
728.43	13.768
728.74	18.182
729.06	10.394
729.38	15.088
729.69	20.333
730.01	17.434
730.32	13.758
730.64	15.282
730.96	16.517
731.27	11.927
731.59	11.207
731.90	13.370
732.22	10.857
732.53	11.681
732.85	19.883
733.16	10.843
733.48	13.166
733.80	15.072
734.11	15.644
734.43	9.064
734.74	14.745
735.06	15.873
735.37	8.505
735.69	13.043
736.00	15.291
736.32	12.121
736.63	10.726
736.95	13.354
737.26	13.720
737.58	12.270
737.89	15.964
738.21	13.576
738.52	15.719
738.83	17.949
739.15	17.770
739.46	16.207
739.78	14.966
740.09	13.703
740.41	13.804
740.72	15.873
741.04	17.133
741.35	15.625
741.66	18.577
741.98	18.455
742.29	20.833
742.61	15.044
742.92	17.373
743.23	19.200
743.55	19.623
743.86	18.039
744.18	18.220
744.49	23.967
744.80	15.207
745.12	17.411
745.43	13.551
745.74	20.000
746.06	18.421
746.37	21.395
746.68	21.239
747.00	17.489
747.31	19.328
747.62	14.344
747.94	13.305
748.25	14.786
748.56	23.305
748.88	18.750
749.19	16.744
749.50	15.982
749.82	20.576
750.13	15.810
750.44	15.333
750.75	13.087
751.07	14.145
751.38	13.861
751.69	15.152
752.01	13.986
752.32	14.950
752.63	13.423
752.94	16.434
753.26	18.359
753.57	16.342
753.88	19.850
754.19	19.134
754.51	17.940
754.82	11.409
755.13	16.216
755.44	17.778
755.75	15.808
756.07	16.438
756.38	16.340
756.69	15.625
757.00	16.024
757.31	14.648
757.63	13.774
757.94	11.968
758.25	12.560
758.56	12.128
758.87	13.033
759.18	12.209
759.50	14.590
759.81	16.914
760.12	14.045
760.43	12.325
760.74	13.418
761.05	11.671
761.36	11.458
761.67	14.016
761.99	15.775
762.30	15.113
762.61	12.153
762.92	19.697
763.23	21.509
763.54	14.231
763.85	14.786
764.16	15.972
764.47	17.568
764.78	14.007
765.10	12.195
765.41	11.364
765.72	12.707
766.03	13.595
766.34	14.634
766.65	19.392
766.96	14.980
767.27	21.495
767.58	22.772
767.89	22.652
768.20	22.561
768.51	25.000
768.82	21.491
769.13	20.000
769.44	15.414
769.75	16.105
770.06	18.908
770.37	16.667
770.68	17.778
770.99	20.339
771.30	15.900
771.61	16.538
771.92	13.740
772.23	17.339
772.54	20.444
772.85	24.752
773.16	24.457
773.47	18.889
773.78	20.297
774.09	24.432
774.39	21.212
774.70	18.824
775.01	19.079
775.32	20.497
775.63	24.658
775.94	29.630
776.25	25.517
776.56	27.481
776.87	29.771
777.18	25.000
777.48	39.370
777.79	28.462
778.10	25.000
778.41	32.836
778.72	21.053
779.03	23.077
779.34	23.649
779.65	22.360
779.95	29.814
780.26	17.857
780.57	35.374
780.88	24.823
781.19	27.500
781.50	27.811
781.80	25.137
782.11	21.164
782.42	20.690
782.73	27.119
783.04	27.097
783.34	20.155
783.65	25.170
783.96	27.097
784.27	19.205
784.57	17.763
784.88	26.087
785.19	34.167
785.50	31.034
785.81	43.411
786.11	32.593
786.42	31.496
786.73	27.928
787.04	29.245
787.34	26.016
787.65	31.061
787.96	37.121
788.26	36.220
788.57	30.657
788.88	26.761
789.19	27.481
789.49	36.486
789.80	28.906
790.11	33.058
790.41	27.778
790.72	36.111
791.03	49.038
791.33	38.384
791.64	33.684
791.95	36.842
792.25	38.542
792.56	34.000
792.87	41.463
793.17	38.636
793.48	41.176
793.79	51.724
794.09	40.909
794.40	40.517
794.70	30.159
795.01	30.769
795.32	29.008
795.62	29.060
795.93	33.613
796.23	25.203
796.54	46.939
796.85	52.273
797.15	50.649
797.46	56.098
797.76	51.250
798.07	60.000
798.37	41.250
798.68	37.500
798.99	40.244
799.29	37.333
799.60	32.558
799.90	40.789
800.21	42.424
800.51	45.070
800.82	62.069
801.12	46.154
801.43	77.333
801.73	55.172
802.04	44.156
802.34	58.904
802.65	62.745
802.95	47.826
803.26	66.129
803.56	65.000
803.87	55.224
804.17	38.095
804.48	50.943
804.78	43.056
805.09	48.485
805.39	50.794
805.70	61.404
806.00	52.857
806.30	51.562
806.61	44.706
806.91	40.000
807.22	42.391
807.52	50.000
807.83	52.632
808.13	40.580
808.43	54.839
808.74	53.425
809.04	57.143
809.35	57.353
809.65	50.000
809.95	56.863
810.26	77.778
810.56	65.625
810.86	61.224
811.17	70.175
811.47	67.391
811.77	68.966
812.08	46.552
812.38	69.048
812.69	80.952
812.99	64.444
813.29	108.571
813.59	100.000
813.90	67.241
814.20	67.213
814.50	62.000
814.81	45.614
815.11	70.370
815.41	71.429
815.72	73.214
816.02	80.000
816.32	100.000
816.62	67.241
816.93	100.000
817.23	85.366
817.53	71.429
817.84	75.556
818.14	64.286
818.44	70.833
818.74	79.245
819.04	82.051
819.35	87.879
819.65	92.308
819.95	90.741
820.25	93.617
820.56	132.432
820.86	76.316
821.16	59.574
821.46	81.579
821.76	67.273
822.07	66.667
822.37	86.842
822.67	109.302
822.97	78.947
823.27	71.739
823.57	87.500
823.88	79.487
824.18	81.818
824.48	100.000
824.78	108.333
825.08	117.391
825.38	110.345
825.69	94.118
825.99	78.723
826.29	80.556
826.59	77.143
826.89	113.333
827.19	71.429
827.49	116.129
827.79	126.923
828.09	78.571
828.39	100.000
828.70	81.081
829.00	121.429
829.30	125.000
829.60	108.333
829.90	103.226
830.20	93.939
830.50	116.216
830.80	166.667
831.10	138.462
831.40	147.619
831.70	195.833
832.00	123.333
832.30	169.565
832.60	179.167
832.90	139.394
833.20	170.000
833.50	123.684
833.80	73.529
834.10	97.368
834.40	131.579
834.70	80.000
835.00	152.000
835.30	100.000
835.60	131.250
835.90	116.216
836.20	107.692
836.50	95.455
836.80	100.000
837.10	152.174
837.40	223.077
837.70	105.263
838.00	146.667
838.30	179.167
838.60	172.000
838.90	280.000
839.19	118.750
839.49	103.333
839.79	113.793
840.09	153.846
840.39	166.667
840.69	231.579
840.99	95.238
841.29	134.783
841.59	200.000
841.88	196.000
842.18	255.556
842.48	153.571
842.78	122.222
843.08	146.154
843.38	159.091
843.68	242.857
843.97	342.857
844.27	156.522
844.57	900.000
844.87	300.000
845.17	138.889
845.47	100.000
845.76	137.500
846.06	542.857
846.36	152.941
846.66	184.615
846.96	206.250
847.25	176.923
847.55	173.684
847.85	138.889
848.15	480.000
848.44	236.364
848.74	171.429
849.04	179.167
849.34	158.824
849.63	193.750
849.93	250.000
850.23	833.333
850.53	450.000
850.82	236.364
851.12	235.294
851.42	150.000
851.71	281.250
852.01	0.000
852.31	182.353
852.61	320.000
852.90	141.667
853.20	388.889
853.50	-1900.000
853.79	160.000
854.09	146.875
854.39	131.034
854.68	110.345
854.98	190.476
855.28	145.161
855.57	242.857
855.87	183.333
856.17	144.444
856.46	184.211
856.76	119.355
857.05	235.294
857.35	300.000
857.65	223.077
857.94	190.000
858.24	377.778
858.53	250.000
858.83	657.143
859.13	178.261
859.42	322.222
859.72	275.000
860.01	216.667
860.31	975.000
860.60	420.000
860.90	350.000
861.20	238.462
861.49	342.857
861.79	-3200.000
862.08	414.286
862.38	222.222
862.67	192.857
862.97	360.000
863.26	160.000
863.56	750.000
863.85	292.308
864.15	223.529
864.44	188.889
864.74	333.333
865.03	281.818
865.33	300.000
865.62	253.333
865.92	566.667
866.21	675.000
866.51	620.000
866.80	211.111
867.10	866.667
867.39	2700.000
867.69	560.000
867.98	950.000
868.27	180.952
868.57	246.667
868.86	700.000
869.16	128.571
869.45	3900.000
869.75	-366.667
870.04	575.000
870.33	440.000
870.63	437.500
870.92	217.647
871.22	650.000
871.51	500.000
871.80	341.667
872.10	307.692
>>>>>End Processed Spectral Data<<<<<
