SpectraSuite Data File
++++++++++++++++++++++++++++++++++++
Date: Wed May 13 21:50:25 PDT 2015
User: schluterlab
Dark Spectrum Present: Yes
Reference Spectrum Present: Yes
Number of Sampled Component Spectra: 1
Spectrometers: USB2E3373
Integration Time (usec): 3000 (USB2E3373)
Spectra Averaged: 3 (USB2E3373)
Boxcar Smoothing: 0 (USB2E3373)
Correct for Electrical Dark: No (USB2E3373)
Strobe/Lamp Enabled: No (USB2E3373)
Correct for Detector Non-linearity: No (USB2E3373)
Correct for Stray Light: No (USB2E3373)
Number of Pixels in Processed Spectrum: 2048
>>>>>Begin Processed Spectral Data<<<<<
178.53	0.000
178.91	1000.000
179.29	133.333
179.67	-600.000
180.04	-666.667
180.42	200.000
180.80	2200.000
181.18	266.667
181.56	-500.000
181.94	-125.000
182.31	-100.000
182.69	100.000
183.07	-380.000
183.45	183.333
183.83	166.667
184.20	242.857
184.58	-233.333
184.96	600.000
185.34	271.429
185.72	0.000
186.09	-500.000
186.47	-340.000
186.85	320.000
187.23	-450.000
187.61	900.000
187.98	1400.000
188.36	12.500
188.74	0.000
189.12	36.364
189.49	-20.000
189.87	100.000
190.25	320.000
190.63	1300.000
191.00	-120.000
191.38	260.000
191.76	350.000
192.14	116.667
192.51	0.000
192.89	466.667
193.27	50.000
193.65	-180.000
194.02	181.818
194.40	200.000
194.78	-200.000
195.15	280.000
195.53	-320.000
195.91	-62.500
196.29	-200.000
196.66	0.000
197.04	750.000
197.42	-200.000
197.79	-40.000
198.17	-62.500
198.55	-100.000
198.92	275.000
199.30	-366.667
199.68	-80.000
200.05	500.000
200.43	266.667
200.81	-1000.000
201.18	-160.000
201.56	-350.000
201.94	650.000
202.31	43.478
202.69	-200.000
203.07	-266.667
203.44	-20.000
203.82	-366.667
204.19	-140.000
204.57	0.000
204.95	-16.667
205.32	0.000
205.70	-300.000
206.08	-300.000
206.45	-216.667
206.83	450.000
207.20	-366.667
207.58	-50.000
207.96	-700.000
208.33	-185.714
208.71	-1900.000
209.08	262.500
209.46	625.000
209.84	0.000
210.21	90.000
210.59	2000.000
210.96	460.000
211.34	1800.000
211.71	-350.000
212.09	-333.333
212.46	-60.000
212.84	-233.333
213.22	-225.000
213.59	-1200.000
213.97	-400.000
214.34	-900.000
214.72	-30.769
215.09	250.000
215.47	177.778
215.84	950.000
216.22	-137.500
216.59	-350.000
216.97	566.667
217.34	244.444
217.72	0.000
218.09	533.333
218.47	-300.000
218.84	-57.143
219.22	-212.500
219.59	-433.333
219.97	-425.000
220.34	-137.500
220.72	-200.000
221.09	0.000
221.47	-216.667
221.84	-1300.000
222.22	0.000
222.59	1200.000
222.97	-200.000
223.34	-91.667
223.72	-1100.000
224.09	-100.000
224.46	-54.545
224.84	-100.000
225.21	-171.429
225.59	-175.000
225.96	-66.667
226.34	-100.000
226.71	-142.857
227.08	400.000
227.46	-150.000
227.83	-200.000
228.21	-31.250
228.58	-300.000
228.95	-35.294
229.33	-18.750
229.70	-50.000
230.08	-38.462
230.45	-112.500
230.82	-75.000
231.20	128.571
231.57	-350.000
231.95	1400.000
232.32	-33.333
232.69	5.882
233.07	-1000.000
233.44	-43.478
233.81	-550.000
234.19	29.167
234.56	-26.667
234.93	60.000
235.31	42.105
235.68	38.462
236.05	-23.077
236.43	55.556
236.80	-12.121
237.17	46.667
237.55	-5.882
237.92	0.000
238.29	3.704
238.67	8.333
239.04	45.161
239.41	2.128
239.79	38.298
240.16	51.163
240.53	28.571
240.91	32.143
241.28	30.357
241.65	40.323
242.02	36.842
242.40	55.072
242.77	49.275
243.14	46.154
243.51	36.170
243.89	39.423
244.26	52.830
244.63	44.231
245.00	54.167
245.38	42.857
245.75	52.459
246.12	38.346
246.49	42.276
246.87	38.655
247.24	46.622
247.61	48.344
247.98	46.795
248.36	46.746
248.73	41.573
249.10	45.455
249.47	47.312
249.84	51.053
250.22	47.761
250.59	48.131
250.96	51.818
251.33	45.933
251.70	48.117
252.08	48.954
252.45	46.091
252.82	51.711
253.19	51.751
253.56	44.964
253.94	48.043
254.31	49.296
254.68	52.349
255.05	47.525
255.42	50.000
255.79	48.466
256.16	52.997
256.54	46.349
256.91	47.468
257.28	51.572
257.65	50.318
258.02	48.974
258.39	50.000
258.76	49.419
259.14	50.568
259.51	47.191
259.88	50.949
260.25	49.722
260.62	50.843
260.99	53.316
261.36	48.446
261.73	47.901
262.10	50.891
262.47	52.099
262.85	48.259
263.22	51.538
263.59	48.312
263.96	49.148
264.33	50.000
264.70	48.140
265.07	51.852
265.44	50.805
265.81	48.741
266.18	47.608
266.55	52.620
266.92	50.424
267.29	47.325
267.66	45.860
268.03	49.794
268.40	47.034
268.77	48.554
269.14	51.837
269.51	51.540
269.88	47.454
270.25	51.907
270.62	49.590
270.99	47.835
271.36	48.016
271.73	49.598
272.10	49.714
272.47	51.056
272.84	48.425
273.21	49.902
273.58	50.410
273.95	47.925
274.32	47.761
274.69	50.091
275.06	48.587
275.43	49.153
275.80	46.986
276.17	47.882
276.54	46.004
276.91	47.561
277.28	47.834
277.65	48.077
278.02	52.500
278.39	47.069
278.76	49.331
279.13	47.170
279.50	47.241
279.87	47.464
280.23	50.270
280.60	47.924
280.97	46.591
281.34	48.107
281.71	42.276
282.08	48.718
282.45	47.541
282.82	46.645
283.19	46.646
283.56	46.250
283.92	46.942
284.29	46.802
284.66	46.129
285.03	45.277
285.40	44.713
285.77	45.345
286.14	45.441
286.51	47.376
286.87	43.538
287.24	46.165
287.61	46.084
287.98	46.029
288.35	44.113
288.72	43.615
289.08	45.584
289.45	46.109
289.82	44.478
290.19	44.600
290.56	43.892
290.93	42.956
291.29	43.639
291.66	42.213
292.03	41.553
292.40	41.454
292.77	43.507
293.13	42.120
293.50	41.699
293.87	42.533
294.24	40.873
294.60	40.832
294.97	42.328
295.34	40.369
295.71	39.685
296.08	40.052
296.44	39.413
296.81	38.855
297.18	40.500
297.55	38.090
297.91	39.503
298.28	40.194
298.65	38.547
299.02	40.659
299.38	39.264
299.75	39.663
300.12	38.023
300.48	38.596
300.85	36.605
301.22	39.257
301.59	39.202
301.95	39.837
302.32	39.790
302.69	39.548
303.05	37.652
303.42	39.318
303.79	39.537
304.15	39.540
304.52	40.215
304.89	39.646
305.25	38.090
305.62	38.937
305.99	40.152
306.35	40.125
306.72	39.776
307.09	40.980
307.45	40.575
307.82	39.789
308.19	39.080
308.55	39.509
308.92	41.552
309.29	39.339
309.65	41.259
310.02	42.445
310.38	41.870
310.75	41.519
311.12	40.428
311.48	41.939
311.85	43.602
312.22	43.037
312.58	42.609
312.95	44.378
313.31	44.812
313.68	45.134
314.05	47.732
314.41	47.358
314.78	46.300
315.14	46.204
315.51	48.240
315.87	46.339
316.24	49.311
316.61	50.320
316.97	49.259
317.34	50.178
317.70	52.453
318.07	52.884
318.43	53.388
318.80	51.309
319.16	54.377
319.53	54.839
319.89	55.104
320.26	56.007
320.62	55.329
320.99	55.814
321.35	55.940
321.72	56.785
322.08	57.011
322.45	58.464
322.81	61.368
323.18	59.302
323.54	61.101
323.91	60.614
324.27	61.386
324.64	62.108
325.00	63.080
325.37	62.884
325.73	63.636
326.10	62.910
326.46	64.047
326.83	64.239
327.19	65.366
327.56	64.706
327.92	63.878
328.29	65.860
328.65	66.258
329.01	66.139
329.38	66.609
329.74	65.408
330.11	68.079
330.47	65.278
330.84	66.697
331.20	65.414
331.56	67.663
331.93	66.064
332.29	67.159
332.66	64.661
333.02	66.811
333.38	66.754
333.75	65.017
334.11	66.319
334.48	67.393
334.84	66.961
335.20	67.839
335.57	66.841
335.93	66.237
336.29	65.937
336.66	64.872
337.02	65.565
337.38	65.709
337.75	66.494
338.11	64.219
338.47	66.438
338.84	64.089
339.20	67.460
339.56	63.567
339.93	66.811
340.29	64.902
340.65	63.302
341.02	65.557
341.38	64.865
341.74	63.697
342.11	63.749
342.47	63.431
342.83	63.971
343.20	64.298
343.56	64.432
343.92	63.201
344.28	63.068
344.65	63.837
345.01	62.228
345.37	65.461
345.73	64.052
346.10	62.681
346.46	61.545
346.82	62.761
347.19	61.313
347.55	63.166
347.91	61.808
348.27	61.199
348.63	61.538
349.00	62.736
349.36	60.597
349.72	61.330
350.08	61.388
350.45	60.924
350.81	60.876
351.17	61.124
351.53	59.623
351.89	59.492
352.26	59.537
352.62	59.922
352.98	59.185
353.34	61.675
353.70	59.969
354.07	60.549
354.43	58.087
354.79	60.417
355.15	60.171
355.51	59.150
355.87	59.421
356.24	60.915
356.60	58.874
356.96	59.171
357.32	59.752
357.68	58.518
358.04	58.340
358.40	58.295
358.77	57.263
359.13	59.844
359.49	57.154
359.85	57.240
360.21	57.826
360.57	57.947
360.93	58.422
361.29	58.179
361.66	58.390
362.02	56.338
362.38	57.903
362.74	55.838
363.10	57.411
363.46	54.179
363.82	57.354
364.18	56.273
364.54	57.476
364.90	54.634
365.26	56.263
365.62	55.114
365.98	55.801
366.35	57.518
366.71	55.563
367.07	55.067
367.43	54.007
367.79	54.760
368.15	55.907
368.51	55.345
368.87	54.990
369.23	55.658
369.59	55.955
369.95	54.282
370.31	52.999
370.67	53.150
371.03	55.308
371.39	53.016
371.75	54.643
372.11	53.846
372.47	54.146
372.83	53.953
373.19	53.453
373.55	54.118
373.91	53.395
374.27	52.351
374.63	53.770
374.99	52.507
375.35	52.808
375.71	51.562
376.07	53.050
376.42	52.741
376.78	53.369
377.14	53.627
377.50	52.347
377.86	52.988
378.22	51.201
378.58	53.090
378.94	52.563
379.30	51.655
379.66	51.603
380.02	52.328
380.38	51.687
380.74	52.062
381.09	50.362
381.45	51.511
381.81	52.434
382.17	50.851
382.53	50.708
382.89	51.387
383.25	51.728
383.61	52.361
383.97	52.250
384.32	49.968
384.68	51.018
385.04	50.153
385.40	50.249
385.76	49.818
386.12	49.968
386.48	50.345
386.83	49.750
387.19	49.476
387.55	50.092
387.91	51.169
388.27	49.507
388.62	50.125
388.98	50.626
389.34	49.436
389.70	48.901
390.06	48.500
390.42	50.387
390.77	48.943
391.13	49.306
391.49	48.830
391.85	49.393
392.20	48.496
392.56	49.016
392.92	48.215
393.28	48.751
393.64	49.297
393.99	46.450
394.35	47.222
394.71	47.949
395.07	46.352
395.42	48.934
395.78	48.391
396.14	48.446
396.50	47.876
396.85	47.929
397.21	46.941
397.57	46.770
397.92	46.826
398.28	46.588
398.64	46.630
399.00	47.154
399.35	46.879
399.71	45.836
400.07	46.084
400.42	47.461
400.78	47.009
401.14	47.272
401.49	46.735
401.85	46.437
402.21	46.687
402.57	46.536
402.92	46.871
403.28	46.467
403.63	46.497
403.99	46.321
404.35	46.883
404.70	45.438
405.06	46.565
405.42	45.791
405.77	44.816
406.13	45.543
406.49	45.716
406.84	47.131
407.20	44.701
407.55	46.753
407.91	44.739
408.27	45.103
408.62	45.856
408.98	45.314
409.34	44.554
409.69	46.654
410.05	44.590
410.40	44.492
410.76	45.668
411.11	44.154
411.47	47.113
411.83	44.604
412.18	45.655
412.54	45.426
412.89	44.702
413.25	44.248
413.60	44.201
413.96	44.382
414.31	45.129
414.67	43.238
415.03	44.587
415.38	44.055
415.74	43.470
416.09	44.283
416.45	44.566
416.80	44.899
417.16	44.399
417.51	44.742
417.87	43.254
418.22	45.314
418.58	43.167
418.93	44.068
419.29	44.290
419.64	43.830
420.00	46.540
420.35	43.933
420.71	43.510
421.06	43.050
421.42	44.951
421.77	43.526
422.12	45.272
422.48	43.293
422.83	44.418
423.19	44.681
423.54	44.641
423.90	42.518
424.25	44.598
424.61	42.884
424.96	44.234
425.31	42.793
425.67	44.974
426.02	45.230
426.38	43.968
426.73	43.800
427.09	43.715
427.44	43.511
427.79	43.468
428.15	43.547
428.50	43.263
428.85	43.665
429.21	43.500
429.56	43.730
429.92	43.831
430.27	44.223
430.62	43.861
430.98	43.839
431.33	43.794
431.68	44.409
432.04	44.113
432.39	44.688
432.74	42.428
433.10	44.335
433.45	43.846
433.80	42.989
434.16	44.020
434.51	43.750
434.86	44.641
435.22	44.426
435.57	42.752
435.92	44.331
436.28	43.423
436.63	44.169
436.98	44.536
437.34	43.590
437.69	44.805
438.04	43.407
438.39	45.330
438.75	44.279
439.10	44.592
439.45	44.431
439.81	45.628
440.16	44.928
440.51	43.995
440.86	43.687
441.22	44.521
441.57	44.631
441.92	44.272
442.27	44.589
442.63	44.779
442.98	44.965
443.33	44.582
443.68	44.386
444.03	44.759
444.39	44.373
444.74	44.506
445.09	43.943
445.44	45.521
445.79	44.863
446.15	45.202
446.50	45.540
446.85	45.430
447.20	45.165
447.55	45.327
447.91	44.607
448.26	45.111
448.61	44.131
448.96	45.159
449.31	44.946
449.66	44.997
450.02	45.026
450.37	44.947
450.72	44.374
451.07	45.517
451.42	43.419
451.77	45.770
452.12	44.623
452.47	45.836
452.83	44.870
453.18	45.767
453.53	45.397
453.88	44.458
454.23	45.426
454.58	45.221
454.93	44.323
455.28	45.151
455.63	44.230
455.98	45.466
456.34	44.310
456.69	44.984
457.04	45.015
457.39	45.400
457.74	44.764
458.09	44.905
458.44	45.241
458.79	44.865
459.14	43.933
459.49	45.671
459.84	45.321
460.19	44.118
460.54	45.012
460.89	43.975
461.24	45.314
461.59	45.713
461.94	45.133
462.29	45.466
462.64	44.195
462.99	44.802
463.34	45.028
463.69	45.168
464.04	45.078
464.39	45.088
464.74	44.902
465.09	46.187
465.44	44.613
465.79	46.406
466.14	44.356
466.49	45.865
466.84	46.085
467.19	46.497
467.54	45.690
467.89	46.700
468.24	46.712
468.59	44.423
468.94	45.466
469.29	46.398
469.64	45.816
469.99	46.621
470.34	44.639
470.68	44.164
471.03	46.262
471.38	44.993
471.73	45.062
472.08	45.704
472.43	46.042
472.78	45.436
473.13	43.008
473.48	45.727
473.83	45.449
474.17	45.964
474.52	44.725
474.87	44.270
475.22	45.592
475.57	45.789
475.92	45.202
476.27	45.455
476.61	45.583
476.96	45.574
477.31	44.930
477.66	46.667
478.01	45.824
478.36	45.286
478.70	46.187
479.05	45.283
479.40	45.346
479.75	45.430
480.10	45.691
480.45	44.826
480.79	46.640
481.14	47.112
481.49	46.571
481.84	45.617
482.19	45.623
482.53	45.810
482.88	45.925
483.23	44.706
483.58	45.936
483.92	46.255
484.27	45.425
484.62	45.184
484.97	46.620
485.31	47.021
485.66	43.830
486.01	46.259
486.36	46.792
486.70	47.703
487.05	48.484
487.40	47.977
487.75	48.952
488.09	47.857
488.44	48.160
488.79	47.502
489.13	46.123
489.48	46.729
489.83	46.405
490.17	45.347
490.52	47.826
490.87	45.758
491.22	46.302
491.56	46.718
491.91	46.807
492.26	47.147
492.60	45.695
492.95	47.085
493.30	45.494
493.64	45.803
493.99	47.923
494.34	47.688
494.68	47.017
495.03	46.344
495.37	46.715
495.72	46.516
496.07	46.956
496.41	45.765
496.76	47.166
497.11	47.042
497.45	46.936
497.80	48.460
498.14	47.154
498.49	46.495
498.84	46.761
499.18	46.491
499.53	46.923
499.87	46.628
500.22	48.532
500.56	47.793
500.91	47.586
501.26	47.192
501.60	47.990
501.95	46.670
502.29	47.184
502.64	47.396
502.98	46.821
503.33	47.445
503.67	47.176
504.02	46.569
504.36	47.350
504.71	46.392
505.06	47.478
505.40	48.454
505.75	48.067
506.09	47.113
506.44	47.631
506.78	48.197
507.13	48.129
507.47	47.773
507.82	47.148
508.16	48.391
508.51	47.056
508.85	46.501
509.19	48.095
509.54	47.721
509.88	47.419
510.23	47.105
510.57	47.669
510.92	47.360
511.26	49.065
511.61	47.311
511.95	47.574
512.30	47.307
512.64	47.560
512.98	47.258
513.33	47.380
513.67	46.962
514.02	48.575
514.36	46.966
514.70	47.575
515.05	48.098
515.39	47.995
515.74	46.477
516.08	46.254
516.42	46.256
516.77	47.159
517.11	47.678
517.46	47.479
517.80	48.668
518.14	46.846
518.49	47.619
518.83	47.733
519.17	48.313
519.52	47.527
519.86	48.087
520.20	46.938
520.55	48.259
520.89	47.881
521.23	48.718
521.58	47.661
521.92	46.826
522.26	48.276
522.61	48.287
522.95	48.251
523.29	47.238
523.64	48.061
523.98	47.586
524.32	47.322
524.66	47.857
525.01	48.820
525.35	47.597
525.69	49.370
526.04	47.101
526.38	47.036
526.72	47.600
527.06	47.195
527.41	47.253
527.75	49.065
528.09	48.604
528.43	48.711
528.78	47.222
529.12	48.254
529.46	48.241
529.80	47.961
530.15	46.718
530.49	47.709
530.83	47.935
531.17	49.521
531.51	48.011
531.86	46.951
532.20	47.691
532.54	47.379
532.88	47.447
533.22	47.811
533.57	47.682
533.91	49.097
534.25	49.544
534.59	48.327
534.93	48.087
535.27	48.025
535.62	48.553
535.96	48.536
536.30	47.806
536.64	48.189
536.98	47.722
537.32	49.324
537.66	48.590
538.01	47.989
538.35	48.412
538.69	48.495
539.03	47.248
539.37	47.619
539.71	48.295
540.05	46.761
540.39	47.970
540.73	48.603
541.07	47.279
541.42	49.562
541.76	48.917
542.10	47.461
542.44	49.134
542.78	48.994
543.12	47.574
543.46	48.307
543.80	48.201
544.14	48.451
544.48	46.715
544.82	49.159
545.16	48.749
545.50	48.683
545.84	47.966
546.18	48.808
546.52	48.271
546.86	48.551
547.20	47.248
547.54	49.107
547.88	47.503
548.22	47.492
548.56	47.365
548.90	48.038
549.24	48.472
549.58	47.402
549.92	49.303
550.26	48.339
550.60	49.850
550.94	47.687
551.28	46.707
551.62	48.195
551.96	47.950
552.30	46.070
552.64	48.799
552.98	47.585
553.32	47.224
553.66	49.010
554.00	47.588
554.34	48.645
554.68	48.993
555.02	48.578
555.36	48.411
555.69	46.905
556.03	47.677
556.37	46.799
556.71	45.690
557.05	46.863
557.39	48.003
557.73	48.563
558.07	47.551
558.41	47.540
558.75	47.421
559.08	48.035
559.42	48.623
559.76	47.018
560.10	48.578
560.44	48.342
560.78	47.554
561.12	48.423
561.45	47.483
561.79	48.074
562.13	49.015
562.47	48.500
562.81	48.052
563.15	47.875
563.48	47.213
563.82	47.538
564.16	48.003
564.50	47.761
564.84	47.095
565.17	48.609
565.51	47.460
565.85	46.569
566.19	48.808
566.52	47.641
566.86	47.977
567.20	47.892
567.54	46.920
567.88	47.312
568.21	48.072
568.55	48.461
568.89	47.856
569.23	47.204
569.56	46.767
569.90	47.546
570.24	47.365
570.57	47.288
570.91	47.870
571.25	48.185
571.59	47.715
571.92	47.287
572.26	49.005
572.60	48.630
572.93	48.297
573.27	47.312
573.61	47.509
573.95	48.096
574.28	48.054
574.62	47.618
574.96	48.450
575.29	48.245
575.63	48.024
575.97	48.207
576.30	48.018
576.64	47.970
576.98	48.587
577.31	48.313
577.65	47.935
577.98	48.459
578.32	48.100
578.66	48.739
578.99	49.131
579.33	48.301
579.67	48.982
580.00	47.975
580.34	48.231
580.67	48.310
581.01	48.134
581.35	47.547
581.68	47.473
582.02	48.342
582.35	48.512
582.69	48.908
583.02	47.796
583.36	48.410
583.70	49.166
584.03	48.665
584.37	48.279
584.70	48.575
585.04	48.186
585.37	48.262
585.71	47.733
586.04	48.170
586.38	47.987
586.72	47.963
587.05	48.082
587.39	47.271
587.72	47.793
588.06	47.579
588.39	47.719
588.73	47.443
589.06	47.850
589.40	47.816
589.73	47.467
590.07	46.992
590.40	46.990
590.73	48.541
591.07	46.929
591.40	47.348
591.74	47.799
592.07	46.782
592.41	47.276
592.74	45.988
593.08	46.803
593.41	46.082
593.75	46.576
594.08	47.427
594.41	48.007
594.75	46.777
595.08	47.685
595.42	46.457
595.75	46.819
596.09	46.420
596.42	47.590
596.75	47.609
597.09	47.361
597.42	47.286
597.75	47.067
598.09	46.995
598.42	46.711
598.76	46.935
599.09	46.419
599.42	46.979
599.76	46.113
600.09	46.574
600.42	46.328
600.76	46.452
601.09	46.441
601.42	46.021
601.76	45.830
602.09	46.169
602.42	47.090
602.76	47.609
603.09	47.228
603.42	47.301
603.76	46.064
604.09	45.850
604.42	46.003
604.76	46.617
605.09	45.401
605.42	46.964
605.75	45.396
606.09	45.820
606.42	45.677
606.75	45.411
607.09	45.700
607.42	45.447
607.75	44.989
608.08	46.979
608.42	46.532
608.75	46.345
609.08	45.762
609.41	45.753
609.75	46.092
610.08	45.759
610.41	46.210
610.74	45.380
611.07	44.890
611.41	45.906
611.74	46.480
612.07	44.971
612.40	45.676
612.73	44.457
613.07	45.122
613.40	45.870
613.73	44.908
614.06	44.887
614.39	44.747
614.72	45.752
615.06	44.944
615.39	44.923
615.72	44.114
616.05	46.002
616.38	44.559
616.71	42.591
617.05	45.270
617.38	44.855
617.71	43.995
618.04	43.815
618.37	43.975
618.70	44.114
619.03	44.330
619.36	43.915
619.69	43.713
620.03	44.947
620.36	43.285
620.69	43.183
621.02	43.538
621.35	42.600
621.68	42.706
622.01	43.123
622.34	42.189
622.67	43.305
623.00	43.845
623.33	44.203
623.66	43.048
623.99	42.536
624.32	42.773
624.65	42.507
624.99	43.277
625.32	42.718
625.65	42.868
625.98	42.970
626.31	43.265
626.64	42.562
626.97	43.166
627.30	42.173
627.63	41.955
627.96	40.173
628.29	44.465
628.62	44.294
628.95	42.184
629.28	42.759
629.61	42.775
629.94	43.037
630.26	41.576
630.59	41.658
630.92	42.269
631.25	39.959
631.58	42.505
631.91	41.145
632.24	41.493
632.57	41.556
632.90	41.774
633.23	39.209
633.56	42.806
633.89	41.268
634.22	41.932
634.55	42.022
634.88	40.809
635.20	40.250
635.53	40.956
635.86	39.872
636.19	40.571
636.52	41.463
636.85	39.686
637.18	38.977
637.51	39.201
637.83	42.037
638.16	39.733
638.49	39.119
638.82	40.784
639.15	39.096
639.48	41.176
639.81	40.417
640.13	39.859
640.46	40.537
640.79	39.137
641.12	38.757
641.45	39.884
641.77	37.850
642.10	38.124
642.43	39.151
642.76	37.855
643.09	38.339
643.41	38.118
643.74	38.288
644.07	38.188
644.40	40.464
644.73	38.305
645.05	38.918
645.38	38.372
645.71	37.925
646.04	35.690
646.36	36.632
646.69	35.664
647.02	37.523
647.35	38.940
647.67	37.708
648.00	36.232
648.33	35.424
648.66	38.397
648.98	37.112
649.31	36.810
649.64	37.872
649.96	37.757
650.29	34.804
650.62	35.585
650.94	36.034
651.27	37.102
651.60	38.112
651.92	41.039
652.25	37.856
652.58	38.944
652.90	36.532
653.23	35.484
653.56	36.033
653.88	35.495
654.21	35.495
654.54	35.548
654.86	36.748
655.19	38.375
655.52	41.586
655.84	39.850
656.17	48.245
656.49	64.741
656.82	65.557
657.15	50.668
657.47	38.462
657.80	29.109
658.13	30.869
658.45	45.916
658.78	44.963
659.10	45.235
659.43	43.985
659.75	42.396
660.08	40.138
660.41	37.424
660.73	37.190
661.06	36.905
661.38	36.240
661.71	35.656
662.03	36.152
662.36	35.841
662.68	35.484
663.01	35.381
663.33	33.909
663.66	33.038
663.98	36.180
664.31	32.308
664.63	32.432
664.96	35.886
665.28	37.983
665.61	31.965
665.93	35.118
666.26	38.608
666.58	34.475
666.91	36.996
667.23	33.871
667.56	34.943
667.88	32.477
668.21	34.375
668.53	33.793
668.86	36.930
669.18	33.333
669.50	33.871
669.83	34.845
670.15	32.857
670.48	29.655
670.80	35.230
671.13	32.494
671.45	33.333
671.77	32.112
672.10	34.503
672.42	35.878
672.75	33.214
673.07	36.182
673.39	35.261
673.72	36.727
674.04	35.451
674.37	34.756
674.69	32.099
675.01	32.692
675.34	35.011
675.66	35.512
675.98	33.628
676.31	31.900
676.63	36.735
676.95	30.353
677.28	32.569
677.60	29.412
677.92	33.703
678.25	34.707
678.57	35.438
678.89	35.608
679.22	30.228
679.54	33.061
679.86	33.984
680.18	32.885
680.51	32.885
680.83	34.503
681.15	34.381
681.48	31.463
681.80	32.720
682.12	33.750
682.44	32.797
682.77	32.842
683.09	32.589
683.41	30.930
683.73	31.027
684.06	32.080
684.38	31.197
684.70	32.179
685.02	37.190
685.34	34.638
685.67	34.146
685.99	34.698
686.31	32.241
686.63	35.478
686.96	35.622
687.28	33.134
687.60	34.783
687.92	35.603
688.24	30.400
688.56	33.772
688.89	31.403
689.21	31.390
689.53	28.604
689.85	33.933
690.17	32.967
690.49	33.333
690.82	34.129
691.14	35.507
691.46	31.323
691.78	31.648
692.10	33.121
692.42	30.549
692.74	33.478
693.06	27.416
693.39	30.679
693.71	32.000
694.03	32.727
694.35	31.306
694.67	32.500
694.99	29.124
695.31	32.558
695.63	30.732
695.95	31.552
696.27	26.301
696.59	31.720
696.91	29.888
697.23	28.934
697.56	33.094
697.88	31.393
698.20	34.557
698.52	32.243
698.84	35.407
699.16	30.260
699.48	28.642
699.80	32.041
700.12	29.759
700.44	31.549
700.76	29.775
701.08	28.097
701.40	29.042
701.72	30.769
702.04	28.931
702.36	28.659
702.68	30.793
703.00	29.825
703.32	24.513
703.64	31.325
703.96	28.446
704.28	31.627
704.60	33.537
704.91	26.332
705.23	30.380
705.55	33.793
705.87	28.873
706.19	25.275
706.51	23.592
706.83	25.478
707.15	28.049
707.47	33.058
707.79	28.426
708.11	30.334
708.43	30.964
708.74	31.915
709.06	30.214
709.38	30.548
709.70	27.027
710.02	29.283
710.34	29.333
710.66	27.036
710.98	27.864
711.29	28.896
711.61	27.097
711.93	27.742
712.25	26.573
712.57	21.754
712.89	27.839
713.20	24.823
713.52	27.372
713.84	29.355
714.16	27.508
714.48	27.532
714.80	27.796
715.11	30.233
715.43	27.329
715.75	31.677
716.07	30.120
716.39	29.630
716.70	29.856
717.02	25.490
717.34	26.515
717.66	26.293
717.97	23.413
718.29	29.134
718.61	27.468
718.93	27.132
719.24	24.723
719.56	26.592
719.88	31.343
720.20	30.435
720.51	23.437
720.83	30.739
721.15	23.984
721.46	27.863
721.78	26.693
722.10	27.092
722.42	21.371
722.73	25.483
723.05	29.388
723.37	30.672
723.68	25.600
724.00	23.404
724.32	24.686
724.63	24.691
724.95	25.641
725.27	31.646
725.58	23.868
725.90	27.615
726.22	27.174
726.53	21.569
726.85	31.022
727.16	25.185
727.48	34.483
727.80	30.078
728.11	29.098
728.43	26.953
728.74	28.968
729.06	26.400
729.38	27.273
729.69	27.046
730.01	28.253
730.32	31.734
730.64	27.273
730.96	30.769
731.27	28.094
731.59	30.159
731.90	28.479
732.22	27.885
732.53	26.689
732.85	25.503
733.16	27.723
733.48	24.662
733.80	28.041
734.11	30.068
734.43	27.554
734.74	30.631
735.06	26.513
735.37	24.620
735.69	25.566
736.00	26.733
736.32	26.950
736.63	28.966
736.95	27.055
737.26	27.586
737.58	28.819
737.89	27.491
738.21	26.690
738.52	27.376
738.83	27.755
739.15	27.848
739.46	29.183
739.78	20.423
740.09	27.397
740.41	24.286
740.72	20.922
741.04	25.600
741.35	23.246
741.66	21.333
741.98	21.635
742.29	28.218
742.61	21.463
742.92	32.018
743.23	25.943
743.55	25.676
743.86	25.112
744.18	25.000
744.49	25.381
744.80	23.469
745.12	24.766
745.43	26.066
745.74	31.982
746.06	23.832
746.37	21.560
746.68	22.596
747.00	22.488
747.31	28.846
747.62	31.193
747.94	30.131
748.25	23.394
748.56	25.778
748.88	28.638
749.19	25.238
749.50	22.816
749.82	23.005
750.13	22.500
750.44	19.615
750.75	22.878
751.07	31.317
751.38	27.660
751.69	27.027
752.01	25.781
752.32	21.923
752.63	25.746
752.94	30.400
753.26	24.268
753.57	19.583
753.88	29.150
754.19	27.092
754.51	25.188
754.82	21.245
755.13	23.043
755.44	28.049
755.75	22.800
756.07	21.033
756.38	28.058
756.69	24.573
757.00	27.726
757.31	24.595
757.63	25.926
757.94	29.379
758.25	24.603
758.56	27.989
758.87	32.143
759.18	24.290
759.50	23.906
759.81	30.769
760.12	28.308
760.43	24.107
760.74	30.226
761.05	26.519
761.36	28.940
761.67	25.680
761.99	28.179
762.30	23.723
762.61	25.926
762.92	33.333
763.23	25.410
763.54	31.169
763.85	20.408
764.16	23.984
764.47	25.200
764.78	26.071
765.10	28.525
765.41	25.228
765.72	26.398
766.03	29.043
766.34	30.769
766.65	21.339
766.96	20.657
767.27	27.228
767.58	15.169
767.89	27.778
768.20	20.994
768.51	27.136
768.82	24.519
769.13	21.239
769.44	27.197
769.75	20.085
770.06	20.179
770.37	20.588
770.68	28.641
770.99	17.961
771.30	19.328
771.61	19.592
771.92	31.120
772.23	19.369
772.54	20.994
772.85	19.767
773.16	26.455
773.47	13.018
773.78	22.414
774.09	28.750
774.39	21.739
774.70	27.891
775.01	16.552
775.32	17.143
775.63	18.797
775.94	15.038
776.25	15.200
776.56	17.355
776.87	19.048
777.18	11.712
777.48	26.126
777.79	15.748
778.10	14.679
778.41	30.702
778.72	8.403
779.03	12.676
779.34	20.946
779.65	22.535
779.95	19.868
780.26	17.266
780.57	15.108
780.88	21.831
781.19	14.286
781.50	15.436
781.80	11.111
782.11	16.279
782.42	27.044
782.73	27.451
783.04	22.759
783.34	16.031
783.65	18.792
783.96	16.923
784.27	24.286
784.57	20.567
784.88	2.885
785.19	24.545
785.50	20.909
785.81	16.190
786.11	15.126
786.42	19.469
786.73	10.377
787.04	22.018
787.34	15.842
787.65	20.000
787.96	22.314
788.26	22.464
788.57	18.254
788.88	11.382
789.19	8.800
789.49	14.504
789.80	25.000
790.11	17.925
790.41	22.772
790.72	24.468
791.03	9.783
791.33	11.765
791.64	19.753
791.95	25.000
792.25	20.455
792.56	19.231
792.87	5.128
793.17	-11.538
793.48	7.143
793.79	6.250
794.09	24.038
794.40	19.792
794.70	19.820
795.01	17.969
795.32	15.652
795.62	13.043
795.93	9.434
796.23	15.152
796.54	17.073
796.85	4.762
797.15	15.152
797.46	7.246
797.76	28.947
798.07	22.727
798.37	4.878
798.68	6.452
798.99	-6.757
799.29	20.482
799.60	0.000
799.90	4.615
800.21	7.576
800.51	10.667
800.82	13.333
801.12	-33.333
801.43	-5.000
801.73	0.000
802.04	7.143
802.34	11.475
802.65	10.448
802.95	9.091
803.26	-3.448
803.56	26.154
803.87	0.000
804.17	4.839
804.48	0.000
804.78	-2.439
805.09	13.043
805.39	-1.471
805.70	0.000
806.00	15.789
806.30	14.103
806.61	19.737
806.91	21.622
807.22	10.526
807.52	11.364
807.83	-8.475
808.13	-10.606
808.43	16.667
808.74	-12.069
809.04	1.587
809.35	-8.163
809.65	5.000
809.95	-4.082
810.26	14.085
810.56	18.750
810.86	4.082
811.17	23.077
811.47	-4.255
811.77	-10.417
812.08	-5.660
812.38	-40.625
812.69	-3.636
812.99	0.000
813.29	-16.216
813.59	-24.324
813.90	3.636
814.20	7.273
814.50	-1.667
814.81	5.455
815.11	12.281
815.41	9.302
815.72	-27.500
816.02	-2.857
816.32	-32.432
816.62	-12.500
816.93	-6.667
817.23	-8.889
817.53	-25.000
817.84	-2.703
818.14	-24.390
818.44	0.000
818.74	4.082
819.04	9.756
819.35	5.556
819.65	15.909
819.95	-55.556
820.25	-6.061
820.56	-23.810
820.86	-22.222
821.16	-18.182
821.46	0.000
821.76	10.345
822.07	-4.348
822.37	15.152
822.67	36.585
822.97	18.919
823.27	-2.857
823.57	13.793
823.88	-26.471
824.18	13.889
824.48	-34.286
824.78	-47.619
825.08	-28.571
825.38	-7.407
825.69	-16.129
825.99	12.195
826.29	-25.926
826.59	-21.875
826.89	-48.387
827.19	-17.391
827.49	-38.889
827.79	-69.565
828.09	12.903
828.39	6.250
828.70	-15.625
829.00	-6.897
829.30	-8.108
829.60	-50.000
829.90	11.111
830.20	0.000
830.50	-13.636
830.80	-111.765
831.10	-9.091
831.40	-29.412
831.70	-19.231
832.00	9.091
832.30	11.765
832.60	29.730
832.90	1100.000
833.20	-14.286
833.50	-65.000
833.80	-10.526
834.10	-50.000
834.40	-63.636
834.70	-26.667
835.00	-40.000
835.30	-45.833
835.60	-38.095
835.90	19.048
836.20	-52.000
836.50	8.333
836.80	-78.947
837.10	13.514
837.40	10.000
837.70	-52.174
838.00	8.333
838.30	-10.526
838.60	-170.000
838.90	-140.000
839.19	-91.667
839.49	-30.769
839.79	-36.842
840.09	-216.667
840.39	-90.000
840.69	-68.182
840.99	-28.571
841.29	-54.167
841.59	-100.000
841.88	-66.667
842.18	-92.857
842.48	-3.333
842.78	-271.429
843.08	-57.143
843.38	-112.500
843.68	-93.750
843.97	-28.571
844.27	-277.778
844.57	-81.818
844.87	-80.000
845.17	13.636
845.47	766.667
845.76	-33.333
846.06	-50.000
846.36	-500.000
846.66	-100.000
846.96	-40.909
847.25	-116.667
847.55	-266.667
847.85	-52.381
848.15	-46.154
848.44	-233.333
848.74	-108.333
849.04	-107.692
849.34	-325.000
849.63	-81.818
849.93	-157.143
850.23	-20.000
850.53	-112.500
850.82	0.000
851.12	26.667
851.42	-88.235
851.71	-12.500
852.01	-47.059
852.31	-53.846
852.61	200.000
852.90	-29.412
853.20	-40.000
853.50	-25.000
853.79	-121.429
854.09	-350.000
854.39	-60.000
854.68	-10.000
854.98	-14.286
855.28	-24.000
855.57	-45.833
855.87	-33.333
856.17	-48.000
856.46	-6.250
856.76	-15.000
857.05	-16.000
857.35	-133.333
857.65	-82.353
857.94	-83.333
858.24	-91.667
858.53	5.000
858.83	-63.636
859.13	-8.000
859.42	-42.857
859.72	-225.000
860.01	-37.500
860.31	-125.000
860.60	-56.250
860.90	-200.000
861.20	-83.333
861.49	-26.667
861.79	-75.000
862.08	225.000
862.38	-125.000
862.67	214.286
862.97	575.000
863.26	-81.818
863.56	-72.727
863.85	21.053
864.15	11.765
864.44	-300.000
864.74	-50.000
865.03	-100.000
865.33	-50.000
865.62	171.429
865.92	-52.632
866.21	-44.444
866.51	-136.364
866.80	-11.111
867.10	-87.500
867.39	-56.250
867.69	-73.333
867.98	-130.000
868.27	-52.941
868.57	0.000
868.86	600.000
869.16	-425.000
869.45	-28.571
869.75	500.000
870.04	-30.000
870.33	-300.000
870.63	-10.526
870.92	-16.667
871.22	-2100.000
871.51	-300.000
871.80	-144.444
872.10	-350.000
>>>>>End Processed Spectral Data<<<<<
