SpectraSuite Data File
++++++++++++++++++++++++++++++++++++
Date: Tue May 12 17:03:57 PDT 2015
User: schluterlab
Dark Spectrum Present: Yes
Reference Spectrum Present: Yes
Number of Sampled Component Spectra: 1
Spectrometers: USB2E3373
Integration Time (usec): 3000 (USB2E3373)
Spectra Averaged: 3 (USB2E3373)
Boxcar Smoothing: 0 (USB2E3373)
Correct for Electrical Dark: No (USB2E3373)
Strobe/Lamp Enabled: No (USB2E3373)
Correct for Detector Non-linearity: No (USB2E3373)
Correct for Stray Light: No (USB2E3373)
Number of Pixels in Processed Spectrum: 2048
>>>>>Begin Processed Spectral Data<<<<<
178.53	0.000
178.91	-191.667
179.29	-600.000
179.67	-4400.000
180.04	-140.000
180.42	750.000
180.80	1650.000
181.18	0.000
181.56	-287.500
181.94	0.000
182.31	1166.667
182.69	-3100.000
183.07	414.286
183.45	-3200.000
183.83	-1650.000
184.20	390.000
184.58	571.429
184.96	-300.000
185.34	-208.333
185.72	1600.000
186.09	-325.000
186.47	-2200.000
186.85	800.000
187.23	660.000
187.61	1850.000
187.98	525.000
188.36	300.000
188.74	433.333
189.12	375.000
189.49	875.000
189.87	0.000
190.25	437.500
190.63	2700.000
191.00	-200.000
191.38	-3400.000
191.76	-750.000
192.14	512.500
192.51	-2900.000
192.89	1750.000
193.27	1400.000
193.65	-1233.333
194.02	-720.000
194.40	557.143
194.78	-171.429
195.15	280.000
195.53	-3400.000
195.91	-460.000
196.29	4600.000
196.66	231.250
197.04	925.000
197.42	-1400.000
197.79	575.000
198.17	358.333
198.55	0.000
198.92	600.000
199.30	800.000
199.68	2250.000
200.05	533.333
200.43	-450.000
200.81	233.333
201.18	3300.000
201.56	275.000
201.94	-800.000
202.31	-187.500
202.69	-640.000
203.07	2700.000
203.44	-550.000
203.82	258.333
204.19	740.000
204.57	-1700.000
204.95	-950.000
205.32	-700.000
205.70	566.667
206.08	675.000
206.45	-733.333
206.83	322.222
207.20	194.737
207.58	225.000
207.96	740.000
208.33	0.000
208.71	471.429
209.08	660.000
209.46	-3400.000
209.84	-625.000
210.21	740.000
210.59	-520.000
210.96	366.667
211.34	-850.000
211.71	363.636
212.09	950.000
212.46	1650.000
212.84	-366.667
213.22	400.000
213.59	-3200.000
213.97	360.000
214.34	750.000
214.72	1366.667
215.09	1066.667
215.47	-2500.000
215.84	-340.000
216.22	-437.500
216.59	0.000
216.97	0.000
217.34	1850.000
217.72	-1650.000
218.09	966.667
218.47	487.500
218.84	700.000
219.22	1200.000
219.59	1166.667
219.97	442.857
220.34	366.667
220.72	1450.000
221.09	3000.000
221.47	216.667
221.84	933.333
222.22	360.000
222.59	222.222
222.97	192.857
223.34	256.250
223.72	-1800.000
224.09	1433.333
224.46	253.846
224.84	-625.000
225.21	355.556
225.59	286.667
225.96	966.667
226.34	-760.000
226.71	-775.000
227.08	-480.000
227.46	0.000
227.83	-550.000
228.21	-1800.000
228.58	391.667
228.95	1100.000
229.33	355.556
229.70	950.000
230.08	407.692
230.45	3900.000
230.82	-950.000
231.20	-1000.000
231.57	-966.667
231.95	500.000
232.32	325.000
232.69	383.333
233.07	300.000
233.44	-1550.000
233.81	240.000
234.19	155.556
234.56	181.250
234.93	176.471
235.31	200.000
235.68	200.000
236.05	132.143
236.43	122.222
236.80	228.571
237.17	155.172
237.55	128.125
237.92	105.000
238.29	121.212
238.67	131.250
239.04	100.000
239.41	52.083
239.79	57.500
240.16	85.417
240.53	68.852
240.91	57.971
241.28	57.627
241.65	45.455
242.02	64.789
242.40	42.857
242.77	50.549
243.14	26.582
243.51	47.475
243.89	38.318
244.26	38.318
244.63	37.624
245.00	32.110
245.38	24.576
245.75	29.545
246.12	34.815
246.49	25.532
246.87	16.393
247.24	24.000
247.61	28.125
247.98	31.293
248.36	16.970
248.73	30.612
249.10	21.429
249.47	17.500
249.84	20.398
250.22	19.459
250.59	22.500
250.96	19.831
251.33	16.744
251.70	18.750
252.08	18.908
252.45	16.733
252.82	17.871
253.19	13.439
253.56	12.308
253.94	14.130
254.31	14.729
254.68	16.028
255.05	15.862
255.42	14.234
255.79	16.938
256.16	13.220
256.54	16.234
256.91	13.725
257.28	14.381
257.65	9.091
258.02	15.339
258.39	16.905
258.76	14.493
259.14	11.143
259.51	15.452
259.88	10.638
260.25	9.615
260.62	13.425
260.99	9.366
261.36	11.142
261.73	10.638
262.10	14.921
262.47	10.750
262.85	11.733
263.22	13.111
263.59	9.719
263.96	14.035
264.33	11.358
264.70	11.794
265.07	12.439
265.44	12.156
265.81	12.028
266.18	11.442
266.55	10.165
266.92	12.304
267.29	12.939
267.66	11.211
268.03	7.399
268.40	11.839
268.77	11.674
269.14	8.894
269.51	10.468
269.88	13.469
270.25	6.911
270.62	9.442
270.99	10.548
271.36	12.602
271.73	8.805
272.10	10.707
272.47	9.127
272.84	8.982
273.21	9.091
273.58	11.134
273.95	8.419
274.32	9.728
274.69	12.598
275.06	11.475
275.43	8.238
275.80	11.132
276.17	8.456
276.54	11.589
276.91	10.448
277.28	6.387
277.65	9.041
278.02	10.662
278.39	8.453
278.76	10.517
279.13	9.609
279.50	7.818
279.87	8.752
280.23	9.945
280.60	8.577
280.97	9.828
281.34	8.251
281.71	11.652
282.08	10.427
282.45	9.122
282.82	8.696
283.19	10.016
283.56	7.769
283.92	8.143
284.29	9.318
284.66	9.076
285.03	8.126
285.40	8.264
285.77	8.796
286.14	10.836
286.51	9.969
286.87	7.753
287.24	6.456
287.61	8.967
287.98	8.507
288.35	8.444
288.72	8.953
289.08	9.009
289.45	8.994
289.82	8.906
290.19	8.199
290.56	9.898
290.93	8.777
291.29	7.597
291.66	9.181
292.03	8.135
292.40	9.079
292.77	9.471
293.13	9.843
293.50	7.692
293.87	8.130
294.24	10.070
294.60	9.152
294.97	8.951
295.34	8.765
295.71	8.936
296.08	9.333
296.44	9.149
296.81	7.444
297.18	8.745
297.55	8.621
297.91	9.360
298.28	8.696
298.65	10.552
299.02	8.565
299.38	9.472
299.75	8.537
300.12	9.633
300.48	10.187
300.85	9.893
301.22	10.000
301.59	8.726
301.95	9.218
302.32	10.710
302.69	9.842
303.05	9.989
303.42	8.857
303.79	9.967
304.15	10.231
304.52	9.514
304.89	11.407
305.25	10.679
305.62	10.128
305.99	8.043
306.35	10.105
306.72	10.822
307.09	10.352
307.45	10.560
307.82	9.053
308.19	11.031
308.55	10.900
308.92	11.089
309.29	11.736
309.65	10.605
310.02	10.243
310.38	11.565
310.75	10.415
311.12	10.824
311.48	12.741
311.85	11.641
312.22	11.748
312.58	11.370
312.95	12.233
313.31	12.547
313.68	12.195
314.05	13.736
314.41	12.756
314.78	12.121
315.14	12.607
315.51	12.961
315.87	13.321
316.24	13.072
316.61	12.802
316.97	12.110
317.34	13.118
317.70	13.784
318.07	13.879
318.43	14.060
318.80	13.835
319.16	14.773
319.53	14.071
319.89	12.724
320.26	16.015
320.62	14.744
320.99	16.301
321.35	15.213
321.72	16.319
322.08	15.974
322.45	16.712
322.81	15.462
323.18	17.496
323.54	18.031
323.91	16.863
324.27	17.595
324.64	16.696
325.00	18.276
325.37	18.044
325.73	18.044
326.10	18.061
326.46	19.736
326.83	18.080
327.19	20.000
327.56	19.489
327.92	20.328
328.29	20.704
328.65	21.490
329.01	20.616
329.38	21.827
329.74	20.666
330.11	21.460
330.47	23.529
330.84	21.398
331.20	21.743
331.56	22.453
331.93	22.669
332.29	21.854
332.66	22.279
333.02	22.423
333.38	22.600
333.75	22.269
334.11	22.483
334.48	22.564
334.84	22.466
335.20	22.926
335.57	20.739
335.93	22.540
336.29	23.051
336.66	23.671
337.02	21.129
337.38	22.270
337.75	22.297
338.11	22.447
338.47	22.608
338.84	22.523
339.20	22.857
339.56	21.278
339.93	22.074
340.29	21.765
340.65	22.045
341.02	22.848
341.38	21.839
341.74	21.844
342.11	20.868
342.47	22.067
342.83	21.329
343.20	22.474
343.56	20.969
343.92	21.552
344.28	21.451
344.65	22.249
345.01	21.587
345.37	20.433
345.73	21.349
346.10	20.717
346.46	21.930
346.82	21.373
347.19	21.252
347.55	21.390
347.91	21.450
348.27	20.759
348.63	20.965
349.00	21.173
349.36	20.934
349.72	21.330
350.08	20.885
350.45	21.935
350.81	22.018
351.17	19.723
351.53	21.401
351.89	20.901
352.26	20.559
352.62	20.739
352.98	21.319
353.34	21.880
353.70	20.183
354.07	21.000
354.43	21.352
354.79	20.653
355.15	21.057
355.51	20.544
355.87	20.633
356.24	21.016
356.60	20.548
356.96	20.091
357.32	20.950
357.68	21.586
358.04	20.973
358.40	20.615
358.77	20.736
359.13	21.622
359.49	19.867
359.85	20.402
360.21	20.728
360.57	20.730
360.93	21.284
361.29	19.120
361.66	20.656
362.02	19.815
362.38	20.996
362.74	21.515
363.10	20.617
363.46	20.166
363.82	21.108
364.18	19.559
364.54	20.172
364.90	21.486
365.26	21.096
365.62	19.544
365.98	19.546
366.35	19.586
366.71	20.056
367.07	21.638
367.43	19.879
367.79	20.412
368.15	18.996
368.51	20.538
368.87	21.603
369.23	20.097
369.59	20.027
369.95	20.769
370.31	19.781
370.67	20.125
371.03	20.168
371.39	20.429
371.75	20.447
372.11	19.646
372.47	20.137
372.83	19.850
373.19	19.877
373.55	20.344
373.91	19.406
374.27	20.238
374.63	19.797
374.99	19.272
375.35	19.825
375.71	19.921
376.07	19.496
376.42	19.118
376.78	20.488
377.14	19.790
377.50	20.037
377.86	19.026
378.22	19.744
378.58	19.734
378.94	19.734
379.30	19.891
379.66	19.386
380.02	19.296
380.38	18.911
380.74	20.531
381.09	18.984
381.45	18.728
381.81	18.794
382.17	19.536
382.53	19.556
382.89	19.752
383.25	18.887
383.61	18.847
383.97	18.356
384.32	19.289
384.68	20.380
385.04	18.523
385.40	19.276
385.76	19.427
386.12	19.295
386.48	19.210
386.83	19.499
387.19	19.081
387.55	18.728
387.91	20.092
388.27	19.036
388.62	18.838
388.98	18.950
389.34	18.679
389.70	18.809
390.06	18.354
390.42	18.754
390.77	18.366
391.13	18.588
391.49	18.875
391.85	18.954
392.20	19.070
392.56	18.996
392.92	18.473
393.28	18.274
393.64	18.865
393.99	18.020
394.35	18.128
394.71	18.215
395.07	18.066
395.42	18.150
395.78	19.247
396.14	18.916
396.50	19.134
396.85	18.354
397.21	17.870
397.57	19.008
397.92	17.966
398.28	17.761
398.64	18.674
399.00	17.851
399.35	17.606
399.71	18.322
400.07	17.694
400.42	18.507
400.78	18.065
401.14	17.322
401.49	18.030
401.85	17.555
402.21	17.458
402.57	17.714
402.92	18.424
403.28	17.661
403.63	17.893
403.99	17.853
404.35	18.581
404.70	17.484
405.06	16.283
405.42	17.475
405.77	17.916
406.13	17.408
406.49	17.283
406.84	17.484
407.20	17.751
407.55	17.354
407.91	18.315
408.27	17.344
408.62	16.736
408.98	17.800
409.34	16.832
409.69	16.739
410.05	17.472
410.40	16.961
410.76	17.573
411.11	17.180
411.47	17.840
411.83	17.047
412.18	16.908
412.54	17.417
412.89	16.342
413.25	16.876
413.60	17.114
413.96	17.953
414.31	17.237
414.67	17.815
415.03	17.369
415.38	16.530
415.74	17.498
416.09	17.177
416.45	18.100
416.80	17.319
417.16	17.250
417.51	17.643
417.87	17.084
418.22	17.922
418.58	16.943
418.93	17.906
419.29	16.081
419.64	17.020
420.00	17.243
420.35	16.551
420.71	17.270
421.06	17.128
421.42	17.847
421.77	17.213
422.12	16.703
422.48	17.411
422.83	17.634
423.19	16.253
423.54	16.895
423.90	16.818
424.25	17.226
424.61	17.760
424.96	17.165
425.31	16.749
425.67	16.835
426.02	17.106
426.38	16.569
426.73	17.409
427.09	16.845
427.44	17.558
427.79	16.924
428.15	18.032
428.50	17.486
428.85	17.519
429.21	16.586
429.56	16.500
429.92	16.808
430.27	16.449
430.62	16.740
430.98	17.066
431.33	16.835
431.68	15.852
432.04	15.830
432.39	17.179
432.74	17.564
433.10	16.501
433.45	17.404
433.80	17.816
434.16	17.183
434.51	16.563
434.86	18.454
435.22	16.532
435.57	17.190
435.92	17.359
436.28	18.433
436.63	17.450
436.98	17.905
437.34	18.151
437.69	16.181
438.04	17.634
438.39	17.163
438.75	17.261
439.10	17.107
439.45	16.959
439.81	17.467
440.16	17.391
440.51	17.511
440.86	18.120
441.22	17.857
441.57	17.690
441.92	17.177
442.27	17.268
442.63	16.921
442.98	17.080
443.33	17.568
443.68	17.606
444.03	17.908
444.39	17.797
444.74	17.133
445.09	17.272
445.44	17.056
445.79	17.105
446.15	18.105
446.50	17.458
446.85	16.833
447.20	16.866
447.55	17.999
447.91	18.114
448.26	17.678
448.61	18.076
448.96	18.083
449.31	17.877
449.66	17.940
450.02	18.044
450.37	17.601
450.72	17.631
451.07	17.336
451.42	18.376
451.77	18.213
452.12	17.867
452.47	18.104
452.83	17.915
453.18	18.378
453.53	17.821
453.88	18.286
454.23	17.838
454.58	17.657
454.93	17.351
455.28	18.176
455.63	17.908
455.98	18.274
456.34	18.602
456.69	17.988
457.04	17.721
457.39	17.829
457.74	18.300
458.09	17.013
458.44	18.237
458.79	18.143
459.14	17.403
459.49	17.950
459.84	17.174
460.19	18.192
460.54	18.405
460.89	17.697
461.24	17.068
461.59	17.177
461.94	17.435
462.29	18.078
462.64	18.467
462.99	17.338
463.34	18.406
463.69	18.693
464.04	18.423
464.39	16.886
464.74	16.295
465.09	17.760
465.44	17.247
465.79	16.930
466.14	17.329
466.49	16.875
466.84	17.391
467.19	18.981
467.54	17.477
467.89	18.016
468.24	17.140
468.59	18.393
468.94	18.297
469.29	18.754
469.64	18.328
469.99	17.931
470.34	17.457
470.68	18.069
471.03	17.812
471.38	18.013
471.73	17.440
472.08	17.873
472.43	18.125
472.78	18.054
473.13	17.334
473.48	17.787
473.83	17.432
474.17	17.994
474.52	17.536
474.87	17.567
475.22	17.076
475.57	17.104
475.92	17.220
476.27	16.921
476.61	17.694
476.96	17.921
477.31	17.532
477.66	17.821
478.01	17.432
478.36	16.735
478.70	17.072
479.05	16.946
479.40	17.609
479.75	17.577
480.10	17.522
480.45	16.620
480.79	16.866
481.14	16.167
481.49	16.377
481.84	17.194
482.19	16.987
482.53	17.084
482.88	16.801
483.23	16.509
483.58	16.697
483.92	18.007
484.27	16.567
484.62	17.148
484.97	16.595
485.31	15.591
485.66	15.182
486.01	15.086
486.36	14.541
486.70	14.499
487.05	15.086
487.40	15.171
487.75	15.456
488.09	15.966
488.44	15.774
488.79	15.793
489.13	16.163
489.48	16.460
489.83	16.597
490.17	16.391
490.52	16.882
490.87	16.509
491.22	16.445
491.56	16.557
491.91	16.129
492.26	16.125
492.60	16.720
492.95	16.946
493.30	17.516
493.64	16.442
493.99	16.950
494.34	16.674
494.68	16.777
495.03	16.345
495.37	17.064
495.72	16.550
496.07	17.116
496.41	16.638
496.76	15.872
497.11	17.181
497.45	16.966
497.80	16.867
498.14	17.013
498.49	17.177
498.84	16.776
499.18	15.951
499.53	17.180
499.87	16.712
500.22	16.859
500.56	16.899
500.91	17.022
501.26	17.593
501.60	16.621
501.95	16.129
502.29	16.756
502.64	16.012
502.98	16.096
503.33	16.392
503.67	16.645
504.02	16.167
504.36	16.109
504.71	16.982
505.06	16.893
505.40	17.080
505.75	16.511
506.09	17.126
506.44	17.152
506.78	16.966
507.13	16.190
507.47	16.400
507.82	17.226
508.16	17.148
508.51	16.570
508.85	15.954
509.19	16.446
509.54	16.699
509.88	17.454
510.23	16.716
510.57	16.168
510.92	16.533
511.26	17.269
511.61	17.036
511.95	16.277
512.30	16.600
512.64	15.576
512.98	16.812
513.33	17.008
513.67	16.675
514.02	16.987
514.36	16.251
514.70	16.373
515.05	15.663
515.39	16.941
515.74	16.894
516.08	16.885
516.42	17.650
516.77	16.160
517.11	16.267
517.46	17.457
517.80	16.166
518.14	17.521
518.49	16.648
518.83	16.758
519.17	16.972
519.52	17.204
519.86	16.894
520.20	17.808
520.55	16.789
520.89	16.609
521.23	17.523
521.58	17.040
521.92	17.085
522.26	16.232
522.61	16.696
522.95	16.637
523.29	17.661
523.64	17.110
523.98	16.549
524.32	17.359
524.66	16.754
525.01	17.041
525.35	17.089
525.69	17.821
526.04	16.419
526.38	17.128
526.72	16.229
527.06	15.967
527.41	18.077
527.75	17.529
528.09	15.774
528.43	17.389
528.78	17.054
529.12	17.459
529.46	16.949
529.80	17.231
530.15	17.737
530.49	16.245
530.83	17.002
531.17	16.667
531.51	17.535
531.86	17.452
532.20	16.687
532.54	16.133
532.88	16.740
533.22	17.611
533.57	17.084
533.91	16.375
534.25	16.330
534.59	17.251
534.93	16.610
535.27	15.652
535.62	16.336
535.96	16.962
536.30	17.063
536.64	16.832
536.98	15.985
537.32	16.813
537.66	16.390
538.01	16.533
538.35	16.781
538.69	16.505
539.03	16.853
539.37	16.626
539.71	16.481
540.05	16.123
540.39	17.610
540.73	16.456
541.07	14.994
541.42	15.734
541.76	16.338
542.10	16.338
542.44	16.584
542.78	15.356
543.12	15.767
543.46	16.855
543.80	16.855
544.14	16.904
544.48	15.754
544.82	16.086
545.16	15.968
545.50	17.025
545.84	16.351
546.18	17.555
546.52	17.049
546.86	17.021
547.20	15.956
547.54	16.213
547.88	16.423
548.22	16.454
548.56	16.146
548.90	15.540
549.24	16.804
549.58	16.559
549.92	17.027
550.26	16.700
550.60	16.101
550.94	16.893
551.28	17.931
551.62	18.552
551.96	15.811
552.30	15.162
552.64	17.152
552.98	15.399
553.32	16.325
553.66	16.026
554.00	16.860
554.34	16.844
554.68	16.263
555.02	17.040
555.36	15.891
555.69	16.230
556.03	16.433
556.37	16.316
556.71	16.754
557.05	15.662
557.39	16.067
557.73	16.509
558.07	16.097
558.41	16.107
558.75	17.031
559.08	16.655
559.42	16.106
559.76	16.679
560.10	16.242
560.44	16.125
560.78	17.199
561.12	15.893
561.45	15.832
561.79	15.793
562.13	16.298
562.47	15.704
562.81	15.485
563.15	16.160
563.48	15.280
563.82	16.344
564.16	15.858
564.50	16.215
564.84	16.049
565.17	15.865
565.51	15.825
565.85	16.410
566.19	16.131
566.52	16.125
566.86	15.762
567.20	16.124
567.54	15.393
567.88	15.180
568.21	14.978
568.55	14.737
568.89	14.462
569.23	14.236
569.56	14.537
569.90	13.870
570.24	13.492
570.57	13.855
570.91	13.385
571.25	13.345
571.59	13.283
571.92	12.836
572.26	12.480
572.60	12.802
572.93	13.111
573.27	13.412
573.61	12.805
573.95	12.550
574.28	12.603
574.62	12.156
574.96	12.093
575.29	12.225
575.63	12.250
575.97	12.220
576.30	12.301
576.64	12.357
576.98	12.375
577.31	12.273
577.65	12.620
577.98	12.103
578.32	12.146
578.66	11.878
578.99	12.083
579.33	12.494
579.67	12.116
580.00	11.970
580.34	12.405
580.67	12.081
581.01	12.442
581.35	12.443
581.68	11.953
582.02	11.837
582.35	11.762
582.69	12.328
583.02	12.292
583.36	12.149
583.70	12.428
584.03	13.100
584.37	12.443
584.70	12.391
585.04	12.110
585.37	12.218
585.71	12.270
586.04	12.051
586.38	12.665
586.72	12.381
587.05	12.198
587.39	12.263
587.72	12.540
588.06	12.069
588.39	12.513
588.73	12.340
589.06	12.839
589.40	12.645
589.73	12.947
590.07	13.624
590.40	12.822
590.73	14.065
591.07	13.890
591.40	12.774
591.74	13.515
592.07	13.353
592.41	13.469
592.74	12.816
593.08	12.305
593.41	12.448
593.75	12.269
594.08	12.781
594.41	12.577
594.75	12.945
595.08	12.689
595.42	12.508
595.75	12.932
596.09	12.895
596.42	13.110
596.75	13.742
597.09	12.918
597.42	12.898
597.75	13.306
598.09	13.336
598.42	13.301
598.76	13.261
599.09	13.019
599.42	12.699
599.76	12.992
600.09	12.610
600.42	12.465
600.76	12.339
601.09	13.013
601.42	12.812
601.76	12.854
602.09	13.466
602.42	12.569
602.76	12.827
603.09	12.971
603.42	12.954
603.76	12.509
604.09	12.885
604.42	12.618
604.76	13.117
605.09	13.755
605.42	13.328
605.75	13.383
606.09	13.083
606.42	13.003
606.75	13.175
607.09	13.068
607.42	12.897
607.75	13.018
608.08	13.160
608.42	13.674
608.75	12.709
609.08	13.066
609.41	13.182
609.75	13.187
610.08	13.444
610.41	14.493
610.74	13.203
611.07	13.415
611.41	13.763
611.74	13.145
612.07	13.343
612.40	14.133
612.73	13.779
613.07	14.040
613.40	13.634
613.73	13.879
614.06	13.750
614.39	13.788
614.72	13.963
615.06	13.798
615.39	13.663
615.72	13.117
616.05	13.963
616.38	13.800
616.71	13.619
617.05	13.509
617.38	13.876
617.71	14.679
618.04	14.077
618.37	13.619
618.70	14.088
619.03	14.103
619.36	14.636
619.69	15.172
620.03	15.264
620.36	14.515
620.69	15.390
621.02	14.674
621.35	15.186
621.68	15.708
622.01	15.277
622.34	14.057
622.67	15.309
623.00	14.364
623.33	15.385
623.66	14.704
623.99	15.274
624.32	14.837
624.65	14.944
624.99	15.078
625.32	14.830
625.65	14.690
625.98	14.714
626.31	15.504
626.64	14.958
626.97	15.302
627.30	16.149
627.63	15.777
627.96	15.258
628.29	15.759
628.62	14.970
628.95	16.489
629.28	15.688
629.61	16.081
629.94	15.730
630.26	15.338
630.59	16.489
630.92	16.682
631.25	17.044
631.58	16.201
631.91	18.078
632.24	15.743
632.57	15.914
632.90	17.909
633.23	17.524
633.56	18.440
633.89	16.613
634.22	15.716
634.55	15.806
634.88	18.839
635.20	17.489
635.53	18.467
635.86	17.338
636.19	17.396
636.52	16.973
636.85	15.102
637.18	18.960
637.51	16.872
637.83	17.391
638.16	17.819
638.49	18.563
638.82	19.484
639.15	16.686
639.48	19.431
639.81	19.170
640.13	18.037
640.46	18.205
640.79	17.945
641.12	17.192
641.45	18.887
641.77	19.287
642.10	18.742
642.43	20.910
642.76	18.324
643.09	17.723
643.41	17.952
643.74	18.993
644.07	19.617
644.40	18.935
644.73	20.721
645.05	20.654
645.38	19.908
645.71	20.486
646.04	20.763
646.36	19.249
646.69	18.240
647.02	20.480
647.35	19.213
647.67	19.935
648.00	19.544
648.33	20.150
648.66	19.545
648.98	18.406
649.31	18.489
649.64	16.459
649.96	17.923
650.29	18.571
650.62	21.502
650.94	20.030
651.27	21.053
651.60	18.310
651.92	19.508
652.25	18.583
652.58	17.730
652.90	20.659
653.23	17.725
653.56	18.101
653.88	18.649
654.21	19.208
654.54	18.741
654.86	19.469
655.19	18.865
655.52	14.225
655.84	9.914
656.17	10.761
656.49	15.300
656.82	17.627
657.15	14.236
657.47	10.663
657.80	7.842
658.13	6.464
658.45	8.806
658.78	10.847
659.10	11.084
659.43	11.297
659.75	12.445
660.08	13.095
660.41	15.789
660.73	18.319
661.06	18.619
661.38	21.295
661.71	20.683
662.03	19.202
662.36	18.286
662.68	22.533
663.01	23.063
663.33	18.868
663.66	21.302
663.98	23.016
664.31	21.269
664.63	20.498
664.96	24.390
665.28	19.962
665.61	20.189
665.93	22.642
666.26	21.682
666.58	22.018
666.91	21.236
667.23	20.080
667.56	21.150
667.88	23.029
668.21	21.926
668.53	22.177
668.86	20.240
669.18	22.200
669.50	22.107
669.83	22.998
670.15	21.830
670.48	18.945
670.80	21.713
671.13	23.506
671.45	22.244
671.77	22.449
672.10	21.364
672.42	17.928
672.75	19.304
673.07	18.919
673.39	19.489
673.72	20.069
674.04	19.355
674.37	19.964
674.69	21.375
675.01	20.149
675.34	20.736
675.66	21.680
675.98	21.105
676.31	19.800
676.63	21.869
676.95	21.230
677.28	20.081
677.60	19.517
677.92	20.437
678.25	21.318
678.57	20.670
678.89	23.508
679.22	19.853
679.54	18.327
679.86	18.499
680.18	19.508
680.51	17.247
680.83	17.568
681.15	19.931
681.48	20.312
681.80	18.389
682.12	19.204
682.44	18.739
682.77	18.861
683.09	21.748
683.41	18.367
683.73	21.850
684.06	19.444
684.38	21.124
684.70	19.424
685.02	18.229
685.34	19.366
685.67	19.775
685.99	19.376
686.31	18.182
686.63	17.398
686.96	19.118
687.28	18.792
687.60	17.747
687.92	18.258
688.24	20.000
688.56	18.505
688.89	20.076
689.21	21.195
689.53	21.542
689.85	18.089
690.17	18.252
690.49	20.766
690.82	19.538
691.14	22.424
691.46	21.766
691.78	20.273
692.10	18.511
692.42	17.423
692.74	18.992
693.06	22.093
693.39	18.972
693.71	19.057
694.03	21.302
694.35	22.691
694.67	21.792
694.99	21.286
695.31	18.919
695.63	19.231
695.95	21.719
696.27	23.451
696.59	19.570
696.91	21.013
697.23	21.719
697.56	19.087
697.88	18.962
698.20	20.189
698.52	18.677
698.84	19.507
699.16	22.388
699.48	20.551
699.80	22.876
700.12	21.478
700.44	23.832
700.76	24.582
701.08	24.282
701.40	22.857
701.72	22.727
702.04	23.848
702.36	23.118
702.68	23.670
703.00	19.549
703.32	21.588
703.64	23.678
703.96	20.312
704.28	23.280
704.60	23.099
704.91	22.689
705.23	24.432
705.55	21.365
705.87	26.984
706.19	25.705
706.51	24.451
706.83	22.124
707.15	25.401
707.47	22.518
707.79	23.218
708.11	19.048
708.43	21.348
708.74	20.588
709.06	19.767
709.38	20.844
709.70	22.888
710.02	20.652
710.34	24.033
710.66	23.889
710.98	22.404
711.29	20.891
711.61	23.677
711.93	26.140
712.25	21.988
712.57	21.543
712.89	25.758
713.20	23.003
713.52	23.988
713.84	25.982
714.16	21.449
714.48	17.579
714.80	21.409
715.11	18.617
715.43	21.788
715.75	22.254
716.07	22.832
716.39	22.000
716.70	19.003
717.02	25.926
717.34	26.259
717.66	27.083
717.97	30.303
718.29	26.056
718.61	21.622
718.93	24.221
719.24	24.497
719.56	23.448
719.88	21.338
720.20	24.516
720.51	19.608
720.83	26.756
721.15	25.850
721.46	26.370
721.78	25.436
722.10	25.000
722.42	24.749
722.73	26.354
723.05	28.772
723.37	28.622
723.68	22.266
724.00	27.652
724.32	28.897
724.63	26.923
724.95	25.490
725.27	24.907
725.58	26.838
725.90	19.014
726.22	23.973
726.53	25.084
726.85	25.733
727.16	27.852
727.48	21.595
727.80	25.540
728.11	26.071
728.43	23.188
728.74	26.923
729.06	23.297
729.38	25.614
729.69	28.000
730.01	23.684
730.32	24.497
730.64	24.585
730.96	26.126
731.27	20.489
731.59	21.552
731.90	18.942
732.22	21.429
732.53	18.519
732.85	23.392
733.16	22.289
733.48	21.944
733.80	21.449
734.11	24.847
734.43	18.713
734.74	17.426
735.06	20.370
735.37	20.619
735.69	23.188
736.00	21.101
736.32	16.061
736.63	20.505
736.95	22.050
737.26	20.732
737.58	19.018
737.89	17.470
738.21	21.192
738.52	22.074
738.83	24.542
739.15	23.345
739.46	23.448
739.78	22.449
740.09	26.531
740.41	19.632
740.72	22.222
741.04	22.727
741.35	24.219
741.66	21.739
741.98	33.906
742.29	29.630
742.61	26.549
742.92	27.119
743.23	26.400
743.55	24.151
743.86	24.314
744.18	27.542
744.49	30.165
744.80	27.189
745.12	27.232
745.43	30.841
745.74	27.111
746.06	23.246
746.37	24.651
746.68	29.204
747.00	28.251
747.31	26.471
747.62	26.230
747.94	25.751
748.25	23.346
748.56	30.932
748.88	27.232
749.19	26.977
749.50	26.027
749.82	30.041
750.13	29.644
750.44	21.667
750.75	22.148
751.07	22.039
751.38	20.462
751.69	22.222
752.01	24.476
752.32	20.930
752.63	24.497
752.94	22.028
753.26	25.000
753.57	23.346
753.88	26.966
754.19	25.271
754.51	23.256
754.82	22.148
755.13	23.649
755.44	28.148
755.75	29.210
756.07	21.918
756.38	20.588
756.69	22.500
757.00	26.409
757.31	21.408
757.63	18.457
757.94	18.351
758.25	20.773
758.56	16.476
758.87	21.053
759.18	21.221
759.50	22.796
759.81	24.926
760.12	20.787
760.43	16.807
760.74	20.253
761.05	20.690
761.36	19.531
761.67	19.946
761.99	23.099
762.30	22.186
762.61	24.306
762.92	25.758
763.23	24.528
763.54	25.000
763.85	18.677
764.16	27.431
764.47	21.959
764.78	21.498
765.10	19.207
765.41	17.045
765.72	19.613
766.03	19.033
766.34	21.951
766.65	23.574
766.96	28.340
767.27	33.645
767.58	30.198
767.89	30.939
768.20	32.927
768.51	27.551
768.82	28.070
769.13	23.137
769.44	25.188
769.75	19.850
770.06	24.370
770.37	26.316
770.68	21.333
770.99	30.932
771.30	23.849
771.61	25.385
771.92	20.229
772.23	23.790
772.54	28.000
772.85	32.178
773.16	27.717
773.47	23.889
773.78	27.723
774.09	36.932
774.39	33.333
774.70	21.176
775.01	28.947
775.32	32.919
775.63	37.671
775.94	44.444
776.25	35.172
776.56	33.588
776.87	42.748
777.18	42.424
777.48	48.031
777.79	33.077
778.10	40.909
778.41	40.299
778.72	40.602
779.03	31.410
779.34	33.108
779.65	29.193
779.95	32.919
780.26	33.333
780.57	33.333
780.88	36.879
781.19	46.667
781.50	41.420
781.80	31.148
782.11	30.688
782.42	25.287
782.73	32.768
783.04	31.613
783.34	21.705
783.65	26.531
783.96	31.613
784.27	30.464
784.57	29.605
784.88	36.232
785.19	40.833
785.50	36.207
785.81	44.186
786.11	37.037
786.42	33.858
786.73	44.144
787.04	45.283
787.34	34.959
787.65	49.242
787.96	34.091
788.26	41.732
788.57	42.336
788.88	32.394
789.19	32.061
789.49	42.568
789.80	40.625
790.11	42.149
790.41	50.000
790.72	37.963
791.03	36.538
791.33	51.515
791.64	47.368
791.95	41.053
792.25	40.625
792.56	46.000
792.87	43.902
793.17	48.864
793.48	52.941
793.79	43.678
794.09	48.864
794.40	42.241
794.70	29.365
795.01	33.846
795.32	42.748
795.62	34.188
795.93	39.496
796.23	40.650
796.54	55.102
796.85	56.818
797.15	50.649
797.46	70.732
797.76	51.250
798.07	48.000
798.37	56.250
798.68	51.250
798.99	63.415
799.29	41.333
799.60	45.349
799.90	53.947
800.21	74.242
800.51	50.704
800.82	70.690
801.12	67.692
801.43	68.000
801.73	62.069
802.04	66.234
802.34	60.274
802.65	64.706
802.95	71.739
803.26	82.258
803.56	80.000
803.87	71.642
804.17	69.841
804.48	50.943
804.78	59.722
805.09	71.212
805.39	73.016
805.70	87.719
806.00	67.143
806.30	64.062
806.61	58.824
806.91	57.778
807.22	45.652
807.52	56.579
807.83	60.526
808.13	60.870
808.43	62.903
808.74	58.904
809.04	82.143
809.35	64.706
809.65	77.273
809.95	72.549
810.26	90.741
810.56	81.250
810.86	77.551
811.17	82.456
811.47	71.739
811.77	72.414
812.08	44.828
812.38	104.762
812.69	73.810
812.99	80.000
813.29	88.571
813.59	129.032
813.90	68.966
814.20	78.689
814.50	78.000
814.81	64.912
815.11	74.074
815.41	73.214
815.72	82.143
816.02	88.000
816.32	107.317
816.62	75.862
816.93	106.061
817.23	107.317
817.53	80.357
817.84	77.778
818.14	73.810
818.44	70.833
818.74	94.340
819.04	100.000
819.35	106.061
819.65	119.231
819.95	98.148
820.25	100.000
820.56	113.514
820.86	105.263
821.16	59.574
821.46	113.158
821.76	78.182
822.07	69.048
822.37	100.000
822.67	106.977
822.97	65.789
823.27	100.000
823.57	109.375
823.88	87.179
824.18	84.848
824.48	147.826
824.78	97.222
825.08	139.130
825.38	165.517
825.69	105.882
825.99	85.106
826.29	75.000
826.59	131.429
826.89	110.000
827.19	108.571
827.49	148.387
827.79	92.308
828.09	80.952
828.39	108.333
828.70	94.595
829.00	146.429
829.30	231.250
829.60	55.556
829.90	116.129
830.20	100.000
830.50	113.514
830.80	116.667
831.10	153.846
831.40	138.095
831.70	166.667
832.00	126.667
832.30	160.870
832.60	137.500
832.90	148.485
833.20	160.000
833.50	131.579
833.80	108.824
834.10	97.368
834.40	168.421
834.70	93.333
835.00	168.000
835.30	94.595
835.60	137.500
835.90	89.189
836.20	161.538
836.50	159.091
836.80	95.122
837.10	121.739
837.40	284.615
837.70	142.105
838.00	130.000
838.30	170.833
838.60	148.000
838.90	320.000
839.19	112.500
839.49	123.333
839.79	100.000
840.09	138.462
840.39	113.333
840.69	173.684
840.99	171.429
841.29	126.087
841.59	180.000
841.88	160.000
842.18	377.778
842.48	164.286
842.78	162.963
843.08	200.000
843.38	181.818
843.68	278.571
843.97	457.143
844.27	143.478
844.57	1800.000
844.87	250.000
845.17	194.444
845.47	114.286
845.76	166.667
846.06	514.286
846.36	123.529
846.66	253.846
846.96	212.500
847.25	153.846
847.55	189.474
847.85	233.333
848.15	600.000
848.44	309.091
848.74	171.429
849.04	204.167
849.34	135.294
849.63	237.500
849.93	225.000
850.23	833.333
850.53	437.500
850.82	200.000
851.12	123.529
851.42	154.167
851.71	218.750
852.01	0.000
852.31	235.294
852.61	410.000
852.90	187.500
853.20	344.444
853.50	-1700.000
853.79	108.000
854.09	125.000
854.39	131.034
854.68	127.586
854.98	176.190
855.28	119.355
855.57	278.571
855.87	138.889
856.17	140.741
856.46	231.579
856.76	151.613
857.05	223.529
857.35	309.091
857.65	230.769
857.94	170.000
858.24	400.000
858.53	214.286
858.83	642.857
859.13	173.913
859.42	244.444
859.72	325.000
860.01	250.000
860.31	825.000
860.60	470.000
860.90	462.500
861.20	300.000
861.49	471.429
861.79	-3300.000
862.08	514.286
862.38	322.222
862.67	185.714
862.97	450.000
863.26	163.333
863.56	900.000
863.85	384.615
864.15	247.059
864.44	222.222
864.74	341.667
865.03	336.364
865.33	337.500
865.62	180.000
865.92	550.000
866.21	975.000
866.51	700.000
866.80	222.222
867.10	966.667
867.39	3000.000
867.69	600.000
867.98	750.000
868.27	176.190
868.57	286.667
868.86	1050.000
869.16	161.905
869.45	2800.000
869.75	-416.667
870.04	950.000
870.33	700.000
870.63	400.000
870.92	235.294
871.22	800.000
871.51	528.571
871.80	358.333
872.10	269.231
>>>>>End Processed Spectral Data<<<<<
