SpectraSuite Data File
++++++++++++++++++++++++++++++++++++
Date: Tue May 12 16:31:59 PDT 2015
User: schluterlab
Dark Spectrum Present: Yes
Reference Spectrum Present: Yes
Number of Sampled Component Spectra: 1
Spectrometers: USB2E3373
Integration Time (usec): 3000 (USB2E3373)
Spectra Averaged: 3 (USB2E3373)
Boxcar Smoothing: 0 (USB2E3373)
Correct for Electrical Dark: No (USB2E3373)
Strobe/Lamp Enabled: No (USB2E3373)
Correct for Detector Non-linearity: No (USB2E3373)
Correct for Stray Light: No (USB2E3373)
Number of Pixels in Processed Spectrum: 2048
>>>>>Begin Processed Spectral Data<<<<<
178.53	0.000
178.91	-258.333
179.29	-825.000
179.67	-3100.000
180.04	-186.667
180.42	775.000
180.80	1500.000
181.18	0.000
181.56	-300.000
181.94	0.000
182.31	1133.333
182.69	-2800.000
183.07	485.714
183.45	-4400.000
183.83	-1600.000
184.20	420.000
184.58	442.857
184.96	-200.000
185.34	-250.000
185.72	1250.000
186.09	-700.000
186.47	-3200.000
186.85	866.667
187.23	500.000
187.61	1550.000
187.98	412.500
188.36	178.571
188.74	316.667
189.12	308.333
189.49	725.000
189.87	0.000
190.25	462.500
190.63	2700.000
191.00	-183.333
191.38	-4500.000
191.76	-675.000
192.14	462.500
192.51	-3600.000
192.89	1550.000
193.27	700.000
193.65	-933.333
194.02	-640.000
194.40	542.857
194.78	-235.714
195.15	240.000
195.53	-3100.000
195.91	-560.000
196.29	3300.000
196.66	262.500
197.04	825.000
197.42	-2050.000
197.79	700.000
198.17	258.333
198.55	0.000
198.92	528.571
199.30	1200.000
199.68	1500.000
200.05	600.000
200.43	-500.000
200.81	138.889
201.18	3500.000
201.56	225.000
201.94	-800.000
202.31	-325.000
202.69	-580.000
203.07	3400.000
203.44	-266.667
203.82	325.000
204.19	480.000
204.57	-1500.000
204.95	-550.000
205.32	-640.000
205.70	516.667
206.08	725.000
206.45	-700.000
206.83	388.889
207.20	221.053
207.58	216.667
207.96	840.000
208.33	0.000
208.71	514.286
209.08	700.000
209.46	-2500.000
209.84	-825.000
210.21	660.000
210.59	-460.000
210.96	316.667
211.34	-775.000
211.71	372.727
212.09	1025.000
212.46	1550.000
212.84	-366.667
213.22	388.889
213.59	-2500.000
213.97	400.000
214.34	1050.000
214.72	766.667
215.09	933.333
215.47	-4000.000
215.84	-310.000
216.22	-287.500
216.59	0.000
216.97	0.000
217.34	1500.000
217.72	-1500.000
218.09	966.667
218.47	362.500
218.84	775.000
219.22	1233.333
219.59	1266.667
219.97	400.000
220.34	400.000
220.72	1600.000
221.09	3800.000
221.47	266.667
221.84	933.333
222.22	330.000
222.59	261.111
222.97	200.000
223.34	218.750
223.72	-1450.000
224.09	1066.667
224.46	223.077
224.84	-575.000
225.21	455.556
225.59	260.000
225.96	1433.333
226.34	-540.000
226.71	-575.000
227.08	-600.000
227.46	0.000
227.83	-633.333
228.21	-1750.000
228.58	308.333
228.95	1025.000
229.33	377.778
229.70	1025.000
230.08	269.231
230.45	3700.000
230.82	-675.000
231.20	-1000.000
231.57	-1100.000
231.95	480.000
232.32	216.667
232.69	600.000
233.07	258.333
233.44	-1250.000
233.81	233.333
234.19	137.037
234.56	162.500
234.93	188.235
235.31	220.000
235.68	262.500
236.05	150.000
236.43	162.963
236.80	242.857
237.17	141.379
237.55	100.000
237.92	107.500
238.29	109.091
238.67	128.125
239.04	92.683
239.41	52.083
239.79	77.500
240.16	89.583
240.53	54.098
240.91	76.812
241.28	89.831
241.65	63.636
242.02	69.014
242.40	64.286
242.77	60.440
243.14	49.367
243.51	64.646
243.89	59.813
244.26	57.944
244.63	58.416
245.00	51.376
245.38	44.068
245.75	49.242
246.12	56.296
246.49	36.879
246.87	50.820
247.24	40.000
247.61	40.625
247.98	42.857
248.36	34.545
248.73	44.898
249.10	38.690
249.47	38.000
249.84	41.294
250.22	38.919
250.59	38.500
250.96	35.443
251.33	38.140
251.70	36.607
252.08	34.034
252.45	32.669
252.82	32.700
253.19	32.016
253.56	34.231
253.94	35.507
254.31	36.047
254.68	31.010
255.05	37.241
255.42	37.226
255.79	34.202
256.16	36.271
256.54	36.688
256.91	31.373
257.28	37.458
257.65	30.408
258.02	32.153
258.39	34.097
258.76	35.942
259.14	31.429
259.51	33.819
259.88	31.611
260.25	32.418
260.62	31.507
260.99	30.303
261.36	30.919
261.73	32.713
262.10	31.675
262.47	31.000
262.85	30.933
263.22	33.419
263.59	32.737
263.96	33.333
264.33	29.136
264.70	29.730
265.07	31.951
265.44	32.798
265.81	32.311
266.18	32.723
266.55	31.206
266.92	26.846
267.29	32.456
267.66	32.287
268.03	30.269
268.40	29.810
268.77	31.498
269.14	30.369
269.51	30.067
269.88	32.041
270.25	29.158
270.62	30.472
270.99	29.817
271.36	31.707
271.73	31.656
272.10	28.485
272.47	26.786
272.84	27.545
273.21	28.512
273.58	33.401
273.95	29.774
274.32	31.323
274.69	30.315
275.06	29.326
275.43	28.927
275.80	29.623
276.17	28.676
276.54	30.467
276.91	30.224
277.28	29.197
277.65	29.705
278.02	30.699
278.39	29.496
278.76	29.655
279.13	27.758
279.50	28.909
279.87	28.119
280.23	27.808
280.60	33.577
280.97	30.345
281.34	28.713
281.71	27.826
282.08	28.034
282.45	29.899
282.82	27.258
283.19	29.889
283.56	28.430
283.92	29.316
284.29	27.953
284.66	28.067
285.03	29.685
285.40	27.273
285.77	28.241
286.14	28.793
286.51	27.607
286.87	25.316
287.24	25.526
287.61	26.140
287.98	28.806
288.35	26.963
288.72	25.341
289.08	27.327
289.45	26.524
289.82	27.656
290.19	25.769
290.56	26.055
290.93	26.331
291.29	26.796
291.66	24.718
292.03	25.806
292.40	25.881
292.77	23.120
293.13	25.678
293.50	24.022
293.87	23.984
294.24	26.713
294.60	26.110
294.97	26.154
295.34	26.029
295.71	24.442
296.08	25.600
296.44	25.286
296.81	24.069
297.18	23.194
297.55	25.493
297.91	22.906
298.28	24.275
298.65	24.785
299.02	24.246
299.38	23.741
299.75	23.902
300.12	25.344
300.48	24.239
300.85	24.434
301.22	23.488
301.59	22.406
301.95	23.804
302.32	24.796
302.69	25.679
303.05	25.814
303.42	22.870
303.79	25.894
304.15	24.092
304.52	24.947
304.89	23.881
305.25	25.695
305.62	24.520
305.99	24.239
306.35	24.000
306.72	25.598
307.09	25.466
307.45	24.710
307.82	25.412
308.19	24.948
308.55	26.100
308.92	26.693
309.29	26.726
309.65	25.372
310.02	27.383
310.38	26.022
310.75	26.615
311.12	26.245
311.48	27.703
311.85	28.912
312.22	28.749
312.58	28.377
312.95	27.573
313.31	29.120
313.68	28.236
314.05	29.304
314.41	30.074
314.78	30.777
315.14	31.469
315.51	31.410
315.87	29.745
316.24	30.626
316.61	31.155
316.97	31.560
317.34	32.075
317.70	32.309
318.07	33.986
318.43	33.040
318.80	33.713
319.16	34.266
319.53	35.310
319.89	34.498
320.26	36.685
320.62	37.179
320.99	35.844
321.35	37.199
321.72	38.520
322.08	36.657
322.45	38.238
322.81	38.243
323.18	39.343
323.54	39.460
323.91	38.803
324.27	38.285
324.64	37.716
325.00	39.310
325.37	39.207
325.73	38.533
326.10	40.265
326.46	41.123
326.83	40.160
327.19	43.213
327.56	41.613
327.92	43.607
328.29	42.881
328.65	44.606
329.01	43.199
329.38	42.724
329.74	42.528
330.11	43.962
330.47	43.990
330.84	42.537
331.20	43.993
331.56	45.078
331.93	44.226
332.29	43.197
332.66	44.303
333.02	43.213
333.38	44.328
333.75	43.870
334.11	44.547
334.48	44.701
334.84	43.666
335.20	44.226
335.57	43.241
335.93	44.575
336.29	42.620
336.66	45.455
337.02	44.311
337.38	43.680
337.75	43.666
338.11	44.473
338.47	44.793
338.84	44.030
339.20	44.416
339.56	44.828
339.93	44.231
340.29	43.277
340.65	44.426
341.02	44.087
341.38	42.611
341.74	43.771
342.11	43.907
342.47	44.135
342.83	44.381
343.20	43.816
343.56	42.573
343.92	43.848
344.28	42.823
344.65	43.847
345.01	43.492
345.37	44.151
345.73	43.333
346.10	41.992
346.46	44.498
346.82	42.824
347.19	43.818
347.55	43.169
347.91	43.731
348.27	42.912
348.63	44.699
349.00	42.803
349.36	44.591
349.72	43.502
350.08	43.944
350.45	44.097
350.81	43.349
351.17	43.066
351.53	43.803
351.89	42.657
352.26	43.159
352.62	44.193
352.98	42.025
353.34	44.838
353.70	42.890
354.07	44.462
354.43	44.163
354.79	42.976
355.15	44.487
355.51	43.580
355.87	45.181
356.24	43.803
356.60	42.922
356.96	44.276
357.32	43.858
357.68	43.833
358.04	43.465
358.40	43.553
358.77	45.605
359.13	43.093
359.49	44.255
359.85	43.112
360.21	44.056
360.57	43.723
360.93	43.579
361.29	44.156
361.66	45.638
362.02	43.821
362.38	44.589
362.74	44.515
363.10	43.619
363.46	44.199
363.82	44.320
364.18	44.381
364.54	44.993
364.90	43.775
365.26	45.593
365.62	44.613
365.98	44.666
366.35	44.690
366.71	44.622
367.07	44.437
367.43	45.064
367.79	44.548
368.15	44.776
368.51	44.590
368.87	44.973
369.23	45.392
369.59	44.639
369.95	45.944
370.31	43.532
370.67	45.524
371.03	45.938
371.39	44.598
371.75	44.382
372.11	46.295
372.47	45.411
372.83	45.751
373.19	46.881
373.55	45.773
373.91	45.511
374.27	45.899
374.63	46.237
374.99	45.553
375.35	46.909
375.71	46.570
376.07	47.016
376.42	45.077
376.78	47.913
377.14	46.789
377.50	45.506
377.86	45.548
378.22	46.679
378.58	47.760
378.94	46.470
379.30	46.452
379.66	47.080
380.02	46.510
380.38	46.897
380.74	46.251
381.09	46.437
381.45	45.896
381.81	46.868
382.17	45.971
382.53	46.011
382.89	47.487
383.25	46.300
383.61	46.398
383.97	45.831
384.32	47.498
384.68	48.247
385.04	47.479
385.40	47.509
385.76	46.577
386.12	47.310
386.48	47.173
386.83	48.655
387.19	46.761
387.55	47.762
387.91	47.806
388.27	47.948
388.62	46.244
388.98	46.122
389.34	47.472
389.70	46.639
390.06	48.780
390.42	47.378
390.77	46.929
391.13	46.892
391.49	46.945
391.85	48.000
392.20	46.961
392.56	47.969
392.92	46.266
393.28	47.141
393.64	46.846
393.99	46.710
394.35	47.322
394.71	46.803
395.07	47.932
395.42	46.956
395.78	48.304
396.14	48.193
396.50	48.195
396.85	47.805
397.21	47.473
397.57	47.460
397.92	45.812
398.28	47.490
398.64	48.342
399.00	46.125
399.35	46.108
399.71	46.965
400.07	46.861
400.42	47.642
400.78	47.038
401.14	47.387
401.49	48.445
401.85	47.045
402.21	46.690
402.57	46.679
402.92	47.758
403.28	45.883
403.63	46.439
403.99	48.191
404.35	47.479
404.70	48.080
405.06	46.547
405.42	46.738
405.77	46.582
406.13	45.662
406.49	46.561
406.84	47.095
407.20	46.575
407.55	46.892
407.91	47.798
408.27	47.119
408.62	46.422
408.98	47.014
409.34	45.880
409.69	46.733
410.05	46.810
410.40	46.643
410.76	46.136
411.11	45.794
411.47	46.173
411.83	45.108
412.18	47.162
412.54	46.306
412.89	46.667
413.25	47.320
413.60	46.262
413.96	46.140
414.31	46.635
414.67	47.300
415.03	47.765
415.38	46.751
415.74	46.936
416.09	47.470
416.45	46.800
416.80	47.146
417.16	47.231
417.51	47.197
417.87	46.621
418.22	46.902
418.58	47.261
418.93	46.282
419.29	45.718
419.64	47.486
420.00	47.434
420.35	45.645
420.71	46.499
421.06	46.321
421.42	46.229
421.77	47.696
422.12	46.637
422.48	45.506
422.83	47.377
423.19	47.354
423.54	45.858
423.90	46.659
424.25	47.056
424.61	47.185
424.96	47.487
425.31	46.305
425.67	47.980
426.02	47.672
426.38	46.383
426.73	47.542
427.09	48.161
427.44	47.102
427.79	47.799
428.15	48.262
428.50	48.571
428.85	48.325
429.21	47.434
429.56	48.106
429.92	47.588
430.27	47.508
430.62	45.374
430.98	46.657
431.33	47.883
431.68	46.420
432.04	47.077
432.39	47.366
432.74	47.658
433.10	49.336
433.45	49.799
433.80	49.311
434.16	48.029
434.51	49.432
434.86	48.775
435.22	47.920
435.57	48.074
435.92	48.890
436.28	48.560
436.63	48.514
436.98	49.606
437.34	49.030
437.69	48.264
438.04	49.086
438.39	48.978
438.75	48.831
439.10	48.948
439.45	48.672
439.81	48.814
440.16	49.092
440.51	48.255
440.86	49.915
441.22	48.431
441.57	49.344
441.92	49.112
442.27	48.814
442.63	48.425
442.98	48.222
443.33	49.063
443.68	49.849
444.03	48.680
444.39	49.529
444.74	49.172
445.09	50.237
445.44	49.097
445.79	49.269
446.15	49.789
446.50	49.789
446.85	49.253
447.20	49.602
447.55	49.429
447.91	50.133
448.26	49.787
448.61	50.636
448.96	49.564
449.31	49.945
449.66	50.277
450.02	48.514
450.37	49.917
450.72	49.311
451.07	50.087
451.42	50.326
451.77	50.000
452.12	49.972
452.47	50.365
452.83	51.155
453.18	51.231
453.53	50.207
453.88	49.886
454.23	49.506
454.58	50.000
454.93	48.866
455.28	50.428
455.63	51.064
455.98	50.254
456.34	51.307
456.69	50.305
457.04	49.642
457.39	49.886
457.74	50.901
458.09	49.691
458.44	50.164
458.79	50.769
459.14	49.209
459.49	50.000
459.84	50.978
460.19	50.169
460.54	49.687
460.89	50.267
461.24	49.485
461.59	50.000
461.94	48.936
462.29	50.343
462.64	50.628
462.99	49.776
463.34	49.579
463.69	50.272
464.04	50.317
464.39	49.685
464.74	49.941
465.09	49.565
465.44	50.381
465.79	48.884
466.14	48.278
466.49	50.027
466.84	48.774
467.19	49.971
467.54	49.249
467.89	49.589
468.24	49.566
468.59	48.810
468.94	50.845
469.29	49.664
469.64	48.296
469.99	49.100
470.34	51.297
470.68	50.690
471.03	49.967
471.38	49.536
471.73	49.771
472.08	50.815
472.43	50.962
472.78	49.040
473.13	49.750
473.48	48.472
473.83	50.530
474.17	49.058
474.52	49.348
474.87	49.119
475.22	48.829
475.57	49.580
475.92	49.515
476.27	47.715
476.61	48.686
476.96	48.851
477.31	49.357
477.66	50.349
478.01	48.685
478.36	49.331
478.70	47.643
479.05	49.059
479.40	48.661
479.75	49.057
480.10	50.000
480.45	49.907
480.79	48.249
481.14	48.312
481.49	48.536
481.84	48.065
482.19	48.734
482.53	48.441
482.88	48.880
483.23	47.271
483.58	48.384
483.92	49.269
484.27	48.074
484.62	48.175
484.97	47.604
485.31	47.681
485.66	46.943
486.01	46.317
486.36	46.140
486.70	45.570
487.05	45.665
487.40	44.682
487.75	45.721
488.09	45.653
488.44	45.762
488.79	46.998
489.13	47.742
489.48	47.783
489.83	46.455
490.17	46.945
490.52	48.579
490.87	47.241
491.22	47.695
491.56	47.826
491.91	46.953
492.26	47.751
492.60	47.608
492.95	47.712
493.30	47.907
493.64	46.810
493.99	48.077
494.34	47.019
494.68	47.764
495.03	47.508
495.37	47.906
495.72	48.252
496.07	47.574
496.41	47.263
496.76	46.771
497.11	47.087
497.45	47.523
497.80	47.451
498.14	46.232
498.49	47.818
498.84	47.710
499.18	46.618
499.53	47.451
499.87	46.900
500.22	47.305
500.56	47.539
500.91	47.542
501.26	47.313
501.60	46.903
501.95	46.281
502.29	46.800
502.64	46.273
502.98	46.687
503.33	46.548
503.67	46.976
504.02	45.499
504.36	46.109
504.71	47.966
505.06	46.504
505.40	46.654
505.75	46.445
506.09	46.710
506.44	46.617
506.78	47.259
507.13	47.455
507.47	46.725
507.82	46.910
508.16	47.673
508.51	46.763
508.85	46.534
509.19	46.843
509.54	46.533
509.88	46.494
510.23	47.010
510.57	46.236
510.92	46.703
511.26	47.992
511.61	46.283
511.95	47.287
512.30	46.500
512.64	46.729
512.98	46.540
513.33	46.004
513.67	46.453
514.02	46.338
514.36	46.677
514.70	47.040
515.05	47.043
515.39	47.862
515.74	47.184
516.08	46.950
516.42	48.579
516.77	46.613
517.11	46.613
517.46	47.522
517.80	46.150
518.14	47.042
518.49	47.244
518.83	46.044
519.17	46.644
519.52	47.788
519.86	46.540
520.20	46.575
520.55	46.467
520.89	47.816
521.23	47.138
521.58	46.472
521.92	47.697
522.26	46.327
522.61	47.891
522.95	47.327
523.29	45.731
523.64	46.416
523.98	47.183
524.32	46.367
524.66	47.304
525.01	45.917
525.35	46.022
525.69	47.020
526.04	47.829
526.38	45.968
526.72	44.809
527.06	45.831
527.41	47.219
527.75	46.622
528.09	45.334
528.43	47.041
528.78	46.273
529.12	45.876
529.46	46.289
529.80	45.678
530.15	45.787
530.49	44.585
530.83	46.618
531.17	45.141
531.51	45.003
531.86	44.505
532.20	44.685
532.54	46.014
532.88	47.283
533.22	45.826
533.57	46.248
533.91	44.406
534.25	44.085
534.59	44.971
534.93	44.312
535.27	44.394
535.62	45.158
535.96	44.031
536.30	45.765
536.64	44.224
536.98	45.752
537.32	44.250
537.66	45.918
538.01	45.201
538.35	45.041
538.69	44.660
539.03	43.657
539.37	44.478
539.71	45.000
540.05	44.677
540.39	45.094
540.73	45.127
541.07	44.605
541.42	45.025
541.76	42.663
542.10	44.328
542.44	43.579
542.78	44.242
543.12	42.945
543.46	42.982
543.80	44.737
544.14	45.325
544.48	44.161
544.82	44.587
545.16	43.837
545.50	44.315
545.84	43.434
546.18	44.798
546.52	44.131
546.86	44.036
547.20	42.959
547.54	43.889
547.88	43.552
548.22	43.716
548.56	43.606
548.90	42.883
549.24	44.093
549.58	43.235
549.92	44.008
550.26	44.016
550.60	43.446
550.94	44.844
551.28	44.621
551.62	44.690
551.96	43.041
552.30	43.111
552.64	43.948
552.98	42.590
553.32	42.830
553.66	43.583
554.00	43.565
554.34	43.808
554.68	43.414
555.02	43.381
555.36	42.753
555.69	42.801
556.03	43.248
556.37	42.192
556.71	43.742
557.05	41.547
557.39	44.000
557.73	42.722
558.07	42.924
558.41	43.317
558.75	43.434
559.08	43.960
559.42	44.381
559.76	42.766
560.10	42.120
560.44	42.933
560.78	43.414
561.12	42.403
561.45	43.179
561.79	42.946
562.13	42.451
562.47	42.180
562.81	43.006
563.15	42.146
563.48	40.932
563.82	42.920
564.16	42.289
564.50	41.169
564.84	42.188
565.17	40.285
565.51	42.549
565.85	43.738
566.19	41.667
566.52	41.336
566.86	42.440
567.20	41.461
567.54	41.812
567.88	41.888
568.21	41.038
568.55	40.710
568.89	40.055
569.23	39.991
569.56	40.176
569.90	39.130
570.24	39.830
570.57	39.001
570.91	38.877
571.25	38.167
571.59	38.156
571.92	37.621
572.26	36.550
572.60	36.851
572.93	38.039
573.27	37.622
573.61	37.033
573.95	37.550
574.28	37.155
574.62	37.261
574.96	36.302
575.29	36.382
575.63	36.490
575.97	36.831
576.30	36.446
576.64	36.536
576.98	36.476
577.31	36.954
577.65	36.547
577.98	36.713
578.32	36.437
578.66	35.828
578.99	36.774
579.33	36.152
579.67	35.772
580.00	35.795
580.34	36.142
580.67	36.040
581.01	36.757
581.35	36.255
581.68	35.931
582.02	35.645
582.35	36.122
582.69	36.444
583.02	35.617
583.36	36.047
583.70	36.108
584.03	36.341
584.37	36.774
584.70	36.178
585.04	36.212
585.37	35.392
585.71	36.382
586.04	35.948
586.38	35.983
586.72	36.371
587.05	35.666
587.39	36.056
587.72	36.594
588.06	36.355
588.39	36.182
588.73	36.693
589.06	36.650
589.40	36.995
589.73	36.250
590.07	37.509
590.40	37.038
590.73	37.826
591.07	37.837
591.40	37.365
591.74	37.297
592.07	36.855
592.41	36.970
592.74	36.836
593.08	36.035
593.41	36.655
593.75	36.164
594.08	36.464
594.41	36.298
594.75	36.473
595.08	36.454
595.42	36.241
595.75	35.867
596.09	36.392
596.42	37.072
596.75	37.059
597.09	36.938
597.42	36.776
597.75	36.349
598.09	36.808
598.42	36.597
598.76	37.047
599.09	37.220
599.42	36.090
599.76	35.889
600.09	35.525
600.42	35.635
600.76	34.976
601.09	35.727
601.42	35.234
601.76	36.305
602.09	36.424
602.42	35.564
602.76	36.167
603.09	36.086
603.42	36.917
603.76	36.189
604.09	36.048
604.42	36.196
604.76	36.981
605.09	35.633
605.42	35.880
605.75	35.610
606.09	36.266
606.42	35.551
606.75	35.212
607.09	35.334
607.42	35.516
607.75	35.390
608.08	34.972
608.42	36.074
608.75	35.430
609.08	35.768
609.41	36.727
609.75	37.363
610.08	36.106
610.41	35.485
610.74	35.628
611.07	36.608
611.41	36.098
611.74	36.281
612.07	36.464
612.40	36.793
612.73	36.845
613.07	36.999
613.40	37.845
613.73	36.445
614.06	35.350
614.39	36.818
614.72	35.460
615.06	35.213
615.39	36.089
615.72	35.382
616.05	36.615
616.38	35.566
616.71	35.974
617.05	35.859
617.38	36.798
617.71	36.839
618.04	36.231
618.37	36.798
618.70	35.450
619.03	36.081
619.36	36.558
619.69	36.939
620.03	36.595
620.36	36.994
620.69	37.292
621.02	38.587
621.35	36.748
621.68	38.422
622.01	37.417
622.34	37.655
622.67	37.992
623.00	37.440
623.33	36.977
623.66	37.924
623.99	38.288
624.32	37.398
624.65	36.406
624.99	37.931
625.32	37.341
625.65	36.000
625.98	36.332
626.31	38.724
626.64	36.295
626.97	37.108
627.30	37.888
627.63	38.932
627.96	37.089
628.29	37.789
628.62	37.981
628.95	39.007
629.28	39.001
629.61	38.137
629.94	37.943
630.26	38.821
630.59	39.096
630.92	37.758
631.25	39.529
631.58	40.694
631.91	37.012
632.24	37.998
632.57	38.998
632.90	40.373
633.23	39.454
633.56	39.094
633.89	41.050
634.22	38.644
634.55	40.968
634.88	40.526
635.20	40.695
635.53	41.231
635.86	41.163
636.19	39.618
636.52	38.054
636.85	39.482
637.18	40.845
637.51	38.547
637.83	38.330
638.16	39.508
638.49	40.599
638.82	39.789
639.15	39.835
639.48	42.299
639.81	41.148
640.13	39.877
640.46	40.455
640.79	39.532
641.12	40.157
641.45	41.527
641.77	39.234
642.10	43.373
642.43	42.248
642.76	41.477
643.09	42.795
643.41	40.393
643.74	42.014
644.07	40.560
644.40	40.385
644.73	43.544
645.05	43.388
645.38	41.041
645.71	41.730
646.04	43.969
646.36	42.879
646.69	41.440
647.02	42.240
647.35	42.205
647.67	40.519
648.00	42.182
648.33	40.000
648.66	41.364
648.98	41.449
649.31	38.462
649.64	38.589
649.96	40.398
650.29	41.429
650.62	41.237
650.94	41.717
651.27	41.786
651.60	43.036
651.92	42.396
652.25	43.307
652.58	39.716
652.90	40.419
653.23	42.541
653.56	40.504
653.88	39.648
654.21	40.176
654.54	37.921
654.86	40.118
655.19	39.182
655.52	34.753
655.84	27.794
656.17	32.004
656.49	46.580
656.82	54.502
657.15	43.989
657.47	33.144
657.80	23.638
658.13	18.195
658.45	24.378
658.78	29.375
659.10	29.728
659.43	31.240
659.75	32.734
660.08	35.088
660.41	36.933
660.73	40.276
661.06	40.991
661.38	42.249
661.71	42.986
662.03	42.966
662.36	40.952
662.68	40.223
663.01	43.784
663.33	42.264
663.66	42.209
663.98	43.452
664.31	43.657
664.63	41.379
664.96	41.839
665.28	40.490
665.61	44.906
665.93	40.943
666.26	42.243
666.58	42.752
666.91	42.278
667.23	43.775
667.56	44.559
667.88	45.851
668.21	44.262
668.53	44.153
668.86	40.080
669.18	42.363
669.50	43.388
669.83	42.916
670.15	43.035
670.48	40.234
670.80	42.829
671.13	43.227
671.45	43.487
671.77	39.518
672.10	39.318
672.42	39.145
672.75	38.924
673.07	39.110
673.39	38.179
673.72	41.003
674.04	40.681
674.37	41.016
674.69	40.335
675.01	39.366
675.34	39.535
675.66	41.797
675.98	42.801
676.31	41.000
676.63	39.761
676.95	43.452
677.28	41.379
677.60	40.644
677.92	42.460
678.25	39.922
678.57	38.547
678.89	40.687
679.22	40.441
679.54	39.146
679.86	41.536
680.18	38.313
680.51	38.806
680.83	38.176
681.15	40.381
681.48	39.583
681.80	39.229
682.12	37.370
682.44	37.477
682.77	38.612
683.09	40.971
683.41	40.204
683.73	40.945
684.06	38.294
684.38	42.248
684.70	39.209
685.02	36.979
685.34	38.732
685.67	39.389
685.99	36.453
686.31	36.055
686.63	38.374
686.96	37.745
687.28	35.906
687.60	37.031
687.92	39.531
688.24	39.138
688.56	39.858
688.89	36.520
689.21	36.609
689.53	41.897
689.85	36.992
690.17	40.388
690.49	38.306
690.82	41.807
691.14	41.818
691.46	38.809
691.78	39.766
692.10	39.122
692.42	35.935
692.74	41.667
693.06	39.535
693.39	34.980
693.71	39.882
694.03	38.264
694.35	41.767
694.67	38.289
694.99	40.576
695.31	41.441
695.63	38.235
695.95	39.367
696.27	40.929
696.59	39.857
696.91	41.772
697.23	40.271
697.56	36.307
697.88	37.325
698.20	38.302
698.52	37.938
698.84	37.782
699.16	39.659
699.48	40.042
699.80	44.227
700.12	41.570
700.44	39.720
700.76	42.959
701.08	40.470
701.40	42.597
701.72	40.374
702.04	44.986
702.36	40.591
702.68	40.691
703.00	39.850
703.32	37.717
703.64	39.043
703.96	41.146
704.28	41.799
704.60	46.761
704.91	40.336
705.23	44.034
705.55	39.466
705.87	40.635
706.19	44.201
706.51	43.887
706.83	41.593
707.15	40.909
707.47	41.162
707.79	40.000
708.11	37.642
708.43	36.854
708.74	39.140
709.06	35.116
709.38	40.447
709.70	40.054
710.02	42.391
710.34	39.503
710.66	39.444
710.98	38.798
711.29	43.175
711.61	44.568
711.93	41.337
712.25	40.964
712.57	40.836
712.89	43.333
713.20	44.728
713.52	42.679
713.84	44.109
714.16	38.551
714.48	37.176
714.80	39.566
715.11	37.766
715.43	40.223
715.75	40.563
716.07	38.728
716.39	42.571
716.70	42.368
717.02	45.791
717.34	47.122
717.66	46.181
717.97	44.697
718.29	45.070
718.61	42.905
718.93	46.367
719.24	39.262
719.56	42.069
719.88	38.535
720.20	44.839
720.51	40.850
720.83	44.482
721.15	44.898
721.46	43.493
721.78	45.993
722.10	43.403
722.42	40.134
722.73	40.794
723.05	42.105
723.37	39.929
723.68	48.828
724.00	46.212
724.32	45.627
724.63	46.154
724.95	49.020
725.27	42.379
725.58	43.750
725.90	42.254
726.22	40.753
726.53	41.806
726.85	39.739
727.16	45.302
727.48	41.860
727.80	45.683
728.11	41.786
728.43	41.304
728.74	41.608
729.06	37.634
729.38	43.860
729.69	38.333
730.01	42.105
730.32	42.617
730.64	41.528
730.96	38.138
731.27	33.945
731.59	34.770
731.90	38.440
732.22	41.714
732.53	37.037
732.85	38.012
733.16	41.265
733.48	41.379
733.80	41.449
734.11	41.104
734.43	38.012
734.74	35.657
735.06	39.153
735.37	36.598
735.69	40.290
736.00	40.979
736.32	38.182
736.63	34.385
736.95	38.509
737.26	39.024
737.58	37.423
737.89	38.253
738.21	38.742
738.52	38.796
738.83	46.154
739.15	40.070
739.46	37.241
739.78	44.218
740.09	37.026
740.41	39.571
740.72	45.079
741.04	44.056
741.35	44.922
741.66	43.083
741.98	45.064
742.29	46.296
742.61	42.920
742.92	42.797
743.23	41.200
743.55	40.755
743.86	38.431
744.18	44.068
744.49	43.388
744.80	48.387
745.12	46.429
745.43	48.598
745.74	40.889
746.06	42.544
746.37	43.721
746.68	48.230
747.00	48.879
747.31	47.899
747.62	45.902
747.94	45.494
748.25	44.747
748.56	48.729
748.88	47.321
749.19	40.465
749.50	42.009
749.82	42.387
750.13	42.688
750.44	41.333
750.75	42.282
751.07	41.118
751.38	37.954
751.69	38.721
752.01	39.161
752.32	39.203
752.63	39.597
752.94	41.608
753.26	40.625
753.57	46.693
753.88	40.075
754.19	40.794
754.51	35.548
754.82	37.248
755.13	36.486
755.44	40.741
755.75	41.924
756.07	40.068
756.38	36.275
756.69	35.313
757.00	41.840
757.31	39.718
757.63	36.088
757.94	34.309
758.25	33.333
758.56	33.638
758.87	38.095
759.18	37.500
759.50	37.082
759.81	36.795
760.12	37.079
760.43	34.734
760.74	35.949
761.05	35.809
761.36	33.594
761.67	36.388
761.99	34.930
762.30	38.264
762.61	39.931
762.92	43.182
763.23	38.491
763.54	38.846
763.85	38.132
764.16	36.806
764.47	37.838
764.78	37.785
765.10	34.756
765.41	37.216
765.72	33.425
766.03	38.369
766.34	35.889
766.65	39.924
766.96	47.368
767.27	49.065
767.58	41.089
767.89	49.171
768.20	49.390
768.51	40.306
768.82	39.912
769.13	40.000
769.44	39.098
769.75	36.330
770.06	41.176
770.37	38.596
770.68	38.222
770.99	37.712
771.30	42.678
771.61	43.077
771.92	40.840
772.23	38.710
772.54	42.222
772.85	45.545
773.16	42.391
773.47	47.778
773.78	47.030
774.09	48.864
774.39	53.939
774.70	41.765
775.01	41.447
775.32	47.826
775.63	58.904
775.94	54.938
776.25	55.862
776.56	52.672
776.87	53.435
777.18	49.242
777.48	59.055
777.79	50.769
778.10	56.061
778.41	53.731
778.72	50.376
779.03	44.872
779.34	43.243
779.65	47.826
779.95	45.342
780.26	45.833
780.57	55.102
780.88	61.702
781.19	59.167
781.50	50.888
781.80	43.169
782.11	42.328
782.42	41.379
782.73	44.068
783.04	43.226
783.34	48.837
783.65	46.939
783.96	53.548
784.27	46.358
784.57	41.447
784.88	57.246
785.19	45.833
785.50	51.724
785.81	57.364
786.11	45.926
786.42	52.756
786.73	57.658
787.04	66.038
787.34	47.967
787.65	60.606
787.96	55.303
788.26	48.819
788.57	48.175
788.88	46.479
789.19	49.618
789.49	52.027
789.80	49.219
790.11	55.372
790.41	53.704
790.72	58.333
791.03	50.962
791.33	60.606
791.64	57.895
791.95	68.421
792.25	45.833
792.56	57.000
792.87	69.512
793.17	61.364
793.48	76.471
793.79	77.011
794.09	60.227
794.40	60.345
794.70	54.762
795.01	52.308
795.32	47.328
795.62	48.718
795.93	52.941
796.23	63.415
796.54	64.286
796.85	64.773
797.15	74.026
797.46	76.829
797.76	61.250
798.07	70.667
798.37	61.250
798.68	72.500
798.99	67.073
799.29	64.000
799.60	61.628
799.90	73.684
800.21	78.788
800.51	70.423
800.82	84.483
801.12	95.385
801.43	80.000
801.73	67.241
802.04	63.636
802.34	68.493
802.65	94.118
802.95	78.261
803.26	88.710
803.56	105.000
803.87	73.134
804.17	82.540
804.48	81.132
804.78	68.056
805.09	77.273
805.39	71.429
805.70	82.456
806.00	68.571
806.30	71.875
806.61	64.706
806.91	66.667
807.22	59.783
807.52	57.895
807.83	84.211
808.13	69.565
808.43	93.548
808.74	69.863
809.04	82.143
809.35	85.294
809.65	71.212
809.95	88.235
810.26	100.000
810.56	92.188
810.86	69.388
811.17	94.737
811.47	95.652
811.77	68.966
812.08	79.310
812.38	85.714
812.69	102.381
812.99	82.222
813.29	117.143
813.59	129.032
813.90	63.793
814.20	80.328
814.50	84.000
814.81	70.175
815.11	88.889
815.41	94.643
815.72	83.929
816.02	108.000
816.32	102.439
816.62	96.552
816.93	130.303
817.23	104.878
817.53	96.429
817.84	77.778
818.14	88.095
818.44	120.833
818.74	103.774
819.04	79.487
819.35	127.273
819.65	100.000
819.95	98.148
820.25	110.638
820.56	105.405
820.86	94.737
821.16	85.106
821.46	89.474
821.76	112.727
822.07	88.095
822.37	123.684
822.67	88.372
822.97	60.526
823.27	117.391
823.57	131.250
823.88	100.000
824.18	93.939
824.48	117.391
824.78	102.778
825.08	139.130
825.38	120.690
825.69	105.882
825.99	72.340
826.29	113.889
826.59	117.143
826.89	126.667
827.19	94.286
827.49	141.935
827.79	126.923
828.09	80.952
828.39	83.333
828.70	94.595
829.00	157.143
829.30	168.750
829.60	127.778
829.90	125.806
830.20	87.879
830.50	137.838
830.80	162.500
831.10	146.154
831.40	152.381
831.70	208.333
832.00	130.000
832.30	108.696
832.60	183.333
832.90	160.606
833.20	170.000
833.50	136.842
833.80	132.353
834.10	100.000
834.40	157.895
834.70	133.333
835.00	168.000
835.30	108.108
835.60	118.750
835.90	116.216
836.20	130.769
836.50	159.091
836.80	107.317
837.10	178.261
837.40	315.385
837.70	126.316
838.00	150.000
838.30	175.000
838.60	148.000
838.90	370.000
839.19	181.250
839.49	160.000
839.79	127.586
840.09	138.462
840.39	180.000
840.69	226.316
840.99	95.238
841.29	126.087
841.59	180.000
841.88	152.000
842.18	255.556
842.48	142.857
842.78	170.370
843.08	246.154
843.38	200.000
843.68	271.429
843.97	485.714
844.27	130.435
844.57	1500.000
844.87	271.429
845.17	211.111
845.47	166.667
845.76	187.500
846.06	485.714
846.36	176.471
846.66	238.462
846.96	200.000
847.25	176.923
847.55	184.211
847.85	211.111
848.15	700.000
848.44	309.091
848.74	161.905
849.04	154.167
849.34	176.471
849.63	281.250
849.93	225.000
850.23	1033.333
850.53	437.500
850.82	336.364
851.12	194.118
851.42	170.833
851.71	256.250
852.01	0.000
852.31	217.647
852.61	390.000
852.90	179.167
853.20	388.889
853.50	-3400.000
853.79	136.000
854.09	118.750
854.39	117.241
854.68	134.483
854.98	209.524
855.28	109.677
855.57	235.714
855.87	161.111
856.17	137.037
856.46	231.579
856.76	125.806
857.05	264.706
857.35	290.909
857.65	184.615
857.94	145.000
858.24	311.111
858.53	285.714
858.83	528.571
859.13	195.652
859.42	266.667
859.72	475.000
860.01	291.667
860.31	750.000
860.60	360.000
860.90	462.500
861.20	315.385
861.49	571.429
861.79	-3600.000
862.08	514.286
862.38	388.889
862.67	228.571
862.97	380.000
863.26	153.333
863.56	675.000
863.85	307.692
864.15	270.588
864.44	194.444
864.74	400.000
865.03	318.182
865.33	237.500
865.62	260.000
865.92	400.000
866.21	750.000
866.51	780.000
866.80	205.556
867.10	1033.333
867.39	2600.000
867.69	720.000
867.98	975.000
868.27	185.714
868.57	213.333
868.86	1025.000
869.16	138.095
869.45	3300.000
869.75	-350.000
870.04	725.000
870.33	600.000
870.63	350.000
870.92	200.000
871.22	775.000
871.51	457.143
871.80	283.333
872.10	353.846
>>>>>End Processed Spectral Data<<<<<
