SpectraSuite Data File
++++++++++++++++++++++++++++++++++++
Date: Wed May 13 21:44:30 PDT 2015
User: schluterlab
Dark Spectrum Present: Yes
Reference Spectrum Present: Yes
Number of Sampled Component Spectra: 1
Spectrometers: USB2E3373
Integration Time (usec): 3000 (USB2E3373)
Spectra Averaged: 3 (USB2E3373)
Boxcar Smoothing: 0 (USB2E3373)
Correct for Electrical Dark: No (USB2E3373)
Strobe/Lamp Enabled: No (USB2E3373)
Correct for Detector Non-linearity: No (USB2E3373)
Correct for Stray Light: No (USB2E3373)
Number of Pixels in Processed Spectrum: 2048
>>>>>Begin Processed Spectral Data<<<<<
178.53	0.000
178.91	350.000
179.29	75.000
179.67	-600.000
180.04	-433.333
180.42	200.000
180.80	1700.000
181.18	283.333
181.56	-350.000
181.94	-150.000
182.31	-72.727
182.69	123.077
183.07	-120.000
183.45	366.667
183.83	100.000
184.20	71.429
184.58	-66.667
184.96	366.667
185.34	71.429
185.72	0.000
186.09	-1000.000
186.47	-280.000
186.85	60.000
187.23	-50.000
187.61	200.000
187.98	1700.000
188.36	-25.000
188.74	0.000
189.12	-45.455
189.49	80.000
189.87	133.333
190.25	240.000
190.63	900.000
191.00	-120.000
191.38	120.000
191.76	350.000
192.14	108.333
192.51	-26.316
192.89	566.667
193.27	-25.000
193.65	-160.000
194.02	90.909
194.40	150.000
194.78	-500.000
195.15	220.000
195.53	-220.000
195.91	75.000
196.29	-500.000
196.66	0.000
197.04	650.000
197.42	20.000
197.79	60.000
198.17	-112.500
198.55	-266.667
198.92	250.000
199.30	-466.667
199.68	30.000
200.05	600.000
200.43	150.000
200.81	-1200.000
201.18	-60.000
201.56	-83.333
201.94	600.000
202.31	0.000
202.69	-142.857
203.07	-400.000
203.44	-60.000
203.82	-533.333
204.19	10.000
204.57	0.000
204.95	16.667
205.32	0.000
205.70	-600.000
206.08	-175.000
206.45	-116.667
206.83	400.000
207.20	-366.667
207.58	-100.000
207.96	-800.000
208.33	-128.571
208.71	-1100.000
209.08	87.500
209.46	350.000
209.84	0.000
210.21	80.000
210.59	1000.000
210.96	320.000
211.34	700.000
211.71	-950.000
212.09	-233.333
212.46	-140.000
212.84	-300.000
213.22	-50.000
213.59	-900.000
213.97	-100.000
214.34	-1200.000
214.72	-61.538
215.09	275.000
215.47	177.778
215.84	400.000
216.22	-100.000
216.59	0.000
216.97	600.000
217.34	100.000
217.72	0.000
218.09	66.667
218.47	0.000
218.84	-114.286
219.22	-162.500
219.59	-400.000
219.97	-375.000
220.34	25.000
220.72	-80.000
221.09	0.000
221.47	-133.333
221.84	400.000
222.22	0.000
222.59	1100.000
222.97	-200.000
223.34	-83.333
223.72	-1100.000
224.09	-400.000
224.46	0.000
224.84	-125.000
225.21	14.286
225.59	-225.000
225.96	33.333
226.34	-20.000
226.71	-171.429
227.08	450.000
227.46	-75.000
227.83	0.000
228.21	-37.500
228.58	-575.000
228.95	-41.176
229.33	-6.250
229.70	12.500
230.08	0.000
230.45	-137.500
230.82	-141.667
231.20	257.143
231.57	-225.000
231.95	400.000
232.32	-16.667
232.69	52.941
233.07	-700.000
233.44	-47.826
233.81	-650.000
234.19	16.667
234.56	-73.333
234.93	80.000
235.31	21.053
235.68	-84.615
236.05	15.385
236.43	-22.222
236.80	-9.091
237.17	-66.667
237.55	-58.824
237.92	-17.241
238.29	-11.111
238.67	13.889
239.04	-12.903
239.41	0.000
239.79	44.681
240.16	18.605
240.53	25.000
240.91	23.214
241.28	16.071
241.65	16.129
242.02	9.211
242.40	5.797
242.77	7.246
243.14	34.615
243.51	15.957
243.89	24.038
244.26	33.962
244.63	19.231
245.00	18.750
245.38	27.731
245.75	22.951
246.12	22.556
246.49	14.634
246.87	15.966
247.24	28.378
247.61	19.205
247.98	21.154
248.36	22.485
248.73	20.787
249.10	21.212
249.47	24.194
249.84	27.895
250.22	23.383
250.59	23.364
250.96	33.636
251.33	21.531
251.70	24.268
252.08	26.360
252.45	28.395
252.82	23.954
253.19	27.237
253.56	20.863
253.94	28.114
254.31	25.000
254.68	26.846
255.05	26.403
255.42	29.371
255.79	29.141
256.16	28.707
256.54	25.079
256.91	23.418
257.28	26.730
257.65	23.248
258.02	23.167
258.39	26.316
258.76	24.128
259.14	28.125
259.51	25.843
259.88	28.184
260.25	22.778
260.62	24.719
260.99	28.647
261.36	22.798
261.73	25.185
262.10	24.682
262.47	25.926
262.85	24.378
263.22	28.718
263.59	25.455
263.96	25.304
264.33	25.000
264.70	25.349
265.07	26.157
265.44	27.816
265.81	25.858
266.18	26.424
266.55	24.891
266.92	24.788
267.29	25.309
267.66	26.115
268.03	28.807
268.40	24.788
268.77	27.066
269.14	26.939
269.51	30.390
269.88	23.625
270.25	26.271
270.62	25.205
270.99	26.378
271.36	25.397
271.73	28.715
272.10	26.476
272.47	25.336
272.84	28.150
273.21	25.245
273.58	26.434
273.95	26.415
274.32	26.493
274.69	25.865
275.06	25.088
275.43	26.554
275.80	25.709
276.17	24.862
276.54	23.979
276.91	24.564
277.28	24.007
277.65	26.573
278.02	27.143
278.39	25.044
278.76	25.920
279.13	24.014
279.50	25.517
279.87	25.000
280.23	25.225
280.60	24.394
280.97	24.838
281.34	27.603
281.71	23.577
282.08	25.299
282.45	26.230
282.82	28.115
283.19	27.744
283.56	26.406
283.92	25.841
284.29	24.337
284.66	23.229
285.03	22.801
285.40	21.903
285.77	24.324
286.14	26.140
286.51	26.087
286.87	24.154
287.24	25.369
287.61	26.355
287.98	25.735
288.35	23.845
288.72	24.390
289.08	25.641
289.45	22.761
289.82	23.147
290.19	22.861
290.56	22.869
290.93	23.066
291.29	24.213
291.66	22.814
292.03	24.251
292.40	22.342
292.77	23.025
293.13	22.176
293.50	23.137
293.87	24.533
294.24	23.148
294.60	22.887
294.97	24.339
295.34	20.976
295.71	19.317
296.08	21.990
296.44	22.577
296.81	21.437
297.18	22.125
297.55	20.991
297.91	21.242
298.28	21.186
298.65	21.675
299.02	23.443
299.38	21.350
299.75	21.394
300.12	18.837
300.48	20.117
300.85	20.092
301.22	20.093
301.59	20.305
301.95	20.093
302.32	21.120
302.69	18.531
303.05	20.819
303.42	20.682
303.79	20.925
304.15	19.277
304.52	21.075
304.89	20.930
305.25	19.978
305.62	21.367
305.99	20.892
306.35	21.630
306.72	22.584
307.09	19.812
307.45	21.086
307.82	21.368
308.19	21.421
308.55	20.164
308.92	20.432
309.29	20.420
309.65	20.180
310.02	21.670
310.38	21.646
310.75	21.499
311.12	21.477
311.48	21.563
311.85	22.638
312.22	21.954
312.58	20.676
312.95	23.881
313.31	23.875
313.68	22.233
314.05	23.440
314.41	24.496
314.78	23.814
315.14	24.352
315.51	24.643
315.87	25.301
316.24	25.712
316.61	25.845
316.97	25.926
317.34	25.936
317.70	26.048
318.07	27.063
318.43	27.281
318.80	25.916
319.16	26.879
319.53	27.599
319.89	27.913
320.26	28.466
320.62	29.842
320.99	28.585
321.35	28.718
321.72	31.184
322.08	29.797
322.45	29.510
322.81	29.575
323.18	30.501
323.54	31.949
323.91	31.707
324.27	32.133
324.64	31.882
325.00	33.246
325.37	33.276
325.73	33.754
326.10	34.062
326.46	33.528
326.83	33.981
327.19	33.577
327.56	34.891
327.92	34.111
328.29	35.810
328.65	36.547
329.01	34.653
329.38	37.478
329.74	35.622
330.11	34.626
330.47	36.111
330.84	36.552
331.20	35.696
331.56	36.685
331.93	36.779
332.29	37.011
332.66	35.254
333.02	36.577
333.38	36.579
333.75	36.348
334.11	36.719
334.48	36.530
334.84	35.777
335.20	35.935
335.57	36.031
335.93	35.137
336.29	35.377
336.66	35.897
337.02	34.609
337.38	34.117
337.75	35.487
338.11	35.013
338.47	33.562
338.84	35.653
339.20	35.538
339.56	35.666
339.93	36.387
340.29	36.208
340.65	36.270
341.02	34.609
341.38	35.726
341.74	33.950
342.11	34.517
342.47	35.314
342.83	36.111
343.20	36.294
343.56	35.405
343.92	35.012
344.28	35.633
344.65	34.939
345.01	34.140
345.37	35.855
345.73	35.376
346.10	34.510
346.46	34.797
346.82	35.393
347.19	34.494
347.55	36.268
347.91	34.840
348.27	36.041
348.63	35.176
349.00	35.377
349.36	35.008
349.72	35.422
350.08	33.931
350.45	35.239
350.81	35.681
351.17	35.104
351.53	34.878
351.89	34.631
352.26	32.664
352.62	34.961
352.98	36.022
353.34	34.541
353.70	34.034
354.07	34.980
354.43	34.526
354.79	34.295
355.15	34.084
355.51	34.548
355.87	35.027
356.24	35.393
356.60	33.464
356.96	35.150
357.32	34.443
357.68	34.148
358.04	34.833
358.40	33.411
358.77	33.716
359.13	35.564
359.49	34.671
359.85	34.647
360.21	33.847
360.57	33.384
360.93	34.901
361.29	35.159
361.66	35.004
362.02	33.951
362.38	35.746
362.74	34.518
363.10	34.635
363.46	34.366
363.82	34.590
364.18	33.793
364.54	34.865
364.90	34.146
365.26	34.041
365.62	35.156
365.98	35.302
366.35	35.035
366.71	34.593
367.07	34.302
367.43	34.843
367.79	34.468
368.15	33.755
368.51	34.248
368.87	35.380
369.23	34.733
369.59	35.236
369.95	34.035
370.31	35.007
370.67	34.757
371.03	34.595
371.39	35.557
371.75	33.929
372.11	34.330
372.47	34.607
372.83	35.090
373.19	34.604
373.55	34.971
373.91	35.502
374.27	33.472
374.63	34.780
374.99	34.262
375.35	34.589
375.71	34.579
376.07	34.476
376.42	34.826
376.78	34.478
377.14	35.525
377.50	35.007
377.86	35.325
378.22	34.766
378.58	34.678
378.94	34.563
379.30	34.728
379.66	34.587
380.02	34.926
380.38	34.518
380.74	34.728
381.09	34.560
381.45	35.369
381.81	34.689
382.17	33.900
382.53	34.954
382.89	35.344
383.25	34.877
383.61	34.746
383.97	33.875
384.32	35.098
384.68	34.423
385.04	33.659
385.40	34.496
385.76	35.706
386.12	34.926
386.48	34.796
386.83	34.293
387.19	34.793
387.55	34.151
387.91	35.732
388.27	35.327
388.62	34.519
388.98	35.732
389.34	35.338
389.70	34.005
390.06	34.125
390.42	35.309
390.77	33.440
391.13	35.164
391.49	34.598
391.85	34.185
392.20	33.709
392.56	34.857
392.92	35.225
393.28	34.340
393.64	33.884
393.99	33.782
394.35	33.827
394.71	34.487
395.07	33.459
395.42	34.186
395.78	34.106
396.14	34.115
396.50	33.735
396.85	34.990
397.21	34.707
397.57	34.037
397.92	34.371
398.28	34.969
398.64	33.090
399.00	34.710
399.35	33.712
399.71	33.896
400.07	34.518
400.42	34.483
400.78	34.199
401.14	33.660
401.49	33.793
401.85	34.275
402.21	34.427
402.57	34.090
402.92	34.919
403.28	34.146
403.63	34.532
403.99	34.293
404.35	32.918
404.70	32.447
405.06	33.588
405.42	33.354
405.77	33.007
406.13	34.000
406.49	33.853
406.84	33.578
407.20	33.215
407.55	33.766
407.91	33.620
408.27	32.377
408.62	34.070
408.98	33.107
409.34	33.601
409.69	33.658
410.05	33.520
410.40	33.110
410.76	32.792
411.11	33.147
411.47	33.908
411.83	33.437
412.18	33.375
412.54	32.581
412.89	33.480
413.25	32.920
413.60	31.850
413.96	32.335
414.31	32.861
414.67	32.190
415.03	33.694
415.38	32.365
415.74	33.008
416.09	33.840
416.45	33.356
416.80	33.624
417.16	33.401
417.51	33.490
417.87	33.267
418.22	33.420
418.58	33.377
418.93	32.957
419.29	34.125
419.64	33.270
420.00	33.651
420.35	33.234
420.71	33.090
421.06	34.071
421.42	33.577
421.77	33.584
422.12	33.582
422.48	33.315
422.83	34.554
423.19	34.100
423.54	34.335
423.90	33.551
424.25	33.911
424.61	33.765
424.96	33.708
425.31	33.427
425.67	34.568
426.02	34.099
426.38	33.520
426.73	33.720
427.09	33.959
427.44	34.058
427.79	35.511
428.15	33.761
428.50	33.595
428.85	34.809
429.21	33.990
429.56	34.485
429.92	35.346
430.27	34.918
430.62	35.100
430.98	35.219
431.33	33.745
431.68	35.250
432.04	34.254
432.39	34.296
432.74	34.641
433.10	35.328
433.45	34.497
433.80	35.862
434.16	34.954
434.51	34.293
434.86	35.041
435.22	35.654
435.57	35.012
435.92	34.861
436.28	34.294
436.63	35.219
436.98	35.958
437.34	36.142
437.69	34.829
438.04	33.899
438.39	35.928
438.75	36.412
439.10	36.784
439.45	35.835
439.81	36.515
440.16	36.290
440.51	35.315
440.86	35.803
441.22	36.259
441.57	35.846
441.92	37.221
442.27	36.093
442.63	36.437
442.98	35.301
443.33	36.343
443.68	35.793
444.03	35.966
444.39	35.895
444.74	37.162
445.09	36.839
445.44	37.746
445.79	35.519
446.15	36.550
446.50	37.059
446.85	37.039
447.20	36.592
447.55	36.989
447.91	36.067
448.26	36.707
448.61	37.457
448.96	37.130
449.31	36.893
449.66	37.073
450.02	37.749
450.37	37.427
450.72	36.510
451.07	36.238
451.42	36.744
451.77	38.284
452.12	37.077
452.47	37.508
452.83	36.262
453.18	37.365
453.53	36.759
453.88	36.988
454.23	37.515
454.58	37.500
454.93	37.524
455.28	37.636
455.63	36.681
455.98	37.979
456.34	36.682
456.69	37.316
457.04	37.028
457.39	38.064
457.74	37.882
458.09	37.382
458.44	37.720
458.79	36.738
459.14	35.899
459.49	38.354
459.84	36.809
460.19	35.714
460.54	38.017
460.89	37.838
461.24	37.053
461.59	37.742
461.94	37.484
462.29	36.826
462.64	36.939
462.99	36.217
463.34	37.707
463.69	37.049
464.04	36.134
464.39	37.950
464.74	37.224
465.09	36.206
465.44	37.430
465.79	37.608
466.14	37.970
466.49	38.065
466.84	37.418
467.19	36.879
467.54	37.071
467.89	37.398
468.24	36.816
468.59	37.157
468.94	37.548
469.29	36.814
469.64	36.611
469.99	37.379
470.34	36.750
470.68	36.952
471.03	35.472
471.38	36.718
471.73	36.763
472.08	37.045
472.43	37.731
472.78	37.931
473.13	36.478
473.48	37.247
473.83	36.660
474.17	37.695
474.52	36.958
474.87	37.214
475.22	36.655
475.57	36.642
475.92	37.077
476.27	36.422
476.61	36.070
476.96	36.893
477.31	36.570
477.66	36.949
478.01	36.484
478.36	36.294
478.70	36.520
479.05	36.848
479.40	36.817
479.75	36.504
480.10	36.053
480.45	35.851
480.79	36.287
481.14	37.285
481.49	36.951
481.84	36.616
482.19	35.711
482.53	36.048
482.88	36.002
483.23	35.611
483.58	36.153
483.92	36.576
484.27	36.185
484.62	36.041
484.97	36.043
485.31	36.211
485.66	35.763
486.01	36.485
486.36	35.933
486.70	36.082
487.05	36.266
487.40	35.444
487.75	35.544
488.09	35.690
488.44	34.876
488.79	35.390
489.13	34.990
489.48	35.528
489.83	35.060
490.17	35.270
490.52	36.699
490.87	34.539
491.22	35.516
491.56	35.410
491.91	35.574
492.26	35.445
492.60	34.873
492.95	35.471
493.30	35.804
493.64	34.388
493.99	35.072
494.34	35.453
494.68	34.654
495.03	34.338
495.37	35.231
495.72	35.088
496.07	36.142
496.41	34.020
496.76	35.009
497.11	34.836
497.45	34.922
497.80	35.941
498.14	35.164
498.49	35.098
498.84	35.273
499.18	33.848
499.53	35.007
499.87	34.061
500.22	34.793
500.56	35.005
500.91	34.809
501.26	34.926
501.60	34.167
501.95	34.260
502.29	34.563
502.64	34.378
502.98	35.164
503.33	34.307
503.67	34.275
504.02	34.657
504.36	34.175
504.71	34.604
505.06	34.437
505.40	34.175
505.75	34.130
506.09	34.185
506.44	34.274
506.78	33.621
507.13	33.836
507.47	34.040
507.82	33.804
508.16	33.140
508.51	32.903
508.85	33.644
509.19	33.545
509.54	34.263
509.88	33.441
510.23	33.316
510.57	34.322
510.92	33.136
511.26	34.378
511.61	33.644
511.95	32.635
512.30	33.148
512.64	34.222
512.98	32.853
513.33	33.014
513.67	31.914
514.02	33.523
514.36	32.528
514.70	32.968
515.05	33.704
515.39	32.311
515.74	33.274
516.08	33.510
516.42	32.200
516.77	32.513
517.11	32.981
517.46	33.313
517.80	33.535
518.14	32.701
518.49	32.972
518.83	32.757
519.17	32.831
519.52	33.595
519.86	33.212
520.20	32.019
520.55	31.468
520.89	31.689
521.23	33.462
521.58	32.680
521.92	31.364
522.26	31.750
522.61	32.708
522.95	32.578
523.29	31.429
523.64	31.850
523.98	32.020
524.32	31.758
524.66	31.753
525.01	32.045
525.35	31.205
525.69	32.869
526.04	31.140
526.38	31.039
526.72	31.821
527.06	30.110
527.41	30.179
527.75	31.242
528.09	32.607
528.43	31.682
528.78	30.749
529.12	31.436
529.46	31.286
529.80	30.809
530.15	29.215
530.49	31.402
530.83	30.941
531.17	31.986
531.51	30.411
531.86	31.030
532.20	30.186
532.54	29.862
532.88	30.088
533.22	30.976
533.57	30.265
533.91	31.226
534.25	31.250
534.59	30.051
534.93	30.867
535.27	30.127
535.62	29.474
535.96	29.863
536.30	31.117
536.64	30.075
536.98	29.502
537.32	29.324
537.66	30.959
538.01	30.305
538.35	29.144
538.69	29.833
539.03	29.597
539.37	29.510
539.71	31.378
540.05	28.745
540.39	29.525
540.73	29.120
541.07	29.796
541.42	29.764
541.76	29.432
542.10	29.045
542.44	30.007
542.78	30.187
543.12	28.908
543.46	29.026
543.80	28.853
544.14	30.351
544.48	28.003
544.82	29.455
545.16	29.006
545.50	30.520
545.84	28.191
546.18	28.822
546.52	28.793
546.86	27.491
547.20	28.377
547.54	28.878
547.88	28.745
548.22	28.795
548.56	27.552
548.90	29.296
549.24	29.236
549.58	27.900
549.92	28.687
550.26	29.963
550.60	28.378
550.94	27.761
551.28	27.782
551.62	27.820
551.96	28.551
552.30	27.220
552.64	28.107
552.98	28.196
553.32	28.046
553.66	27.880
554.00	27.934
554.34	26.740
554.68	27.890
555.02	28.892
555.36	28.064
555.69	28.041
556.03	28.449
556.37	27.952
556.71	27.821
557.05	28.561
557.39	26.903
557.73	29.425
558.07	27.355
558.41	26.268
558.75	28.099
559.08	27.346
559.42	28.009
559.76	27.599
560.10	28.132
560.44	27.856
560.78	26.906
561.12	26.840
561.45	28.231
561.79	28.061
562.13	28.340
562.47	27.571
562.81	27.273
563.15	27.408
563.48	27.185
563.82	26.402
564.16	26.269
564.50	28.155
564.84	26.149
565.17	27.219
565.51	27.139
565.85	26.849
566.19	26.821
566.52	26.278
566.86	26.106
567.20	26.390
567.54	26.885
567.88	26.204
568.21	25.475
568.55	25.769
568.89	25.773
569.23	26.489
569.56	26.742
569.90	26.150
570.24	26.173
570.57	26.441
570.91	26.232
571.25	25.955
571.59	26.037
571.92	26.371
572.26	25.572
572.60	25.593
572.93	25.742
573.27	25.934
573.61	26.173
573.95	25.568
574.28	26.063
574.62	25.648
574.96	25.787
575.29	26.078
575.63	25.342
575.97	26.033
576.30	25.661
576.64	25.701
576.98	25.505
577.31	25.832
577.65	25.403
577.98	25.698
578.32	25.153
578.66	25.329
578.99	25.657
579.33	25.162
579.67	24.618
580.00	25.043
580.34	25.230
580.67	25.306
581.01	25.210
581.35	25.485
581.68	25.440
582.02	25.441
582.35	25.395
582.69	25.488
583.02	25.121
583.36	25.135
583.70	24.301
584.03	24.562
584.37	24.617
584.70	24.953
585.04	25.135
585.37	25.006
585.71	25.301
586.04	25.213
586.38	24.572
586.72	24.867
587.05	25.296
587.39	25.387
587.72	24.840
588.06	25.007
588.39	24.685
588.73	25.181
589.06	24.863
589.40	24.802
589.73	24.111
590.07	24.244
590.40	25.104
590.73	25.162
591.07	24.572
591.40	23.957
591.74	24.767
592.07	24.281
592.41	24.968
592.74	24.730
593.08	24.410
593.41	24.888
593.75	25.065
594.08	24.698
594.41	24.899
594.75	24.550
595.08	24.085
595.42	24.374
595.75	24.295
596.09	23.634
596.42	24.101
596.75	24.221
597.09	24.886
597.42	24.271
597.75	24.267
598.09	24.362
598.42	24.027
598.76	24.265
599.09	24.210
599.42	24.622
599.76	23.845
600.09	23.569
600.42	23.804
600.76	24.132
601.09	23.766
601.42	24.069
601.76	23.707
602.09	24.889
602.42	24.267
602.76	23.532
603.09	24.271
603.42	24.230
603.76	23.655
604.09	23.913
604.42	23.273
604.76	24.138
605.09	23.788
605.42	24.157
605.75	23.897
606.09	23.675
606.42	23.982
606.75	23.333
607.09	23.892
607.42	23.730
607.75	23.414
608.08	24.211
608.42	23.571
608.75	23.459
609.08	23.420
609.41	23.497
609.75	23.348
610.08	23.570
610.41	23.567
610.74	24.254
611.07	23.196
611.41	24.309
611.74	23.758
612.07	22.981
612.40	23.027
612.73	23.985
613.07	23.559
613.40	23.458
613.73	23.944
614.06	22.941
614.39	22.846
614.72	24.320
615.06	22.778
615.39	23.068
615.72	22.840
616.05	23.142
616.38	24.341
616.71	21.776
617.05	23.219
617.38	22.736
617.71	21.875
618.04	22.791
618.37	22.902
618.70	23.027
619.03	22.405
619.36	22.918
619.69	23.026
620.03	22.686
620.36	22.269
620.69	21.271
621.02	22.308
621.35	21.832
621.68	22.086
622.01	22.977
622.34	22.918
622.67	23.258
623.00	23.708
623.33	23.411
623.66	21.413
623.99	22.881
624.32	22.377
624.65	23.665
624.99	21.896
625.32	23.600
625.65	21.783
625.98	23.144
626.31	23.347
626.64	23.044
626.97	21.886
627.30	22.241
627.63	22.751
627.96	21.472
628.29	21.488
628.62	22.727
628.95	20.741
629.28	22.365
629.61	22.105
629.94	22.244
630.26	21.773
630.59	21.479
630.92	21.386
631.25	21.627
631.58	22.591
631.91	21.421
632.24	20.527
632.57	20.889
632.90	22.754
633.23	21.343
633.56	20.983
633.89	21.292
634.22	23.439
634.55	20.706
634.88	20.588
635.20	21.375
635.53	22.222
635.86	22.436
636.19	22.457
636.52	20.976
636.85	21.713
637.18	19.245
637.51	20.974
637.83	22.324
638.16	21.200
638.49	20.294
638.82	21.307
639.15	21.676
639.48	22.594
639.81	22.778
640.13	21.268
640.46	21.186
640.79	21.439
641.12	21.154
641.45	21.397
641.77	22.239
642.10	21.634
642.43	21.226
642.76	20.820
643.09	20.447
643.41	22.329
643.74	19.871
644.07	21.036
644.40	21.725
644.73	21.017
645.05	20.942
645.38	19.435
645.71	20.238
646.04	18.687
646.36	19.965
646.69	21.678
647.02	20.219
647.35	21.572
647.67	20.148
648.00	19.203
648.33	21.186
648.66	19.866
648.98	20.963
649.31	19.479
649.64	21.596
649.96	21.643
650.29	20.261
650.62	20.593
650.94	19.138
651.27	20.495
651.60	21.678
651.92	19.355
652.25	22.948
652.58	20.792
652.90	20.370
653.23	21.053
653.56	18.347
653.88	17.406
654.21	22.867
654.54	19.601
654.86	20.163
655.19	17.507
655.52	22.502
655.84	22.449
656.17	27.497
656.49	35.685
656.82	34.655
657.15	25.155
657.47	18.130
657.80	13.363
658.13	13.528
658.45	19.861
658.78	19.543
659.10	19.569
659.43	19.373
659.75	20.000
660.08	19.862
660.41	19.270
660.73	19.284
661.06	17.517
661.38	18.605
661.71	20.082
662.03	20.296
662.36	20.133
662.68	20.645
663.01	21.398
663.33	16.847
663.66	13.304
663.98	21.124
664.31	18.681
664.63	15.766
664.96	20.569
665.28	21.674
665.61	20.302
665.93	19.272
666.26	21.941
666.58	18.201
666.91	19.731
667.23	19.124
667.56	19.540
667.88	19.626
668.21	20.536
668.53	20.230
668.86	20.863
669.18	18.676
669.50	20.507
669.83	18.616
670.15	18.810
670.48	19.540
670.80	21.663
671.13	16.476
671.45	23.288
671.77	17.888
672.10	20.858
672.42	19.466
672.75	18.393
673.07	17.818
673.39	19.030
673.72	19.361
674.04	20.287
674.37	19.106
674.69	16.255
675.01	18.162
675.34	19.694
675.66	18.083
675.98	18.142
676.31	18.100
676.63	20.181
676.95	18.353
677.28	17.202
677.60	18.627
677.92	18.404
678.25	19.957
678.57	21.589
678.89	18.550
679.22	18.634
679.54	18.980
679.86	19.727
680.18	18.846
680.51	19.615
680.83	16.569
681.15	18.468
681.48	17.234
681.80	19.018
682.12	18.750
682.44	18.109
682.77	14.526
683.09	17.857
683.41	17.209
683.73	17.188
684.06	19.248
684.38	15.171
684.70	16.904
685.02	21.281
685.34	19.569
685.67	20.263
685.99	19.395
686.31	19.828
686.63	19.669
686.96	20.408
687.28	15.968
687.60	20.416
687.92	17.510
688.24	17.800
688.56	19.737
688.89	16.481
689.21	17.489
689.53	15.090
689.85	18.876
690.17	19.780
690.49	18.357
690.82	19.093
691.14	20.290
691.46	16.473
691.78	17.802
692.10	20.170
692.42	17.363
692.74	19.565
693.06	17.978
693.39	18.267
693.71	19.556
694.03	19.091
694.35	18.243
694.67	18.000
694.99	18.299
695.31	20.155
695.63	17.317
695.95	17.303
696.27	15.616
696.59	16.667
696.91	13.687
697.23	17.259
697.56	20.624
697.88	20.582
698.20	20.734
698.52	16.355
698.84	18.182
699.16	16.076
699.48	18.025
699.80	17.571
700.12	19.303
700.44	12.394
700.76	16.854
701.08	19.637
701.40	17.066
701.72	17.846
702.04	16.352
702.36	16.159
702.68	16.463
703.00	19.591
703.32	16.156
703.64	17.771
703.96	17.009
704.28	22.289
704.60	17.378
704.91	15.047
705.23	19.304
705.55	19.310
705.87	16.901
706.19	13.919
706.51	16.549
706.83	13.694
707.15	17.073
707.47	17.080
707.79	17.259
708.11	17.224
708.43	19.289
708.74	19.947
709.06	16.043
709.38	17.003
709.70	17.718
710.02	15.888
710.34	11.667
710.66	16.287
710.98	18.885
711.29	18.182
711.61	13.871
711.93	15.806
712.25	17.483
712.57	14.386
712.89	14.652
713.20	15.248
713.52	20.073
713.84	17.742
714.16	14.563
714.48	17.405
714.80	15.016
715.11	20.349
715.43	16.149
715.75	21.118
716.07	16.867
716.39	18.855
716.70	16.187
717.02	14.902
717.34	18.561
717.66	15.086
717.97	13.889
718.29	16.142
718.61	13.734
718.93	14.729
719.24	17.343
719.56	15.730
719.88	19.030
720.20	19.763
720.51	16.797
720.83	17.121
721.15	14.228
721.46	20.229
721.78	14.741
722.10	19.124
722.42	9.274
722.73	18.147
723.05	21.224
723.37	14.706
723.68	16.400
724.00	14.043
724.32	16.736
724.63	16.872
724.95	16.239
725.27	21.519
725.58	22.634
725.90	18.410
726.22	15.217
726.53	10.980
726.85	14.234
727.16	12.222
727.48	16.858
727.80	18.359
728.11	15.164
728.43	10.547
728.74	19.841
729.06	9.600
729.38	18.972
729.69	22.776
730.01	15.613
730.32	19.188
730.64	14.015
730.96	19.231
731.27	14.047
731.59	19.365
731.90	15.858
732.22	16.987
732.53	16.892
732.85	14.765
733.16	20.462
733.48	15.878
733.80	20.946
734.11	18.919
734.43	17.337
734.74	17.718
735.06	18.732
735.37	17.629
735.69	16.828
736.00	15.842
736.32	17.376
736.63	15.862
736.95	22.603
737.26	15.517
737.58	17.708
737.89	17.526
738.21	14.235
738.52	18.631
738.83	14.694
739.15	16.878
739.46	14.008
739.78	11.268
740.09	17.808
740.41	11.786
740.72	18.085
741.04	15.200
741.35	16.228
741.66	17.333
741.98	17.788
742.29	16.337
742.61	14.146
742.92	17.105
743.23	15.094
743.55	22.973
743.86	15.247
744.18	16.667
744.49	19.797
744.80	12.755
745.12	19.626
745.43	17.536
745.74	15.315
746.06	18.224
746.37	11.927
746.68	17.308
747.00	16.746
747.31	13.462
747.62	14.679
747.94	20.524
748.25	16.972
748.56	18.667
748.88	20.657
749.19	15.714
749.50	13.592
749.82	12.207
750.13	14.583
750.44	10.385
750.75	12.177
751.07	17.794
751.38	18.085
751.69	11.583
752.01	18.359
752.32	12.692
752.63	21.269
752.94	15.600
753.26	16.318
753.57	18.333
753.88	17.004
754.19	19.920
754.51	11.278
754.82	13.919
755.13	10.435
755.44	15.041
755.75	11.600
756.07	8.118
756.38	16.187
756.69	17.065
757.00	19.938
757.31	13.269
757.63	15.123
757.94	19.209
758.25	19.048
758.56	18.478
758.87	16.964
759.18	16.404
759.50	17.172
759.81	20.401
760.12	19.385
760.43	14.583
760.74	16.667
761.05	15.746
761.36	14.900
761.67	18.127
761.99	13.058
762.30	14.599
762.61	17.284
762.92	20.085
763.23	15.984
763.54	15.584
763.85	15.918
764.16	12.602
764.47	14.800
764.78	16.071
765.10	18.033
765.41	18.237
765.72	14.596
766.03	11.881
766.34	16.154
766.65	11.297
766.96	19.249
767.27	19.802
767.58	10.112
767.89	16.049
768.20	9.945
768.51	20.603
768.82	17.788
769.13	11.947
769.44	14.226
769.75	11.538
770.06	17.040
770.37	14.216
770.68	16.019
770.99	11.165
771.30	14.706
771.61	16.327
771.92	19.917
772.23	14.865
772.54	10.497
772.85	23.256
773.16	16.931
773.47	8.284
773.78	18.966
774.09	16.875
774.39	19.876
774.70	17.007
775.01	8.966
775.32	20.000
775.63	6.015
775.94	8.271
776.25	3.200
776.56	10.744
776.87	15.873
777.18	0.901
777.48	12.613
777.79	15.748
778.10	7.339
778.41	3.509
778.72	10.084
779.03	4.225
779.34	16.892
779.65	15.493
779.95	15.232
780.26	10.791
780.57	13.669
780.88	11.268
781.19	5.882
781.50	19.463
781.80	18.129
782.11	13.953
782.42	22.013
782.73	13.072
783.04	13.103
783.34	4.580
783.65	12.752
783.96	13.077
784.27	17.143
784.57	21.277
784.88	1.923
785.19	22.727
785.50	12.727
785.81	10.476
786.11	15.126
786.42	15.044
786.73	6.604
787.04	7.339
787.34	5.941
787.65	13.333
787.96	3.306
788.26	15.217
788.57	7.143
788.88	14.634
789.19	8.800
789.49	10.687
789.80	19.697
790.11	6.604
790.41	5.941
790.72	20.213
791.03	-2.174
791.33	11.765
791.64	-3.704
791.95	15.217
792.25	12.500
792.56	11.538
792.87	8.974
793.17	-5.128
793.48	9.524
793.79	10.000
794.09	18.269
794.40	15.625
794.70	15.315
795.01	13.281
795.32	15.652
795.62	-8.696
795.93	-5.660
796.23	14.141
796.54	8.537
796.85	23.810
797.15	-1.515
797.46	11.594
797.76	6.579
798.07	3.409
798.37	2.439
798.68	-6.452
798.99	1.351
799.29	16.867
799.60	16.667
799.90	7.692
800.21	24.242
800.51	-1.333
800.82	12.000
801.12	-2.083
801.43	-25.000
801.73	1.351
802.04	8.571
802.34	14.754
802.65	10.448
802.95	5.455
803.26	5.172
803.56	13.846
803.87	13.208
804.17	4.839
804.48	2.941
804.78	-4.878
805.09	0.000
805.39	13.235
805.70	-31.915
806.00	-3.509
806.30	20.513
806.61	11.842
806.91	14.865
807.22	13.158
807.52	5.682
807.83	6.780
808.13	-7.576
808.43	3.333
808.74	-25.862
809.04	11.111
809.35	16.327
809.65	-1.667
809.95	-8.163
810.26	16.901
810.56	-4.167
810.86	-6.122
811.17	9.615
811.47	-2.128
811.77	0.000
812.08	9.434
812.38	-37.500
812.69	-5.455
812.99	-2.439
813.29	-16.216
813.59	-2.703
813.90	-9.091
814.20	12.727
814.50	5.000
814.81	-5.455
815.11	0.000
815.41	18.605
815.72	0.000
816.02	-5.714
816.32	-24.324
816.62	6.250
816.93	6.667
817.23	0.000
817.53	-13.889
817.84	-21.622
818.14	0.000
818.44	4.000
818.74	-2.041
819.04	26.829
819.35	0.000
819.65	-18.182
819.95	-94.444
820.25	-24.242
820.56	-16.667
820.86	11.111
821.16	-11.364
821.46	10.870
821.76	13.793
822.07	2.174
822.37	3.030
822.67	19.512
822.97	-13.514
823.27	-11.429
823.57	34.483
823.88	-23.529
824.18	-16.667
824.48	-14.286
824.78	-42.857
825.08	-35.714
825.38	-48.148
825.69	3.226
825.99	-24.390
826.29	-14.815
826.59	0.000
826.89	-19.355
827.19	-39.130
827.49	-30.556
827.79	-82.609
828.09	6.452
828.39	4.167
828.70	-46.875
829.00	20.690
829.30	8.108
829.60	-58.333
829.90	18.519
830.20	-21.875
830.50	-9.091
830.80	-111.765
831.10	-50.000
831.40	-2.941
831.70	-34.615
832.00	15.152
832.30	-20.588
832.60	-13.514
832.90	1800.000
833.20	3.571
833.50	-50.000
833.80	21.053
834.10	-54.167
834.40	-68.182
834.70	-20.000
835.00	-130.000
835.30	-45.833
835.60	-4.762
835.90	0.000
836.20	-12.000
836.50	41.667
836.80	-89.474
837.10	-5.405
837.40	16.667
837.70	-30.435
838.00	0.000
838.30	-26.316
838.60	-110.000
838.90	-160.000
839.19	-66.667
839.49	-7.692
839.79	-15.789
840.09	-116.667
840.39	-80.000
840.69	-50.000
840.99	-4.762
841.29	-16.667
841.59	-15.385
841.88	-53.333
842.18	-78.571
842.48	-6.667
842.78	-114.286
843.08	-100.000
843.38	-125.000
843.68	-56.250
843.97	28.571
844.27	-77.778
844.57	-9.091
844.87	-66.667
845.17	9.091
845.47	733.333
845.76	-66.667
846.06	-141.667
846.36	-1000.000
846.66	5.263
846.96	-13.636
847.25	-44.444
847.55	-222.222
847.85	-38.095
848.15	-84.615
848.44	-283.333
848.74	-100.000
849.04	-38.462
849.34	-150.000
849.63	-109.091
849.93	-135.714
850.23	5.000
850.53	-175.000
850.82	33.333
851.12	-60.000
851.42	-41.176
851.71	-75.000
852.01	35.294
852.31	-46.154
852.61	650.000
852.90	52.941
853.20	-60.000
853.50	-6.250
853.79	-142.857
854.09	-275.000
854.39	-15.000
854.68	-12.500
854.98	-28.571
855.28	-32.000
855.57	0.000
855.87	-16.667
856.17	-32.000
856.46	-18.750
856.76	-25.000
857.05	-4.000
857.35	-100.000
857.65	-11.765
857.94	-100.000
858.24	-83.333
858.53	-30.000
858.83	-154.545
859.13	0.000
859.42	-64.286
859.72	-212.500
860.01	12.500
860.31	-200.000
860.60	-56.250
860.90	-166.667
861.20	-200.000
861.49	-13.333
861.79	0.000
862.08	450.000
862.38	-150.000
862.67	185.714
862.97	350.000
863.26	-154.545
863.56	18.182
863.85	5.263
864.15	-47.059
864.44	-340.000
864.74	-180.000
865.03	-133.333
865.33	-14.286
865.62	185.714
865.92	-52.632
866.21	-22.222
866.51	-100.000
866.80	-211.111
867.10	-100.000
867.39	-62.500
867.69	-66.667
867.98	-50.000
868.27	-17.647
868.57	0.000
868.86	700.000
869.16	-275.000
869.45	-200.000
869.75	650.000
870.04	-70.000
870.33	-400.000
870.63	-5.263
870.92	-75.000
871.22	-1400.000
871.51	-128.571
871.80	-222.222
872.10	-450.000
>>>>>End Processed Spectral Data<<<<<
