SpectraSuite Data File
++++++++++++++++++++++++++++++++++++
Date: Wed May 13 21:45:32 PDT 2015
User: schluterlab
Dark Spectrum Present: Yes
Reference Spectrum Present: Yes
Number of Sampled Component Spectra: 1
Spectrometers: USB2E3373
Integration Time (usec): 3000 (USB2E3373)
Spectra Averaged: 3 (USB2E3373)
Boxcar Smoothing: 0 (USB2E3373)
Correct for Electrical Dark: No (USB2E3373)
Strobe/Lamp Enabled: No (USB2E3373)
Correct for Detector Non-linearity: No (USB2E3373)
Correct for Stray Light: No (USB2E3373)
Number of Pixels in Processed Spectrum: 2048
>>>>>Begin Processed Spectral Data<<<<<
178.53	0.000
178.91	800.000
179.29	175.000
179.67	-900.000
180.04	-433.333
180.42	240.000
180.80	1600.000
181.18	200.000
181.56	-325.000
181.94	-100.000
182.31	18.182
182.69	130.769
183.07	-160.000
183.45	300.000
183.83	100.000
184.20	28.571
184.58	100.000
184.96	100.000
185.34	242.857
185.72	0.000
186.09	200.000
186.47	-200.000
186.85	40.000
187.23	-200.000
187.61	600.000
187.98	1600.000
188.36	75.000
188.74	0.000
189.12	118.182
189.49	110.000
189.87	50.000
190.25	320.000
190.63	1000.000
191.00	-200.000
191.38	340.000
191.76	225.000
192.14	150.000
192.51	-26.316
192.89	333.333
193.27	250.000
193.65	-180.000
194.02	136.364
194.40	160.000
194.78	-500.000
195.15	60.000
195.53	-20.000
195.91	37.500
196.29	166.667
196.66	0.000
197.04	300.000
197.42	100.000
197.79	20.000
198.17	12.500
198.55	-133.333
198.92	75.000
199.30	-233.333
199.68	70.000
200.05	-50.000
200.43	66.667
200.81	-700.000
201.18	-120.000
201.56	-166.667
201.94	525.000
202.31	39.130
202.69	-85.714
203.07	-100.000
203.44	-340.000
203.82	-233.333
204.19	60.000
204.57	0.000
204.95	-100.000
205.32	0.000
205.70	50.000
206.08	-275.000
206.45	-250.000
206.83	125.000
207.20	-200.000
207.58	0.000
207.96	-900.000
208.33	-114.286
208.71	-2300.000
209.08	112.500
209.46	425.000
209.84	0.000
210.21	170.000
210.59	1700.000
210.96	300.000
211.34	700.000
211.71	-650.000
212.09	-100.000
212.46	-110.000
212.84	-66.667
213.22	-75.000
213.59	-200.000
213.97	-450.000
214.34	-900.000
214.72	-61.538
215.09	162.500
215.47	188.889
215.84	700.000
216.22	25.000
216.59	-100.000
216.97	500.000
217.34	33.333
217.72	0.000
218.09	333.333
218.47	0.000
218.84	-242.857
219.22	-12.500
219.59	-66.667
219.97	25.000
220.34	-75.000
220.72	-100.000
221.09	0.000
221.47	-166.667
221.84	-1000.000
222.22	0.000
222.59	300.000
222.97	-300.000
223.34	-16.667
223.72	-700.000
224.09	-450.000
224.46	45.455
224.84	100.000
225.21	-100.000
225.59	-100.000
225.96	66.667
226.34	-30.000
226.71	-242.857
227.08	800.000
227.46	-87.500
227.83	-1100.000
228.21	-56.250
228.58	-275.000
228.95	17.647
229.33	-6.250
229.70	-50.000
230.08	-7.692
230.45	25.000
230.82	-41.667
231.20	157.143
231.57	-300.000
231.95	700.000
232.32	50.000
232.69	5.882
233.07	-1300.000
233.44	-13.043
233.81	-250.000
234.19	20.833
234.56	-40.000
234.93	-6.667
235.31	-5.263
235.68	-38.462
236.05	-23.077
236.43	-5.556
236.80	9.091
237.17	-13.333
237.55	-23.529
237.92	-6.897
238.29	-11.111
238.67	44.444
239.04	16.129
239.41	19.149
239.79	53.191
240.16	37.209
240.53	8.929
240.91	26.786
241.28	23.214
241.65	46.774
242.02	14.474
242.40	27.536
242.77	28.986
243.14	37.179
243.51	28.723
243.89	30.769
244.26	49.057
244.63	32.692
245.00	31.250
245.38	31.092
245.75	28.689
246.12	34.586
246.49	34.146
246.87	28.571
247.24	35.135
247.61	36.424
247.98	42.949
248.36	36.095
248.73	32.022
249.10	35.859
249.47	32.796
249.84	39.474
250.22	37.313
250.59	34.579
250.96	40.455
251.33	28.708
251.70	33.891
252.08	38.075
252.45	37.037
252.82	37.643
253.19	38.521
253.56	35.971
253.94	36.655
254.31	37.324
254.68	40.268
255.05	36.964
255.42	34.965
255.79	38.037
256.16	38.170
256.54	38.730
256.91	36.709
257.28	38.365
257.65	34.395
258.02	33.724
258.39	37.427
258.76	38.372
259.14	40.341
259.51	37.079
259.88	34.146
260.25	37.778
260.62	37.079
260.99	41.379
261.36	36.528
261.73	35.556
262.10	36.132
262.47	35.802
262.85	35.075
263.22	38.462
263.59	36.623
263.96	38.686
264.33	36.058
264.70	37.442
265.07	38.194
265.44	37.701
265.81	39.359
266.18	37.130
266.55	37.991
266.92	35.381
267.29	36.214
267.66	36.730
268.03	38.272
268.40	33.898
268.77	37.603
269.14	37.755
269.51	38.604
269.88	37.067
270.25	37.076
270.62	35.041
270.99	36.614
271.36	39.087
271.73	36.747
272.10	35.429
272.47	36.660
272.84	37.795
273.21	38.552
273.58	38.115
273.95	36.226
274.32	39.179
274.69	37.705
275.06	38.339
275.43	35.970
275.80	36.702
276.17	36.464
276.54	36.412
276.91	36.934
277.28	35.199
277.65	35.315
278.02	37.857
278.39	37.300
278.76	36.622
279.13	35.506
279.50	34.310
279.87	36.957
280.23	38.018
280.60	36.678
280.97	34.578
281.34	37.697
281.71	34.146
282.08	36.410
282.45	38.197
282.82	36.741
283.19	35.823
283.56	34.531
283.92	35.321
284.29	35.725
284.66	35.914
285.03	35.668
285.40	34.894
285.77	35.886
286.14	36.170
286.51	36.282
286.87	32.769
287.24	34.956
287.61	36.446
287.98	33.529
288.35	35.320
288.72	36.298
289.08	35.328
289.45	33.333
289.82	34.493
290.19	35.063
290.56	33.381
290.93	32.735
291.29	33.516
291.66	34.290
292.03	34.060
292.40	33.378
292.77	36.145
293.13	34.170
293.50	32.418
293.87	32.667
294.24	33.466
294.60	31.730
294.97	34.524
295.34	32.190
295.71	31.669
296.08	33.639
296.44	33.673
296.81	31.060
297.18	33.500
297.55	32.665
297.91	33.540
298.28	31.235
298.65	32.266
299.02	33.455
299.38	32.761
299.75	32.572
300.12	31.744
300.48	31.813
300.85	30.947
301.22	32.172
301.59	32.394
301.95	31.010
302.32	32.789
302.69	31.525
303.05	31.783
303.42	32.045
303.79	32.597
304.15	32.530
304.52	33.871
304.89	31.894
305.25	30.406
305.62	34.165
305.99	31.882
306.35	33.751
306.72	32.655
307.09	31.491
307.45	32.801
307.82	33.263
308.19	32.288
308.55	32.139
308.92	32.417
309.29	33.233
309.65	33.666
310.02	32.903
310.38	33.232
310.75	33.136
311.12	35.180
311.48	33.136
311.85	34.547
312.22	35.397
312.58	34.300
312.95	36.617
313.31	35.629
313.68	35.019
314.05	36.295
314.41	35.831
314.78	36.053
315.14	35.463
315.51	36.727
315.87	35.589
316.24	35.813
316.61	36.347
316.97	35.926
317.34	36.275
317.70	38.002
318.07	37.445
318.43	39.205
318.80	37.871
319.16	38.550
319.53	38.530
319.89	39.386
320.26	40.573
320.62	40.222
320.99	40.213
321.35	38.915
321.72	39.076
322.08	40.498
322.45	41.073
322.81	41.590
323.18	40.161
323.54	41.426
323.91	42.367
324.27	42.034
324.64	42.334
325.00	42.345
325.37	43.686
325.73	42.593
326.10	45.837
326.46	45.151
326.83	44.094
327.19	44.715
327.56	45.689
327.92	43.926
328.29	45.993
328.65	46.801
329.01	46.702
329.38	47.478
329.74	46.438
330.11	46.348
330.47	47.222
330.84	47.473
331.20	46.371
331.56	47.101
331.93	47.115
332.29	47.350
332.66	44.746
333.02	47.350
333.38	47.368
333.75	47.526
334.11	47.483
334.48	47.777
334.84	48.498
335.20	46.141
335.57	47.433
335.93	45.876
336.29	47.023
336.66	45.299
337.02	48.087
337.38	46.562
337.75	46.942
338.11	45.431
338.47	46.233
338.84	45.103
339.20	46.825
339.56	46.587
339.93	46.932
340.29	46.712
340.65	47.220
341.02	45.923
341.38	45.524
341.74	45.630
342.11	45.500
342.47	45.188
342.83	44.690
343.20	47.462
343.56	45.871
343.92	45.167
344.28	47.565
344.65	46.612
345.01	46.247
345.37	46.875
345.73	47.712
346.10	45.987
346.46	46.992
346.82	46.629
347.19	45.728
347.55	46.123
347.91	45.518
348.27	45.899
348.63	46.394
349.00	46.305
349.36	47.096
349.72	44.780
350.08	45.398
350.45	47.063
350.81	45.775
351.17	46.882
351.53	46.897
351.89	45.830
352.26	45.637
352.62	46.589
352.98	46.326
353.34	46.296
353.70	46.106
354.07	46.667
354.43	46.034
354.79	47.276
355.15	47.205
355.51	45.558
355.87	46.990
356.24	47.592
356.60	46.364
356.96	46.201
357.32	46.053
357.68	45.684
358.04	46.237
358.40	46.512
358.77	47.706
359.13	48.171
359.49	46.858
359.85	47.005
360.21	46.492
360.57	47.376
360.93	47.724
361.29	47.446
361.66	46.849
362.02	46.182
362.38	47.784
362.74	46.701
363.10	47.361
363.46	46.974
363.82	46.120
364.18	47.571
364.54	48.578
364.90	47.108
365.26	47.912
365.62	47.585
365.98	47.829
366.35	47.518
366.71	47.789
367.07	48.122
367.43	47.666
367.79	47.672
368.15	48.453
368.51	47.679
368.87	48.849
369.23	48.185
369.59	48.414
369.95	49.274
370.31	48.047
370.67	48.298
371.03	49.517
371.39	48.119
371.75	49.214
372.11	48.575
372.47	49.676
372.83	49.445
373.19	49.712
373.55	48.555
373.91	48.939
374.27	49.032
374.63	48.435
374.99	48.677
375.35	48.562
375.71	48.913
376.07	49.829
376.42	48.463
376.78	50.264
377.14	50.644
377.50	49.413
377.86	49.203
378.22	49.621
378.58	49.559
378.94	49.563
379.30	49.469
379.66	50.432
380.02	50.245
380.38	50.542
380.74	50.747
381.09	50.483
381.45	49.698
381.81	49.723
382.17	49.590
382.53	50.646
382.89	50.362
383.25	50.802
383.61	50.666
383.97	51.500
384.32	50.284
384.68	49.537
385.04	50.153
385.40	51.121
385.76	50.243
386.12	50.484
386.48	50.345
386.83	49.499
387.19	51.018
387.55	50.889
387.91	52.583
388.27	50.370
388.62	50.250
388.98	51.627
389.34	51.754
389.70	50.977
390.06	50.438
390.42	50.322
390.77	50.032
391.13	51.957
391.49	51.613
391.85	50.224
392.20	51.441
392.56	52.381
392.92	51.843
393.28	51.191
393.64	51.682
393.99	49.755
394.35	50.988
394.71	52.179
395.07	49.937
395.42	51.859
395.78	51.609
396.14	51.173
396.50	53.266
396.85	53.282
397.21	50.000
397.57	50.311
397.92	50.599
398.28	51.664
398.64	50.577
399.00	50.614
399.35	52.043
399.71	51.893
400.07	51.988
400.42	51.850
400.78	51.541
401.14	50.460
401.49	51.528
401.85	51.290
402.21	51.517
402.57	50.582
402.92	51.752
403.28	51.720
403.63	51.333
403.99	51.376
404.35	52.244
404.70	51.782
405.06	51.028
405.42	50.251
405.77	50.288
406.13	50.229
406.49	51.348
406.84	50.794
407.20	50.385
407.55	50.260
407.91	49.239
408.27	48.784
408.62	51.197
408.98	50.000
409.34	50.557
409.69	50.227
410.05	50.995
410.40	49.726
410.76	50.181
411.11	50.124
411.47	51.758
411.83	49.407
412.18	51.511
412.54	50.564
412.89	50.784
413.25	50.088
413.60	51.160
413.96	50.749
414.31	50.555
414.67	49.524
415.03	51.150
415.38	48.943
415.74	51.007
416.09	51.355
416.45	49.966
416.80	49.799
417.16	49.865
417.51	50.368
417.87	50.661
418.22	50.808
418.58	50.460
418.93	50.847
419.29	51.419
419.64	50.636
420.00	51.429
420.35	50.329
420.71	50.884
421.06	49.877
421.42	52.068
421.77	50.809
422.12	51.003
422.48	50.382
422.83	50.443
423.19	50.259
423.54	51.767
423.90	50.356
424.25	50.838
424.61	52.495
424.96	51.331
425.31	49.692
425.67	53.263
426.02	52.061
426.38	52.239
426.73	50.947
427.09	51.720
427.44	51.204
427.79	51.781
428.15	50.459
428.50	50.997
428.85	51.292
429.21	49.916
429.56	51.700
429.92	52.212
430.27	50.767
430.62	51.574
430.98	51.824
431.33	50.403
431.68	52.343
432.04	52.732
432.39	50.924
432.74	51.318
433.10	52.818
433.45	50.592
433.80	51.322
434.16	50.519
434.51	51.304
434.86	52.179
435.22	52.122
435.57	51.044
435.92	50.603
436.28	51.351
436.63	51.790
436.98	52.468
437.34	51.648
437.69	51.299
438.04	50.990
438.39	52.055
438.75	51.192
439.10	52.458
439.45	51.211
439.81	52.771
440.16	52.986
440.51	50.119
440.86	51.630
441.22	51.348
441.57	51.790
441.92	52.877
442.27	51.732
442.63	51.292
442.98	51.100
443.33	53.273
443.68	49.868
444.03	52.062
444.39	52.603
444.74	51.242
445.09	51.156
445.44	51.718
445.79	51.316
446.15	51.913
446.50	52.093
446.85	52.539
447.20	51.803
447.55	51.483
447.91	50.787
448.26	51.687
448.61	50.806
448.96	50.968
449.31	51.513
449.66	50.954
450.02	51.563
450.37	51.410
450.72	50.976
451.07	52.351
451.42	50.780
451.77	51.613
452.12	50.802
452.47	51.711
452.83	51.120
453.18	52.323
453.53	49.433
453.88	50.181
454.23	50.927
454.58	50.245
454.93	49.904
455.28	50.803
455.63	50.405
455.98	51.613
456.34	49.968
456.69	50.288
457.04	50.464
457.39	49.910
457.74	51.945
458.09	50.415
458.44	50.940
458.79	49.259
459.14	49.663
459.49	50.244
459.84	49.775
460.19	49.940
460.54	50.791
460.89	50.394
461.24	50.925
461.59	51.570
461.94	51.201
462.29	49.755
462.64	49.604
462.99	50.704
463.34	49.378
463.69	50.451
464.04	48.679
464.39	49.725
464.74	49.509
465.09	50.155
465.44	49.832
465.79	50.259
466.14	50.114
466.49	50.323
466.84	49.611
467.19	49.172
467.54	50.486
467.89	49.780
468.24	50.215
468.59	49.458
468.94	50.383
469.29	49.967
469.64	51.046
469.99	49.172
470.34	47.808
470.68	47.955
471.03	49.365
471.38	47.010
471.73	48.834
472.08	48.935
472.43	49.208
472.78	49.087
473.13	46.768
473.48	48.924
473.83	49.027
474.17	48.307
474.52	50.356
474.87	49.216
475.22	49.940
475.57	49.136
475.92	48.146
476.27	48.601
476.61	49.037
476.96	48.886
477.31	48.382
477.66	48.644
478.01	48.407
478.36	48.937
478.70	47.905
479.05	48.391
479.40	48.310
479.75	49.203
480.10	49.159
480.45	47.278
480.79	48.780
481.14	49.747
481.49	49.482
481.84	48.256
482.19	48.680
482.53	49.190
482.88	48.035
483.23	48.653
483.58	49.291
483.92	48.152
484.27	47.758
484.62	47.581
484.97	47.988
485.31	48.555
485.66	47.122
486.01	48.590
486.36	48.618
486.70	48.441
487.05	48.691
487.40	48.844
487.75	48.808
488.09	47.576
488.44	47.774
488.79	48.410
489.13	47.833
489.48	47.456
489.83	46.539
490.17	47.980
490.52	48.714
490.87	47.195
491.22	47.527
491.56	47.580
491.91	46.567
492.26	47.244
492.60	47.186
492.95	48.348
493.30	47.384
493.64	46.715
493.99	47.295
494.34	47.206
494.68	47.017
495.03	46.690
495.37	46.472
495.72	47.268
496.07	47.930
496.41	46.420
496.76	47.623
497.11	46.244
497.45	47.568
497.80	47.804
498.14	47.859
498.49	47.151
498.84	48.026
499.18	47.237
499.53	46.627
499.87	46.628
500.22	46.391
500.56	47.693
500.91	47.988
501.26	47.291
501.60	46.176
501.95	45.807
502.29	47.524
502.64	47.396
502.98	45.713
503.33	46.521
503.67	47.760
504.02	46.176
504.36	46.310
504.71	46.087
505.06	46.969
505.40	47.268
505.75	46.592
506.09	45.835
506.44	45.917
506.78	46.115
507.13	45.998
507.47	46.341
507.82	45.892
508.16	46.966
508.51	46.488
508.85	45.308
509.19	45.926
509.54	46.327
509.88	47.581
510.23	45.842
510.57	47.087
510.92	46.552
511.26	45.930
511.61	46.762
511.95	45.921
512.30	46.308
512.64	47.560
512.98	45.596
513.33	46.704
513.67	46.678
514.02	47.777
514.36	45.337
514.70	46.247
515.05	47.572
515.39	46.403
515.74	46.714
516.08	44.956
516.42	44.700
516.77	46.749
517.11	46.032
517.46	46.999
517.80	45.642
518.14	45.193
518.49	45.208
518.83	45.704
519.17	45.542
519.52	45.959
519.86	46.812
520.20	45.179
520.55	46.393
520.89	45.225
521.23	46.474
521.58	47.472
521.92	45.820
522.26	45.869
522.61	45.443
522.95	45.855
523.29	45.143
523.64	46.345
523.98	45.299
524.32	44.549
524.66	47.013
525.01	45.478
525.35	45.820
525.69	45.593
526.04	44.430
526.38	44.997
526.72	45.431
527.06	45.261
527.41	45.268
527.75	43.591
528.09	46.154
528.43	47.083
528.78	45.155
529.12	46.184
529.46	45.809
529.80	44.337
530.15	44.659
530.49	46.159
530.83	45.565
531.17	45.959
531.51	43.425
531.86	44.512
532.20	44.935
532.54	45.103
532.88	43.022
533.22	45.589
533.57	44.371
533.91	45.548
534.25	45.964
534.59	43.501
534.93	45.599
535.27	45.096
535.62	44.803
535.96	44.567
536.30	45.279
536.64	44.566
536.98	44.779
537.32	43.630
537.66	45.698
538.01	43.065
538.35	43.923
538.69	43.144
539.03	43.960
539.37	42.991
539.71	45.225
540.05	42.780
540.39	43.565
540.73	45.601
541.07	43.946
541.42	44.579
541.76	44.723
542.10	43.331
542.44	44.144
542.78	44.275
543.12	44.003
543.46	43.815
543.80	44.263
544.14	44.873
544.48	42.999
544.82	44.452
545.16	44.084
545.50	44.632
545.84	43.899
546.18	42.987
546.52	44.390
546.86	42.332
547.20	42.959
547.54	44.746
547.88	43.252
548.22	44.365
548.56	43.562
548.90	44.790
549.24	43.542
549.58	42.349
549.92	42.627
550.26	44.945
550.60	43.994
550.94	43.582
551.28	43.225
551.62	42.932
551.96	42.606
552.30	41.776
552.64	42.161
552.98	44.318
553.32	43.691
553.66	45.415
554.00	42.909
554.34	44.029
554.68	44.295
555.02	44.162
555.36	43.949
555.69	42.462
556.03	43.102
556.37	42.603
556.71	43.658
557.05	41.697
557.39	42.050
557.73	42.814
558.07	42.803
558.41	43.528
558.75	42.186
559.08	41.860
559.42	43.116
559.76	42.202
560.10	43.274
560.44	43.626
560.78	42.518
561.12	42.887
561.45	41.769
561.79	42.710
562.13	42.827
562.47	42.571
562.81	41.486
563.15	43.059
563.48	43.152
563.82	42.339
564.16	42.857
564.50	43.691
564.84	42.432
565.17	42.914
565.51	43.249
565.85	41.639
566.19	42.053
566.52	41.547
566.86	41.403
567.20	42.395
567.54	40.818
567.88	41.713
568.21	42.097
568.55	42.149
568.89	42.173
569.23	42.438
569.56	42.303
569.90	42.830
570.24	42.202
570.57	41.965
570.91	42.577
571.25	43.057
571.59	41.040
571.92	42.476
572.26	42.530
572.60	42.716
572.93	42.081
573.27	41.907
573.61	42.499
573.95	42.226
574.28	42.769
574.62	42.459
574.96	42.963
575.29	42.778
575.63	42.492
575.97	42.880
576.30	41.630
576.64	42.468
576.98	42.003
577.31	42.015
577.65	41.727
577.98	42.355
578.32	42.562
578.66	42.962
578.99	42.559
579.33	41.879
579.67	42.363
580.00	41.466
580.34	41.929
580.67	42.406
581.01	41.861
581.35	41.891
581.68	42.211
582.02	42.378
582.35	42.521
582.69	42.435
583.02	41.552
583.36	41.649
583.70	42.007
584.03	41.979
584.37	41.557
584.70	41.864
585.04	41.986
585.37	42.382
585.71	41.968
586.04	42.080
586.38	41.305
586.72	41.669
587.05	41.653
587.39	42.330
587.72	42.580
588.06	42.161
588.39	41.282
588.73	42.058
589.06	41.804
589.40	41.348
589.73	40.568
590.07	40.357
590.40	40.931
590.73	41.613
591.07	40.869
591.40	40.522
591.74	41.129
592.07	41.625
592.41	40.841
592.74	40.664
593.08	40.615
593.41	41.779
593.75	40.730
594.08	40.691
594.41	41.280
594.75	40.930
595.08	40.441
595.42	40.265
595.75	41.215
596.09	40.377
596.42	39.828
596.75	40.412
597.09	41.265
597.42	41.947
597.75	40.622
598.09	41.075
598.42	40.492
598.76	41.184
599.09	41.297
599.42	40.823
599.76	41.720
600.09	40.964
600.42	40.339
600.76	41.057
601.09	39.623
601.42	40.847
601.76	40.270
602.09	40.373
602.42	41.024
602.76	40.646
603.09	40.821
603.42	41.383
603.76	40.218
604.09	39.526
604.42	40.268
604.76	40.419
605.09	40.507
605.42	41.520
605.75	39.358
606.09	39.114
606.42	39.817
606.75	39.654
607.09	39.716
607.42	40.236
607.75	38.643
608.08	40.171
608.42	39.784
608.75	40.707
609.08	40.764
609.41	39.990
609.75	39.082
610.08	39.152
610.41	39.990
610.74	39.028
611.07	39.279
611.41	39.509
611.74	39.493
612.07	38.822
612.40	39.730
612.73	40.176
613.07	38.747
613.40	39.317
613.73	39.653
614.06	38.695
614.39	38.077
614.72	38.423
615.06	38.833
615.39	39.790
615.72	38.715
616.05	39.133
616.38	38.144
616.71	37.732
617.05	39.373
617.38	39.125
617.71	38.051
618.04	38.940
618.37	40.252
618.70	38.939
619.03	37.182
619.36	37.509
619.69	37.135
620.03	37.173
620.36	38.692
620.69	37.045
621.02	36.769
621.35	37.367
621.68	36.349
622.01	37.945
622.34	36.241
622.67	38.293
623.00	37.082
623.33	37.622
623.66	36.357
623.99	37.359
624.32	37.711
624.65	39.243
624.99	37.032
625.32	37.565
625.65	37.442
625.98	37.915
626.31	38.204
626.64	37.747
626.97	37.370
627.30	36.356
627.63	36.332
627.96	35.325
628.29	38.419
628.62	36.750
628.95	36.273
629.28	36.552
629.61	37.129
629.94	36.750
630.26	36.552
630.59	36.464
630.92	35.944
631.25	36.251
631.58	35.974
631.91	36.267
632.24	34.358
632.57	35.222
632.90	34.656
633.23	34.892
633.56	35.971
633.89	34.569
634.22	34.158
634.55	37.393
634.88	34.559
635.20	36.375
635.53	35.659
635.86	35.513
636.19	35.236
636.52	35.488
636.85	36.309
637.18	33.496
637.51	35.331
637.83	34.856
638.16	34.000
638.49	33.511
638.82	33.856
639.15	35.372
639.48	35.829
639.81	33.611
640.13	36.056
640.46	33.898
640.79	35.396
641.12	32.840
641.45	34.789
641.77	33.137
642.10	35.552
642.43	36.950
642.76	34.069
643.09	32.907
643.41	33.812
643.74	34.572
644.07	34.628
644.40	34.826
644.73	31.525
645.05	35.079
645.38	29.734
645.71	35.374
646.04	31.818
646.36	33.160
646.69	32.168
647.02	32.969
647.35	33.638
647.67	31.978
648.00	34.420
648.33	33.220
648.66	33.890
648.98	33.851
649.31	32.822
649.64	33.803
649.96	37.441
650.29	31.373
650.62	32.290
650.94	30.517
651.27	31.979
651.60	34.615
651.92	33.692
652.25	33.166
652.58	34.653
652.90	34.512
653.23	31.409
653.56	32.727
653.88	32.423
654.21	30.887
654.54	33.887
654.86	31.057
655.19	32.633
655.52	37.718
655.84	38.876
656.17	46.970
656.49	61.831
656.82	59.830
657.15	44.449
657.47	32.563
657.80	24.268
658.13	25.104
658.45	36.574
658.78	35.937
659.10	35.026
659.43	34.834
659.75	35.403
660.08	33.655
660.41	32.150
660.73	30.992
661.06	30.952
661.38	31.395
661.71	30.943
662.03	31.078
662.36	32.522
662.68	31.613
663.01	30.720
663.33	31.317
663.66	29.933
663.98	28.989
664.31	32.967
664.63	27.703
664.96	32.166
665.28	31.974
665.61	31.749
665.93	33.833
666.26	34.810
666.58	29.550
666.91	33.184
667.23	29.954
667.56	28.966
667.88	29.673
668.21	27.232
668.53	33.333
668.86	30.216
669.18	30.496
669.50	31.336
669.83	30.549
670.15	29.762
670.48	32.184
670.80	34.792
671.13	30.206
671.45	30.594
671.77	30.603
672.10	31.189
672.42	32.824
672.75	29.821
673.07	32.182
673.39	32.463
673.72	32.735
674.04	29.508
674.37	30.285
674.69	29.835
675.01	30.556
675.34	32.385
675.66	30.719
675.98	31.637
676.31	29.186
676.63	32.426
676.95	29.882
677.28	29.587
677.60	34.314
677.92	30.820
678.25	33.406
678.57	31.568
678.89	28.358
679.22	29.814
679.54	31.224
679.86	30.859
680.18	31.923
680.51	29.038
680.83	28.850
681.15	31.041
681.48	29.259
681.80	30.879
682.12	29.375
682.44	29.376
682.77	27.158
683.09	28.795
683.41	30.930
683.73	27.679
684.06	29.867
684.38	30.342
684.70	27.088
685.02	32.438
685.34	31.703
685.67	30.206
685.99	32.918
686.31	29.655
686.63	32.353
686.96	31.540
687.28	26.747
687.60	31.947
687.92	30.156
688.24	29.800
688.56	33.333
688.89	30.067
689.21	29.821
689.53	30.405
689.85	29.213
690.17	30.110
690.49	30.676
690.82	27.446
691.14	28.986
691.46	32.483
691.78	29.890
692.10	30.149
692.42	28.791
692.74	29.783
693.06	27.865
693.39	26.230
693.71	31.111
694.03	31.591
694.35	30.856
694.67	28.750
694.99	29.639
695.31	30.749
695.63	30.488
695.95	26.209
696.27	27.671
696.59	29.301
696.91	31.564
697.23	30.457
697.56	32.854
697.88	32.225
698.20	32.613
698.52	28.738
698.84	31.340
699.16	29.314
699.48	27.654
699.80	34.625
700.12	32.976
700.44	29.577
700.76	25.281
701.08	29.607
701.40	29.940
701.72	28.615
702.04	24.528
702.36	28.963
702.68	26.220
703.00	33.041
703.32	24.513
703.64	28.614
703.96	31.085
704.28	26.506
704.60	30.793
704.91	24.138
705.23	25.316
705.55	26.552
705.87	26.056
706.19	27.106
706.51	32.746
706.83	24.841
707.15	28.659
707.47	28.650
707.79	30.457
708.11	26.478
708.43	29.442
708.74	28.191
709.06	28.342
709.38	31.124
709.70	30.030
710.02	27.103
710.34	27.667
710.66	28.990
710.98	27.864
711.29	26.299
711.61	26.774
711.93	25.806
712.25	23.776
712.57	24.912
712.89	26.740
713.20	26.596
713.52	25.912
713.84	24.194
714.16	29.126
714.48	29.114
714.80	26.837
715.11	31.395
715.43	25.776
715.75	30.124
716.07	29.819
716.39	30.303
716.70	28.058
717.02	24.314
717.34	25.379
717.66	24.569
717.97	24.206
718.29	26.772
718.61	26.609
718.93	25.194
719.24	27.675
719.56	25.468
719.88	23.881
720.20	26.877
720.51	25.781
720.83	28.405
721.15	26.016
721.46	26.718
721.78	25.498
722.10	23.506
722.42	27.016
722.73	23.552
723.05	29.388
723.37	25.210
723.68	25.200
724.00	20.851
724.32	19.247
724.63	27.160
724.95	23.077
725.27	32.068
725.58	28.395
725.90	29.707
726.22	26.812
726.53	27.059
726.85	27.372
727.16	28.148
727.48	32.950
727.80	26.172
728.11	26.230
728.43	29.688
728.74	27.381
729.06	24.400
729.38	26.087
729.69	27.758
730.01	27.509
730.32	26.937
730.64	24.621
730.96	28.671
731.27	25.753
731.59	26.984
731.90	31.715
732.22	25.000
732.53	28.378
732.85	24.497
733.16	29.043
733.48	25.676
733.80	30.068
734.11	28.041
734.43	27.245
734.74	30.030
735.06	27.089
735.37	30.091
735.69	28.155
736.00	27.723
736.32	28.014
736.63	27.931
736.95	29.452
737.26	24.828
737.58	31.944
737.89	30.584
738.21	28.470
738.52	24.335
738.83	29.388
739.15	26.160
739.46	25.292
739.78	24.296
740.09	29.452
740.41	24.286
740.72	19.149
741.04	22.800
741.35	24.561
741.66	30.222
741.98	23.558
742.29	32.178
742.61	25.854
742.92	25.439
743.23	22.642
743.55	26.126
743.86	25.112
744.18	20.098
744.49	23.858
744.80	23.469
745.12	24.766
745.43	24.645
745.74	20.721
746.06	16.355
746.37	26.606
746.68	21.635
747.00	27.273
747.31	28.846
747.62	20.183
747.94	24.454
748.25	28.440
748.56	27.111
748.88	26.761
749.19	25.714
749.50	17.476
749.82	21.596
750.13	27.083
750.44	26.538
750.75	23.985
751.07	30.961
751.38	26.596
751.69	28.185
752.01	26.953
752.32	23.077
752.63	29.104
752.94	24.000
753.26	25.105
753.57	28.750
753.88	29.150
754.19	25.498
754.51	25.188
754.82	25.641
755.13	20.435
755.44	27.236
755.75	26.000
756.07	23.247
756.38	25.180
756.69	25.939
757.00	23.364
757.31	30.097
757.63	28.395
757.94	27.119
758.25	30.159
758.56	28.804
758.87	29.464
759.18	26.814
759.50	23.232
759.81	26.087
760.12	29.846
760.43	24.405
760.74	26.554
761.05	29.834
761.36	24.928
761.67	25.378
761.99	22.680
762.30	24.453
762.61	22.222
762.92	23.932
763.23	31.557
763.54	31.169
763.85	23.673
764.16	26.016
764.47	24.800
764.78	26.429
765.10	26.230
765.41	27.964
765.72	28.261
766.03	26.733
766.34	24.615
766.65	23.013
766.96	23.944
767.27	28.218
767.58	17.416
767.89	26.543
768.20	24.862
768.51	21.608
768.82	25.000
769.13	27.434
769.44	28.870
769.75	21.795
770.06	26.457
770.37	21.569
770.68	24.757
770.99	24.272
771.30	27.731
771.61	24.082
771.92	29.046
772.23	23.423
772.54	19.890
772.85	19.186
773.16	22.222
773.47	16.568
773.78	36.207
774.09	18.750
774.39	24.224
774.70	19.048
775.01	21.379
775.32	35.000
775.63	21.805
775.94	21.805
776.25	7.200
776.56	28.926
776.87	28.571
777.18	20.721
777.48	26.126
777.79	22.835
778.10	23.853
778.41	14.035
778.72	16.807
779.03	23.944
779.34	25.676
779.65	26.056
779.95	25.828
780.26	22.302
780.57	24.460
780.88	20.423
781.19	20.168
781.50	23.490
781.80	22.807
782.11	17.442
782.42	32.075
782.73	28.758
783.04	22.759
783.34	27.481
783.65	20.134
783.96	19.231
784.27	25.714
784.57	22.695
784.88	16.346
785.19	30.000
785.50	17.273
785.81	29.524
786.11	24.370
786.42	24.779
786.73	19.811
787.04	6.422
787.34	20.792
787.65	27.500
787.96	24.793
788.26	19.565
788.57	15.079
788.88	25.203
789.19	15.200
789.49	15.267
789.80	28.030
790.11	19.811
790.41	23.762
790.72	22.340
791.03	20.652
791.33	4.706
791.64	11.111
791.95	21.739
792.25	11.364
792.56	34.615
792.87	14.103
793.17	7.692
793.48	11.905
793.79	13.750
794.09	24.038
794.40	28.125
794.70	22.523
795.01	25.781
795.32	22.609
795.62	10.870
795.93	20.755
796.23	19.192
796.54	12.195
796.85	9.524
797.15	13.636
797.46	2.899
797.76	5.263
798.07	19.318
798.37	15.854
798.68	1.613
798.99	10.811
799.29	20.482
799.60	11.538
799.90	-3.077
800.21	34.848
800.51	21.333
800.82	17.333
801.12	4.167
801.43	0.000
801.73	13.514
802.04	27.143
802.34	9.836
802.65	16.418
802.95	12.727
803.26	15.517
803.56	20.000
803.87	7.547
804.17	17.742
804.48	16.176
804.78	9.756
805.09	-1.449
805.39	17.647
805.70	-17.021
806.00	-5.263
806.30	28.205
806.61	15.789
806.91	10.811
807.22	6.579
807.52	26.136
807.83	-6.780
808.13	1.515
808.43	5.000
808.74	1.724
809.04	25.397
809.35	12.245
809.65	1.667
809.95	-24.490
810.26	14.085
810.56	14.583
810.86	-4.082
811.17	11.538
811.47	-6.383
811.77	-4.167
812.08	9.434
812.38	28.125
812.69	-1.818
812.99	9.756
813.29	-16.216
813.59	-10.811
813.90	-1.818
814.20	20.000
814.50	10.000
814.81	0.000
815.11	8.772
815.41	25.581
815.72	27.500
816.02	8.571
816.32	24.324
816.62	25.000
816.93	2.222
817.23	-8.889
817.53	5.556
817.84	-10.811
818.14	14.634
818.44	24.000
818.74	6.122
819.04	9.756
819.35	-16.667
819.65	29.545
819.95	-94.444
820.25	-6.061
820.56	-2.381
820.86	13.889
821.16	-25.000
821.46	2.174
821.76	22.414
822.07	17.391
822.37	9.091
822.67	34.146
822.97	0.000
823.27	-5.714
823.57	27.586
823.88	17.647
824.18	19.444
824.48	11.429
824.78	-38.095
825.08	-3.571
825.38	22.222
825.69	19.355
825.99	26.829
826.29	7.407
826.59	-31.250
826.89	6.452
827.19	0.000
827.49	-2.778
827.79	-65.217
828.09	9.677
828.39	14.583
828.70	12.500
829.00	10.345
829.30	13.514
829.60	-16.667
829.90	-11.111
830.20	-3.125
830.50	-13.636
830.80	-123.529
831.10	-27.273
831.40	2.941
831.70	26.923
832.00	15.152
832.30	0.000
832.60	16.216
832.90	800.000
833.20	10.714
833.50	-75.000
833.80	-2.632
834.10	-37.500
834.40	-9.091
834.70	-60.000
835.00	60.000
835.30	-12.500
835.60	-4.762
835.90	-9.524
836.20	-4.000
836.50	-4.167
836.80	-63.158
837.10	0.000
837.40	0.000
837.70	-4.348
838.00	29.167
838.30	-36.842
838.60	-190.000
838.90	-200.000
839.19	-66.667
839.49	-23.077
839.79	-15.789
840.09	-283.333
840.39	-140.000
840.69	-31.818
840.99	-4.762
841.29	-4.167
841.59	7.692
841.88	-86.667
842.18	-28.571
842.48	6.667
842.78	-200.000
843.08	-14.286
843.38	0.000
843.68	-18.750
843.97	7.143
844.27	-211.111
844.57	-81.818
844.87	-113.333
845.17	-4.545
845.47	600.000
845.76	-33.333
846.06	-125.000
846.36	-800.000
846.66	-10.526
846.96	-27.273
847.25	-33.333
847.55	-100.000
847.85	-47.619
848.15	23.077
848.44	-150.000
848.74	-75.000
849.04	-92.308
849.34	-450.000
849.63	-45.455
849.93	-71.429
850.23	25.000
850.53	-162.500
850.82	-33.333
851.12	-13.333
851.42	17.647
851.71	-162.500
852.01	-17.647
852.31	-23.077
852.61	300.000
852.90	17.647
853.20	-33.333
853.50	-31.250
853.79	-142.857
854.09	-25.000
854.39	-85.000
854.68	-10.000
854.98	-33.333
855.28	28.000
855.57	12.500
855.87	-8.333
856.17	-36.000
856.46	3.125
856.76	-30.000
857.05	16.000
857.35	-100.000
857.65	-11.765
857.94	-83.333
858.24	-33.333
858.53	-35.000
858.83	-127.273
859.13	-4.000
859.42	-71.429
859.72	-25.000
860.01	-37.500
860.31	-212.500
860.60	-56.250
860.90	-266.667
861.20	-133.333
861.49	-20.000
861.79	6.250
862.08	50.000
862.38	-175.000
862.67	300.000
862.97	200.000
863.26	-190.909
863.56	9.091
863.85	-10.526
864.15	-23.529
864.44	-240.000
864.74	-120.000
865.03	-77.778
865.33	-35.714
865.62	78.571
865.92	-15.789
866.21	-50.000
866.51	-81.818
866.80	-122.222
867.10	-175.000
867.39	-12.500
867.69	-66.667
867.98	-70.000
868.27	-11.765
868.57	0.000
868.86	950.000
869.16	-275.000
869.45	-214.286
869.75	-200.000
870.04	-10.000
870.33	-300.000
870.63	26.316
870.92	-41.667
871.22	-900.000
871.51	-114.286
871.80	-155.556
872.10	-200.000
>>>>>End Processed Spectral Data<<<<<
