SpectraSuite Data File
++++++++++++++++++++++++++++++++++++
Date: Tue May 12 16:53:03 PDT 2015
User: schluterlab
Dark Spectrum Present: Yes
Reference Spectrum Present: Yes
Number of Sampled Component Spectra: 1
Spectrometers: USB2E3373
Integration Time (usec): 3000 (USB2E3373)
Spectra Averaged: 3 (USB2E3373)
Boxcar Smoothing: 0 (USB2E3373)
Correct for Electrical Dark: No (USB2E3373)
Strobe/Lamp Enabled: No (USB2E3373)
Correct for Detector Non-linearity: No (USB2E3373)
Correct for Stray Light: No (USB2E3373)
Number of Pixels in Processed Spectrum: 2048
>>>>>Begin Processed Spectral Data<<<<<
178.53	0.000
178.91	-216.667
179.29	-875.000
179.67	-3500.000
180.04	-153.333
180.42	825.000
180.80	1500.000
181.18	0.000
181.56	-262.500
181.94	0.000
182.31	1233.333
182.69	-3400.000
183.07	571.429
183.45	-4200.000
183.83	-1750.000
184.20	370.000
184.58	557.143
184.96	-230.769
185.34	-125.000
185.72	1550.000
186.09	-825.000
186.47	-3300.000
186.85	1100.000
187.23	560.000
187.61	1850.000
187.98	525.000
188.36	285.714
188.74	358.333
189.12	350.000
189.49	675.000
189.87	0.000
190.25	462.500
190.63	1700.000
191.00	-233.333
191.38	-3500.000
191.76	-675.000
192.14	462.500
192.51	-2200.000
192.89	1300.000
193.27	933.333
193.65	-1133.333
194.02	-800.000
194.40	728.571
194.78	-264.286
195.15	240.000
195.53	-3200.000
195.91	-680.000
196.29	4300.000
196.66	268.750
197.04	950.000
197.42	-1400.000
197.79	700.000
198.17	308.333
198.55	0.000
198.92	542.857
199.30	1133.333
199.68	1900.000
200.05	816.667
200.43	-483.333
200.81	233.333
201.18	3100.000
201.56	266.667
201.94	-750.000
202.31	-450.000
202.69	-620.000
203.07	2600.000
203.44	-633.333
203.82	283.333
204.19	800.000
204.57	-1200.000
204.95	-750.000
205.32	-580.000
205.70	516.667
206.08	825.000
206.45	-800.000
206.83	355.556
207.20	163.158
207.58	391.667
207.96	720.000
208.33	0.000
208.71	642.857
209.08	700.000
209.46	-4100.000
209.84	-875.000
210.21	860.000
210.59	-600.000
210.96	333.333
211.34	-725.000
211.71	345.455
212.09	650.000
212.46	1650.000
212.84	-366.667
213.22	433.333
213.59	-2600.000
213.97	300.000
214.34	1000.000
214.72	1233.333
215.09	966.667
215.47	-2600.000
215.84	-360.000
216.22	-412.500
216.59	0.000
216.97	0.000
217.34	1300.000
217.72	-1600.000
218.09	1333.333
218.47	512.500
218.84	800.000
219.22	1133.333
219.59	1333.333
219.97	528.571
220.34	377.778
220.72	1450.000
221.09	4200.000
221.47	291.667
221.84	900.000
222.22	250.000
222.59	222.222
222.97	185.714
223.34	237.500
223.72	-1850.000
224.09	1100.000
224.46	276.923
224.84	-725.000
225.21	400.000
225.59	246.667
225.96	1033.333
226.34	-440.000
226.71	-475.000
227.08	-480.000
227.46	0.000
227.83	-550.000
228.21	-1800.000
228.58	400.000
228.95	750.000
229.33	411.111
229.70	975.000
230.08	338.462
230.45	3600.000
230.82	-900.000
231.20	-966.667
231.57	-1266.667
231.95	660.000
232.32	308.333
232.69	566.667
233.07	291.667
233.44	-1250.000
233.81	226.667
234.19	166.667
234.56	212.500
234.93	135.294
235.31	200.000
235.68	275.000
236.05	142.857
236.43	125.926
236.80	235.714
237.17	148.276
237.55	87.500
237.92	122.500
238.29	145.455
238.67	96.875
239.04	126.829
239.41	66.667
239.79	102.500
240.16	70.833
240.53	70.492
240.91	71.014
241.28	67.797
241.65	62.121
242.02	59.155
242.40	74.286
242.77	52.747
243.14	49.367
243.51	62.626
243.89	51.402
244.26	44.860
244.63	44.554
245.00	46.789
245.38	32.203
245.75	44.697
246.12	46.667
246.49	33.333
246.87	33.607
247.24	36.667
247.61	39.375
247.98	34.694
248.36	29.697
248.73	34.694
249.10	33.929
249.47	33.000
249.84	30.846
250.22	29.189
250.59	30.500
250.96	32.068
251.33	29.767
251.70	26.786
252.08	31.933
252.45	28.287
252.82	26.996
253.19	26.877
253.56	25.769
253.94	28.623
254.31	26.744
254.68	21.603
255.05	29.310
255.42	25.182
255.79	25.407
256.16	25.424
256.54	27.273
256.91	21.895
257.28	23.746
257.65	20.376
258.02	22.419
258.39	25.215
258.76	24.348
259.14	19.714
259.51	24.198
259.88	21.581
260.25	22.253
260.62	24.658
260.99	20.386
261.36	22.841
261.73	22.074
262.10	22.251
262.47	19.750
262.85	20.800
263.22	22.365
263.59	20.205
263.96	22.807
264.33	20.000
264.70	23.096
265.07	19.268
265.44	21.101
265.81	20.755
266.18	21.281
266.55	19.149
266.92	19.239
267.29	21.272
267.66	18.610
268.03	17.489
268.40	18.393
268.77	20.485
269.14	14.967
269.51	18.931
269.88	22.041
270.25	18.359
270.62	17.382
270.99	22.110
271.36	17.683
271.73	18.449
272.10	18.788
272.47	17.063
272.84	17.764
273.21	17.975
273.58	19.433
273.95	17.659
274.32	19.066
274.69	18.898
275.06	19.126
275.43	20.498
275.80	17.547
276.17	18.199
276.54	19.439
276.91	16.604
277.28	18.066
277.65	18.635
278.02	17.279
278.39	18.345
278.76	16.379
279.13	16.370
279.50	16.545
279.87	16.387
280.23	15.470
280.60	18.613
280.97	18.276
281.34	16.997
281.71	18.609
282.08	18.462
282.45	16.554
282.82	17.391
283.19	16.375
283.56	17.190
283.92	16.938
284.29	17.804
284.66	17.143
285.03	17.579
285.40	17.851
285.77	17.747
286.14	20.124
286.51	16.718
286.87	17.405
287.24	16.817
287.61	17.629
287.98	17.463
288.35	17.481
288.72	16.388
289.08	17.417
289.45	19.665
289.82	18.750
290.19	17.862
290.56	19.942
290.93	18.129
291.29	18.508
291.66	19.350
292.03	17.111
292.40	19.106
292.77	18.802
293.13	19.401
293.50	18.219
293.87	17.751
294.24	19.860
294.60	20.996
294.97	21.399
295.34	20.319
295.71	20.105
296.08	20.400
296.44	21.982
296.81	20.223
297.18	19.392
297.55	19.828
297.91	19.335
298.28	20.652
298.65	19.509
299.02	21.110
299.38	21.343
299.75	19.146
300.12	21.101
300.48	20.492
300.85	21.812
301.22	19.767
301.59	19.693
301.95	20.420
302.32	20.955
302.69	21.380
303.05	21.100
303.42	20.404
303.79	19.935
304.15	19.802
304.52	21.353
304.89	20.682
305.25	22.136
305.62	22.495
305.99	21.304
306.35	22.316
306.72	22.164
307.09	21.222
307.45	21.436
307.82	22.016
308.19	22.577
308.55	20.800
308.92	22.375
309.29	23.176
309.65	22.200
310.02	22.211
310.38	21.535
310.75	21.890
311.12	21.169
311.48	23.359
311.85	22.710
312.22	23.782
312.58	22.449
312.95	23.592
313.31	23.127
313.68	23.358
314.05	22.894
314.41	23.650
314.78	24.148
315.14	23.886
315.51	24.314
315.87	23.631
316.24	23.623
316.61	22.739
316.97	22.385
317.34	23.810
317.70	24.495
318.07	25.267
318.43	24.956
318.80	24.168
319.16	25.612
319.53	24.336
319.89	23.656
320.26	26.816
320.62	25.092
320.99	24.786
321.35	25.788
321.72	26.850
322.08	25.762
322.45	24.886
322.81	24.794
323.18	25.666
323.54	26.568
323.91	26.201
324.27	25.818
324.64	25.606
325.00	27.069
325.37	25.717
325.73	26.054
326.10	27.589
326.46	26.177
326.83	25.840
327.19	27.470
327.56	26.358
327.92	28.279
328.29	28.314
328.65	27.483
329.01	27.630
329.38	27.750
329.74	26.815
330.11	27.020
330.47	28.133
330.84	26.230
331.20	26.058
331.56	27.979
331.93	27.032
332.29	25.595
332.66	26.956
333.02	26.375
333.38	26.440
333.75	26.439
334.11	27.097
334.48	26.581
334.84	24.578
335.20	26.262
335.57	25.693
335.93	25.063
336.29	26.451
336.66	26.930
337.02	26.091
337.38	24.764
337.75	24.916
338.11	26.076
338.47	25.318
338.84	24.471
339.20	24.589
339.56	25.147
339.93	25.669
340.29	24.202
340.65	25.314
341.02	25.583
341.38	25.205
341.74	24.252
342.11	23.456
342.47	23.790
342.83	25.021
343.20	24.980
343.56	23.114
343.92	24.525
344.28	24.960
344.65	25.265
345.01	23.571
345.37	24.279
345.73	24.603
346.10	24.382
346.46	25.359
346.82	23.997
347.19	24.343
347.55	23.341
347.91	23.565
348.27	23.315
348.63	23.813
349.00	23.458
349.36	23.268
349.72	24.235
350.08	24.224
350.45	23.382
350.81	22.554
351.17	23.421
351.53	22.941
351.89	22.999
352.26	24.263
352.62	23.002
352.98	23.696
353.34	24.422
353.70	23.394
354.07	22.923
354.43	23.502
354.79	22.551
355.15	24.502
355.51	23.036
355.87	23.042
356.24	22.556
356.60	21.385
356.96	22.290
357.32	22.909
357.68	23.054
358.04	23.404
358.40	23.013
358.77	23.366
359.13	21.471
359.49	22.832
359.85	22.338
360.21	21.471
360.57	21.533
360.93	22.222
361.29	21.212
361.66	23.266
362.02	21.165
362.38	22.367
362.74	21.515
363.10	21.529
363.46	21.340
363.82	22.370
364.18	21.977
364.54	22.031
364.90	22.825
365.26	21.929
365.62	22.099
365.98	21.473
366.35	20.345
366.71	21.999
367.07	22.321
367.43	21.760
367.79	22.207
368.15	21.167
368.51	21.089
368.87	21.264
369.23	21.206
369.59	20.566
369.95	22.098
370.31	21.492
370.67	20.680
371.03	22.619
371.39	21.330
371.75	19.958
372.11	21.686
372.47	22.260
372.83	22.026
373.19	21.864
373.55	21.787
373.91	20.511
374.27	21.362
374.63	21.763
374.99	21.496
375.35	21.505
375.71	21.108
376.07	20.358
376.42	20.269
376.78	21.516
377.14	20.904
377.50	20.724
377.86	20.179
378.22	20.719
378.58	21.065
378.94	20.760
379.30	20.255
379.66	21.794
380.02	20.880
380.38	20.141
380.74	20.819
381.09	20.386
381.45	20.058
381.81	20.272
382.17	20.757
382.53	20.516
382.89	20.580
383.25	19.953
383.61	20.403
383.97	20.576
384.32	20.374
384.68	21.866
385.04	19.168
385.40	20.403
385.76	20.012
386.12	19.913
386.48	20.608
386.83	20.232
387.19	19.670
387.55	20.495
387.91	20.150
388.27	20.583
388.62	19.601
388.98	18.950
389.34	19.631
389.70	19.458
390.06	19.390
390.42	19.988
390.77	20.700
391.13	19.372
391.49	19.964
391.85	20.738
392.20	19.964
392.56	19.654
392.92	19.764
393.28	18.498
393.64	19.381
393.99	20.213
394.35	19.305
394.71	18.577
395.07	19.221
395.42	19.145
395.78	20.049
396.14	20.000
396.50	19.374
396.85	19.085
397.21	18.472
397.57	18.888
397.92	18.602
398.28	18.864
398.64	19.837
399.00	18.279
399.35	18.250
399.71	18.433
400.07	17.808
400.42	17.910
400.78	18.123
401.14	19.025
401.49	18.318
401.85	18.482
402.21	17.575
402.57	18.791
402.92	18.303
403.28	17.601
403.63	18.305
403.99	18.154
404.35	18.113
404.70	18.193
405.06	18.417
405.42	18.193
405.77	18.302
406.13	16.974
406.49	17.339
406.84	18.274
407.20	17.922
407.55	17.846
407.91	18.507
408.27	17.890
408.62	18.273
408.98	18.096
409.34	16.715
409.69	17.797
410.05	17.472
410.40	16.784
410.76	17.115
411.11	17.654
411.47	17.284
411.83	17.106
412.18	17.754
412.54	17.538
412.89	16.873
413.25	17.674
413.60	17.290
413.96	17.056
414.31	16.883
414.67	17.318
415.03	17.561
415.38	17.855
415.74	17.309
416.09	16.864
416.45	17.906
416.80	18.602
417.16	16.996
417.51	17.134
417.87	17.710
418.22	17.679
418.58	17.006
418.93	17.014
419.29	17.252
419.64	17.868
420.00	17.721
420.35	16.957
420.71	17.911
421.06	17.363
421.42	17.156
421.77	17.657
422.12	17.255
422.48	17.514
422.83	18.192
423.19	17.009
423.54	17.663
423.90	17.837
424.25	17.887
424.61	17.237
424.96	17.335
425.31	17.406
425.67	17.677
426.02	17.443
426.38	17.445
426.73	17.756
427.09	17.616
427.44	17.839
427.79	17.667
428.15	18.503
428.50	18.571
428.85	17.989
429.21	17.558
429.56	17.099
429.92	18.051
430.27	17.465
430.62	17.279
430.98	17.764
431.33	17.087
431.68	17.037
432.04	17.538
432.39	18.167
432.74	18.384
433.10	18.051
433.45	17.806
433.80	18.257
434.16	17.499
434.51	18.008
434.86	18.563
435.22	18.206
435.57	18.791
435.92	18.042
436.28	18.836
436.63	18.801
436.98	18.694
437.34	18.379
437.69	17.973
438.04	19.301
438.39	18.739
438.75	19.265
439.10	17.755
439.45	18.428
439.81	19.607
440.16	18.602
440.51	18.581
440.86	18.405
441.22	18.723
441.57	19.160
441.92	18.608
442.27	18.660
442.63	18.699
442.98	18.481
443.33	18.640
443.68	18.763
444.03	18.850
444.39	18.832
444.74	18.944
445.09	19.379
445.44	18.969
445.79	18.616
446.15	20.053
446.50	19.778
446.85	19.124
447.20	19.303
447.55	19.195
447.91	19.925
448.26	19.595
448.61	19.071
448.96	19.771
449.31	19.307
449.66	20.377
450.02	19.395
450.37	19.212
450.72	19.945
451.07	20.128
451.42	19.739
451.77	20.103
452.12	20.079
452.47	19.623
452.83	20.451
453.18	20.601
453.53	20.130
453.88	20.229
454.23	21.034
454.58	20.221
454.93	20.540
455.28	20.379
455.63	20.626
455.98	19.910
456.34	20.486
456.69	19.451
457.04	19.093
457.39	19.829
457.74	21.396
458.09	19.259
458.44	20.153
458.79	20.477
459.14	19.694
459.49	19.592
459.84	20.000
460.19	20.169
460.54	20.000
460.89	20.096
461.24	19.817
461.59	20.522
461.94	20.449
462.29	20.881
462.64	21.168
462.99	20.345
463.34	21.581
463.69	21.416
464.04	21.071
464.39	20.950
464.74	19.695
465.09	20.313
465.44	20.239
465.79	19.543
466.14	20.456
466.49	20.456
466.84	20.624
467.19	21.265
467.54	20.180
467.89	20.540
468.24	20.382
468.59	20.893
468.94	21.316
469.29	21.136
469.64	20.965
469.99	21.272
470.34	21.442
470.68	20.621
471.03	21.614
471.38	21.523
471.73	21.946
472.08	22.114
472.43	21.850
472.78	21.575
473.13	20.401
473.48	21.271
473.83	20.495
474.17	21.824
474.52	21.505
474.87	19.955
475.22	21.245
475.57	20.934
475.92	21.257
476.27	19.587
476.61	20.161
476.96	21.212
477.31	20.925
477.66	21.095
478.01	21.403
478.36	20.958
478.70	20.397
479.05	20.241
479.40	20.585
479.75	21.152
480.10	21.200
480.45	20.495
480.79	20.922
481.14	20.304
481.49	20.494
481.84	20.624
482.19	20.786
482.53	20.553
482.88	20.565
483.23	20.253
483.58	21.634
483.92	21.024
484.27	20.933
484.62	20.458
484.97	20.101
485.31	19.114
485.66	18.898
486.01	17.634
486.36	17.601
486.70	17.672
487.05	18.254
487.40	18.376
487.75	18.517
488.09	18.693
488.44	19.471
488.79	19.472
489.13	20.082
489.48	20.016
489.83	19.933
490.17	20.479
490.52	20.543
490.87	20.905
491.22	21.099
491.56	21.036
491.91	20.520
492.26	20.846
492.60	20.774
492.95	20.299
493.30	20.382
493.64	21.159
493.99	20.796
494.34	20.260
494.68	20.363
495.03	21.374
495.37	21.837
495.72	21.818
496.07	20.665
496.41	20.982
496.76	20.895
497.11	21.123
497.45	21.219
497.80	21.362
498.14	21.405
498.49	21.031
498.84	20.794
499.18	20.841
499.53	21.222
499.87	20.800
500.22	21.603
500.56	21.309
500.91	21.985
501.26	22.554
501.60	20.811
501.95	20.833
502.29	21.556
502.64	20.732
502.98	20.187
503.33	21.336
503.67	21.501
504.02	20.376
504.36	21.900
504.71	21.807
505.06	21.351
505.40	21.432
505.75	21.188
506.09	21.979
506.44	21.523
506.78	21.456
507.13	21.280
507.47	21.591
507.82	22.433
508.16	21.705
508.51	21.353
508.85	22.032
509.19	21.586
509.54	21.680
509.88	23.173
510.23	22.206
510.57	21.332
510.92	22.228
511.26	22.791
511.61	21.910
511.95	22.349
512.30	22.100
512.64	21.807
512.98	21.937
513.33	22.439
513.67	22.993
514.02	21.299
514.36	21.859
514.70	21.973
515.05	21.630
515.39	22.259
515.74	22.799
516.08	23.203
516.42	23.443
516.77	22.133
517.11	22.187
517.46	22.629
517.80	22.501
518.14	23.042
518.49	22.657
518.83	21.648
519.17	23.461
519.52	24.194
519.86	22.943
520.20	22.685
520.55	22.159
520.89	22.529
521.23	23.364
521.58	23.121
521.92	23.790
522.26	22.097
522.61	23.767
522.95	23.243
523.29	23.918
523.64	22.775
523.98	24.648
524.32	22.434
524.66	23.478
525.01	22.959
525.35	23.630
525.69	23.961
526.04	23.438
526.38	23.308
526.72	22.255
527.06	22.354
527.41	23.398
527.75	24.041
528.09	22.517
528.43	24.161
528.78	23.196
529.12	23.901
529.46	23.437
529.80	22.605
530.15	23.630
530.49	22.262
530.83	23.278
531.17	23.309
531.51	23.789
531.86	23.551
532.20	22.002
532.54	23.415
532.88	22.673
533.22	23.035
533.57	23.063
533.91	22.727
534.25	21.523
534.59	22.749
534.93	22.127
535.27	21.400
535.62	21.937
535.96	22.104
536.30	23.827
536.64	22.112
536.98	23.159
537.32	22.750
537.66	22.895
538.01	22.848
538.35	22.707
538.69	22.087
539.03	22.512
539.37	22.027
539.71	22.901
540.05	21.908
540.39	23.270
540.73	23.671
541.07	22.146
541.42	22.326
541.76	22.626
542.10	21.948
542.44	23.130
542.78	23.159
543.12	21.963
543.46	21.742
543.80	21.930
544.14	23.344
544.48	21.837
544.82	23.058
545.16	21.979
545.50	22.495
545.84	22.222
546.18	23.082
546.52	23.738
546.86	22.760
547.20	22.868
547.54	21.659
547.88	22.689
548.22	22.101
548.56	22.746
548.90	21.649
549.24	22.489
549.58	21.843
549.92	22.724
550.26	23.124
550.60	23.420
550.94	22.999
551.28	23.241
551.62	23.793
551.96	23.108
552.30	21.688
552.64	23.172
552.98	21.778
553.32	21.831
553.66	22.215
554.00	22.265
554.34	22.437
554.68	23.522
555.02	22.811
555.36	22.141
555.69	22.840
556.03	22.930
556.37	22.817
556.71	22.490
557.05	22.215
557.39	23.400
557.73	23.518
558.07	22.468
558.41	22.618
558.75	23.324
559.08	23.374
559.42	23.049
559.76	23.806
560.10	21.955
560.44	21.898
560.78	22.890
561.12	22.505
561.45	21.402
561.79	21.598
562.13	21.162
562.47	22.583
562.81	22.707
563.15	21.396
563.48	21.491
563.82	22.458
564.16	21.642
564.50	21.157
564.84	21.884
565.17	21.569
565.51	22.044
565.85	22.209
566.19	21.726
566.52	21.781
566.86	22.650
567.20	21.573
567.54	20.524
567.88	21.961
568.21	20.220
568.55	20.088
568.89	19.891
569.23	20.017
569.56	19.249
569.90	18.577
570.24	18.910
570.57	18.430
570.91	18.253
571.25	17.853
571.59	17.343
571.92	17.384
572.26	16.900
572.60	17.717
572.93	17.711
573.27	17.720
573.61	17.461
573.95	17.580
574.28	17.135
574.62	17.047
574.96	16.659
575.29	16.323
575.63	16.584
575.97	16.602
576.30	16.376
576.64	16.590
576.98	16.647
577.31	16.775
577.65	16.451
577.98	15.952
578.32	16.219
578.66	16.310
578.99	16.425
579.33	16.464
579.67	16.755
580.00	16.510
580.34	16.093
580.67	16.309
581.01	16.392
581.35	16.120
581.68	16.004
582.02	15.889
582.35	15.727
582.69	15.915
583.02	15.824
583.36	16.579
583.70	16.855
584.03	17.176
584.37	17.037
584.70	16.397
585.04	16.155
585.37	16.208
585.71	16.719
586.04	16.595
586.38	16.663
586.72	16.963
587.05	16.958
587.39	16.814
587.72	16.833
588.06	17.035
588.39	16.965
588.73	16.998
589.06	17.771
589.40	17.715
589.73	17.011
590.07	17.914
590.40	18.362
590.73	19.060
591.07	18.899
591.40	18.283
591.74	19.237
592.07	18.261
592.41	18.225
592.74	18.455
593.08	17.513
593.41	17.115
593.75	16.808
594.08	17.185
594.41	17.302
594.75	17.740
595.08	18.107
595.42	18.038
595.75	17.308
596.09	18.005
596.42	17.990
596.75	18.590
597.09	18.943
597.42	17.878
597.75	17.769
598.09	17.891
598.42	18.156
598.76	17.810
599.09	18.021
599.42	17.197
599.76	17.368
600.09	17.390
600.42	17.507
600.76	17.335
601.09	17.812
601.42	17.353
601.76	17.436
602.09	17.366
602.42	16.969
602.76	17.837
603.09	18.100
603.42	18.275
603.76	17.751
604.09	18.169
604.42	17.702
604.76	18.807
605.09	17.918
605.42	18.448
605.75	18.081
606.09	17.751
606.42	17.663
606.75	18.072
607.09	17.608
607.42	17.397
607.75	18.352
608.08	17.425
608.42	17.827
608.75	17.886
609.08	18.742
609.41	18.636
609.75	18.681
610.08	17.941
610.41	18.577
610.74	18.528
611.07	18.554
611.41	19.092
611.74	19.025
612.07	18.642
612.40	18.762
612.73	19.221
613.07	18.855
613.40	18.546
613.73	19.021
614.06	18.750
614.39	19.141
614.72	19.036
615.06	18.793
615.39	18.861
615.72	18.151
616.05	18.684
616.38	19.381
616.71	18.719
617.05	19.220
617.38	19.719
617.71	20.022
618.04	20.022
618.37	19.566
618.70	19.169
619.03	19.902
619.36	21.168
619.69	20.778
620.03	21.331
620.36	20.360
620.69	20.945
621.02	20.924
621.35	20.774
621.68	21.534
622.01	21.476
622.34	20.685
622.67	20.716
623.00	20.286
623.33	20.445
623.66	20.559
623.99	20.068
624.32	20.190
624.65	19.750
624.99	20.216
625.32	21.443
625.65	20.897
625.98	20.293
626.31	21.068
626.64	19.742
626.97	21.576
627.30	21.661
627.63	22.527
627.96	21.909
628.29	21.947
628.62	21.728
628.95	23.316
629.28	23.751
629.61	21.617
629.94	21.953
630.26	22.617
630.59	23.848
630.92	21.883
631.25	23.572
631.58	23.915
631.91	22.455
632.24	23.032
632.57	23.379
632.90	23.706
633.23	24.449
633.56	24.236
633.89	23.901
634.22	24.112
634.55	24.839
634.88	25.520
635.20	25.112
635.53	25.668
635.86	25.280
636.19	24.916
636.52	24.865
636.85	23.409
637.18	24.810
637.51	23.687
637.83	25.172
638.16	25.791
638.49	24.910
638.82	26.174
639.15	26.557
639.48	24.289
639.81	25.763
640.13	25.031
640.46	27.813
640.79	23.927
641.12	25.591
641.45	26.261
641.77	26.156
642.10	25.837
642.43	27.027
642.76	26.278
643.09	26.801
643.41	25.806
643.74	27.338
644.07	28.024
644.40	26.775
644.73	28.679
645.05	26.300
645.38	27.871
645.71	28.073
646.04	26.870
646.36	29.264
646.69	26.560
647.02	28.640
647.35	28.189
647.67	29.173
648.00	29.316
648.33	28.120
648.66	26.970
648.98	26.522
649.31	24.291
649.64	23.098
649.96	23.755
650.29	25.286
650.62	27.835
650.94	27.108
651.27	26.794
651.60	28.638
651.92	26.575
652.25	26.457
652.58	25.816
652.90	27.096
653.23	25.258
653.56	25.371
653.88	26.579
654.21	28.299
654.54	24.890
654.86	27.139
655.19	23.747
655.52	20.358
655.84	12.985
656.17	14.334
656.49	20.562
656.82	23.313
657.15	18.665
657.47	14.031
657.80	10.635
658.13	8.550
658.45	11.434
658.78	14.054
659.10	14.314
659.43	14.673
659.75	16.389
660.08	17.481
660.41	19.873
660.73	24.592
661.06	25.826
661.38	27.939
661.71	27.518
662.03	26.046
662.36	29.524
662.68	29.423
663.01	28.649
663.33	26.792
663.66	28.994
663.98	28.968
664.31	29.664
664.63	30.651
664.96	29.268
665.28	25.989
665.61	28.113
665.93	27.925
666.26	27.103
666.58	32.661
666.91	28.764
667.23	29.719
667.56	31.211
667.88	30.083
668.21	28.689
668.53	27.621
668.86	30.060
669.18	28.921
669.50	31.818
669.83	28.131
670.15	28.067
670.48	25.391
670.80	31.673
671.13	28.088
671.45	29.259
671.77	27.087
672.10	27.648
672.42	26.316
672.75	25.949
673.07	27.027
673.39	24.920
673.72	26.298
674.04	27.778
674.37	26.679
674.69	26.208
675.01	28.172
675.34	26.744
675.66	30.664
675.98	27.613
676.31	30.800
676.63	26.640
676.95	29.365
677.28	27.383
677.60	26.962
677.92	26.389
678.25	28.682
678.57	29.981
678.89	27.486
679.22	26.838
679.54	25.089
679.86	28.970
680.18	26.714
680.51	24.876
680.83	24.662
681.15	25.130
681.48	25.694
681.80	25.394
682.12	28.201
682.44	27.027
682.77	27.402
683.09	28.544
683.41	28.776
683.73	27.362
684.06	27.381
684.38	28.295
684.70	25.000
685.02	26.042
685.34	25.352
685.67	24.116
685.99	25.780
686.31	24.191
686.63	24.390
686.96	26.144
687.28	22.651
687.60	24.744
687.92	25.628
688.24	26.034
688.56	28.292
688.89	25.239
689.21	26.590
689.53	27.866
689.85	27.236
690.17	25.437
690.49	27.016
690.82	26.471
691.14	27.273
691.46	28.953
691.78	27.485
692.10	25.763
692.42	26.497
692.74	25.581
693.06	26.744
693.39	24.308
693.71	27.112
694.03	27.811
694.35	28.112
694.67	25.662
694.99	27.938
695.31	29.279
695.63	29.412
695.95	27.828
696.27	30.088
696.59	29.833
696.91	30.633
697.23	31.900
697.56	25.726
697.88	22.156
698.20	24.906
698.52	24.319
698.84	25.257
699.16	28.358
699.48	27.754
699.80	30.065
700.12	29.792
700.44	27.570
700.76	29.356
701.08	30.287
701.40	30.649
701.72	32.353
702.04	32.249
702.36	29.301
702.68	29.255
703.00	27.569
703.32	28.040
703.64	28.715
703.96	28.906
704.28	28.571
704.60	29.296
704.91	28.291
705.23	31.250
705.55	31.454
705.87	33.016
706.19	32.915
706.51	35.110
706.83	33.038
707.15	29.679
707.47	29.056
707.79	25.517
708.11	26.077
708.43	24.944
708.74	25.113
709.06	25.116
709.38	27.792
709.70	28.610
710.02	28.804
710.34	25.967
710.66	29.167
710.98	31.148
711.29	28.691
711.61	31.476
711.93	28.571
712.25	32.229
712.57	33.119
712.89	34.848
713.20	29.712
713.52	29.907
713.84	32.024
714.16	23.768
714.48	25.072
714.80	27.642
715.11	29.255
715.43	25.698
715.75	27.606
716.07	30.925
716.39	29.714
716.70	25.857
717.02	28.956
717.34	32.374
717.66	32.639
717.97	34.848
718.29	32.746
718.61	25.338
718.93	29.066
719.24	33.557
719.56	31.034
719.88	29.618
720.20	32.581
720.51	28.431
720.83	29.431
721.15	30.952
721.46	31.849
721.78	31.010
722.10	33.333
722.42	30.100
722.73	28.159
723.05	35.088
723.37	34.982
723.68	31.250
724.00	30.303
724.32	30.798
724.63	30.000
724.95	31.765
725.27	34.201
725.58	31.250
725.90	28.521
726.22	29.795
726.53	29.097
726.85	30.619
727.16	30.872
727.48	29.568
727.80	32.014
728.11	32.857
728.43	28.986
728.74	31.119
729.06	26.882
729.38	31.930
729.69	33.000
730.01	30.921
730.32	28.188
730.64	30.897
730.96	29.429
731.27	25.688
731.59	25.862
731.90	27.577
732.22	29.143
732.53	24.217
732.85	30.117
733.16	28.012
733.48	28.213
733.80	27.536
734.11	30.982
734.43	24.269
734.74	21.716
735.06	24.603
735.37	24.742
735.69	24.058
736.00	30.275
736.32	26.364
736.63	23.975
736.95	27.019
737.26	31.402
737.58	29.141
737.89	26.506
738.21	28.146
738.52	26.421
738.83	32.967
739.15	30.662
739.46	29.310
739.78	27.211
740.09	27.697
740.41	23.926
740.72	28.889
741.04	35.664
741.35	30.469
741.66	33.202
741.98	32.618
742.29	32.407
742.61	33.628
742.92	31.780
743.23	35.200
743.55	29.811
743.86	31.765
744.18	33.898
744.49	33.884
744.80	35.945
745.12	34.375
745.43	29.439
745.74	32.889
746.06	27.632
746.37	38.140
746.68	36.726
747.00	31.839
747.31	37.815
747.62	30.738
747.94	31.760
748.25	30.739
748.56	33.475
748.88	33.929
749.19	27.907
749.50	36.530
749.82	30.864
750.13	29.249
750.44	29.333
750.75	29.866
751.07	27.632
751.38	29.043
751.69	26.936
752.01	24.476
752.32	31.894
752.63	30.201
752.94	30.769
753.26	28.125
753.57	29.572
753.88	27.715
754.19	27.076
754.51	27.575
754.82	24.161
755.13	26.689
755.44	31.481
755.75	31.615
756.07	26.027
756.38	23.203
756.69	23.750
757.00	30.564
757.31	27.606
757.63	24.242
757.94	23.936
758.25	23.188
758.56	22.883
758.87	22.055
759.18	25.581
759.50	27.660
759.81	27.596
760.12	28.371
760.43	26.050
760.74	20.506
761.05	25.464
761.36	23.698
761.67	23.989
761.99	27.324
762.30	27.653
762.61	23.264
762.92	25.758
763.23	28.679
763.54	26.923
763.85	26.070
764.16	27.431
764.47	26.014
764.78	23.779
765.10	25.000
765.41	21.023
765.72	25.967
766.03	20.846
766.34	27.875
766.65	26.236
766.96	31.984
767.27	36.449
767.58	39.604
767.89	38.122
768.20	34.146
768.51	34.184
768.82	37.719
769.13	30.980
769.44	27.820
769.75	26.966
770.06	26.471
770.37	24.123
770.68	25.778
770.99	30.932
771.30	30.126
771.61	30.000
771.92	26.718
772.23	26.613
772.54	33.778
772.85	38.119
773.16	33.696
773.47	25.000
773.78	34.158
774.09	40.909
774.39	40.000
774.70	31.765
775.01	32.237
775.32	37.888
775.63	45.205
775.94	53.086
776.25	42.759
776.56	45.802
776.87	48.855
777.18	44.697
777.48	47.244
777.79	43.077
778.10	39.394
778.41	47.761
778.72	42.857
779.03	29.487
779.34	36.486
779.65	32.919
779.95	42.236
780.26	32.143
780.57	43.537
780.88	39.007
781.19	49.167
781.50	36.686
781.80	34.973
782.11	32.804
782.42	33.908
782.73	34.463
783.04	43.871
783.34	34.109
783.65	40.136
783.96	40.645
784.27	36.424
784.57	34.868
784.88	45.652
785.19	39.167
785.50	43.966
785.81	47.287
786.11	38.519
786.42	44.882
786.73	48.649
787.04	37.736
787.34	48.780
787.65	44.697
787.96	40.152
788.26	44.094
788.57	44.526
788.88	36.620
789.19	36.641
789.49	39.189
789.80	39.844
790.11	39.669
790.41	46.296
790.72	40.741
791.03	42.308
791.33	53.535
791.64	50.526
791.95	49.474
792.25	42.708
792.56	57.000
792.87	54.878
793.17	40.909
793.48	50.588
793.79	45.977
794.09	50.000
794.40	62.069
794.70	38.889
795.01	34.615
795.32	42.748
795.62	30.769
795.93	51.261
796.23	43.902
796.54	50.000
796.85	52.273
797.15	83.117
797.46	70.732
797.76	60.000
798.07	69.333
798.37	56.250
798.68	65.000
798.99	51.220
799.29	53.333
799.60	48.837
799.90	50.000
800.21	53.030
800.51	60.563
800.82	65.517
801.12	78.462
801.43	78.667
801.73	67.241
802.04	61.039
802.34	68.493
802.65	90.196
802.95	78.261
803.26	74.194
803.56	101.667
803.87	62.687
804.17	73.016
804.48	83.019
804.78	61.111
805.09	56.061
805.39	71.429
805.70	82.456
806.00	44.286
806.30	56.250
806.61	50.588
806.91	56.667
807.22	50.000
807.52	52.632
807.83	64.474
808.13	60.870
808.43	64.516
808.74	67.123
809.04	75.000
809.35	75.000
809.65	71.212
809.95	54.902
810.26	81.481
810.56	73.438
810.86	79.592
811.17	63.158
811.47	73.913
811.77	70.690
812.08	79.310
812.38	78.571
812.69	95.238
812.99	80.000
813.29	94.286
813.59	119.355
813.90	72.414
814.20	86.885
814.50	64.000
814.81	66.667
815.11	88.889
815.41	85.714
815.72	80.357
816.02	108.000
816.32	107.317
816.62	82.759
816.93	106.061
817.23	117.073
817.53	85.714
817.84	75.556
818.14	83.333
818.44	85.417
818.74	81.132
819.04	102.564
819.35	124.242
819.65	101.923
819.95	100.000
820.25	110.638
820.56	121.622
820.86	110.526
821.16	74.468
821.46	97.368
821.76	76.364
822.07	71.429
822.37	97.368
822.67	123.256
822.97	121.053
823.27	91.304
823.57	128.125
823.88	110.256
824.18	106.061
824.48	139.130
824.78	97.222
825.08	147.826
825.38	155.172
825.69	91.176
825.99	63.830
826.29	91.667
826.59	111.429
826.89	123.333
827.19	122.857
827.49	138.710
827.79	119.231
828.09	78.571
828.39	125.000
828.70	67.568
829.00	164.286
829.30	181.250
829.60	113.889
829.90	138.710
830.20	100.000
830.50	129.730
830.80	175.000
831.10	150.000
831.40	128.571
831.70	200.000
832.00	136.667
832.30	160.870
832.60	204.167
832.90	145.455
833.20	225.000
833.50	131.579
833.80	123.529
834.10	105.263
834.40	152.632
834.70	123.333
835.00	140.000
835.30	105.405
835.60	156.250
835.90	102.703
836.20	134.615
836.50	159.091
836.80	119.512
837.10	152.174
837.40	261.538
837.70	178.947
838.00	126.667
838.30	200.000
838.60	144.000
838.90	390.000
839.19	200.000
839.49	150.000
839.79	158.621
840.09	165.385
840.39	146.667
840.69	194.737
840.99	147.619
841.29	173.913
841.59	140.000
841.88	168.000
842.18	233.333
842.48	182.143
842.78	155.556
843.08	192.308
843.38	159.091
843.68	264.286
843.97	528.571
844.27	139.130
844.57	1400.000
844.87	321.429
845.17	244.444
845.47	104.762
845.76	191.667
846.06	514.286
846.36	152.941
846.66	276.923
846.96	225.000
847.25	100.000
847.55	121.053
847.85	177.778
848.15	620.000
848.44	281.818
848.74	161.905
849.04	141.667
849.34	170.588
849.63	206.250
849.93	212.500
850.23	600.000
850.53	462.500
850.82	327.273
851.12	188.235
851.42	158.333
851.71	300.000
852.01	0.000
852.31	164.706
852.61	340.000
852.90	133.333
853.20	388.889
853.50	-2800.000
853.79	140.000
854.09	128.125
854.39	127.586
854.68	151.724
854.98	147.619
855.28	112.903
855.57	242.857
855.87	127.778
856.17	111.111
856.46	168.421
856.76	145.161
857.05	217.647
857.35	218.182
857.65	207.692
857.94	160.000
858.24	344.444
858.53	178.571
858.83	428.571
859.13	165.217
859.42	366.667
859.72	387.500
860.01	291.667
860.31	900.000
860.60	360.000
860.90	350.000
861.20	215.385
861.49	357.143
861.79	-2600.000
862.08	528.571
862.38	322.222
862.67	278.571
862.97	330.000
863.26	143.333
863.56	850.000
863.85	253.846
864.15	241.176
864.44	227.778
864.74	341.667
865.03	354.545
865.33	287.500
865.62	220.000
865.92	683.333
866.21	1150.000
866.51	640.000
866.80	294.444
867.10	900.000
867.39	3100.000
867.69	580.000
867.98	850.000
868.27	171.429
868.57	266.667
868.86	850.000
869.16	180.952
869.45	2400.000
869.75	-566.667
870.04	875.000
870.33	640.000
870.63	487.500
870.92	188.235
871.22	925.000
871.51	485.714
871.80	258.333
872.10	353.846
>>>>>End Processed Spectral Data<<<<<
