SpectraSuite Data File
++++++++++++++++++++++++++++++++++++
Date: Tue May 12 16:03:11 PDT 2015
User: schluterlab
Dark Spectrum Present: Yes
Reference Spectrum Present: Yes
Number of Sampled Component Spectra: 1
Spectrometers: USB2E3373
Integration Time (usec): 3000 (USB2E3373)
Spectra Averaged: 3 (USB2E3373)
Boxcar Smoothing: 0 (USB2E3373)
Correct for Electrical Dark: No (USB2E3373)
Strobe/Lamp Enabled: No (USB2E3373)
Correct for Detector Non-linearity: No (USB2E3373)
Correct for Stray Light: No (USB2E3373)
Number of Pixels in Processed Spectrum: 2048
>>>>>Begin Processed Spectral Data<<<<<
178.53	0.000
178.91	-241.667
179.29	-875.000
179.67	-4900.000
180.04	-180.000
180.42	750.000
180.80	1950.000
181.18	0.000
181.56	-325.000
181.94	0.000
182.31	1333.333
182.69	-4000.000
183.07	628.571
183.45	-4000.000
183.83	-1450.000
184.20	470.000
184.58	457.143
184.96	-246.154
185.34	-225.000
185.72	2000.000
186.09	-1025.000
186.47	-4200.000
186.85	966.667
187.23	720.000
187.61	1400.000
187.98	562.500
188.36	307.143
188.74	375.000
189.12	358.333
189.49	1075.000
189.87	0.000
190.25	500.000
190.63	3000.000
191.00	-175.000
191.38	-4100.000
191.76	-950.000
192.14	575.000
192.51	-2800.000
192.89	1900.000
193.27	866.667
193.65	-1066.667
194.02	-860.000
194.40	485.714
194.78	-257.143
195.15	273.333
195.53	-3200.000
195.91	-600.000
196.29	3400.000
196.66	343.750
197.04	875.000
197.42	-1650.000
197.79	725.000
198.17	416.667
198.55	0.000
198.92	571.429
199.30	1066.667
199.68	2050.000
200.05	733.333
200.43	-550.000
200.81	200.000
201.18	3900.000
201.56	333.333
201.94	-700.000
202.31	-375.000
202.69	-500.000
203.07	2600.000
203.44	-533.333
203.82	300.000
204.19	680.000
204.57	-1050.000
204.95	-650.000
205.32	-660.000
205.70	566.667
206.08	725.000
206.45	-933.333
206.83	366.667
207.20	210.526
207.58	308.333
207.96	820.000
208.33	0.000
208.71	542.857
209.08	800.000
209.46	-3000.000
209.84	-825.000
210.21	860.000
210.59	-620.000
210.96	341.667
211.34	-775.000
211.71	409.091
212.09	950.000
212.46	1650.000
212.84	-400.000
213.22	500.000
213.59	-3600.000
213.97	410.000
214.34	1050.000
214.72	1200.000
215.09	1266.667
215.47	-3800.000
215.84	-360.000
216.22	-400.000
216.59	0.000
216.97	0.000
217.34	1300.000
217.72	-2100.000
218.09	1166.667
218.47	462.500
218.84	1050.000
219.22	766.667
219.59	1100.000
219.97	514.286
220.34	422.222
220.72	1450.000
221.09	4200.000
221.47	283.333
221.84	766.667
222.22	320.000
222.59	300.000
222.97	285.714
223.34	287.500
223.72	-1550.000
224.09	1300.000
224.46	238.462
224.84	-825.000
225.21	388.889
225.59	300.000
225.96	1500.000
226.34	-480.000
226.71	-525.000
227.08	-780.000
227.46	0.000
227.83	-500.000
228.21	-1700.000
228.58	416.667
228.95	1000.000
229.33	444.444
229.70	975.000
230.08	307.692
230.45	3700.000
230.82	-925.000
231.20	-866.667
231.57	-833.333
231.95	620.000
232.32	325.000
232.69	566.667
233.07	308.333
233.44	-1750.000
233.81	240.000
234.19	162.963
234.56	193.750
234.93	264.706
235.31	185.000
235.68	293.750
236.05	132.143
236.43	181.481
236.80	207.143
237.17	151.724
237.55	118.750
237.92	112.500
238.29	130.303
238.67	134.375
239.04	126.829
239.41	70.833
239.79	82.500
240.16	75.000
240.53	78.689
240.91	68.116
241.28	72.881
241.65	75.758
242.02	61.972
242.40	61.429
242.77	51.648
243.14	54.430
243.51	54.545
243.89	48.598
244.26	54.206
244.63	38.614
245.00	50.459
245.38	37.288
245.75	48.485
246.12	40.741
246.49	30.496
246.87	33.607
247.24	44.000
247.61	40.000
247.98	30.612
248.36	29.697
248.73	37.245
249.10	27.976
249.47	28.500
249.84	34.328
250.22	31.351
250.59	31.000
250.96	35.021
251.33	30.698
251.70	37.946
252.08	29.832
252.45	26.693
252.82	30.038
253.19	29.644
253.56	27.692
253.94	26.449
254.31	26.744
254.68	27.526
255.05	30.690
255.42	25.912
255.79	25.081
256.16	31.525
256.54	27.597
256.91	25.490
257.28	19.732
257.65	21.003
258.02	23.304
258.39	26.074
258.76	26.377
259.14	20.286
259.51	26.531
259.88	23.404
260.25	23.626
260.62	19.726
260.99	20.661
261.36	22.563
261.73	23.404
262.10	24.607
262.47	24.500
262.85	23.467
263.22	21.337
263.59	21.739
263.96	23.559
264.33	21.481
264.70	24.079
265.07	19.756
265.44	21.560
265.81	22.642
266.18	22.426
266.55	23.641
266.92	19.911
267.29	23.465
267.66	22.197
268.03	22.197
268.40	21.353
268.77	24.009
269.14	21.909
269.51	21.381
269.88	23.061
270.25	18.359
270.62	21.245
270.99	22.312
271.36	21.748
271.73	19.497
272.10	21.212
272.47	21.627
272.84	19.561
273.21	21.901
273.58	22.065
273.95	17.659
274.32	20.039
274.69	21.457
275.06	21.311
275.43	20.881
275.80	19.245
276.17	19.669
276.54	21.869
276.91	17.910
277.28	20.255
277.65	19.557
278.02	18.199
278.39	19.424
278.76	20.862
279.13	19.573
279.50	20.364
279.87	17.691
280.23	19.521
280.60	21.350
280.97	18.103
281.34	18.317
281.71	20.870
282.08	19.316
282.45	19.932
282.82	19.565
283.19	19.873
283.56	19.339
283.92	17.752
284.29	18.802
284.66	18.992
285.03	18.740
285.40	18.182
285.77	17.593
286.14	18.421
286.51	18.712
286.87	18.513
287.24	16.667
287.61	18.541
287.98	18.657
288.35	18.222
288.72	17.147
289.08	17.568
289.45	17.378
289.82	18.750
290.19	15.813
290.56	19.068
290.93	17.698
291.29	16.298
291.66	17.373
292.03	16.690
292.40	16.531
292.77	15.599
293.13	15.692
293.50	15.115
293.87	16.125
294.24	15.944
294.60	14.536
294.97	16.224
295.34	15.671
295.71	15.112
296.08	15.867
296.44	16.264
296.81	15.136
297.18	14.068
297.55	15.394
297.91	13.424
298.28	15.217
298.65	13.865
299.02	15.320
299.38	14.628
299.75	13.780
300.12	14.794
300.48	15.222
300.85	14.541
301.22	15.000
301.59	13.561
301.95	13.186
302.32	14.668
302.69	14.140
303.05	13.917
303.42	13.341
303.79	13.759
304.15	14.961
304.52	13.953
304.89	13.433
305.25	14.349
305.62	14.286
305.99	12.500
306.35	13.368
306.72	13.840
307.09	13.872
307.45	12.460
307.82	12.654
308.19	13.711
308.55	13.600
308.92	14.524
309.29	15.187
309.65	13.280
310.02	13.590
310.38	12.463
310.75	12.729
311.12	13.889
311.48	14.672
311.85	13.263
312.22	12.416
312.58	13.703
312.95	13.301
313.31	13.858
313.68	12.477
314.05	13.553
314.41	12.570
314.78	12.500
315.14	13.555
315.51	12.961
315.87	13.595
316.24	13.912
316.61	13.339
316.97	12.752
317.34	14.376
317.70	13.521
318.07	16.103
318.43	14.499
318.80	14.711
319.16	16.084
319.53	14.956
319.89	14.337
320.26	15.363
320.62	15.018
320.99	15.062
321.35	16.419
321.72	16.319
322.08	16.066
322.45	16.076
322.81	15.919
323.18	17.052
323.54	18.641
323.91	16.772
324.27	18.391
324.64	16.349
325.00	18.362
325.37	18.803
325.73	19.393
326.10	18.807
326.46	20.149
326.83	19.520
327.19	20.803
327.56	21.406
327.92	20.984
328.29	22.177
328.65	23.031
329.01	22.669
329.38	23.266
329.74	21.862
330.11	24.066
330.47	24.041
330.84	22.951
331.20	23.519
331.56	25.216
331.93	24.636
332.29	23.384
332.66	26.190
333.02	24.141
333.38	26.440
333.75	25.855
334.11	24.832
334.48	25.641
334.84	25.591
335.20	25.920
335.57	26.448
335.93	26.493
336.29	25.954
336.66	27.187
337.02	25.834
337.38	27.343
337.75	27.534
338.11	27.173
338.47	26.926
338.84	26.080
339.20	24.935
339.56	26.745
339.93	26.505
340.29	26.050
340.65	27.158
341.02	27.031
341.38	26.108
341.74	27.326
342.11	26.878
342.47	27.153
342.83	26.743
343.20	27.405
343.56	25.417
343.92	27.085
344.28	26.635
344.65	28.199
345.01	26.825
345.37	27.564
345.73	26.111
346.10	26.614
346.46	27.512
346.82	26.929
347.19	27.434
347.55	27.400
347.91	27.266
348.27	26.414
348.63	27.215
349.00	28.637
349.36	27.237
349.72	28.517
350.08	28.183
350.45	28.027
350.81	27.523
351.17	26.656
351.53	26.559
351.89	26.651
352.26	26.531
352.62	26.094
352.98	28.221
353.34	28.582
353.70	27.523
354.07	27.692
354.43	27.573
354.79	27.411
355.15	26.876
355.51	27.190
355.87	27.259
356.24	27.868
356.60	28.387
356.96	26.308
357.32	28.259
357.68	27.313
358.04	27.204
358.40	28.561
358.77	28.249
359.13	27.703
359.49	27.798
359.85	27.178
360.21	27.117
360.57	27.080
360.93	27.922
361.29	27.922
361.66	28.561
362.02	26.491
362.38	26.623
362.74	27.389
363.10	27.700
363.46	27.141
363.82	27.630
364.18	27.098
364.54	27.539
364.90	28.849
365.26	28.522
365.62	26.934
365.98	27.254
366.35	27.103
366.71	28.314
367.07	27.235
367.43	27.871
367.79	27.327
368.15	26.866
368.51	27.360
368.87	27.446
369.23	28.205
369.59	28.658
369.95	28.671
370.31	27.789
370.67	27.828
371.03	28.081
371.39	28.532
371.75	27.844
372.11	28.348
372.47	29.178
372.83	27.532
373.19	28.718
373.55	29.072
373.91	27.901
374.27	27.579
374.63	28.610
374.99	28.302
375.35	28.427
375.71	29.420
376.07	27.586
376.42	27.558
376.78	28.259
377.14	28.440
377.50	27.466
377.86	27.995
378.22	28.032
378.58	28.208
378.94	28.183
379.30	28.441
379.66	28.477
380.02	28.211
380.38	27.283
380.74	29.527
381.09	28.154
381.45	27.688
381.81	27.719
382.17	28.327
382.53	28.794
382.89	27.321
383.25	27.472
383.61	28.415
383.97	27.654
384.32	29.295
384.68	28.936
385.04	28.664
385.40	28.055
385.76	27.853
386.12	28.881
386.48	28.632
386.83	28.545
387.19	27.739
387.55	28.681
387.91	28.118
388.27	28.198
388.62	28.815
388.98	27.638
389.34	27.781
389.70	28.007
390.06	28.902
390.42	28.501
390.77	27.826
391.13	28.183
391.49	28.010
391.85	28.677
392.20	28.725
392.56	27.897
392.92	27.737
393.28	27.522
393.64	27.752
393.99	27.742
394.35	28.311
394.71	27.503
395.07	27.068
395.42	28.513
395.78	29.118
396.14	29.217
396.50	28.099
396.85	28.049
397.21	28.039
397.57	28.332
397.92	27.499
398.28	26.751
398.64	28.447
399.00	27.632
399.35	26.838
399.71	27.759
400.07	27.854
400.42	27.821
400.78	27.155
401.14	27.892
401.49	27.477
401.85	27.578
402.21	26.772
402.57	27.648
402.92	28.667
403.28	26.850
403.63	26.780
403.99	27.021
404.35	28.019
404.70	27.525
405.06	27.513
405.42	27.768
405.77	27.288
406.13	27.495
406.49	26.549
406.84	26.847
407.20	27.511
407.55	26.523
407.91	28.526
408.27	26.865
408.62	27.853
408.98	26.789
409.34	27.119
409.69	27.194
410.05	26.297
410.40	25.501
410.76	26.216
411.11	27.310
411.47	26.790
411.83	26.186
412.18	28.140
412.54	27.387
412.89	26.431
413.25	26.910
413.60	27.278
413.96	27.050
414.31	26.978
414.67	27.188
415.03	26.501
415.38	27.066
415.74	27.606
416.09	26.796
416.45	28.442
416.80	28.672
417.16	27.307
417.51	27.452
417.87	27.347
418.22	26.731
418.58	28.153
418.93	27.008
419.29	27.418
419.64	26.711
420.00	27.804
420.35	26.423
420.71	27.655
421.06	26.780
421.42	27.461
421.77	27.707
422.12	26.957
422.48	26.708
422.83	27.846
423.19	26.620
423.54	27.098
423.90	27.520
424.25	28.013
424.61	28.149
424.96	27.781
425.31	27.750
425.67	28.114
426.02	26.809
426.38	26.779
426.73	27.820
427.09	28.055
427.44	27.349
427.79	28.188
428.15	28.285
428.50	28.457
428.85	28.454
429.21	27.769
429.56	27.418
429.92	28.493
430.27	27.818
430.62	27.949
430.98	27.096
431.33	28.327
431.68	27.358
432.04	27.419
432.39	28.814
432.74	28.747
433.10	28.073
433.45	28.604
433.80	28.792
434.16	28.639
434.51	27.709
434.86	28.634
435.22	28.579
435.57	29.401
435.92	30.563
436.28	29.435
436.63	29.498
436.98	29.223
437.34	29.338
437.69	27.884
438.04	28.978
438.39	29.072
438.75	28.786
439.10	28.440
439.45	28.830
439.81	29.381
440.16	29.774
440.51	29.505
440.86	29.801
441.22	29.221
441.57	29.501
441.92	30.257
442.27	28.299
442.63	29.726
442.98	29.041
443.33	29.191
443.68	29.074
444.03	29.312
444.39	29.190
444.74	30.124
445.09	29.700
445.44	29.596
445.79	29.094
446.15	28.842
446.50	29.325
446.85	29.382
447.20	28.657
447.55	29.309
447.91	29.728
448.26	30.511
448.61	29.906
448.96	30.011
449.31	30.033
449.66	29.623
450.02	29.011
450.37	29.983
450.72	29.752
451.07	30.192
451.42	30.468
451.77	29.496
452.12	30.176
452.47	30.437
452.83	30.535
453.18	30.450
453.53	30.847
453.88	30.114
454.23	30.564
454.58	30.361
454.93	30.104
455.28	30.477
455.63	30.556
455.98	30.006
456.34	31.064
456.69	31.402
457.04	31.086
457.39	30.000
457.74	30.800
458.09	29.815
458.44	30.778
458.79	30.345
459.14	29.569
459.49	30.238
459.84	30.652
460.19	30.169
460.54	30.997
460.89	30.597
461.24	29.725
461.59	31.236
461.94	30.556
462.29	30.664
462.64	30.716
462.99	30.646
463.34	31.756
463.69	31.216
464.04	30.225
464.39	31.483
464.74	29.601
465.09	30.586
465.44	29.325
465.79	29.777
466.14	29.730
466.49	30.168
466.84	29.989
467.19	30.346
467.54	29.249
467.89	30.986
468.24	29.647
468.59	31.190
468.94	31.280
469.29	30.849
469.64	30.868
469.99	30.848
470.34	31.246
470.68	31.241
471.03	31.621
471.38	31.656
471.73	31.613
472.08	33.007
472.43	32.278
472.78	31.306
473.13	30.538
473.48	31.174
473.83	30.565
474.17	31.246
474.52	31.635
474.87	29.903
475.22	30.554
475.57	30.902
475.92	30.710
476.27	30.686
476.61	30.563
476.96	31.243
477.31	31.054
477.66	32.099
478.01	30.480
478.36	30.639
478.70	30.819
479.05	30.492
479.40	31.349
479.75	31.430
480.10	31.220
480.45	30.252
480.79	30.691
481.14	30.100
481.49	30.604
481.84	30.475
482.19	30.175
482.53	29.908
482.88	30.690
483.23	29.860
483.58	30.566
483.92	30.850
484.27	30.180
484.62	30.645
484.97	30.775
485.31	30.031
485.66	28.940
486.01	27.846
486.36	27.761
486.70	27.059
487.05	27.716
487.40	28.799
487.75	28.916
488.09	28.977
488.44	29.637
488.79	29.851
489.13	30.235
489.48	30.124
489.83	30.359
490.17	30.388
490.52	31.051
490.87	29.957
491.22	30.230
491.56	30.918
491.91	30.824
492.26	30.423
492.60	30.296
492.95	30.494
493.30	30.937
493.64	30.863
493.99	30.769
494.34	30.928
494.68	30.235
495.03	31.163
495.37	30.977
495.72	31.002
496.07	30.818
496.41	29.930
496.76	30.266
497.11	31.020
497.45	31.916
497.80	31.279
498.14	31.299
498.49	31.198
498.84	31.636
499.18	30.073
499.53	30.638
499.87	30.728
500.22	31.552
500.56	31.105
500.91	31.354
501.26	30.684
501.60	30.373
501.95	30.600
502.29	30.133
502.64	30.745
502.98	30.191
503.33	31.091
503.67	31.038
504.02	29.870
504.36	30.995
504.71	31.268
505.06	31.065
505.40	30.744
505.75	30.402
506.09	30.938
506.44	31.062
506.78	32.231
507.13	31.750
507.47	32.072
507.82	31.484
508.16	31.994
508.51	31.063
508.85	31.149
509.19	30.837
509.54	31.738
509.88	31.974
510.23	31.863
510.57	31.998
510.92	32.318
511.26	31.677
511.61	31.315
511.95	32.354
512.30	30.950
512.64	31.828
512.98	31.061
513.33	32.018
513.67	32.263
514.02	32.156
514.36	31.724
514.70	31.627
515.05	31.486
515.39	32.018
515.74	32.313
516.08	33.061
516.42	34.262
516.77	32.213
517.11	32.213
517.46	31.304
517.80	32.551
518.14	33.014
518.49	33.021
518.83	32.363
519.17	32.890
519.52	33.097
519.86	32.589
520.20	32.712
520.55	32.561
520.89	33.218
521.23	33.178
521.58	33.448
521.92	32.362
522.26	33.472
522.61	34.165
522.95	33.453
523.29	32.690
523.64	32.139
523.98	32.864
524.32	32.526
524.66	32.638
525.01	33.314
525.35	32.469
525.69	32.872
526.04	33.373
526.38	33.373
526.72	33.473
527.06	31.993
527.41	33.978
527.75	33.597
528.09	32.089
528.43	33.923
528.78	33.393
529.12	33.835
529.46	32.671
529.80	32.126
530.15	33.707
530.49	33.935
530.83	32.724
531.17	33.087
531.51	33.354
531.86	31.703
532.20	32.077
532.54	32.392
532.88	33.916
533.22	32.785
533.57	34.045
533.91	32.634
534.25	32.083
534.59	32.222
534.93	32.366
535.27	31.531
535.62	31.505
535.96	32.979
536.30	33.090
536.64	33.416
536.98	32.725
537.32	32.875
537.66	32.270
538.01	34.118
538.35	34.186
538.69	32.585
539.03	32.338
539.37	31.857
539.71	33.148
540.05	32.246
540.39	32.579
540.73	33.797
541.07	33.187
541.42	32.960
541.76	33.354
542.10	33.231
542.44	32.793
542.78	31.907
543.12	32.147
543.46	32.456
543.80	32.519
544.14	33.003
544.48	32.968
544.82	32.110
545.16	32.544
545.50	33.006
545.84	33.018
546.18	33.550
546.52	33.246
546.86	33.462
547.20	31.912
547.54	32.172
547.88	32.968
548.22	32.180
548.56	32.469
548.90	32.325
549.24	33.481
549.58	32.796
549.92	33.726
550.26	34.280
550.60	33.134
550.94	32.836
551.28	34.000
551.62	33.448
551.96	33.243
552.30	33.092
552.64	32.816
552.98	33.119
553.32	32.010
553.66	32.508
554.00	33.269
554.34	34.021
554.68	33.266
555.02	33.876
555.36	32.779
555.69	33.901
556.03	33.057
556.37	32.505
556.71	34.029
557.05	31.389
557.39	34.333
557.73	33.962
558.07	33.803
558.41	33.927
558.75	32.627
559.08	33.667
559.42	35.075
559.76	33.642
560.10	33.035
560.44	32.250
560.78	33.760
561.12	33.884
561.45	32.854
561.79	32.335
562.13	32.533
562.47	34.134
562.81	32.921
563.15	32.579
563.48	32.236
563.82	33.001
564.16	34.328
564.50	32.911
564.84	32.827
565.17	31.788
565.51	33.867
565.85	33.066
566.19	32.679
566.52	31.889
566.86	32.866
567.20	31.742
567.54	33.242
567.88	32.551
568.21	30.954
568.55	32.004
568.89	31.569
569.23	31.018
569.56	31.190
569.90	30.075
570.24	30.869
570.57	29.624
570.91	28.955
571.25	29.063
571.59	28.370
571.92	28.310
572.26	28.302
572.60	28.881
572.93	28.867
573.27	29.351
573.61	27.775
573.95	28.088
574.28	28.066
574.62	27.806
574.96	27.780
575.29	27.598
575.63	27.892
575.97	27.483
576.30	27.790
576.64	27.730
576.98	27.351
577.31	27.839
577.65	27.843
577.98	27.073
578.32	27.182
578.66	27.508
578.99	28.152
579.33	27.695
579.67	27.902
580.00	27.769
580.34	27.515
580.67	28.322
581.01	28.045
581.35	28.026
581.68	26.908
582.02	27.259
582.35	26.903
582.69	27.738
583.02	27.658
583.36	27.821
583.70	28.361
584.03	29.282
584.37	28.496
584.70	28.415
585.04	28.099
585.37	28.179
585.71	28.382
586.04	27.764
586.38	27.723
586.72	28.237
587.05	28.770
587.39	28.420
587.72	28.056
588.06	28.135
588.39	28.045
588.73	28.657
589.06	28.509
589.40	29.045
589.73	29.040
590.07	30.233
590.40	30.418
590.73	30.004
591.07	30.930
591.40	29.900
591.74	29.708
592.07	30.532
592.41	29.776
592.74	29.293
593.08	28.971
593.41	28.785
593.75	28.258
594.08	28.888
594.41	28.935
594.75	29.041
595.08	29.527
595.42	29.921
595.75	29.352
596.09	30.692
596.42	29.607
596.75	31.571
597.09	29.839
597.42	30.082
597.75	29.980
598.09	30.201
598.42	29.988
598.76	30.108
599.09	29.827
599.42	29.031
599.76	29.953
600.09	28.983
600.42	30.076
600.76	29.640
601.09	29.582
601.42	29.145
601.76	29.538
602.09	29.912
602.42	29.353
602.76	30.892
603.09	30.732
603.42	30.055
603.76	29.429
604.09	29.823
604.42	29.755
604.76	30.383
605.09	30.122
605.42	30.354
605.75	29.807
606.09	30.528
606.42	29.763
606.75	29.110
607.09	29.609
607.42	30.173
607.75	30.016
608.08	30.341
608.42	30.831
608.75	30.081
609.08	30.532
609.41	30.909
609.75	30.678
610.08	30.576
610.41	30.874
610.74	30.563
611.07	31.287
611.41	31.418
611.74	31.405
612.07	30.780
612.40	30.848
612.73	31.303
613.07	30.613
613.40	31.529
613.73	31.702
614.06	30.100
614.39	31.869
614.72	31.341
615.06	30.712
615.39	30.644
615.72	30.542
616.05	31.341
616.38	30.746
616.71	31.308
617.05	31.301
617.38	31.517
617.71	31.946
618.04	31.352
618.37	32.240
618.70	31.005
619.03	31.074
619.36	33.794
619.69	32.652
620.03	33.268
620.36	32.498
620.69	33.780
621.02	33.288
621.35	33.453
621.68	35.251
622.01	34.170
622.34	34.960
622.67	34.059
623.00	32.743
623.33	33.333
623.66	32.202
623.99	33.562
624.32	32.656
624.65	32.587
624.99	33.739
625.32	33.467
625.65	33.241
625.98	33.682
626.31	33.902
626.64	34.776
626.97	33.588
627.30	33.618
627.63	34.537
627.96	33.881
628.29	34.983
628.62	34.474
628.95	35.638
629.28	36.284
629.61	36.292
629.94	34.399
630.26	35.182
630.59	36.525
630.92	35.516
631.25	35.993
631.58	37.030
631.91	37.298
632.24	36.443
632.57	35.953
632.90	37.474
633.23	37.566
633.56	37.724
633.89	39.335
634.22	37.460
634.55	36.882
634.88	36.692
635.20	37.892
635.53	39.605
635.86	38.702
636.19	37.710
636.52	36.432
636.85	36.462
637.18	37.486
637.51	37.095
637.83	37.529
638.16	38.453
638.49	38.563
638.82	37.441
639.15	36.193
639.48	41.114
639.81	38.217
640.13	37.914
640.46	39.570
640.79	38.752
641.12	37.795
641.45	40.880
641.77	39.366
642.10	37.617
642.43	39.972
642.76	38.210
643.09	37.176
643.41	40.813
643.74	42.014
644.07	40.265
644.40	39.053
644.73	41.892
645.05	41.605
645.38	40.888
645.71	40.364
646.04	41.527
646.36	41.002
646.69	41.600
647.02	42.240
647.35	40.945
647.67	42.301
648.00	43.485
648.33	40.000
648.66	39.091
648.98	38.406
649.31	38.192
649.64	36.929
649.96	38.834
650.29	37.286
650.62	41.090
650.94	39.307
651.27	41.467
651.60	39.906
651.92	39.324
652.25	40.472
652.58	38.298
652.90	37.275
653.23	38.996
653.56	39.911
653.88	38.767
654.21	38.856
654.54	38.799
654.86	39.676
655.19	38.127
655.52	31.687
655.84	23.846
656.17	27.973
656.49	40.182
656.82	46.448
657.15	37.261
657.47	27.918
657.80	20.794
658.13	16.812
658.45	23.008
658.78	28.246
659.10	28.676
659.43	29.915
659.75	32.165
660.08	33.772
660.41	36.116
660.73	40.778
661.06	40.541
661.38	41.908
661.71	39.748
662.03	41.825
662.36	41.905
662.68	41.527
663.01	40.901
663.33	40.943
663.66	41.617
663.98	44.444
664.31	41.791
664.63	41.762
664.96	44.465
665.28	40.490
665.61	42.830
665.93	43.585
666.26	40.187
666.58	40.550
666.91	41.892
667.23	43.574
667.56	48.460
667.88	43.776
668.21	43.033
668.53	43.548
668.86	43.687
669.18	43.381
669.50	40.496
669.83	43.121
670.15	45.114
670.48	39.844
670.80	44.024
671.13	41.434
671.45	44.689
671.77	39.703
672.10	42.549
672.42	39.967
672.75	39.557
673.07	37.997
673.39	39.137
673.72	41.696
674.04	42.832
674.37	39.020
674.69	40.520
675.01	40.858
675.34	40.698
675.66	43.945
675.98	43.984
676.31	41.400
676.63	42.147
676.95	42.460
677.28	45.639
677.60	44.467
677.92	39.286
678.25	42.442
678.57	39.292
678.89	41.049
679.22	39.890
679.54	43.594
679.86	39.965
680.18	41.828
680.51	37.645
680.83	36.993
681.15	38.995
681.48	37.326
681.80	42.032
682.12	40.830
682.44	38.198
682.77	37.367
683.09	43.301
683.41	42.449
683.73	40.157
684.06	39.683
684.38	43.217
684.70	37.770
685.02	36.806
685.34	41.373
685.67	39.871
685.99	37.110
686.31	37.442
686.63	37.886
686.96	39.869
687.28	38.255
687.60	39.078
687.92	37.186
688.24	39.655
688.56	39.858
688.89	38.623
689.21	40.462
689.53	41.304
689.85	40.854
690.17	39.612
690.49	41.532
690.82	41.597
691.14	41.818
691.46	42.505
691.78	41.715
692.10	40.649
692.42	38.475
692.74	41.085
693.06	41.085
693.39	38.340
693.71	40.472
694.03	41.617
694.35	42.169
694.67	39.308
694.99	41.685
695.31	43.018
695.63	41.403
695.95	40.724
696.27	44.248
696.59	44.630
696.91	40.253
697.23	45.023
697.56	38.174
697.88	37.325
698.20	39.057
698.52	38.911
698.84	41.684
699.16	43.284
699.48	39.831
699.80	45.098
700.12	43.187
700.44	44.159
700.76	41.766
701.08	44.386
701.40	45.455
701.72	43.048
702.04	45.799
702.36	46.505
702.68	43.883
703.00	43.860
703.32	42.184
703.64	44.332
703.96	42.448
704.28	41.534
704.60	43.944
704.91	43.697
705.23	45.170
705.55	48.368
705.87	46.032
706.19	46.082
706.51	51.724
706.83	45.133
707.15	41.979
707.47	41.889
707.79	39.310
708.11	37.188
708.43	41.573
708.74	38.914
709.06	39.767
709.38	40.695
709.70	37.330
710.02	40.489
710.34	43.370
710.66	41.389
710.98	45.628
711.29	40.669
711.61	47.075
711.93	43.161
712.25	44.578
712.57	47.910
712.89	47.273
713.20	49.521
713.52	44.548
713.84	46.526
714.16	39.130
714.48	35.735
714.80	39.837
715.11	40.426
715.43	44.413
715.75	40.563
716.07	44.798
716.39	42.000
716.70	42.368
717.02	46.128
717.34	48.201
717.66	48.264
717.97	52.273
718.29	46.831
718.61	43.243
718.93	48.097
719.24	43.289
719.56	45.172
719.88	41.083
720.20	44.194
720.51	43.137
720.83	44.147
721.15	47.279
721.46	45.205
721.78	48.432
722.10	48.611
722.42	46.823
722.73	45.487
723.05	48.070
723.37	44.170
723.68	46.875
724.00	46.591
724.32	49.810
724.63	45.385
724.95	47.451
725.27	43.123
725.58	45.221
725.90	43.310
726.22	41.781
726.53	42.809
726.85	46.254
727.16	48.658
727.48	43.522
727.80	45.324
728.11	48.929
728.43	44.928
728.74	42.308
729.06	45.161
729.38	47.368
729.69	47.667
730.01	43.421
730.32	40.940
730.64	43.522
730.96	44.444
731.27	36.391
731.59	37.069
731.90	36.769
732.22	37.714
732.53	37.607
732.85	45.614
733.16	38.554
733.48	41.066
733.80	43.188
734.11	44.172
734.43	38.012
734.74	40.214
735.06	40.476
735.37	37.371
735.69	40.290
736.00	44.648
736.32	40.909
736.63	35.331
736.95	40.683
737.26	42.988
737.58	43.865
737.89	40.964
738.21	42.715
738.52	42.475
738.83	48.352
739.15	40.767
739.46	41.379
739.78	39.456
740.09	40.233
740.41	39.877
740.72	44.762
741.04	45.804
741.35	44.141
741.66	46.245
741.98	45.064
742.29	43.519
742.61	42.920
742.92	48.305
743.23	44.400
743.55	44.528
743.86	45.098
744.18	45.339
744.49	46.694
744.80	45.161
745.12	48.661
745.43	47.664
745.74	50.667
746.06	45.175
746.37	51.163
746.68	54.867
747.00	48.430
747.31	46.218
747.62	45.082
747.94	47.210
748.25	41.634
748.56	47.458
748.88	47.768
749.19	46.977
749.50	46.575
749.82	43.621
750.13	43.083
750.44	38.333
750.75	44.631
751.07	41.447
751.38	40.594
751.69	43.771
752.01	39.860
752.32	40.864
752.63	44.966
752.94	40.559
753.26	44.922
753.57	45.525
753.88	43.071
754.19	44.404
754.51	39.867
754.82	36.242
755.13	41.892
755.44	40.370
755.75	46.048
756.07	40.753
756.38	40.523
756.69	41.250
757.00	42.136
757.31	38.873
757.63	37.190
757.94	36.702
758.25	39.130
758.56	36.384
758.87	38.847
759.18	39.244
759.50	38.906
759.81	41.840
760.12	37.921
760.43	39.776
760.74	37.215
761.05	33.422
761.36	38.021
761.67	36.658
761.99	36.901
762.30	40.193
762.61	41.667
762.92	43.561
763.23	43.396
763.54	45.385
763.85	41.245
764.16	38.542
764.47	39.189
764.78	38.111
765.10	35.061
765.41	37.500
765.72	39.227
766.03	37.764
766.34	39.721
766.65	43.726
766.96	44.939
767.27	44.393
767.58	49.010
767.89	54.696
768.20	51.220
768.51	45.918
768.82	46.491
769.13	38.039
769.44	37.970
769.75	39.326
770.06	40.336
770.37	41.228
770.68	41.778
770.99	47.034
771.30	46.862
771.61	46.154
771.92	44.275
772.23	43.548
772.54	52.889
772.85	45.050
773.16	51.630
773.47	52.222
773.78	48.020
774.09	47.159
774.39	50.909
774.70	45.882
775.01	46.711
775.32	44.099
775.63	56.849
775.94	59.259
776.25	60.000
776.56	55.725
776.87	67.176
777.18	56.061
777.48	57.480
777.79	63.077
778.10	56.061
778.41	62.687
778.72	46.617
779.03	51.282
779.34	50.676
779.65	54.037
779.95	50.932
780.26	45.238
780.57	61.905
780.88	59.574
781.19	62.500
781.50	50.888
781.80	45.355
782.11	47.619
782.42	44.828
782.73	42.938
783.04	41.935
783.34	54.264
783.65	44.218
783.96	55.484
784.27	49.669
784.57	44.079
784.88	55.797
785.19	55.000
785.50	58.621
785.81	62.791
786.11	54.074
786.42	50.394
786.73	57.658
787.04	57.547
787.34	42.276
787.65	57.576
787.96	47.727
788.26	49.606
788.57	58.394
788.88	55.634
789.19	54.962
789.49	53.378
789.80	51.563
790.11	57.851
790.41	63.889
790.72	59.259
791.03	65.385
791.33	67.677
791.64	73.684
791.95	62.105
792.25	60.417
792.56	60.000
792.87	58.537
793.17	69.318
793.48	72.941
793.79	58.621
794.09	65.909
794.40	62.931
794.70	65.079
795.01	50.769
795.32	52.672
795.62	54.701
795.93	62.185
796.23	56.911
796.54	76.531
796.85	72.727
797.15	87.013
797.46	84.146
797.76	70.000
798.07	72.000
798.37	85.000
798.68	86.250
798.99	73.171
799.29	70.667
799.60	54.651
799.90	86.842
800.21	83.333
800.51	77.465
800.82	81.034
801.12	70.769
801.43	78.667
801.73	74.138
802.04	83.117
802.34	86.301
802.65	103.922
802.95	86.957
803.26	112.903
803.56	106.667
803.87	91.045
804.17	98.413
804.48	101.887
804.78	87.500
805.09	95.455
805.39	100.000
805.70	94.737
806.00	90.000
806.30	89.062
806.61	63.529
806.91	77.778
807.22	64.130
807.52	60.526
807.83	88.158
808.13	86.957
808.43	93.548
808.74	79.452
809.04	107.143
809.35	91.176
809.65	96.970
809.95	113.725
810.26	90.741
810.56	89.063
810.86	120.408
811.17	100.000
811.47	104.348
811.77	100.000
812.08	86.207
812.38	88.095
812.69	92.857
812.99	86.667
813.29	131.429
813.59	183.871
813.90	87.931
814.20	90.164
814.50	106.000
814.81	54.386
815.11	90.741
815.41	98.214
815.72	121.429
816.02	112.000
816.32	109.756
816.62	96.552
816.93	154.545
817.23	114.634
817.53	108.929
817.84	95.556
818.14	116.667
818.44	97.917
818.74	98.113
819.04	110.256
819.35	130.303
819.65	115.385
819.95	120.370
820.25	119.149
820.56	151.351
820.86	128.947
821.16	70.213
821.46	136.842
821.76	85.455
822.07	100.000
822.37	89.474
822.67	111.628
822.97	121.053
823.27	121.739
823.57	109.375
823.88	128.205
824.18	145.455
824.48	182.609
824.78	125.000
825.08	165.217
825.38	158.621
825.69	141.176
825.99	123.404
826.29	105.556
826.59	125.714
826.89	156.667
827.19	102.857
827.49	151.613
827.79	196.154
828.09	104.762
828.39	102.778
828.70	113.514
829.00	210.714
829.30	225.000
829.60	141.667
829.90	148.387
830.20	124.242
830.50	167.568
830.80	158.333
831.10	161.538
831.40	176.190
831.70	204.167
832.00	160.000
832.30	200.000
832.60	183.333
832.90	160.606
833.20	205.000
833.50	126.316
833.80	144.118
834.10	121.053
834.40	168.421
834.70	80.000
835.00	176.000
835.30	94.595
835.60	143.750
835.90	143.243
836.20	203.846
836.50	177.273
836.80	95.122
837.10	178.261
837.40	307.692
837.70	168.421
838.00	170.000
838.30	212.500
838.60	192.000
838.90	430.000
839.19	200.000
839.49	140.000
839.79	151.724
840.09	165.385
840.39	186.667
840.69	257.895
840.99	119.048
841.29	178.261
841.59	240.000
841.88	204.000
842.18	366.667
842.48	128.571
842.78	159.259
843.08	246.154
843.38	186.364
843.68	278.571
843.97	557.143
844.27	204.348
844.57	1650.000
844.87	314.286
845.17	211.111
845.47	147.619
845.76	145.833
846.06	685.714
846.36	147.059
846.66	269.231
846.96	256.250
847.25	276.923
847.55	194.737
847.85	194.444
848.15	580.000
848.44	281.818
848.74	171.429
849.04	170.833
849.34	200.000
849.63	275.000
849.93	237.500
850.23	1000.000
850.53	412.500
850.82	318.182
851.12	211.765
851.42	187.500
851.71	268.750
852.01	0.000
852.31	200.000
852.61	480.000
852.90	225.000
853.20	388.889
853.50	-3000.000
853.79	196.000
854.09	134.375
854.39	137.931
854.68	172.414
854.98	200.000
855.28	125.806
855.57	285.714
855.87	216.667
856.17	122.222
856.46	215.789
856.76	138.710
857.05	252.941
857.35	309.091
857.65	338.462
857.94	165.000
858.24	355.556
858.53	314.286
858.83	628.571
859.13	191.304
859.42	300.000
859.72	425.000
860.01	283.333
860.31	1300.000
860.60	390.000
860.90	462.500
861.20	315.385
861.49	428.571
861.79	-3400.000
862.08	542.857
862.38	400.000
862.67	271.429
862.97	440.000
863.26	156.667
863.56	850.000
863.85	407.692
864.15	252.941
864.44	227.778
864.74	316.667
865.03	318.182
865.33	337.500
865.62	213.333
865.92	516.667
866.21	875.000
866.51	760.000
866.80	244.444
867.10	1166.667
867.39	3800.000
867.69	660.000
867.98	1000.000
868.27	214.286
868.57	280.000
868.86	1075.000
869.16	195.238
869.45	3800.000
869.75	-466.667
870.04	850.000
870.33	660.000
870.63	425.000
870.92	223.529
871.22	925.000
871.51	371.429
871.80	333.333
872.10	269.231
>>>>>End Processed Spectral Data<<<<<
