SpectraSuite Data File
++++++++++++++++++++++++++++++++++++
Date: Tue May 12 17:20:14 PDT 2015
User: schluterlab
Dark Spectrum Present: Yes
Reference Spectrum Present: Yes
Number of Sampled Component Spectra: 1
Spectrometers: USB2E3373
Integration Time (usec): 3000 (USB2E3373)
Spectra Averaged: 3 (USB2E3373)
Boxcar Smoothing: 0 (USB2E3373)
Correct for Electrical Dark: No (USB2E3373)
Strobe/Lamp Enabled: No (USB2E3373)
Correct for Detector Non-linearity: No (USB2E3373)
Correct for Stray Light: No (USB2E3373)
Number of Pixels in Processed Spectrum: 2048
>>>>>Begin Processed Spectral Data<<<<<
178.53	0.000
178.91	-208.333
179.29	-725.000
179.67	-3700.000
180.04	-133.333
180.42	625.000
180.80	1350.000
181.18	0.000
181.56	-400.000
181.94	0.000
182.31	1300.000
182.69	-3500.000
183.07	585.714
183.45	-3200.000
183.83	-1350.000
184.20	360.000
184.58	342.857
184.96	-276.923
185.34	-300.000
185.72	1450.000
186.09	-875.000
186.47	-3600.000
186.85	1200.000
187.23	600.000
187.61	1450.000
187.98	500.000
188.36	307.143
188.74	333.333
189.12	300.000
189.49	1175.000
189.87	0.000
190.25	425.000
190.63	2900.000
191.00	-150.000
191.38	-3800.000
191.76	-600.000
192.14	562.500
192.51	-3700.000
192.89	1950.000
193.27	966.667
193.65	-1466.667
194.02	-700.000
194.40	528.571
194.78	-142.857
195.15	200.000
195.53	-2800.000
195.91	-540.000
196.29	3500.000
196.66	243.750
197.04	850.000
197.42	-1750.000
197.79	675.000
198.17	366.667
198.55	0.000
198.92	528.571
199.30	1100.000
199.68	1800.000
200.05	716.667
200.43	-500.000
200.81	172.222
201.18	3200.000
201.56	283.333
201.94	-900.000
202.31	-275.000
202.69	-520.000
203.07	3200.000
203.44	-533.333
203.82	291.667
204.19	520.000
204.57	-1300.000
204.95	-775.000
205.32	-720.000
205.70	583.333
206.08	775.000
206.45	-733.333
206.83	344.444
207.20	226.316
207.58	250.000
207.96	680.000
208.33	0.000
208.71	557.143
209.08	680.000
209.46	-2700.000
209.84	-850.000
210.21	680.000
210.59	-540.000
210.96	333.333
211.34	-950.000
211.71	363.636
212.09	950.000
212.46	1500.000
212.84	-450.000
213.22	366.667
213.59	-2300.000
213.97	290.000
214.34	825.000
214.72	1166.667
215.09	933.333
215.47	-3600.000
215.84	-260.000
216.22	-325.000
216.59	0.000
216.97	0.000
217.34	1650.000
217.72	-1750.000
218.09	1033.333
218.47	462.500
218.84	725.000
219.22	1333.333
219.59	900.000
219.97	542.857
220.34	288.889
220.72	1750.000
221.09	3700.000
221.47	216.667
221.84	966.667
222.22	380.000
222.59	238.889
222.97	235.714
223.34	243.750
223.72	-1650.000
224.09	600.000
224.46	269.231
224.84	-800.000
225.21	333.333
225.59	280.000
225.96	1266.667
226.34	-640.000
226.71	-675.000
227.08	-580.000
227.46	0.000
227.83	-350.000
228.21	-2050.000
228.58	350.000
228.95	1175.000
229.33	400.000
229.70	850.000
230.08	323.077
230.45	3000.000
230.82	-675.000
231.20	-933.333
231.57	-900.000
231.95	580.000
232.32	258.333
232.69	500.000
233.07	266.667
233.44	-1350.000
233.81	246.667
234.19	129.630
234.56	262.500
234.93	158.824
235.31	115.000
235.68	256.250
236.05	182.143
236.43	125.926
236.80	207.143
237.17	172.414
237.55	121.875
237.92	117.500
238.29	109.091
238.67	90.625
239.04	87.805
239.41	66.667
239.79	65.000
240.16	60.417
240.53	44.262
240.91	59.420
241.28	61.017
241.65	45.455
242.02	64.789
242.40	62.857
242.77	41.758
243.14	56.962
243.51	50.505
243.89	40.187
244.26	44.860
244.63	33.663
245.00	44.037
245.38	31.356
245.75	40.909
246.12	40.000
246.49	36.170
246.87	32.787
247.24	30.000
247.61	28.125
247.98	27.211
248.36	24.242
248.73	32.653
249.10	29.762
249.47	21.500
249.84	29.353
250.22	31.351
250.59	25.500
250.96	24.473
251.33	18.605
251.70	25.000
252.08	20.168
252.45	19.124
252.82	20.152
253.19	15.020
253.56	20.769
253.94	25.000
254.31	18.605
254.68	19.164
255.05	21.379
255.42	20.803
255.79	19.544
256.16	20.339
256.54	20.130
256.91	18.627
257.28	16.388
257.65	15.674
258.02	16.519
258.39	18.338
258.76	17.681
259.14	15.143
259.51	15.452
259.88	20.061
260.25	14.835
260.62	17.808
260.99	11.846
261.36	17.549
261.73	15.426
262.10	19.372
262.47	17.000
262.85	16.800
263.22	15.938
263.59	15.601
263.96	19.298
264.33	14.074
264.70	16.953
265.07	14.878
265.44	15.826
265.81	15.802
266.18	16.705
266.55	14.657
266.92	18.121
267.29	14.254
267.66	13.453
268.03	14.798
268.40	16.490
268.77	13.216
269.14	12.798
269.51	13.808
269.88	16.122
270.25	12.527
270.62	13.305
270.99	15.010
271.36	16.260
271.73	14.256
272.10	10.707
272.47	12.698
272.84	15.170
273.21	13.430
273.58	15.789
273.95	13.758
274.32	14.202
274.69	14.961
275.06	15.847
275.43	12.835
275.80	14.717
276.17	14.154
276.54	14.393
276.91	12.873
277.28	14.234
277.65	14.945
278.02	13.971
278.39	11.871
278.76	14.655
279.13	12.456
279.50	12.182
279.87	10.987
280.23	13.444
280.60	13.321
280.97	13.276
281.34	12.706
281.71	12.696
282.08	13.846
282.45	13.176
282.82	13.211
283.19	13.672
283.56	11.736
283.92	13.192
284.29	13.644
284.66	13.277
285.03	13.101
285.40	12.562
285.77	11.883
286.14	12.539
286.51	13.190
286.87	12.342
287.24	11.411
287.61	11.550
287.98	14.328
288.35	12.000
288.72	12.898
289.08	12.913
289.45	13.567
289.82	13.438
290.19	11.859
290.56	14.993
290.93	14.676
291.29	13.674
291.66	13.842
292.03	12.903
292.40	13.144
292.77	12.396
293.13	13.837
293.50	13.090
293.87	12.873
294.24	15.245
294.60	13.728
294.97	15.385
295.34	12.085
295.71	14.717
296.08	14.000
296.44	13.215
296.81	11.787
297.18	12.801
297.55	13.424
297.91	13.793
298.28	14.251
298.65	13.742
299.02	13.510
299.38	14.029
299.75	14.634
300.12	13.303
300.48	13.700
300.85	15.971
301.22	13.605
301.59	13.208
301.95	12.719
302.32	13.620
302.69	14.253
303.05	14.703
303.42	13.229
303.79	14.193
304.15	13.641
304.52	13.425
304.89	14.179
305.25	14.683
305.62	15.139
305.99	14.674
306.35	13.474
306.72	14.568
307.09	13.561
307.45	14.572
307.82	14.712
308.19	14.536
308.55	13.800
308.92	14.328
309.29	14.990
309.65	14.073
310.02	15.923
310.38	14.357
310.75	13.983
311.12	14.272
311.48	16.313
311.85	15.840
312.22	16.332
312.58	13.897
312.95	15.631
313.31	15.356
313.68	14.822
314.05	15.385
314.41	14.711
314.78	14.962
315.14	15.829
315.51	15.894
315.87	15.237
316.24	16.527
316.61	16.920
316.97	14.495
317.34	14.465
317.70	16.945
318.07	16.192
318.43	16.608
318.80	16.462
319.16	15.822
319.53	17.168
319.89	15.412
320.26	18.250
320.62	16.850
320.99	17.159
321.35	16.605
321.72	17.173
322.08	17.544
322.45	17.711
322.81	16.560
323.18	17.673
323.54	17.683
323.91	18.223
324.27	18.656
324.64	17.993
325.00	19.569
325.37	18.718
325.73	19.140
326.10	18.973
326.46	20.396
326.83	19.120
327.19	20.161
327.56	18.690
327.92	19.754
328.29	21.522
328.65	19.949
329.01	20.701
329.38	19.459
329.74	20.666
330.11	20.156
330.47	20.631
330.84	20.104
331.20	20.558
331.56	22.021
331.93	20.530
332.29	20.493
332.66	21.003
333.02	19.244
333.38	19.895
333.75	20.934
334.11	19.295
334.48	20.513
334.84	20.608
335.20	20.359
335.57	20.319
335.93	20.353
336.29	20.481
336.66	20.755
337.02	20.359
337.38	20.550
337.75	21.453
338.11	21.013
338.47	20.322
338.84	20.914
339.20	19.740
339.56	20.521
339.93	19.732
340.29	18.655
340.65	20.788
341.02	20.113
341.38	19.951
341.74	20.681
342.11	19.866
342.47	19.442
342.83	20.673
343.20	21.180
343.56	19.222
343.92	20.974
344.28	20.813
344.65	20.538
345.01	20.556
345.37	18.910
345.73	20.556
346.10	20.637
346.46	20.654
346.82	19.213
347.19	20.170
347.55	19.672
347.91	20.091
348.27	19.830
348.63	21.044
349.00	19.878
349.36	21.012
349.72	20.336
350.08	20.109
350.45	20.411
350.81	20.336
351.17	20.493
351.53	19.784
351.89	20.047
352.26	20.711
352.62	20.814
352.98	21.166
353.34	20.724
353.70	20.719
354.07	20.538
354.43	20.661
354.79	19.970
355.15	19.985
355.51	20.015
355.87	20.407
356.24	20.939
356.60	20.396
356.96	20.470
357.32	21.176
357.68	21.072
358.04	20.745
358.40	21.439
358.77	21.938
359.13	20.796
359.49	19.867
359.85	20.923
360.21	20.654
360.57	20.803
360.93	21.573
361.29	20.924
361.66	20.955
362.02	19.744
362.38	20.779
362.74	21.515
363.10	21.879
363.46	20.994
363.82	21.599
364.18	21.124
364.54	20.458
364.90	22.088
365.26	21.096
365.62	20.580
365.98	20.647
366.35	21.103
366.71	20.819
367.07	20.887
367.43	21.827
367.79	20.745
368.15	20.421
368.51	21.227
368.87	20.788
369.23	21.137
369.59	20.769
369.95	22.587
370.31	21.081
370.67	22.068
371.03	22.829
371.39	21.607
371.75	21.493
372.11	22.298
372.47	21.712
372.83	21.686
373.19	21.590
373.55	22.199
373.91	20.511
374.27	21.362
374.63	22.305
374.99	22.102
375.35	22.312
375.71	21.834
376.07	21.751
376.42	21.483
376.78	21.708
377.14	21.232
377.50	21.411
377.86	21.973
378.22	21.877
378.58	23.608
378.94	22.450
379.30	21.589
379.66	22.035
380.02	21.701
380.38	22.248
380.74	23.241
381.09	22.138
381.45	22.312
381.81	22.104
382.17	21.856
382.53	21.776
382.89	22.117
383.25	22.025
383.61	21.844
383.97	22.496
384.32	22.483
384.68	23.708
385.04	22.216
385.40	23.132
385.76	21.884
386.12	22.573
386.48	22.128
386.83	23.289
387.19	21.496
387.55	22.026
387.91	22.229
388.27	22.189
388.62	23.063
388.98	22.332
389.34	22.249
389.70	22.642
390.06	22.927
390.42	22.147
390.77	22.912
391.13	23.416
391.49	21.658
391.85	21.969
392.20	22.288
392.56	23.118
392.92	22.459
393.28	22.365
393.64	22.018
393.99	22.229
394.35	21.719
394.71	21.773
395.07	21.350
395.42	21.604
395.78	23.319
396.14	22.349
396.50	22.804
396.85	22.012
397.21	22.323
397.57	22.176
397.92	20.855
398.28	21.732
398.64	22.978
399.00	21.913
399.35	21.846
399.71	23.013
400.07	22.432
400.42	22.328
400.78	22.698
401.14	22.079
401.49	21.659
401.85	21.958
402.21	21.383
402.57	21.843
402.92	22.182
403.28	21.301
403.63	21.071
403.99	21.713
404.35	21.805
404.70	21.264
405.06	22.066
405.42	22.501
405.77	20.948
406.13	20.933
406.49	20.409
406.84	21.038
407.20	21.404
407.55	21.477
407.91	21.953
408.27	22.377
408.62	22.058
408.98	21.407
409.34	20.865
409.69	21.095
410.05	20.632
410.40	20.848
410.76	20.664
411.11	21.505
411.47	21.111
411.83	20.797
412.18	20.954
412.54	20.961
412.89	20.354
413.25	21.551
413.60	20.794
413.96	20.646
414.31	22.845
414.67	21.974
415.03	20.817
415.38	21.577
415.74	21.541
416.09	20.862
416.45	22.366
416.80	21.488
417.16	21.897
417.51	21.783
417.87	21.902
418.22	21.993
418.58	21.592
418.93	21.237
419.29	20.641
419.64	21.866
420.00	22.315
420.35	21.254
420.71	21.179
421.06	20.777
421.42	21.128
421.77	21.321
422.12	21.114
422.48	21.212
422.83	21.317
423.19	21.436
423.54	21.229
423.90	21.971
424.25	20.914
424.61	21.764
424.96	20.779
425.31	21.401
425.67	21.886
426.02	21.425
426.38	20.712
426.73	21.631
427.09	22.005
427.44	20.597
427.79	20.812
428.15	22.451
428.50	22.514
428.85	22.163
429.21	22.096
429.56	21.386
429.92	20.985
430.27	21.432
430.62	20.999
430.98	21.856
431.33	20.615
431.68	20.840
432.04	22.142
432.39	22.064
432.74	22.073
433.10	22.370
433.45	22.458
433.80	23.001
434.16	21.913
434.51	22.446
434.86	22.754
435.22	20.800
435.57	22.051
435.92	22.595
436.28	22.926
436.63	22.312
436.98	22.748
437.34	22.432
437.69	21.781
438.04	22.258
438.39	22.592
438.75	22.773
439.10	22.072
439.45	21.255
439.81	22.846
440.16	22.345
440.51	21.903
440.86	22.336
441.22	21.537
441.57	21.890
441.92	21.915
442.27	22.320
442.63	21.545
442.98	21.713
443.33	22.014
443.68	22.233
444.03	21.960
444.39	22.505
444.74	22.619
445.09	22.907
445.44	22.423
445.79	22.173
446.15	22.579
446.50	22.627
446.85	22.112
447.20	22.338
447.55	22.295
447.91	23.069
448.26	22.258
448.61	22.388
448.96	22.059
449.31	22.552
449.66	22.979
450.02	22.798
450.37	22.765
450.72	22.700
451.07	23.153
451.42	22.703
451.77	22.795
452.12	22.178
452.47	22.783
452.83	23.155
453.18	23.483
453.53	22.795
453.88	23.143
454.23	23.359
454.58	23.427
454.93	23.728
455.28	23.133
455.63	22.754
455.98	22.786
456.34	24.438
456.69	23.293
457.04	22.196
457.39	22.686
457.74	22.410
458.09	22.628
458.44	22.673
458.79	23.501
459.14	22.640
459.49	22.707
459.84	22.554
460.19	22.938
460.54	23.191
460.89	22.281
461.24	22.222
461.59	22.336
461.94	22.991
462.29	22.426
462.64	22.927
462.99	22.201
463.34	23.396
463.69	24.259
464.04	22.510
464.39	22.152
464.74	21.630
465.09	22.809
465.44	22.524
465.79	22.319
466.14	22.364
466.49	22.029
466.84	21.962
467.19	23.433
467.54	23.664
467.89	21.948
468.24	22.409
468.59	22.917
468.94	23.551
469.29	23.335
469.64	22.830
469.99	22.943
470.34	23.719
470.68	22.897
471.03	22.815
471.38	23.444
471.73	22.730
472.08	23.614
472.43	23.215
472.78	22.983
473.13	22.778
473.48	23.778
473.83	22.968
474.17	22.553
474.52	22.216
474.87	22.115
475.22	22.444
475.57	21.459
475.92	22.075
476.27	21.382
476.61	22.252
476.96	22.623
477.31	22.879
477.66	23.403
478.01	22.434
478.36	22.606
478.70	22.084
479.05	21.967
479.40	21.478
479.75	22.542
480.10	22.072
480.45	21.849
480.79	22.350
481.14	22.206
481.49	21.500
481.84	21.196
482.19	22.052
482.53	21.607
482.88	21.998
483.23	21.967
483.58	21.768
483.92	22.761
484.27	21.533
484.62	21.562
484.97	21.426
485.31	20.335
485.66	20.084
486.01	19.289
486.36	19.248
486.70	19.037
487.05	19.371
487.40	19.706
487.75	20.202
488.09	19.858
488.44	20.172
488.79	20.375
489.13	21.015
489.48	21.055
489.83	21.435
490.17	21.676
490.52	21.792
490.87	22.284
491.22	21.809
491.56	21.476
491.91	21.416
492.26	21.158
492.60	22.050
492.95	22.247
493.30	22.429
493.64	21.429
493.99	21.825
494.34	21.201
494.68	21.514
495.03	21.599
495.37	21.522
495.72	22.005
496.07	21.788
496.41	21.156
496.76	21.528
497.11	21.037
497.45	21.394
497.80	21.548
498.14	21.729
498.49	21.727
498.84	22.150
499.18	21.252
499.53	20.992
499.87	20.979
500.22	22.340
500.56	21.263
500.91	22.356
501.26	21.497
501.60	21.448
501.95	20.923
502.29	21.378
502.64	20.820
502.98	20.854
503.33	21.069
503.67	21.413
504.02	20.914
504.36	20.950
504.71	22.138
505.06	21.023
505.40	21.338
505.75	21.609
506.09	21.185
506.44	21.335
506.78	21.645
507.13	21.474
507.47	21.980
507.82	22.092
508.16	22.636
508.51	21.256
508.85	21.320
509.19	21.880
509.54	21.533
509.88	22.626
510.23	22.108
510.57	21.477
510.92	22.128
511.26	22.540
511.61	22.009
511.95	21.752
512.30	22.050
512.64	22.326
512.98	21.835
513.33	21.363
513.67	21.647
514.02	21.299
514.36	22.430
514.70	21.493
515.05	22.003
515.39	23.026
515.74	23.073
516.08	21.296
516.42	22.951
516.77	22.507
517.11	23.200
517.46	23.114
517.80	22.228
518.14	23.324
518.49	21.885
518.83	22.308
519.17	23.627
519.52	22.993
519.86	22.943
520.20	22.685
520.55	22.499
520.89	22.126
521.23	23.189
521.58	22.318
521.92	22.391
522.26	22.690
522.61	23.173
522.95	23.544
523.29	22.924
523.64	22.775
523.98	23.650
524.32	23.010
524.66	23.478
525.01	22.722
525.35	22.864
525.69	23.058
526.04	22.665
526.38	23.072
526.72	22.971
527.06	21.585
527.41	23.761
527.75	22.702
528.09	23.179
528.43	24.466
528.78	23.494
529.12	23.299
529.46	22.151
529.80	22.196
530.15	22.805
530.49	22.082
530.83	22.425
531.17	22.509
531.51	22.440
531.86	22.524
532.20	22.250
532.54	22.724
532.88	22.673
533.22	22.547
533.57	22.453
533.91	22.086
534.25	21.581
534.59	22.632
534.93	22.696
535.27	21.400
535.62	21.529
535.96	21.749
536.30	22.913
536.64	22.360
536.98	22.089
537.32	22.313
537.66	22.385
538.01	22.229
538.35	22.458
538.69	21.299
539.03	21.766
539.37	21.359
539.71	22.284
540.05	21.354
540.39	22.830
540.73	22.468
541.07	21.706
541.42	21.517
541.76	21.948
542.10	21.332
542.44	22.319
542.78	21.838
543.12	20.859
543.46	22.180
543.80	21.366
544.14	21.672
544.48	21.655
544.82	21.651
545.16	20.461
545.50	21.512
545.84	22.033
546.18	22.562
546.52	22.689
546.86	22.308
547.20	21.835
547.54	22.293
547.88	21.533
548.22	21.736
548.56	21.391
548.90	20.937
549.24	21.605
549.58	21.263
549.92	21.676
550.26	22.177
550.60	21.756
550.94	21.506
551.28	22.483
551.62	22.759
551.96	21.824
552.30	20.501
552.64	22.330
552.98	21.005
553.32	21.191
553.66	20.782
554.00	21.171
554.34	22.503
554.68	22.043
555.02	21.928
555.36	21.144
555.69	22.513
556.03	21.720
556.37	21.734
556.71	23.272
557.05	20.315
557.39	21.533
557.73	22.439
558.07	22.468
558.41	21.659
558.75	22.230
559.08	22.230
559.42	22.763
559.76	22.238
560.10	22.643
560.44	21.035
560.78	21.803
561.12	21.678
561.45	21.965
561.79	20.162
562.13	20.404
562.47	21.155
562.81	20.885
563.15	20.814
563.48	20.745
563.82	21.335
564.16	21.766
564.50	20.976
564.84	20.790
565.17	21.747
565.51	21.059
565.85	22.579
566.19	20.119
566.52	20.397
566.86	20.549
567.20	20.562
567.54	20.852
567.88	20.449
568.21	19.970
568.55	19.990
568.89	19.297
569.23	19.111
569.56	19.449
569.90	18.254
570.24	18.467
570.57	18.073
570.91	17.629
571.25	17.645
571.59	17.287
571.92	17.061
572.26	16.954
572.60	16.884
572.93	17.424
573.27	17.203
573.61	17.082
573.95	17.032
574.28	17.111
574.62	16.628
574.96	16.569
575.29	16.369
575.63	16.702
575.97	16.261
576.30	16.730
576.64	16.906
576.98	16.694
577.31	16.820
577.65	16.639
577.98	16.067
578.32	15.956
578.66	16.233
578.99	16.740
579.33	16.802
579.67	16.524
580.00	16.441
580.34	16.071
580.67	16.376
581.01	16.853
581.35	16.239
581.68	15.949
582.02	15.772
582.35	15.710
582.69	16.072
583.02	16.473
583.36	16.431
583.70	16.486
584.03	17.350
584.37	16.885
584.70	16.696
585.04	16.393
585.37	16.411
585.71	16.989
586.04	16.324
586.38	16.471
586.72	16.448
587.05	17.061
587.39	16.713
587.72	16.785
588.06	17.035
588.39	16.991
588.73	16.916
589.06	16.662
589.40	17.340
589.73	17.699
590.07	18.051
590.40	17.805
590.73	18.509
591.07	18.672
591.40	17.764
591.74	18.385
592.07	17.263
592.41	17.866
592.74	17.283
593.08	17.383
593.41	16.427
593.75	16.720
594.08	17.739
594.41	17.009
594.75	17.568
595.08	17.627
595.42	17.841
595.75	17.275
596.09	17.310
596.42	17.007
596.75	17.909
597.09	18.201
597.42	17.633
597.75	17.079
598.09	18.014
598.42	17.625
598.76	17.425
599.09	18.316
599.42	17.301
599.76	17.537
600.09	17.119
600.42	16.954
600.76	16.859
601.09	17.397
601.42	17.177
601.76	17.472
602.09	18.102
602.42	17.301
602.76	17.799
603.09	17.760
603.42	17.284
603.76	17.209
604.09	17.300
604.42	17.665
604.76	17.384
605.09	18.286
605.42	18.163
605.75	17.765
606.09	17.636
606.42	17.700
606.75	17.217
607.09	17.134
607.42	16.834
607.75	17.317
608.08	17.872
608.42	18.331
608.75	17.030
609.08	17.950
609.41	18.136
609.75	18.407
610.08	18.076
610.41	17.216
610.74	17.835
611.07	18.054
611.41	18.953
611.74	18.356
612.07	18.256
612.40	18.275
612.73	18.123
613.07	18.804
613.40	19.048
613.73	17.923
614.06	18.350
614.39	19.545
614.72	18.132
615.06	17.953
615.39	17.277
615.72	17.377
616.05	18.734
616.38	17.859
616.71	18.611
617.05	17.902
617.38	18.371
617.71	18.898
618.04	18.620
618.37	18.510
618.70	18.938
619.03	19.475
619.36	19.158
619.69	19.657
620.03	19.765
620.36	19.846
620.69	20.626
621.02	21.060
621.35	20.344
621.68	20.133
622.01	20.812
622.34	20.539
622.67	20.506
623.00	19.673
623.33	19.096
623.66	19.694
623.99	20.137
624.32	19.580
624.65	20.342
624.99	19.540
625.32	19.439
625.65	19.310
625.98	19.526
626.31	20.252
626.64	20.501
626.97	20.122
627.30	20.264
627.63	20.487
627.96	19.014
628.29	21.287
628.62	20.445
628.95	21.099
629.28	21.648
629.61	21.529
629.94	20.743
630.26	21.404
630.59	23.316
630.92	20.807
631.25	22.665
631.58	22.758
631.91	22.074
632.24	21.283
632.57	21.022
632.90	22.878
633.23	23.400
633.56	23.393
633.89	22.294
634.22	21.636
634.55	21.505
634.88	23.111
635.20	23.543
635.53	23.461
635.86	23.490
636.19	24.355
636.52	22.162
636.85	22.330
637.18	23.185
637.51	22.905
637.83	22.311
638.16	23.564
638.49	23.473
638.82	22.887
639.15	22.092
639.48	24.645
639.81	22.955
640.13	23.681
640.46	23.515
640.79	23.797
641.12	23.097
641.45	25.226
641.77	25.760
642.10	24.498
642.43	23.186
642.76	23.295
643.09	24.352
643.41	24.264
643.74	26.619
644.07	26.401
644.40	24.112
644.73	25.225
645.05	27.043
645.38	26.034
645.71	23.976
646.04	27.939
646.36	25.196
646.69	26.080
647.02	27.200
647.35	25.669
647.67	25.122
648.00	24.919
648.33	26.617
648.66	25.606
648.98	25.217
649.31	22.402
649.64	23.928
649.96	22.760
650.29	21.857
650.62	24.595
650.94	25.602
651.27	25.997
651.60	26.291
651.92	23.349
652.25	26.299
652.58	22.837
652.90	25.749
653.23	24.077
653.56	24.926
653.88	23.201
654.21	24.047
654.54	25.329
654.86	24.631
655.19	23.087
655.52	19.591
655.84	14.002
656.17	15.370
656.49	21.852
656.82	25.180
657.15	20.395
657.47	15.227
657.80	11.000
658.13	8.907
658.45	12.077
658.78	14.687
659.10	15.317
659.43	15.652
659.75	17.309
660.08	17.168
660.41	18.512
660.73	23.087
661.06	23.724
661.38	26.405
661.71	25.719
662.03	25.856
662.36	26.476
662.68	26.071
663.01	28.468
663.33	27.547
663.66	28.008
663.98	29.563
664.31	26.679
664.63	28.352
664.96	27.955
665.28	25.800
665.61	23.585
665.93	26.226
666.26	26.729
666.58	29.174
666.91	26.448
667.23	27.108
667.56	28.337
667.88	26.141
668.21	28.484
668.53	27.823
668.86	29.459
669.18	25.458
669.50	24.174
669.83	26.899
670.15	26.403
670.48	25.781
670.80	26.892
671.13	27.092
671.45	29.058
671.77	26.531
672.10	27.469
672.42	24.836
672.75	25.475
673.07	24.324
673.39	25.080
673.72	25.260
674.04	26.165
674.37	24.319
674.69	27.695
675.01	27.985
675.34	25.775
675.66	26.563
675.98	30.572
676.31	25.800
676.63	26.640
676.95	25.992
677.28	24.341
677.60	24.547
677.92	25.595
678.25	24.806
678.57	24.767
678.89	26.582
679.22	26.103
679.54	22.954
679.86	27.400
680.18	25.659
680.51	21.559
680.83	22.128
681.15	25.477
681.48	25.694
681.80	25.044
682.12	24.221
682.44	24.505
682.77	26.690
683.09	25.049
683.41	25.306
683.73	25.197
684.06	26.984
684.38	27.519
684.70	23.561
685.02	23.090
685.34	24.296
685.67	25.080
685.99	23.810
686.31	23.883
686.63	25.203
686.96	23.529
687.28	23.658
687.60	23.720
687.92	24.791
688.24	27.586
688.56	25.445
688.89	21.415
689.21	24.663
689.53	25.494
689.85	22.561
690.17	25.437
690.49	26.613
690.82	28.361
691.14	27.475
691.46	27.515
691.78	25.731
692.10	24.046
692.42	22.323
692.74	26.357
693.06	25.194
693.39	24.704
693.71	25.147
694.03	25.838
694.35	25.502
694.67	25.866
694.99	26.386
695.31	28.829
695.63	26.018
695.95	26.244
696.27	29.425
696.59	29.356
696.91	27.342
697.23	28.281
697.56	23.029
697.88	20.160
698.20	25.660
698.52	22.957
698.84	24.846
699.16	26.226
699.48	25.000
699.80	27.887
700.12	27.714
700.44	27.570
700.76	29.117
701.08	30.809
701.40	28.831
701.72	29.679
702.04	30.894
702.36	27.419
702.68	30.851
703.00	28.070
703.32	26.303
703.64	26.952
703.96	27.865
704.28	25.926
704.60	29.577
704.91	30.252
705.23	29.261
705.55	29.080
705.87	31.111
706.19	32.602
706.51	34.796
706.83	29.204
707.15	31.283
707.47	28.087
707.79	23.678
708.11	26.757
708.43	24.045
708.74	23.982
709.06	25.581
709.38	27.792
709.70	26.431
710.02	28.533
710.34	27.901
710.66	27.222
710.98	29.508
711.29	29.526
711.61	28.412
711.93	24.924
712.25	28.916
712.57	32.154
712.89	30.606
713.20	30.032
713.52	25.234
713.84	28.701
714.16	26.957
714.48	24.496
714.80	30.352
715.11	26.064
715.43	24.860
715.75	27.042
716.07	27.746
716.39	29.143
716.70	25.857
717.02	31.987
717.34	37.050
717.66	30.903
717.97	32.955
718.29	29.225
718.61	25.000
718.93	31.142
719.24	30.201
719.56	26.552
719.88	27.070
720.20	26.774
720.51	28.431
720.83	31.104
721.15	29.592
721.46	33.219
721.78	27.875
722.10	31.597
722.42	29.766
722.73	29.242
723.05	33.333
723.37	29.682
723.68	31.250
724.00	32.576
724.32	30.038
724.63	34.231
724.95	31.765
725.27	34.201
725.58	30.882
725.90	29.930
726.22	28.082
726.53	28.763
726.85	32.899
727.16	30.537
727.48	26.578
727.80	28.777
728.11	28.571
728.43	31.884
728.74	28.322
729.06	27.957
729.38	31.579
729.69	32.000
730.01	32.895
730.32	26.174
730.64	33.555
730.96	27.628
731.27	21.713
731.59	24.425
731.90	22.563
732.22	24.571
732.53	23.932
732.85	30.117
733.16	26.506
733.48	29.154
733.80	26.957
734.11	30.368
734.43	26.901
734.74	26.542
735.06	28.042
735.37	24.485
735.69	26.957
736.00	26.300
736.32	22.121
736.63	25.552
736.95	28.882
737.26	27.439
737.58	27.607
737.89	28.916
738.21	26.490
738.52	28.094
738.83	33.700
739.15	29.617
739.46	25.517
739.78	26.190
740.09	25.073
740.41	26.994
740.72	30.476
741.04	33.566
741.35	29.297
741.66	34.387
741.98	29.185
742.29	31.944
742.61	36.283
742.92	27.966
743.23	29.600
743.55	28.679
743.86	28.627
744.18	30.085
744.49	33.471
744.80	34.101
745.12	33.482
745.43	34.579
745.74	38.222
746.06	29.386
746.37	32.558
746.68	38.053
747.00	35.874
747.31	35.294
747.62	29.508
747.94	28.755
748.25	29.183
748.56	34.322
748.88	34.375
749.19	32.558
749.50	24.201
749.82	30.453
750.13	28.458
750.44	26.333
750.75	28.188
751.07	32.237
751.38	29.703
751.69	27.273
752.01	26.224
752.32	27.907
752.63	24.832
752.94	27.273
753.26	32.031
753.57	30.350
753.88	27.341
754.19	28.520
754.51	26.910
754.82	25.503
755.13	30.743
755.44	27.778
755.75	26.117
756.07	28.082
756.38	24.510
756.69	30.938
757.00	27.300
757.31	29.577
757.63	24.242
757.94	23.936
758.25	21.981
758.56	24.943
758.87	24.812
759.18	25.581
759.50	25.228
759.81	25.816
760.12	23.876
760.43	24.090
760.74	23.038
761.05	26.790
761.36	25.000
761.67	25.876
761.99	26.761
762.30	22.830
762.61	27.431
762.92	30.303
763.23	26.415
763.54	27.692
763.85	27.237
764.16	29.514
764.47	26.689
764.78	24.104
765.10	24.085
765.41	21.307
765.72	24.309
766.03	28.097
766.34	27.178
766.65	26.616
766.96	31.174
767.27	32.243
767.58	33.168
767.89	37.569
768.20	42.683
768.51	29.082
768.82	30.263
769.13	30.196
769.44	26.692
769.75	25.094
770.06	31.933
770.37	32.018
770.68	29.333
770.99	29.661
771.30	35.565
771.61	31.538
771.92	34.351
772.23	30.645
772.54	32.000
772.85	34.158
773.16	34.239
773.47	39.444
773.78	38.614
774.09	33.523
774.39	35.758
774.70	30.588
775.01	34.211
775.32	32.919
775.63	44.521
775.94	46.296
776.25	43.448
776.56	47.328
776.87	45.038
777.18	42.424
777.48	51.969
777.79	43.077
778.10	46.212
778.41	44.776
778.72	36.090
779.03	37.821
779.34	35.135
779.65	40.994
779.95	37.267
780.26	40.476
780.57	40.136
780.88	45.390
781.19	47.500
781.50	36.686
781.80	37.705
782.11	34.921
782.42	25.287
782.73	38.418
783.04	33.548
783.34	35.659
783.65	38.095
783.96	34.839
784.27	39.735
784.57	35.526
784.88	45.652
785.19	41.667
785.50	43.103
785.81	50.388
786.11	41.481
786.42	34.646
786.73	44.144
787.04	41.509
787.34	44.715
787.65	50.000
787.96	43.182
788.26	41.732
788.57	48.905
788.88	40.845
789.19	38.168
789.49	48.649
789.80	43.750
790.11	35.537
790.41	49.074
790.72	41.667
791.03	60.577
791.33	49.495
791.64	52.632
791.95	65.263
792.25	41.667
792.56	50.000
792.87	56.098
793.17	48.864
793.48	57.647
793.79	66.667
794.09	57.955
794.40	49.138
794.70	38.889
795.01	36.154
795.32	37.405
795.62	36.752
795.93	45.378
796.23	36.585
796.54	43.878
796.85	57.955
797.15	79.221
797.46	71.951
797.76	51.250
798.07	78.667
798.37	70.000
798.68	77.500
798.99	59.756
799.29	61.333
799.60	46.512
799.90	48.684
800.21	54.545
800.51	54.930
800.82	75.862
801.12	75.385
801.43	70.667
801.73	84.483
802.04	70.130
802.34	68.493
802.65	80.392
802.95	76.087
803.26	72.581
803.56	71.667
803.87	67.164
804.17	63.492
804.48	94.340
804.78	61.111
805.09	75.758
805.39	61.905
805.70	71.930
806.00	52.857
806.30	62.500
806.61	69.412
806.91	66.667
807.22	57.609
807.52	51.316
807.83	48.684
808.13	50.725
808.43	77.419
808.74	56.164
809.04	69.643
809.35	88.235
809.65	65.152
809.95	74.510
810.26	90.741
810.56	76.562
810.86	59.184
811.17	87.719
811.47	89.130
811.77	89.655
812.08	81.034
812.38	100.000
812.69	85.714
812.99	62.222
813.29	88.571
813.59	106.452
813.90	67.241
814.20	78.689
814.50	86.000
814.81	63.158
815.11	98.148
815.41	85.714
815.72	94.643
816.02	88.000
816.32	102.439
816.62	93.103
816.93	100.000
817.23	112.195
817.53	96.429
817.84	88.889
818.14	69.048
818.44	81.250
818.74	88.679
819.04	69.231
819.35	121.212
819.65	109.615
819.95	87.037
820.25	97.872
820.56	86.486
820.86	113.158
821.16	63.830
821.46	100.000
821.76	87.273
822.07	78.571
822.37	102.632
822.67	109.302
822.97	81.579
823.27	100.000
823.57	78.125
823.88	117.949
824.18	112.121
824.48	152.174
824.78	119.444
825.08	143.478
825.38	120.690
825.69	117.647
825.99	80.851
826.29	111.111
826.59	88.571
826.89	140.000
827.19	97.143
827.49	106.452
827.79	126.923
828.09	88.095
828.39	88.889
828.70	78.378
829.00	167.857
829.30	193.750
829.60	105.556
829.90	116.129
830.20	84.848
830.50	102.703
830.80	162.500
831.10	165.385
831.40	138.095
831.70	175.000
832.00	90.000
832.30	169.565
832.60	220.833
832.90	148.485
833.20	205.000
833.50	94.737
833.80	123.529
834.10	94.737
834.40	173.684
834.70	116.667
835.00	180.000
835.30	89.189
835.60	140.625
835.90	137.838
836.20	146.154
836.50	118.182
836.80	90.244
837.10	169.565
837.40	353.846
837.70	136.842
838.00	116.667
838.30	179.167
838.60	176.000
838.90	260.000
839.19	218.750
839.49	150.000
839.79	124.138
840.09	134.615
840.39	173.333
840.69	189.474
840.99	123.810
841.29	143.478
841.59	225.000
841.88	176.000
842.18	333.333
842.48	185.714
842.78	159.259
843.08	261.538
843.38	122.727
843.68	292.857
843.97	400.000
844.27	160.870
844.57	1500.000
844.87	292.857
845.17	227.778
845.47	166.667
845.76	175.000
846.06	514.286
846.36	170.588
846.66	292.308
846.96	218.750
847.25	184.615
847.55	210.526
847.85	183.333
848.15	540.000
848.44	381.818
848.74	219.048
849.04	166.667
849.34	164.706
849.63	218.750
849.93	293.750
850.23	1500.000
850.53	400.000
850.82	309.091
851.12	170.588
851.42	154.167
851.71	256.250
852.01	0.000
852.31	258.824
852.61	480.000
852.90	200.000
853.20	322.222
853.50	-2800.000
853.79	160.000
854.09	112.500
854.39	117.241
854.68	148.276
854.98	185.714
855.28	103.226
855.57	300.000
855.87	155.556
856.17	140.741
856.46	131.579
856.76	109.677
857.05	288.235
857.35	290.909
857.65	230.769
857.94	130.000
858.24	377.778
858.53	278.571
858.83	657.143
859.13	160.870
859.42	422.222
859.72	400.000
860.01	308.333
860.31	850.000
860.60	360.000
860.90	450.000
861.20	276.923
861.49	514.286
861.79	-3200.000
862.08	457.143
862.38	355.556
862.67	228.571
862.97	390.000
863.26	133.333
863.56	875.000
863.85	330.769
864.15	223.529
864.44	183.333
864.74	333.333
865.03	290.909
865.33	400.000
865.62	233.333
865.92	633.333
866.21	900.000
866.51	660.000
866.80	238.889
867.10	933.333
867.39	3600.000
867.69	720.000
867.98	775.000
868.27	195.238
868.57	253.333
868.86	900.000
869.16	142.857
869.45	2800.000
869.75	-366.667
870.04	850.000
870.33	360.000
870.63	412.500
870.92	170.588
871.22	775.000
871.51	471.429
871.80	308.333
872.10	330.769
>>>>>End Processed Spectral Data<<<<<
