SpectraSuite Data File
++++++++++++++++++++++++++++++++++++
Date: Tue May 12 16:26:14 PDT 2015
User: schluterlab
Dark Spectrum Present: Yes
Reference Spectrum Present: Yes
Number of Sampled Component Spectra: 1
Spectrometers: USB2E3373
Integration Time (usec): 3000 (USB2E3373)
Spectra Averaged: 3 (USB2E3373)
Boxcar Smoothing: 0 (USB2E3373)
Correct for Electrical Dark: No (USB2E3373)
Strobe/Lamp Enabled: No (USB2E3373)
Correct for Detector Non-linearity: No (USB2E3373)
Correct for Stray Light: No (USB2E3373)
Number of Pixels in Processed Spectrum: 2048
>>>>>Begin Processed Spectral Data<<<<<
178.53	0.000
178.91	-225.000
179.29	-675.000
179.67	-4000.000
180.04	-106.667
180.42	600.000
180.80	1500.000
181.18	0.000
181.56	-237.500
181.94	0.000
182.31	966.667
182.69	-2400.000
183.07	428.571
183.45	-4300.000
183.83	-1500.000
184.20	340.000
184.58	542.857
184.96	-261.538
185.34	-133.333
185.72	1400.000
186.09	-600.000
186.47	-2500.000
186.85	1033.333
187.23	620.000
187.61	1850.000
187.98	462.500
188.36	292.857
188.74	375.000
189.12	358.333
189.49	1025.000
189.87	0.000
190.25	500.000
190.63	2400.000
191.00	-183.333
191.38	-3400.000
191.76	-600.000
192.14	500.000
192.51	-2000.000
192.89	2250.000
193.27	1066.667
193.65	-1166.667
194.02	-600.000
194.40	514.286
194.78	-192.857
195.15	273.333
195.53	-3000.000
195.91	-500.000
196.29	3900.000
196.66	262.500
197.04	1050.000
197.42	-1250.000
197.79	550.000
198.17	333.333
198.55	0.000
198.92	485.714
199.30	833.333
199.68	1850.000
200.05	633.333
200.43	-300.000
200.81	200.000
201.18	2500.000
201.56	266.667
201.94	-750.000
202.31	-262.500
202.69	-380.000
203.07	3300.000
203.44	-416.667
203.82	375.000
204.19	640.000
204.57	-1350.000
204.95	-1025.000
205.32	-900.000
205.70	533.333
206.08	700.000
206.45	-933.333
206.83	344.444
207.20	194.737
207.58	233.333
207.96	660.000
208.33	0.000
208.71	671.429
209.08	960.000
209.46	-2200.000
209.84	-1000.000
210.21	720.000
210.59	-620.000
210.96	275.000
211.34	-800.000
211.71	418.182
212.09	925.000
212.46	1750.000
212.84	-500.000
213.22	422.222
213.59	-2500.000
213.97	340.000
214.34	1025.000
214.72	1233.333
215.09	1000.000
215.47	-3500.000
215.84	-470.000
216.22	-412.500
216.59	0.000
216.97	0.000
217.34	1550.000
217.72	-1800.000
218.09	1133.333
218.47	350.000
218.84	675.000
219.22	1433.333
219.59	966.667
219.97	542.857
220.34	411.111
220.72	1650.000
221.09	4100.000
221.47	283.333
221.84	900.000
222.22	350.000
222.59	222.222
222.97	314.286
223.34	262.500
223.72	-1350.000
224.09	1066.667
224.46	346.154
224.84	-725.000
225.21	333.333
225.59	273.333
225.96	1066.667
226.34	-700.000
226.71	-825.000
227.08	-740.000
227.46	0.000
227.83	-583.333
228.21	-1550.000
228.58	341.667
228.95	900.000
229.33	333.333
229.70	950.000
230.08	338.462
230.45	3600.000
230.82	-750.000
231.20	-966.667
231.57	-1400.000
231.95	440.000
232.32	308.333
232.69	683.333
233.07	266.667
233.44	-1750.000
233.81	260.000
234.19	144.444
234.56	225.000
234.93	176.471
235.31	175.000
235.68	218.750
236.05	178.571
236.43	162.963
236.80	228.571
237.17	193.103
237.55	150.000
237.92	127.500
238.29	157.576
238.67	146.875
239.04	112.195
239.41	91.667
239.79	115.000
240.16	108.333
240.53	95.082
240.91	92.754
241.28	89.831
241.65	86.364
242.02	92.958
242.40	95.714
242.77	78.022
243.14	77.215
243.51	84.848
243.89	74.766
244.26	63.551
244.63	68.317
245.00	67.890
245.38	57.627
245.75	68.939
246.12	65.926
246.49	58.156
246.87	69.672
247.24	64.000
247.61	63.125
247.98	65.306
248.36	58.182
248.73	63.265
249.10	66.667
249.47	58.000
249.84	53.731
250.22	63.243
250.59	54.500
250.96	56.962
251.33	50.698
251.70	51.786
252.08	55.462
252.45	52.590
252.82	51.331
253.19	51.383
253.56	51.538
253.94	50.725
254.31	50.388
254.68	51.916
255.05	53.448
255.42	54.745
255.79	50.489
256.16	55.593
256.54	52.597
256.91	50.654
257.28	50.836
257.65	49.530
258.02	44.838
258.39	51.003
258.76	50.435
259.14	51.429
259.51	54.227
259.88	51.976
260.25	47.527
260.62	45.479
260.99	43.526
261.36	49.582
261.73	48.138
262.10	53.141
262.47	49.000
262.85	50.400
263.22	49.614
263.59	46.547
263.96	51.378
264.33	44.938
264.70	48.157
265.07	48.537
265.44	45.872
265.81	47.877
266.18	47.826
266.55	44.208
266.92	46.532
267.29	46.930
267.66	46.413
268.03	48.430
268.40	46.512
268.77	47.797
269.14	44.469
269.51	46.102
269.88	47.143
270.25	45.572
270.62	48.283
270.99	45.842
271.36	44.106
271.73	45.912
272.10	42.828
272.47	44.246
272.84	43.912
273.21	44.628
273.58	46.559
273.95	46.201
274.32	45.720
274.69	46.063
275.06	44.262
275.43	43.295
275.80	44.151
276.17	45.404
276.54	44.673
276.91	44.776
277.28	43.613
277.65	43.542
278.02	45.772
278.39	44.784
278.76	42.586
279.13	42.349
279.50	47.091
279.87	41.527
280.23	44.199
280.60	44.891
280.97	43.966
281.34	41.749
281.71	44.000
282.08	42.735
282.45	42.061
282.82	43.813
283.19	42.130
283.56	40.992
283.92	43.811
284.29	41.431
284.66	42.521
285.03	43.615
285.40	43.306
285.77	40.586
286.14	42.724
286.51	40.644
286.87	40.665
287.24	39.339
287.61	42.097
287.98	41.045
288.35	40.889
288.72	40.364
289.08	39.940
289.45	40.244
289.82	40.781
290.19	39.824
290.56	41.339
290.93	38.705
291.29	38.398
291.66	37.712
292.03	38.149
292.40	38.618
292.77	38.022
293.13	37.090
293.50	36.437
293.87	37.263
294.24	37.343
294.60	38.223
294.97	36.783
295.34	37.849
295.71	37.582
296.08	36.000
296.44	37.611
296.81	35.980
297.18	34.854
297.55	37.808
297.91	33.867
298.28	37.319
298.65	34.356
299.02	34.982
299.38	35.372
299.75	36.707
300.12	34.748
300.48	36.417
300.85	36.353
301.22	34.767
301.59	35.142
301.95	36.289
302.32	36.554
302.69	35.633
303.05	38.721
303.42	34.865
303.79	35.645
304.15	35.864
304.52	34.249
304.89	36.354
305.25	36.930
305.62	35.394
305.99	36.848
306.35	35.053
306.72	35.900
307.09	35.404
307.45	36.220
307.82	37.140
308.19	37.113
308.55	36.100
308.92	36.703
309.29	38.757
309.65	37.166
310.02	38.032
310.38	38.584
310.75	38.284
311.12	38.123
311.48	39.382
311.85	40.553
312.22	39.064
312.58	39.553
312.95	40.874
313.31	40.356
313.68	38.931
314.05	41.941
314.41	40.317
314.78	40.436
315.14	42.370
315.51	44.182
315.87	41.788
316.24	42.017
316.61	43.688
316.97	41.927
317.34	43.576
317.70	45.478
318.07	45.552
318.43	45.518
318.80	45.096
319.16	45.979
319.53	46.283
319.89	45.251
320.26	48.603
320.62	47.344
320.99	47.664
321.35	48.516
321.72	49.526
322.08	48.753
322.45	50.590
322.81	51.510
323.18	50.977
323.54	52.091
323.91	54.125
324.27	51.370
324.64	53.460
325.00	55.259
325.37	55.734
325.73	54.890
326.10	58.078
326.46	56.813
326.83	56.320
327.19	56.546
327.56	56.150
327.92	58.033
328.29	58.756
328.65	59.675
329.01	58.854
329.38	60.829
329.74	59.095
330.11	60.209
330.47	59.506
330.84	59.620
331.20	59.560
331.56	61.917
331.93	61.163
332.29	59.439
332.66	60.969
333.02	61.856
333.38	60.035
333.75	60.967
334.11	60.319
334.48	59.573
334.84	60.304
335.20	61.163
335.57	59.698
335.93	60.387
336.29	59.287
336.66	63.208
337.02	61.334
337.38	60.877
337.75	60.811
338.11	62.954
338.47	61.812
338.84	60.881
339.20	60.346
339.56	60.639
339.93	60.702
340.29	60.924
340.65	62.364
341.02	60.660
341.38	61.741
341.74	60.880
342.11	62.020
342.47	61.526
342.83	64.069
343.20	61.196
343.56	59.015
343.92	60.198
344.28	63.397
344.65	62.429
345.01	61.270
345.37	60.737
345.73	61.587
346.10	61.434
346.46	62.121
346.82	62.191
347.19	62.365
347.55	61.124
347.91	61.858
348.27	60.728
348.63	62.658
349.00	62.224
349.36	62.335
349.72	62.003
350.08	62.811
350.45	64.204
350.81	62.462
351.17	60.863
351.53	61.971
351.89	62.549
352.26	63.492
352.62	61.916
352.98	62.117
353.34	63.251
353.70	63.303
354.07	63.923
354.43	63.671
354.79	61.883
355.15	63.247
355.51	63.746
355.87	62.651
356.24	63.048
356.60	62.024
356.96	64.064
357.32	61.944
357.68	62.261
358.04	65.046
358.40	64.018
358.77	64.087
359.13	63.288
359.49	64.344
359.85	63.589
360.21	63.224
360.57	63.942
360.93	63.853
361.29	64.574
361.66	65.697
362.02	63.636
362.38	64.646
362.74	65.180
363.10	63.184
363.46	64.088
363.82	64.236
364.18	64.936
364.54	65.379
364.90	63.922
365.26	64.192
365.62	63.467
365.98	64.831
366.35	64.207
366.71	64.053
367.07	65.256
367.43	64.674
367.79	65.226
368.15	63.840
368.51	64.990
368.87	65.014
369.23	66.597
369.59	64.531
369.95	65.734
370.31	64.271
370.67	64.192
371.03	64.846
371.39	65.305
371.75	65.946
372.11	65.126
372.47	64.863
372.83	64.514
373.19	65.867
373.55	65.292
373.91	63.674
374.27	64.352
374.63	65.220
374.99	65.027
375.35	66.935
375.71	67.018
376.07	67.175
376.42	63.491
376.78	67.052
377.14	66.776
377.50	65.543
377.86	65.855
378.22	66.057
378.58	66.646
378.94	66.385
379.30	67.010
379.66	66.165
380.02	66.217
380.38	66.452
380.74	67.416
381.09	66.414
381.45	64.277
381.81	65.366
382.17	65.385
382.53	64.487
382.89	66.588
383.25	66.311
383.61	64.611
383.97	66.647
384.32	65.763
384.68	66.548
385.04	65.416
385.40	64.591
385.76	64.248
386.12	66.481
386.48	65.957
386.83	66.870
387.19	65.548
387.55	66.019
387.91	65.416
388.27	67.043
388.62	66.138
388.98	65.948
389.34	65.080
389.70	65.271
390.06	65.061
390.42	65.207
390.77	66.585
391.13	65.721
391.49	65.578
391.85	67.815
392.20	66.091
392.56	65.114
392.92	64.458
393.28	64.462
393.64	65.195
393.99	63.841
394.35	64.155
394.71	63.571
395.07	65.876
395.42	64.637
395.78	67.551
396.14	65.060
396.50	64.741
396.85	64.878
397.21	64.922
397.57	64.555
397.92	63.489
398.28	64.479
398.64	65.329
399.00	63.335
399.35	63.231
399.71	64.625
400.07	63.356
400.42	64.119
400.78	64.985
401.14	66.119
401.49	63.882
401.85	64.832
402.21	62.683
402.57	64.034
402.92	64.242
403.28	62.112
403.63	62.448
403.99	64.234
404.35	62.544
404.70	63.733
405.06	62.661
405.42	63.016
405.77	62.514
406.13	62.907
406.49	62.763
406.84	62.380
407.20	63.413
407.55	62.154
407.91	63.816
408.27	61.977
408.62	63.394
408.98	62.980
409.34	61.660
409.69	63.223
410.05	63.387
410.40	61.779
410.76	60.962
411.11	61.197
411.47	61.420
411.83	60.808
412.18	61.051
412.54	60.961
412.89	61.298
413.25	61.288
413.60	61.098
413.96	60.622
414.31	61.983
414.67	62.880
415.03	60.728
415.38	60.946
415.74	60.708
416.09	61.961
416.45	61.538
416.80	62.412
417.16	59.771
417.51	61.146
417.87	60.576
418.22	60.510
418.58	61.274
418.93	60.202
419.29	59.766
419.64	60.206
420.00	61.098
420.35	61.092
420.71	60.793
421.06	60.388
421.42	60.564
421.77	59.856
422.12	60.639
422.48	60.092
422.83	60.045
423.19	60.313
423.54	59.353
423.90	60.136
424.25	60.319
424.61	60.128
424.96	59.627
425.31	60.427
425.67	61.897
426.02	61.021
426.38	59.393
426.73	61.134
427.09	60.913
427.44	60.777
427.79	61.178
428.15	61.520
428.50	59.771
428.85	60.729
429.21	59.427
429.56	60.120
429.92	60.269
430.27	58.878
430.62	59.569
430.98	59.331
431.33	59.929
431.68	57.679
432.04	59.027
432.39	60.648
432.74	59.895
433.10	60.299
433.45	59.966
433.80	61.004
434.16	58.644
434.51	60.475
434.86	59.880
435.22	60.292
435.57	60.462
435.92	60.785
436.28	60.772
436.63	59.914
436.98	60.867
437.34	60.046
437.69	59.351
438.04	60.161
438.39	60.537
438.75	59.521
439.10	60.011
439.45	58.847
439.81	60.266
440.16	60.264
440.51	58.896
440.86	59.829
441.22	58.929
441.57	59.948
441.92	59.872
442.27	59.330
442.63	59.400
442.98	58.998
443.33	60.096
443.68	59.708
444.03	59.472
444.39	60.499
444.74	59.317
445.09	59.505
445.44	58.980
445.79	59.454
446.15	58.737
446.50	59.599
446.85	59.163
447.20	59.502
447.55	60.522
447.91	59.457
448.26	59.265
448.61	60.420
448.96	59.749
449.31	60.011
449.66	59.745
450.02	59.697
450.37	59.911
450.72	60.386
451.07	58.581
451.42	59.040
451.77	59.565
452.12	58.707
452.47	59.964
452.83	59.493
453.18	60.060
453.53	60.332
453.88	59.771
454.23	60.139
454.58	59.324
454.93	58.308
455.28	61.077
455.63	59.811
455.98	59.504
456.34	59.939
456.69	60.122
457.04	60.084
457.39	59.486
457.74	59.966
458.09	59.349
458.44	57.831
458.79	59.151
459.14	59.302
459.49	60.306
459.84	59.130
460.19	58.588
460.54	58.006
460.89	58.902
461.24	58.247
461.59	59.184
461.94	59.397
462.29	60.126
462.64	59.485
462.99	59.309
463.34	58.846
463.69	59.226
464.04	59.355
464.39	59.244
464.74	58.968
465.09	57.458
465.44	57.780
465.79	57.975
466.14	56.439
466.49	58.437
466.84	58.584
467.19	58.172
467.54	56.697
467.89	58.509
468.24	58.251
468.59	58.750
468.94	58.333
469.29	58.216
469.64	57.556
469.99	57.712
470.34	57.622
470.68	58.138
471.03	57.638
471.38	56.093
471.73	57.218
472.08	58.252
472.43	57.914
472.78	57.426
473.13	57.196
473.48	58.007
473.83	56.714
474.17	56.839
474.52	57.405
474.87	55.998
475.22	57.453
475.57	55.404
475.92	55.493
476.27	55.441
476.61	55.871
476.96	56.479
477.31	56.452
477.66	57.595
478.01	56.008
478.36	56.488
478.70	55.633
479.05	56.799
479.40	55.804
479.75	56.802
480.10	56.389
480.45	55.322
480.79	54.793
481.14	55.445
481.49	54.300
481.84	54.485
482.19	56.463
482.53	54.370
482.88	55.959
483.23	54.668
483.58	56.373
483.92	55.941
484.27	55.051
484.62	55.348
484.97	54.149
485.31	53.750
485.66	54.639
486.01	53.776
486.36	52.633
486.70	52.310
487.05	53.157
487.40	53.181
487.75	53.397
488.09	52.784
488.44	54.143
488.79	53.350
489.13	53.714
489.48	53.815
489.83	54.003
490.17	53.799
490.52	53.359
490.87	54.310
491.22	54.477
491.56	53.404
491.91	53.495
492.26	54.254
492.60	54.396
492.95	54.101
493.30	53.958
493.64	53.729
493.99	53.667
494.34	54.012
494.68	54.582
495.03	54.288
495.37	53.219
495.72	53.520
496.07	52.695
496.41	53.562
496.76	52.934
497.11	53.256
497.45	52.214
497.80	52.688
498.14	53.306
498.49	52.368
498.84	54.065
499.18	52.879
499.53	52.871
499.87	52.336
500.22	52.925
500.56	52.553
500.91	52.505
501.26	52.779
501.60	52.368
501.95	51.927
502.29	51.956
502.64	51.919
502.98	51.801
503.33	52.383
503.67	50.508
504.02	52.351
504.36	51.176
504.71	52.271
505.06	52.229
505.40	52.223
505.75	51.590
506.09	51.470
506.44	52.444
506.78	52.977
507.13	52.157
507.47	51.286
507.82	52.068
508.16	52.278
508.51	52.077
508.85	51.282
509.19	51.738
509.54	51.660
509.88	51.716
510.23	51.275
510.57	50.531
510.92	51.399
511.26	50.703
511.61	50.517
511.95	51.867
512.30	50.750
512.64	51.402
512.98	51.410
513.33	51.844
513.67	50.958
514.02	50.961
514.36	50.623
514.70	51.200
515.05	50.080
515.39	51.700
515.74	52.160
516.08	50.163
516.42	52.787
516.77	51.040
517.11	50.880
517.46	51.024
517.80	50.464
518.14	50.592
518.49	50.055
518.83	50.549
519.17	50.471
519.52	50.847
519.86	50.572
520.20	49.863
520.55	50.480
520.89	50.690
521.23	50.058
521.58	49.799
521.92	49.563
522.26	50.178
522.61	51.990
522.95	50.631
523.29	49.825
523.64	49.711
523.98	50.998
524.32	50.058
524.66	50.203
525.01	50.178
525.35	50.147
525.69	50.632
526.04	49.435
526.38	49.147
526.72	49.582
527.06	49.083
527.41	50.363
527.75	49.422
528.09	48.284
528.43	50.336
528.78	49.434
529.12	50.572
529.46	49.854
529.80	49.883
530.15	50.442
530.49	48.736
530.83	49.055
531.17	49.077
531.51	48.988
531.86	48.370
532.20	48.826
532.54	48.901
532.88	48.532
533.22	49.360
533.57	49.786
533.91	48.019
534.25	47.548
534.59	49.240
534.93	47.782
535.27	47.638
535.62	47.141
535.96	47.340
536.30	50.823
536.64	48.323
536.98	47.137
537.32	48.562
537.66	48.533
538.01	48.359
538.35	47.411
538.69	47.148
539.03	46.642
539.37	47.573
539.71	48.148
540.05	47.569
540.39	48.113
540.73	48.291
541.07	46.173
541.42	47.512
541.76	47.349
542.10	45.684
542.44	48.067
542.78	47.829
543.12	46.442
543.46	46.679
543.80	46.679
544.14	46.997
544.48	46.837
544.82	46.177
545.16	45.841
545.50	46.343
545.84	47.664
546.18	47.854
546.52	46.295
546.86	46.293
547.20	46.059
547.54	45.725
547.88	44.951
548.22	46.812
548.56	45.610
548.90	44.721
549.24	46.810
549.58	45.619
549.92	45.252
550.26	46.383
550.60	46.174
550.94	46.269
551.28	45.862
551.62	47.655
551.96	44.797
552.30	44.364
552.64	46.537
552.98	44.974
553.32	44.174
553.66	45.537
554.00	45.174
554.34	46.804
554.68	45.699
555.02	46.029
555.36	44.947
555.69	44.895
556.03	44.331
556.37	45.188
556.71	45.893
557.05	44.430
557.39	44.600
557.73	45.755
558.07	45.473
558.41	46.676
558.75	45.759
559.08	46.891
559.42	45.884
559.76	44.761
560.10	44.597
560.44	43.796
560.78	45.141
561.12	45.900
561.45	44.994
561.79	43.258
562.13	44.220
562.47	45.230
562.81	44.958
563.15	44.667
563.48	43.230
563.82	44.417
564.16	43.905
564.50	43.279
564.84	43.647
565.17	43.672
565.51	45.259
565.85	45.898
566.19	43.750
566.52	44.043
566.86	44.075
567.20	43.876
567.54	43.668
567.88	44.444
568.21	43.085
568.55	42.218
568.89	42.518
569.23	42.019
569.56	43.411
569.90	41.466
570.24	41.806
570.57	42.180
570.91	41.030
571.25	41.815
571.59	40.835
571.92	39.935
572.26	40.404
572.60	41.266
572.93	41.403
573.27	41.068
573.61	40.444
573.95	40.613
574.28	40.669
574.62	40.009
574.96	39.851
575.29	39.439
575.63	39.435
575.97	39.971
576.30	39.711
576.64	39.698
576.98	39.610
577.31	40.291
577.65	39.817
577.98	39.350
578.32	39.422
578.66	39.872
578.99	39.480
579.33	39.558
579.67	39.603
580.00	39.670
580.34	39.160
580.67	39.016
581.01	39.566
581.35	39.754
581.68	39.114
582.02	39.130
582.35	39.267
582.69	39.979
583.02	39.034
583.36	39.760
583.70	39.889
584.03	39.995
584.37	39.525
584.70	39.189
585.04	39.400
585.37	39.044
585.71	39.393
586.04	38.662
586.38	38.880
586.72	39.099
587.05	39.038
587.39	39.570
587.72	39.400
588.06	39.111
588.39	39.253
588.73	39.526
589.06	39.656
589.40	39.562
589.73	38.840
590.07	39.979
590.40	39.443
590.73	40.801
591.07	39.962
591.40	39.840
591.74	39.286
592.07	39.434
592.41	39.968
592.74	38.411
593.08	38.639
593.41	38.719
593.75	38.741
594.08	38.867
594.41	38.710
594.75	38.699
595.08	39.540
595.42	39.368
595.75	39.026
596.09	38.756
596.42	38.237
596.75	39.503
597.09	39.950
597.42	38.612
597.75	38.215
598.09	38.572
598.42	38.719
598.76	38.551
599.09	38.580
599.42	37.785
599.76	38.365
600.09	37.424
600.42	37.811
600.76	38.103
601.09	38.488
601.42	37.311
601.76	38.095
602.09	37.675
602.42	37.264
602.76	37.989
603.09	38.084
603.42	38.312
603.76	37.816
604.09	38.183
604.42	36.535
604.76	38.009
605.09	38.000
605.42	37.424
605.75	37.150
606.09	37.146
606.42	37.166
606.75	37.272
607.09	37.268
607.42	37.686
607.75	37.938
608.08	37.206
608.42	38.716
608.75	36.799
609.08	37.352
609.41	38.227
609.75	37.271
610.08	37.455
610.41	37.242
610.74	38.355
611.07	37.653
611.41	38.184
611.74	38.384
612.07	38.584
612.40	38.402
612.73	37.793
613.07	38.875
613.40	37.794
613.73	36.995
614.06	36.850
614.39	38.333
614.72	37.720
615.06	37.488
615.39	36.485
615.72	37.464
616.05	38.774
616.38	36.428
616.71	36.842
617.05	37.232
617.38	36.966
617.71	37.402
618.04	37.353
618.37	37.576
618.70	36.721
619.03	37.729
619.36	39.008
619.69	36.148
620.03	38.748
620.36	38.343
620.69	38.506
621.02	38.179
621.35	37.321
621.68	37.389
622.01	38.450
622.34	37.218
622.67	37.219
623.00	36.487
623.33	36.640
623.66	37.059
623.99	39.041
624.32	37.195
624.65	36.801
624.99	37.525
625.32	37.542
625.65	37.517
625.98	36.611
626.31	37.908
626.64	37.813
626.97	37.337
627.30	37.112
627.63	36.656
627.96	36.933
628.29	37.211
628.62	38.494
628.95	38.032
629.28	37.862
629.61	38.049
629.94	37.684
630.26	37.088
630.59	37.766
630.92	36.951
631.25	37.534
631.58	39.055
631.91	38.535
632.24	36.735
632.57	38.409
632.90	38.820
633.23	37.566
633.56	36.776
633.89	38.264
634.22	37.998
634.55	39.247
634.88	38.335
635.20	37.892
635.53	40.070
635.86	37.025
636.19	38.945
636.52	38.595
636.85	38.080
637.18	37.053
637.51	36.201
637.83	36.842
638.16	38.453
638.49	38.084
638.82	38.732
639.15	37.485
639.48	38.507
639.81	38.828
640.13	37.301
640.46	38.812
640.79	38.882
641.12	37.139
641.45	39.327
641.77	38.045
642.10	38.153
642.43	39.545
642.76	39.062
643.09	39.193
643.41	37.027
643.74	39.568
644.07	41.003
644.40	36.095
644.73	37.387
645.05	39.673
645.38	37.979
645.71	39.909
646.04	40.305
646.36	39.750
646.69	40.000
647.02	40.480
647.35	37.638
647.67	36.629
648.00	39.088
648.33	38.496
648.66	38.788
648.98	36.522
649.31	36.302
649.64	34.440
649.96	35.420
650.29	36.857
650.62	37.113
650.94	39.006
651.27	39.713
651.60	38.341
651.92	38.402
652.25	40.945
652.58	37.305
652.90	38.623
653.23	37.666
653.56	35.905
653.88	36.858
654.21	37.097
654.54	37.042
654.86	36.578
655.19	36.148
655.52	33.390
655.84	29.918
656.17	35.237
656.49	50.738
656.82	57.863
657.15	46.017
657.47	34.654
657.80	25.598
658.13	20.757
658.45	27.327
658.78	32.918
659.10	33.154
659.43	33.007
659.75	34.487
660.08	35.276
660.41	37.024
660.73	37.265
661.06	36.937
661.38	37.819
661.71	37.590
662.03	37.262
662.36	40.762
662.68	35.940
663.01	36.396
663.33	36.792
663.66	38.067
663.98	39.881
664.31	38.246
664.63	36.398
664.96	38.462
665.28	37.476
665.61	35.472
665.93	37.925
666.26	37.757
666.58	36.330
666.91	38.224
667.23	36.145
667.56	37.372
667.88	39.627
668.21	34.426
668.53	37.097
668.86	37.675
669.18	36.864
669.50	37.397
669.83	37.782
670.15	36.590
670.48	36.719
670.80	39.044
671.13	37.649
671.45	37.275
671.77	38.404
672.10	35.727
672.42	33.882
672.75	37.184
673.07	37.202
673.39	36.581
673.72	37.197
674.04	37.276
674.37	36.661
674.69	36.059
675.01	33.769
675.34	34.884
675.66	38.867
675.98	36.292
676.31	37.000
676.63	34.195
676.95	36.706
677.28	36.917
677.60	39.839
677.92	33.532
678.25	34.690
678.57	35.568
678.89	36.347
679.22	36.581
679.54	35.409
679.86	37.522
680.18	36.555
680.51	34.494
680.83	34.966
681.15	34.315
681.48	35.764
681.80	37.303
682.12	34.775
682.44	35.495
682.77	34.520
683.09	34.175
683.41	37.551
683.73	37.992
684.06	36.310
684.38	35.465
684.70	34.173
685.02	33.681
685.34	36.268
685.67	34.887
685.99	34.975
686.31	33.590
686.63	32.846
686.96	35.948
687.28	33.725
687.60	34.471
687.92	34.673
688.24	36.897
688.56	34.342
688.89	32.505
689.21	35.260
689.53	34.980
689.85	36.789
690.17	35.340
690.49	37.702
690.82	35.294
691.14	36.364
691.46	35.934
691.78	34.698
692.10	35.687
692.42	35.935
692.74	35.659
693.06	36.628
693.39	35.375
693.71	32.809
694.03	35.700
694.35	35.341
694.67	35.438
694.99	33.481
695.31	36.261
695.63	33.937
695.95	36.878
696.27	38.938
696.59	37.709
696.91	34.684
697.23	37.557
697.56	32.365
697.88	35.130
698.20	36.415
698.52	31.128
698.84	32.033
699.16	36.034
699.48	35.805
699.80	38.562
700.12	38.106
700.44	35.047
700.76	37.709
701.08	34.204
701.40	36.104
701.72	41.444
702.04	39.295
702.36	33.602
702.68	41.489
703.00	33.584
703.32	36.725
703.64	36.020
703.96	33.854
704.28	38.624
704.60	38.310
704.91	39.216
705.23	39.205
705.55	37.092
705.87	34.286
706.19	37.931
706.51	40.752
706.83	38.348
707.15	39.840
707.47	37.772
707.79	38.161
708.11	35.147
708.43	33.708
708.74	34.615
709.06	35.581
709.38	36.973
709.70	33.243
710.02	34.239
710.34	38.674
710.66	37.500
710.98	39.617
711.29	38.162
711.61	37.883
711.93	37.082
712.25	36.145
712.57	40.514
712.89	39.091
713.20	36.741
713.52	37.072
713.84	40.483
714.16	33.043
714.48	31.412
714.80	36.314
715.11	33.511
715.43	36.313
715.75	37.183
716.07	35.549
716.39	36.286
716.70	32.710
717.02	37.374
717.34	39.209
717.66	36.806
717.97	46.212
718.29	38.732
718.61	32.770
718.93	39.446
719.24	39.933
719.56	35.172
719.88	34.395
720.20	38.710
720.51	36.601
720.83	38.462
721.15	36.054
721.46	40.411
721.78	36.237
722.10	37.847
722.42	40.803
722.73	39.350
723.05	47.368
723.37	39.223
723.68	35.547
724.00	40.152
724.32	40.684
724.63	40.385
724.95	41.569
725.27	37.175
725.58	39.706
725.90	37.676
726.22	36.644
726.53	38.796
726.85	37.785
727.16	42.617
727.48	37.209
727.80	43.525
728.11	38.571
728.43	33.333
728.74	40.909
729.06	35.125
729.38	36.842
729.69	40.667
730.01	39.803
730.32	39.262
730.64	37.874
730.96	35.736
731.27	33.028
731.59	35.920
731.90	35.655
732.22	38.571
732.53	34.188
732.85	34.503
733.16	36.145
733.48	34.483
733.80	38.261
734.11	40.491
734.43	36.257
734.74	35.657
735.06	35.979
735.37	33.763
735.69	35.072
736.00	37.920
736.32	31.212
736.63	32.177
736.95	34.783
737.26	37.195
737.58	33.742
737.89	31.627
738.21	39.735
738.52	37.124
738.83	38.828
739.15	38.328
739.46	39.310
739.78	36.054
740.09	33.819
740.41	35.276
740.72	35.873
741.04	38.811
741.35	38.672
741.66	37.549
741.98	41.631
742.29	38.426
742.61	38.938
742.92	38.559
743.23	40.000
743.55	36.226
743.86	36.078
744.18	39.407
744.49	39.256
744.80	41.014
745.12	41.518
745.43	47.196
745.74	44.889
746.06	36.842
746.37	44.186
746.68	41.150
747.00	41.704
747.31	38.235
747.62	37.705
747.94	39.485
748.25	37.743
748.56	38.136
748.88	45.089
749.19	36.744
749.50	39.726
749.82	40.329
750.13	39.921
750.44	33.000
750.75	37.248
751.07	37.171
751.38	36.634
751.69	35.017
752.01	36.364
752.32	35.880
752.63	36.577
752.94	35.664
753.26	37.500
753.57	35.798
753.88	38.202
754.19	37.184
754.51	36.545
754.82	34.228
755.13	37.838
755.44	38.519
755.75	36.426
756.07	39.726
756.38	36.275
756.69	34.688
757.00	36.202
757.31	34.930
757.63	35.537
757.94	31.383
758.25	33.575
758.56	33.410
758.87	34.586
759.18	37.209
759.50	33.739
759.81	36.202
760.12	33.427
760.43	34.734
760.74	34.684
761.05	35.544
761.36	33.854
761.67	35.040
761.99	37.746
762.30	36.977
762.61	36.806
762.92	40.152
763.23	38.113
763.54	37.308
763.85	33.852
764.16	40.278
764.47	36.149
764.78	36.156
765.10	33.841
765.41	34.659
765.72	36.188
766.03	31.420
766.34	37.282
766.65	32.319
766.96	38.462
767.27	41.121
767.58	42.574
767.89	48.619
768.20	47.561
768.51	39.796
768.82	41.228
769.13	37.255
769.44	38.722
769.75	36.704
770.06	40.336
770.37	32.456
770.68	34.222
770.99	40.254
771.30	42.259
771.61	36.538
771.92	39.313
772.23	41.935
772.54	42.667
772.85	40.594
773.16	42.935
773.47	41.111
773.78	39.604
774.09	51.705
774.39	43.030
774.70	42.941
775.01	38.816
775.32	45.342
775.63	46.575
775.94	47.531
776.25	51.034
776.56	50.382
776.87	51.908
777.18	53.788
777.48	57.480
777.79	54.615
778.10	44.697
778.41	50.000
778.72	46.617
779.03	39.103
779.34	43.919
779.65	44.099
779.95	47.826
780.26	49.405
780.57	49.660
780.88	52.482
781.19	61.667
781.50	41.420
781.80	45.355
782.11	43.386
782.42	39.080
782.73	45.763
783.04	43.226
783.34	43.411
783.65	42.177
783.96	44.516
784.27	39.073
784.57	43.421
784.88	48.551
785.19	45.000
785.50	50.862
785.81	55.814
786.11	37.778
786.42	46.457
786.73	53.153
787.04	55.660
787.34	43.089
787.65	50.758
787.96	53.030
788.26	58.268
788.57	51.825
788.88	50.000
789.19	46.565
789.49	51.351
789.80	47.656
790.11	47.934
790.41	45.370
790.72	50.000
791.03	50.962
791.33	63.636
791.64	64.211
791.95	53.684
792.25	61.458
792.56	57.000
792.87	59.756
793.17	62.500
793.48	60.000
793.79	59.770
794.09	61.364
794.40	57.759
794.70	52.381
795.01	45.385
795.32	53.435
795.62	39.316
795.93	51.261
796.23	53.659
796.54	65.306
796.85	71.591
797.15	67.532
797.46	64.634
797.76	55.000
798.07	69.333
798.37	62.500
798.68	81.250
798.99	69.512
799.29	54.667
799.60	46.512
799.90	68.421
800.21	89.394
800.51	77.465
800.82	68.966
801.12	67.692
801.43	66.667
801.73	75.862
802.04	62.338
802.34	71.233
802.65	92.157
802.95	65.217
803.26	83.871
803.56	113.333
803.87	70.149
804.17	84.127
804.48	94.340
804.78	66.667
805.09	89.394
805.39	74.603
805.70	71.930
806.00	57.143
806.30	75.000
806.61	70.588
806.91	63.333
807.22	54.348
807.52	65.789
807.83	78.947
808.13	89.855
808.43	70.968
808.74	73.973
809.04	73.214
809.35	67.647
809.65	78.788
809.95	92.157
810.26	87.037
810.56	103.125
810.86	95.918
811.17	75.439
811.47	86.957
811.77	68.966
812.08	72.414
812.38	85.714
812.69	102.381
812.99	104.444
813.29	111.429
813.59	109.677
813.90	63.793
814.20	83.607
814.50	78.000
814.81	56.140
815.11	77.778
815.41	73.214
815.72	98.214
816.02	100.000
816.32	97.561
816.62	86.207
816.93	115.152
817.23	119.512
817.53	92.857
817.84	80.000
818.14	104.762
818.44	91.667
818.74	92.453
819.04	97.436
819.35	142.424
819.65	119.231
819.95	105.556
820.25	108.511
820.56	113.514
820.86	115.789
821.16	76.596
821.46	97.368
821.76	69.091
822.07	85.714
822.37	118.421
822.67	109.302
822.97	68.421
823.27	100.000
823.57	93.750
823.88	102.564
824.18	109.091
824.48	126.087
824.78	119.444
825.08	121.739
825.38	134.483
825.69	108.824
825.99	91.489
826.29	94.444
826.59	114.286
826.89	130.000
827.19	91.429
827.49	122.581
827.79	169.231
828.09	107.143
828.39	88.889
828.70	91.892
829.00	132.143
829.30	168.750
829.60	105.556
829.90	167.742
830.20	84.848
830.50	129.730
830.80	175.000
831.10	184.615
831.40	104.762
831.70	158.333
832.00	100.000
832.30	169.565
832.60	158.333
832.90	154.545
833.20	195.000
833.50	134.211
833.80	61.765
834.10	100.000
834.40	142.105
834.70	123.333
835.00	152.000
835.30	110.811
835.60	125.000
835.90	108.108
836.20	161.538
836.50	113.636
836.80	107.317
837.10	169.565
837.40	330.769
837.70	178.947
838.00	133.333
838.30	141.667
838.60	140.000
838.90	400.000
839.19	181.250
839.49	113.333
839.79	110.345
840.09	161.538
840.39	193.333
840.69	194.737
840.99	180.952
841.29	173.913
841.59	220.000
841.88	200.000
842.18	255.556
842.48	110.714
842.78	170.370
843.08	238.462
843.38	172.727
843.68	250.000
843.97	485.714
844.27	147.826
844.57	1450.000
844.87	257.143
845.17	183.333
845.47	133.333
845.76	191.667
846.06	471.429
846.36	188.235
846.66	284.615
846.96	237.500
847.25	192.308
847.55	142.105
847.85	183.333
848.15	840.000
848.44	327.273
848.74	147.619
849.04	158.333
849.34	135.294
849.63	237.500
849.93	212.500
850.23	1066.667
850.53	375.000
850.82	318.182
851.12	117.647
851.42	158.333
851.71	250.000
852.01	0.000
852.31	188.235
852.61	310.000
852.90	158.333
853.20	333.333
853.50	-2300.000
853.79	140.000
854.09	156.250
854.39	186.207
854.68	148.276
854.98	171.429
855.28	129.032
855.57	228.571
855.87	172.222
856.17	151.852
856.46	194.737
856.76	116.129
857.05	223.529
857.35	218.182
857.65	176.923
857.94	185.000
858.24	344.444
858.53	285.714
858.83	614.286
859.13	195.652
859.42	366.667
859.72	337.500
860.01	300.000
860.31	750.000
860.60	380.000
860.90	262.500
861.20	284.615
861.49	457.143
861.79	-2500.000
862.08	485.714
862.38	266.667
862.67	185.714
862.97	370.000
863.26	140.000
863.56	750.000
863.85	346.154
864.15	294.118
864.44	194.444
864.74	366.667
865.03	345.455
865.33	375.000
865.62	260.000
865.92	583.333
866.21	775.000
866.51	680.000
866.80	200.000
867.10	1166.667
867.39	3100.000
867.69	720.000
867.98	875.000
868.27	166.667
868.57	246.667
868.86	1025.000
869.16	185.714
869.45	3300.000
869.75	-450.000
870.04	650.000
870.33	480.000
870.63	350.000
870.92	229.412
871.22	750.000
871.51	471.429
871.80	308.333
872.10	323.077
>>>>>End Processed Spectral Data<<<<<
