SpectraSuite Data File
++++++++++++++++++++++++++++++++++++
Date: Tue May 12 17:08:00 PDT 2015
User: schluterlab
Dark Spectrum Present: Yes
Reference Spectrum Present: Yes
Number of Sampled Component Spectra: 1
Spectrometers: USB2E3373
Integration Time (usec): 3000 (USB2E3373)
Spectra Averaged: 3 (USB2E3373)
Boxcar Smoothing: 0 (USB2E3373)
Correct for Electrical Dark: No (USB2E3373)
Strobe/Lamp Enabled: No (USB2E3373)
Correct for Detector Non-linearity: No (USB2E3373)
Correct for Stray Light: No (USB2E3373)
Number of Pixels in Processed Spectrum: 2048
>>>>>Begin Processed Spectral Data<<<<<
178.53	0.000
178.91	-291.667
179.29	-800.000
179.67	-2900.000
180.04	-113.333
180.42	600.000
180.80	1750.000
181.18	0.000
181.56	-350.000
181.94	0.000
182.31	1133.333
182.69	-2800.000
183.07	542.857
183.45	-4100.000
183.83	-1600.000
184.20	310.000
184.58	585.714
184.96	-230.769
185.34	-250.000
185.72	1450.000
186.09	-900.000
186.47	-3000.000
186.85	1033.333
187.23	540.000
187.61	1500.000
187.98	462.500
188.36	285.714
188.74	333.333
189.12	341.667
189.49	800.000
189.87	0.000
190.25	575.000
190.63	3200.000
191.00	-216.667
191.38	-3200.000
191.76	-975.000
192.14	575.000
192.51	-3100.000
192.89	1600.000
193.27	966.667
193.65	-1066.667
194.02	-740.000
194.40	514.286
194.78	-185.714
195.15	266.667
195.53	-3100.000
195.91	-460.000
196.29	3900.000
196.66	218.750
197.04	1000.000
197.42	-1300.000
197.79	675.000
198.17	275.000
198.55	0.000
198.92	471.429
199.30	1166.667
199.68	1550.000
200.05	633.333
200.43	-333.333
200.81	211.111
201.18	3800.000
201.56	316.667
201.94	-725.000
202.31	-250.000
202.69	-560.000
203.07	3400.000
203.44	-383.333
203.82	275.000
204.19	640.000
204.57	-1600.000
204.95	-550.000
205.32	-720.000
205.70	583.333
206.08	1000.000
206.45	-866.667
206.83	311.111
207.20	163.158
207.58	275.000
207.96	620.000
208.33	0.000
208.71	571.429
209.08	740.000
209.46	-2600.000
209.84	-825.000
210.21	740.000
210.59	-480.000
210.96	300.000
211.34	-800.000
211.71	272.727
212.09	675.000
212.46	1550.000
212.84	-416.667
213.22	344.444
213.59	-2500.000
213.97	290.000
214.34	850.000
214.72	1200.000
215.09	1133.333
215.47	-2300.000
215.84	-330.000
216.22	-462.500
216.59	0.000
216.97	0.000
217.34	1800.000
217.72	-1100.000
218.09	800.000
218.47	450.000
218.84	825.000
219.22	1433.333
219.59	900.000
219.97	385.714
220.34	444.444
220.72	1400.000
221.09	3100.000
221.47	200.000
221.84	966.667
222.22	350.000
222.59	227.778
222.97	207.143
223.34	187.500
223.72	-1700.000
224.09	1400.000
224.46	230.769
224.84	-750.000
225.21	311.111
225.59	273.333
225.96	1466.667
226.34	-720.000
226.71	-550.000
227.08	-500.000
227.46	0.000
227.83	-450.000
228.21	-1550.000
228.58	358.333
228.95	875.000
229.33	422.222
229.70	1075.000
230.08	361.538
230.45	3300.000
230.82	-750.000
231.20	-1000.000
231.57	-966.667
231.95	560.000
232.32	308.333
232.69	666.667
233.07	258.333
233.44	-1450.000
233.81	180.000
234.19	133.333
234.56	156.250
234.93	147.059
235.31	210.000
235.68	206.250
236.05	139.286
236.43	118.519
236.80	242.857
237.17	151.724
237.55	84.375
237.92	107.500
238.29	127.273
238.67	96.875
239.04	107.317
239.41	77.083
239.79	52.500
240.16	60.417
240.53	39.344
240.91	53.623
241.28	57.627
241.65	59.091
242.02	56.338
242.40	45.714
242.77	41.758
243.14	25.316
243.51	46.465
243.89	33.645
244.26	29.907
244.63	34.653
245.00	30.275
245.38	22.034
245.75	34.848
246.12	36.296
246.49	26.950
246.87	21.311
247.24	24.667
247.61	28.750
247.98	22.449
248.36	26.667
248.73	28.061
249.10	20.238
249.47	22.500
249.84	20.896
250.22	20.000
250.59	21.000
250.96	22.785
251.33	23.721
251.70	21.429
252.08	22.689
252.45	14.741
252.82	16.730
253.19	13.043
253.56	11.154
253.94	21.014
254.31	17.442
254.68	12.195
255.05	18.966
255.42	17.153
255.79	14.658
256.16	17.288
256.54	18.506
256.91	14.379
257.28	18.395
257.65	10.658
258.02	13.274
258.39	18.338
258.76	15.942
259.14	10.000
259.51	15.160
259.88	14.894
260.25	10.440
260.62	13.699
260.99	12.948
261.36	11.699
261.73	13.032
262.10	13.874
262.47	10.500
262.85	12.533
263.22	15.167
263.59	11.509
263.96	14.286
264.33	12.099
264.70	12.285
265.07	12.439
265.44	12.385
265.81	10.377
266.18	11.442
266.55	11.348
266.92	11.857
267.29	14.035
267.66	7.848
268.03	10.987
268.40	12.896
268.77	11.894
269.14	10.846
269.51	9.131
269.88	12.449
270.25	7.559
270.62	12.232
270.99	12.170
271.36	11.585
271.73	9.434
272.10	10.303
272.47	11.905
272.84	9.780
273.21	8.678
273.58	10.526
273.95	10.678
274.32	13.230
274.69	12.598
275.06	10.383
275.43	9.579
275.80	8.868
276.17	12.684
276.54	11.589
276.91	9.701
277.28	9.307
277.65	8.856
278.02	9.559
278.39	9.892
278.76	11.207
279.13	9.431
279.50	9.818
279.87	9.497
280.23	7.735
280.60	11.314
280.97	11.379
281.34	9.571
281.71	11.304
282.08	9.060
282.45	9.797
282.82	9.699
283.19	11.606
283.56	8.595
283.92	8.958
284.29	10.316
284.66	7.059
285.03	9.950
285.40	8.099
285.77	8.333
286.14	10.681
286.51	9.049
286.87	7.120
287.24	8.108
287.61	8.359
287.98	9.254
288.35	8.741
288.72	7.436
289.08	9.159
289.45	10.061
289.82	9.375
290.19	10.542
290.56	10.480
290.93	8.489
291.29	9.254
291.66	7.345
292.03	11.080
292.40	9.892
292.77	8.774
293.13	10.271
293.50	9.177
293.87	9.079
294.24	11.049
294.60	10.229
294.97	10.210
295.34	9.163
295.71	9.987
296.08	10.267
296.44	9.784
296.81	9.181
297.18	8.492
297.55	11.453
297.91	10.591
298.28	9.420
298.65	8.466
299.02	9.288
299.38	9.592
299.75	10.366
300.12	11.009
300.48	11.007
300.85	10.608
301.22	8.605
301.59	8.844
301.95	10.268
302.32	10.361
302.69	10.407
303.05	10.774
303.42	9.865
303.79	10.726
304.15	11.111
304.52	9.937
304.89	9.808
305.25	10.011
305.62	10.235
305.99	10.109
306.35	10.316
306.72	9.261
307.09	10.248
307.45	10.243
307.82	9.362
308.19	10.309
308.55	10.200
308.92	11.384
309.29	12.229
309.65	10.505
310.02	11.968
310.38	10.967
310.75	9.932
311.12	10.345
311.48	12.066
311.85	11.355
312.22	11.079
312.58	10.593
312.95	10.971
313.31	11.891
313.68	11.914
314.05	11.996
314.41	9.963
314.78	11.364
315.14	11.280
315.51	12.488
315.87	11.131
316.24	11.765
316.61	11.280
316.97	12.294
317.34	12.668
317.70	11.765
318.07	12.722
318.43	13.093
318.80	12.084
319.16	12.937
319.53	11.858
319.89	12.186
320.26	12.570
320.62	12.454
320.99	13.060
321.35	12.894
321.72	13.283
322.08	12.373
322.45	13.896
322.81	13.175
323.18	14.387
323.54	14.983
323.91	14.506
324.27	14.589
324.64	13.495
325.00	14.655
325.37	14.503
325.73	15.093
326.10	14.830
326.46	15.359
326.83	15.760
327.19	15.422
327.56	16.294
327.92	15.492
328.29	16.858
328.65	17.038
329.01	16.082
329.38	16.836
329.74	16.311
330.11	16.247
330.47	17.306
330.84	14.582
331.20	15.821
331.56	16.839
331.93	17.365
332.29	15.476
332.66	17.007
333.02	15.636
333.38	17.277
333.75	16.514
334.11	16.862
334.48	16.667
334.84	16.723
335.20	15.997
335.57	16.037
335.93	16.989
336.29	16.584
336.66	17.324
337.02	16.595
337.38	16.767
337.75	17.568
338.11	16.878
338.47	15.665
338.84	16.765
339.20	15.152
339.56	16.653
339.93	15.886
340.29	16.387
340.65	17.016
341.02	16.975
341.38	17.570
341.74	16.944
342.11	15.442
342.47	16.243
342.83	17.473
343.20	16.411
343.56	15.409
343.92	16.102
344.28	17.225
344.65	17.522
345.01	16.190
345.37	15.545
345.73	16.270
346.10	16.574
346.46	16.427
346.82	16.204
347.19	17.465
347.55	16.550
347.91	16.616
348.27	14.872
348.63	17.168
349.00	17.212
349.36	16.732
349.72	16.820
350.08	17.236
350.45	17.365
350.81	16.972
351.17	15.794
351.53	15.550
351.89	17.094
352.26	16.100
352.62	16.591
352.98	16.258
353.34	16.256
353.70	16.743
354.07	16.385
354.43	16.897
354.79	16.097
355.15	16.080
355.51	16.088
355.87	16.114
356.24	16.397
356.60	16.514
356.96	16.300
357.32	15.901
357.68	16.740
358.04	15.957
358.40	16.642
358.77	16.529
359.13	16.742
359.49	16.679
359.85	16.307
360.21	16.568
360.57	16.423
360.93	16.162
361.29	17.388
361.66	17.450
362.02	15.625
362.38	16.595
362.74	16.277
363.10	16.129
363.46	15.470
363.82	16.760
364.18	16.927
364.54	16.667
364.90	17.336
365.26	17.210
365.62	16.436
365.98	17.068
366.35	16.276
366.71	16.794
367.07	17.679
367.43	16.790
367.79	17.221
368.15	16.893
368.51	16.885
368.87	16.236
369.23	15.870
369.59	17.195
369.95	16.573
370.31	15.948
370.67	17.280
371.03	17.227
371.39	17.313
371.75	16.957
372.11	16.859
372.47	17.740
372.83	16.927
373.19	18.095
373.55	17.388
373.91	16.851
374.27	17.130
374.63	18.102
374.99	17.722
375.35	17.406
375.71	17.678
376.07	17.440
376.42	16.368
376.78	17.919
377.14	16.972
377.50	17.104
377.86	16.464
378.22	17.550
378.58	18.281
378.94	18.045
379.30	17.708
379.66	18.122
380.02	17.830
380.38	18.091
380.74	17.762
381.09	18.107
381.45	17.457
381.81	18.322
382.17	17.338
382.53	17.636
382.89	17.682
383.25	18.117
383.61	18.213
383.97	17.996
384.32	18.143
384.68	18.241
385.04	18.464
385.40	17.972
385.76	17.496
386.12	18.306
386.48	18.663
386.83	17.787
387.19	17.962
387.55	18.728
387.91	19.169
388.27	18.382
388.62	18.897
388.98	18.017
389.34	18.441
389.70	18.691
390.06	19.146
390.42	18.199
390.77	18.796
391.13	18.890
391.49	18.633
391.85	19.138
392.20	18.594
392.56	18.877
392.92	18.473
393.28	18.274
393.64	18.521
393.99	17.664
394.35	18.187
394.71	18.637
395.07	18.674
395.42	19.028
395.78	19.124
396.14	19.518
396.50	19.615
396.85	18.720
397.21	18.773
397.57	18.589
397.92	18.949
398.28	18.036
398.64	19.430
399.00	18.439
399.35	17.606
399.71	19.095
400.07	19.064
400.42	18.985
400.78	19.062
401.14	18.849
401.49	17.800
401.85	18.888
402.21	18.336
402.57	19.210
402.92	19.455
403.28	18.556
403.63	18.717
403.99	19.240
404.35	19.754
404.70	19.433
405.06	18.529
405.42	19.689
405.77	18.688
406.13	18.384
406.49	18.590
406.84	18.951
407.20	18.779
407.55	19.200
407.91	20.038
408.27	19.527
408.62	19.456
408.98	18.746
409.34	17.943
409.69	18.295
410.05	18.366
410.40	18.963
410.76	18.203
411.11	19.491
411.47	19.691
411.83	17.516
412.18	17.874
412.54	18.739
412.89	18.702
413.25	19.099
413.60	18.750
413.96	19.270
414.31	19.362
414.67	20.050
415.03	19.221
415.38	19.937
415.74	18.888
416.09	20.237
416.45	20.039
416.80	19.820
417.16	18.905
417.51	19.554
417.87	19.212
418.22	18.773
418.58	19.236
418.93	19.572
419.29	18.792
419.64	19.200
420.00	20.465
420.35	19.396
420.71	19.312
421.06	18.540
421.42	19.804
421.77	19.545
422.12	19.625
422.48	19.517
422.83	20.368
423.19	19.438
423.54	20.022
423.90	20.951
424.25	20.804
424.61	19.733
424.96	19.706
425.31	20.142
425.67	20.426
426.02	20.976
426.38	19.545
426.73	20.590
427.09	20.759
427.44	19.752
427.79	20.526
428.15	21.037
428.50	20.457
428.85	21.282
429.21	20.475
429.56	20.987
429.92	20.537
430.27	20.464
430.62	20.313
430.98	20.259
431.33	20.010
431.68	20.099
432.04	19.865
432.39	21.076
432.74	21.546
433.10	20.930
433.45	21.424
433.80	21.511
434.16	21.597
434.51	21.104
434.86	21.775
435.22	21.772
435.57	21.755
435.92	21.799
436.28	21.774
436.63	21.502
436.98	21.396
437.34	21.861
437.69	20.829
438.04	21.022
438.39	21.600
438.75	22.049
439.10	21.802
439.45	21.594
439.81	21.631
440.16	21.299
440.51	21.678
440.86	22.507
441.22	21.320
441.57	21.627
441.92	21.718
442.27	21.546
442.63	21.341
442.98	21.875
443.33	21.853
443.68	22.032
444.03	21.489
444.39	21.751
444.74	22.050
445.09	22.380
445.44	22.423
445.79	22.417
446.15	21.579
446.50	22.468
446.85	21.564
447.20	21.194
447.55	22.023
447.91	22.962
448.26	22.311
448.61	22.886
448.96	22.985
449.31	22.497
449.66	22.370
450.02	21.664
450.37	22.154
450.72	22.865
451.07	22.688
451.42	22.466
451.77	22.680
452.12	22.518
452.47	22.904
452.83	22.535
453.18	22.823
453.53	22.262
453.88	22.686
454.23	22.777
454.58	22.552
454.93	22.685
455.28	22.827
455.63	22.340
455.98	22.561
456.34	22.857
456.69	22.439
457.04	21.957
457.39	21.486
457.74	23.480
458.09	22.179
458.44	21.742
458.79	23.342
459.14	22.586
459.49	22.763
459.84	22.880
460.19	22.316
460.54	23.476
460.89	22.388
461.24	22.222
461.59	23.129
461.94	22.281
462.29	23.169
462.64	22.990
462.99	23.800
463.34	23.461
463.69	22.868
464.04	23.316
464.39	22.553
464.74	22.216
465.09	23.273
465.44	23.232
465.79	22.428
466.14	22.099
466.49	22.409
466.84	22.965
467.19	22.730
467.54	23.003
467.89	23.122
468.24	22.640
468.59	22.619
468.94	22.947
469.29	23.213
469.64	24.116
469.99	23.136
470.34	22.644
470.68	22.552
471.03	24.016
471.38	23.311
471.73	22.861
472.08	23.744
472.43	22.905
472.78	23.624
473.13	21.902
473.48	22.616
473.83	22.674
474.17	22.371
474.52	22.453
474.87	22.456
475.22	23.529
475.57	22.928
475.92	22.688
476.27	21.872
476.61	22.520
476.96	23.354
477.31	22.879
477.66	23.671
478.01	22.280
478.36	22.091
478.70	22.432
479.05	22.280
479.40	22.966
479.75	23.188
480.10	22.991
480.45	22.269
480.79	22.673
481.14	22.729
481.49	21.866
481.84	21.988
482.19	22.183
482.53	22.661
482.88	22.133
483.23	22.508
483.58	22.397
483.92	23.675
484.27	22.132
484.62	22.878
484.97	21.815
485.31	21.346
485.66	21.613
486.01	20.945
486.36	20.973
486.70	20.878
487.05	21.198
487.40	21.083
487.75	21.110
488.09	21.278
488.44	21.415
488.79	21.138
489.13	21.986
489.48	22.213
489.83	22.143
490.17	22.048
490.52	21.878
490.87	22.155
491.22	22.562
491.56	22.222
491.91	21.505
492.26	22.361
492.60	22.506
492.95	21.840
493.30	22.202
493.64	21.698
493.99	21.735
494.34	22.143
494.68	22.444
495.03	21.958
495.37	22.783
495.72	22.657
496.07	21.878
496.41	21.720
496.76	22.288
497.11	22.365
497.45	22.183
497.80	22.382
498.14	22.145
498.49	22.052
498.84	23.598
499.18	21.664
499.53	22.141
499.87	21.473
500.22	23.123
500.56	21.866
500.91	22.635
501.26	21.911
501.60	22.131
501.95	21.461
502.29	21.911
502.64	22.011
502.98	21.743
503.33	21.826
503.67	22.075
504.02	21.675
504.36	22.760
504.71	22.564
505.06	22.384
505.40	21.759
505.75	21.749
506.09	21.839
506.44	22.556
506.78	21.975
507.13	22.395
507.47	21.834
507.82	22.433
508.16	22.636
508.51	22.560
508.85	22.080
509.19	21.782
509.54	22.949
509.88	22.775
510.23	22.696
510.57	21.670
510.92	22.228
511.26	22.189
511.61	23.338
511.95	22.499
512.30	21.850
512.64	22.222
512.98	22.040
513.33	22.336
513.67	22.579
514.02	22.545
514.36	22.482
514.70	22.133
515.05	21.737
515.39	22.094
515.74	23.073
516.08	22.440
516.42	22.787
516.77	23.467
517.11	22.507
517.46	22.144
517.80	22.283
518.14	22.873
518.49	22.216
518.83	22.363
519.17	23.239
519.52	22.501
519.86	22.779
520.20	23.178
520.55	22.781
520.89	22.471
521.23	23.131
521.58	22.318
521.92	22.915
522.26	21.919
522.61	23.292
522.95	22.282
523.29	22.807
523.64	22.197
523.98	22.594
524.32	22.607
524.66	23.014
525.01	23.491
525.35	22.805
525.69	23.239
526.04	22.903
526.38	22.366
526.72	22.554
527.06	22.295
527.41	22.975
527.75	21.972
528.09	22.456
528.43	23.368
528.78	22.660
529.12	22.396
529.46	22.560
529.80	22.780
530.15	23.571
530.49	21.600
530.83	22.182
531.17	22.017
531.51	22.685
531.86	22.947
532.20	22.806
532.54	23.101
532.88	23.298
533.22	23.339
533.57	23.124
533.91	21.970
534.25	22.100
534.59	22.456
534.93	22.184
535.27	21.571
535.62	22.462
535.96	22.459
536.30	22.669
536.64	21.739
536.98	22.907
537.32	23.125
537.66	22.768
538.01	23.096
538.35	23.269
538.69	21.723
539.03	21.953
539.37	22.512
539.71	22.037
540.05	22.031
540.39	22.138
540.73	23.481
541.07	22.773
541.42	22.077
541.76	22.503
542.10	22.133
542.44	22.070
542.78	21.397
543.12	21.840
543.46	21.867
543.80	23.120
544.14	22.105
544.48	22.263
544.82	23.364
545.16	21.494
545.50	22.987
545.84	22.222
546.18	23.082
546.52	23.148
546.86	23.340
547.20	22.093
547.54	22.419
547.88	22.202
548.22	22.040
548.56	21.626
548.90	22.064
549.24	23.184
549.58	22.358
549.92	23.117
550.26	23.327
550.60	22.355
550.94	22.999
551.28	23.310
551.62	23.172
551.96	21.959
552.30	21.622
552.64	22.589
552.98	21.521
553.32	22.151
553.66	22.801
554.00	22.716
554.34	22.304
554.68	21.976
555.02	22.539
555.36	22.473
555.69	23.495
556.03	22.675
556.37	21.925
556.71	23.338
557.05	20.970
557.39	22.800
557.73	22.978
558.07	22.334
558.41	22.481
558.75	22.914
559.08	23.660
559.42	22.548
559.76	23.093
560.10	22.712
560.44	21.566
560.78	23.338
561.12	23.077
561.45	21.464
561.79	21.785
562.13	22.173
562.47	22.453
562.81	23.552
563.15	22.560
563.48	21.304
563.82	21.959
564.16	22.077
564.50	22.242
564.84	22.006
565.17	21.925
565.51	22.968
565.85	23.010
566.19	21.905
566.52	21.661
566.86	22.709
567.20	21.854
567.54	21.124
567.88	21.805
568.21	21.018
568.55	21.401
568.89	21.807
569.23	21.009
569.56	21.446
569.90	21.056
570.24	20.750
570.57	20.831
570.91	20.312
571.25	20.641
571.59	19.938
571.92	20.129
572.26	19.326
572.60	19.828
572.93	20.242
573.27	20.391
573.61	20.087
573.95	20.468
574.28	20.698
574.62	19.981
574.96	19.982
575.29	19.697
575.63	19.505
575.97	19.304
576.30	20.046
576.64	19.728
576.98	19.619
577.31	20.202
577.65	20.450
577.98	19.569
578.32	19.429
578.66	19.673
578.99	19.845
579.33	20.117
579.67	19.502
580.00	19.514
580.34	19.468
580.67	19.508
581.01	19.794
581.35	19.758
581.68	19.313
582.02	19.573
582.35	19.608
582.69	19.781
583.02	19.698
583.36	19.806
583.70	20.314
584.03	20.408
584.37	20.318
584.70	20.328
585.04	19.914
585.37	19.793
585.71	20.404
586.04	20.235
586.38	19.751
586.72	20.412
587.05	20.149
587.39	20.051
587.72	20.273
588.06	20.089
588.39	20.164
588.73	20.158
589.06	19.697
589.40	20.939
589.73	20.321
590.07	20.453
590.40	21.080
590.73	21.116
591.07	21.404
591.40	20.878
591.74	20.333
592.07	20.175
592.41	20.624
592.74	20.945
593.08	20.020
593.41	19.808
593.75	20.234
594.08	20.265
594.41	20.104
594.75	20.685
595.08	20.576
595.42	20.573
595.75	20.369
596.09	21.098
596.42	20.503
596.75	21.194
597.09	21.420
597.42	20.571
597.75	19.878
598.09	20.353
598.42	20.237
598.76	20.470
599.09	20.669
599.42	20.346
599.76	20.217
600.09	20.305
600.42	20.511
600.76	20.360
601.09	19.917
601.42	20.380
601.76	20.874
602.09	20.935
602.42	19.778
602.76	20.531
603.09	20.249
603.42	21.028
603.76	21.403
604.09	20.521
604.42	20.490
604.76	20.743
605.09	20.694
605.42	20.723
605.75	20.174
606.09	21.002
606.42	20.068
606.75	20.754
607.09	20.292
607.42	20.129
607.75	20.621
608.08	20.837
608.42	20.847
608.75	20.496
609.08	20.282
609.41	21.000
609.75	21.658
610.08	20.908
610.41	21.388
610.74	20.866
611.07	20.828
611.41	21.872
611.74	21.463
612.07	21.002
612.40	21.589
612.73	21.618
613.07	20.679
613.40	21.203
613.73	21.218
614.06	21.100
614.39	21.263
614.72	21.195
615.06	20.376
615.39	20.990
615.72	21.007
616.05	20.743
616.38	20.802
616.71	21.107
617.05	20.813
617.38	20.562
617.71	21.372
618.04	21.425
618.37	20.678
618.70	21.767
619.03	21.245
619.36	22.550
619.69	21.372
620.03	23.222
620.36	21.066
620.69	22.414
621.02	22.283
621.35	21.562
621.68	22.198
622.01	23.026
622.34	20.903
622.67	22.893
623.00	23.077
623.33	21.727
623.66	22.222
623.99	22.534
624.32	21.612
624.65	21.132
624.99	22.515
625.32	22.979
625.65	21.379
625.98	21.897
626.31	21.810
626.64	22.248
626.97	20.581
627.30	21.118
627.63	22.841
627.96	21.362
628.29	23.350
628.62	21.215
628.95	23.138
629.28	23.225
629.61	22.496
629.94	22.818
630.26	22.530
630.59	23.227
630.92	21.256
631.25	24.207
631.58	24.397
631.91	22.835
632.24	22.741
632.57	22.692
632.90	24.534
633.23	24.029
633.56	22.761
633.89	24.116
634.22	23.143
634.55	23.763
634.88	25.192
635.20	26.233
635.53	23.810
635.86	24.049
636.19	23.232
636.52	23.027
636.85	22.977
637.18	24.052
637.51	22.905
637.83	21.510
638.16	24.619
638.49	23.952
638.82	24.061
639.15	23.384
639.48	24.171
639.81	24.298
640.13	25.521
640.46	24.147
640.79	25.228
641.12	24.541
641.45	24.838
641.77	24.439
642.10	25.033
642.43	24.893
642.76	23.438
643.09	24.928
643.41	24.123
643.74	26.619
644.07	25.959
644.40	27.219
644.73	25.526
645.05	26.449
645.38	26.034
645.71	25.493
646.04	26.412
646.36	26.135
646.69	24.320
647.02	27.200
647.35	22.992
647.67	25.122
648.00	25.896
648.33	25.564
648.66	26.061
648.98	25.652
649.31	24.022
649.64	23.928
649.96	24.040
650.29	22.857
650.62	26.068
650.94	26.958
651.27	26.794
651.60	26.448
651.92	25.653
652.25	26.457
652.58	24.397
652.90	25.749
653.23	25.702
653.56	24.481
653.88	25.257
654.21	25.073
654.54	25.183
654.86	24.484
655.19	25.726
655.52	21.124
655.84	17.143
656.17	19.605
656.49	28.114
656.82	33.209
657.15	26.843
657.47	20.020
657.80	14.599
658.13	11.358
658.45	15.306
658.78	18.527
659.10	18.938
659.43	19.375
659.75	20.508
660.08	22.055
660.41	24.319
660.73	25.220
661.06	25.826
661.38	26.746
661.71	25.000
662.03	26.236
662.36	27.238
662.68	26.071
663.01	27.387
663.33	26.226
663.66	28.205
663.98	28.770
664.31	28.545
664.63	26.628
664.96	29.644
665.28	24.294
665.61	28.113
665.93	28.302
666.26	28.411
666.58	28.440
666.91	27.027
667.23	27.912
667.56	26.899
667.88	26.971
668.21	25.000
668.53	25.403
668.86	28.457
669.18	27.291
669.50	26.653
669.83	28.542
670.15	27.859
670.48	23.633
670.80	26.892
671.13	27.291
671.45	28.858
671.77	27.644
672.10	26.032
672.42	25.658
672.75	25.316
673.07	23.847
673.39	27.157
673.72	23.010
674.04	26.165
674.37	26.497
674.69	25.836
675.01	25.187
675.34	27.326
675.66	26.563
675.98	29.586
676.31	27.800
676.63	26.441
676.95	26.786
677.28	26.775
677.60	27.968
677.92	25.397
678.25	26.744
678.57	28.492
678.89	29.476
679.22	25.551
679.54	25.979
679.86	25.305
680.18	26.186
680.51	24.046
680.83	23.986
681.15	26.170
681.48	26.042
681.80	25.219
682.12	28.028
682.44	24.324
682.77	26.157
683.09	27.379
683.41	26.531
683.73	25.394
684.06	24.802
684.38	27.132
684.70	25.360
685.02	22.917
685.34	25.528
685.67	27.170
685.99	23.645
686.31	24.191
686.63	23.740
686.96	24.673
687.28	25.000
687.60	24.915
687.92	26.466
688.24	26.207
688.56	26.512
688.89	23.136
689.21	26.975
689.53	27.075
689.85	25.203
690.17	26.214
690.49	27.218
690.82	27.941
691.14	30.505
691.46	28.542
691.78	27.096
692.10	27.099
692.42	25.227
692.74	26.357
693.06	25.388
693.39	24.506
693.71	25.147
694.03	29.783
694.35	28.715
694.67	29.532
694.99	25.942
695.31	29.279
695.63	28.054
695.95	27.149
696.27	29.867
696.59	28.640
696.91	25.823
697.23	27.602
697.56	23.651
697.88	23.952
698.20	25.660
698.52	23.735
698.84	28.542
699.16	28.571
699.48	27.119
699.80	30.501
700.12	29.792
700.44	27.804
700.76	30.549
701.08	30.026
701.40	28.052
701.72	29.947
702.04	28.184
702.36	31.183
702.68	28.723
703.00	27.068
703.32	30.273
703.64	29.723
703.96	28.646
704.28	26.455
704.60	30.704
704.91	26.050
705.23	30.114
705.55	30.564
705.87	27.302
706.19	32.915
706.51	32.602
706.83	30.088
707.15	29.947
707.47	26.877
707.79	30.345
708.11	25.170
708.43	25.618
708.74	24.661
709.06	26.279
709.38	27.792
709.70	27.793
710.02	27.989
710.34	28.177
710.66	30.000
710.98	30.601
711.29	29.526
711.61	28.134
711.93	32.523
712.25	30.120
712.57	30.225
712.89	28.182
713.20	33.227
713.52	28.972
713.84	32.024
714.16	26.667
714.48	24.496
714.80	27.913
715.11	25.266
715.43	28.771
715.75	26.197
716.07	29.480
716.39	28.571
716.70	30.841
717.02	32.660
717.34	32.734
717.66	33.333
717.97	34.091
718.29	30.282
718.61	32.432
718.93	33.218
719.24	29.866
719.56	27.241
719.88	27.707
720.20	30.323
720.51	28.431
720.83	30.769
721.15	29.592
721.46	32.192
721.78	30.314
722.10	34.375
722.42	31.438
722.73	30.686
723.05	33.333
723.37	31.802
723.68	30.078
724.00	30.303
724.32	34.981
724.63	28.462
724.95	32.549
725.27	31.227
725.58	29.779
725.90	29.577
726.22	26.370
726.53	29.766
726.85	28.339
727.16	32.886
727.48	31.561
727.80	28.777
728.11	30.357
728.43	28.261
728.74	33.217
729.06	30.824
729.38	33.684
729.69	35.667
730.01	28.947
730.32	29.866
730.64	30.897
730.96	26.126
731.27	25.076
731.59	28.448
731.90	26.184
732.22	27.714
732.53	28.205
732.85	30.409
733.16	26.205
733.48	31.348
733.80	28.986
734.11	30.675
734.43	25.439
734.74	25.201
735.06	30.159
735.37	26.804
735.69	27.826
736.00	32.722
736.32	28.182
736.63	26.183
736.95	27.950
737.26	30.488
737.58	28.221
737.89	28.916
738.21	29.470
738.52	32.441
738.83	31.502
739.15	28.920
739.46	27.241
739.78	29.932
740.09	30.321
740.41	32.822
740.72	31.746
741.04	31.119
741.35	32.031
741.66	32.411
741.98	35.622
742.29	31.481
742.61	33.186
742.92	28.814
743.23	30.800
743.55	29.057
743.86	30.980
744.18	34.746
744.49	32.645
744.80	34.562
745.12	29.464
745.43	33.178
745.74	32.000
746.06	26.754
746.37	36.744
746.68	35.398
747.00	32.735
747.31	37.395
747.62	31.557
747.94	34.335
748.25	33.852
748.56	34.746
748.88	35.714
749.19	38.140
749.50	28.767
749.82	36.214
750.13	32.806
750.44	29.000
750.75	26.846
751.07	30.263
751.38	29.043
751.69	28.620
752.01	26.573
752.32	30.233
752.63	30.537
752.94	29.371
753.26	33.984
753.57	32.685
753.88	31.086
754.19	29.242
754.51	32.890
754.82	23.826
755.13	28.716
755.44	32.593
755.75	31.959
756.07	32.877
756.38	27.451
756.69	30.313
757.00	30.564
757.31	29.014
757.63	23.416
757.94	25.266
758.25	26.570
758.56	25.629
758.87	21.805
759.18	31.105
759.50	24.620
759.81	28.190
760.12	29.213
760.43	26.050
760.74	26.835
761.05	24.403
761.36	23.437
761.67	26.415
761.99	24.225
762.30	26.688
762.61	26.042
762.92	31.439
763.23	30.566
763.54	36.154
763.85	27.626
764.16	30.208
764.47	30.743
764.78	25.081
765.10	26.829
765.41	23.011
765.72	31.492
766.03	24.471
766.34	31.010
766.65	29.278
766.96	34.008
767.27	32.243
767.58	40.099
767.89	38.122
768.20	40.244
768.51	29.592
768.82	33.333
769.13	28.235
769.44	27.820
769.75	27.341
770.06	30.672
770.37	31.140
770.68	29.333
770.99	32.627
771.30	28.870
771.61	31.923
771.92	31.298
772.23	30.645
772.54	32.444
772.85	37.129
773.16	33.696
773.47	32.778
773.78	34.158
774.09	34.091
774.39	34.545
774.70	34.118
775.01	36.184
775.32	41.615
775.63	37.671
775.94	41.358
776.25	43.448
776.56	47.328
776.87	51.145
777.18	40.909
777.48	55.118
777.79	41.538
778.10	41.667
778.41	46.269
778.72	42.105
779.03	37.821
779.34	46.622
779.65	40.994
779.95	31.677
780.26	38.095
780.57	53.741
780.88	39.007
781.19	46.667
781.50	40.237
781.80	33.880
782.11	40.212
782.42	32.184
782.73	41.808
783.04	36.129
783.34	36.434
783.65	31.973
783.96	41.935
784.27	35.099
784.57	46.711
784.88	40.580
785.19	48.333
785.50	49.138
785.81	46.512
786.11	40.741
786.42	44.094
786.73	54.955
787.04	36.792
787.34	43.089
787.65	50.000
787.96	36.364
788.26	40.945
788.57	48.175
788.88	40.845
789.19	35.878
789.49	38.514
789.80	53.125
790.11	42.149
790.41	46.296
790.72	50.000
791.03	49.038
791.33	44.444
791.64	40.000
791.95	47.368
792.25	39.583
792.56	56.000
792.87	48.780
793.17	55.682
793.48	61.176
793.79	59.770
794.09	60.227
794.40	62.931
794.70	39.683
795.01	36.923
795.32	44.275
795.62	41.026
795.93	42.857
796.23	45.528
796.54	55.102
796.85	56.818
797.15	64.935
797.46	71.951
797.76	58.750
798.07	78.667
798.37	61.250
798.68	57.500
798.99	74.390
799.29	57.333
799.60	51.163
799.90	51.316
800.21	60.606
800.51	66.197
800.82	65.517
801.12	67.692
801.43	84.000
801.73	68.966
802.04	62.338
802.34	61.644
802.65	78.431
802.95	95.652
803.26	83.871
803.56	90.000
803.87	79.104
804.17	71.429
804.48	86.792
804.78	65.278
805.09	53.030
805.39	76.190
805.70	85.965
806.00	57.143
806.30	71.875
806.61	56.471
806.91	47.778
807.22	38.043
807.52	55.263
807.83	69.737
808.13	69.565
808.43	79.032
808.74	60.274
809.04	75.000
809.35	77.941
809.65	86.364
809.95	86.275
810.26	92.593
810.56	76.562
810.86	73.469
811.17	85.965
811.47	86.957
811.77	67.241
812.08	56.897
812.38	97.619
812.69	100.000
812.99	91.111
813.29	108.571
813.59	112.903
813.90	82.759
814.20	73.770
814.50	78.000
814.81	57.895
815.11	96.296
815.41	80.357
815.72	112.500
816.02	88.000
816.32	112.195
816.62	74.138
816.93	106.061
817.23	114.634
817.53	80.357
817.84	106.667
818.14	80.952
818.44	81.250
818.74	90.566
819.04	79.487
819.35	133.333
819.65	107.692
819.95	87.037
820.25	95.745
820.56	129.730
820.86	102.632
821.16	68.085
821.46	126.316
821.76	92.727
822.07	57.143
822.37	86.842
822.67	79.070
822.97	71.053
823.27	113.043
823.57	109.375
823.88	100.000
824.18	106.061
824.48	134.783
824.78	91.667
825.08	134.783
825.38	110.345
825.69	88.235
825.99	74.468
826.29	97.222
826.59	94.286
826.89	110.000
827.19	91.429
827.49	129.032
827.79	153.846
828.09	114.286
828.39	97.222
828.70	102.703
829.00	153.571
829.30	212.500
829.60	116.667
829.90	129.032
830.20	109.091
830.50	116.216
830.80	158.333
831.10	176.923
831.40	119.048
831.70	216.667
832.00	120.000
832.30	156.522
832.60	137.500
832.90	148.485
833.20	175.000
833.50	147.368
833.80	97.059
834.10	71.053
834.40	173.684
834.70	123.333
835.00	192.000
835.30	113.514
835.60	134.375
835.90	116.216
836.20	150.000
836.50	159.091
836.80	102.439
837.10	143.478
837.40	300.000
837.70	163.158
838.00	110.000
838.30	166.667
838.60	148.000
838.90	330.000
839.19	175.000
839.49	133.333
839.79	141.379
840.09	176.923
840.39	166.667
840.69	200.000
840.99	119.048
841.29	152.174
841.59	195.000
841.88	144.000
842.18	377.778
842.48	150.000
842.78	188.889
843.08	176.923
843.38	190.909
843.68	271.429
843.97	528.571
844.27	143.478
844.57	1150.000
844.87	285.714
845.17	272.222
845.47	138.095
845.76	145.833
846.06	457.143
846.36	205.882
846.66	300.000
846.96	275.000
847.25	246.154
847.55	205.263
847.85	205.556
848.15	560.000
848.44	354.545
848.74	161.905
849.04	208.333
849.34	200.000
849.63	243.750
849.93	350.000
850.23	966.667
850.53	400.000
850.82	236.364
851.12	170.588
851.42	145.833
851.71	262.500
852.01	0.000
852.31	182.353
852.61	480.000
852.90	154.167
853.20	311.111
853.50	-1300.000
853.79	144.000
854.09	137.500
854.39	127.586
854.68	151.724
854.98	180.952
855.28	135.484
855.57	164.286
855.87	216.667
856.17	122.222
856.46	178.947
856.76	132.258
857.05	200.000
857.35	272.727
857.65	307.692
857.94	150.000
858.24	377.778
858.53	292.857
858.83	528.571
859.13	204.348
859.42	311.111
859.72	375.000
860.01	233.333
860.31	675.000
860.60	330.000
860.90	450.000
861.20	261.538
861.49	514.286
861.79	-3400.000
862.08	614.286
862.38	355.556
862.67	185.714
862.97	390.000
863.26	113.333
863.56	700.000
863.85	330.769
864.15	276.471
864.44	250.000
864.74	416.667
865.03	309.091
865.33	375.000
865.62	233.333
865.92	600.000
866.21	875.000
866.51	660.000
866.80	233.333
867.10	733.333
867.39	3400.000
867.69	720.000
867.98	725.000
868.27	133.333
868.57	273.333
868.86	700.000
869.16	152.381
869.45	3200.000
869.75	-416.667
870.04	825.000
870.33	520.000
870.63	400.000
870.92	217.647
871.22	775.000
871.51	314.286
871.80	308.333
872.10	346.154
>>>>>End Processed Spectral Data<<<<<
