SpectraSuite Data File
++++++++++++++++++++++++++++++++++++
Date: Tue May 12 16:55:17 PDT 2015
User: schluterlab
Dark Spectrum Present: Yes
Reference Spectrum Present: Yes
Number of Sampled Component Spectra: 1
Spectrometers: USB2E3373
Integration Time (usec): 3000 (USB2E3373)
Spectra Averaged: 3 (USB2E3373)
Boxcar Smoothing: 0 (USB2E3373)
Correct for Electrical Dark: No (USB2E3373)
Strobe/Lamp Enabled: No (USB2E3373)
Correct for Detector Non-linearity: No (USB2E3373)
Correct for Stray Light: No (USB2E3373)
Number of Pixels in Processed Spectrum: 2048
>>>>>Begin Processed Spectral Data<<<<<
178.53	0.000
178.91	-216.667
179.29	-650.000
179.67	-3600.000
180.04	-173.333
180.42	700.000
180.80	1550.000
181.18	0.000
181.56	-350.000
181.94	0.000
182.31	1233.333
182.69	-3400.000
183.07	642.857
183.45	-3100.000
183.83	-1850.000
184.20	400.000
184.58	457.143
184.96	-292.308
185.34	-150.000
185.72	1450.000
186.09	-825.000
186.47	-3800.000
186.85	900.000
187.23	600.000
187.61	900.000
187.98	450.000
188.36	221.429
188.74	375.000
189.12	358.333
189.49	925.000
189.87	0.000
190.25	550.000
190.63	2300.000
191.00	-216.667
191.38	-4100.000
191.76	-650.000
192.14	512.500
192.51	-2600.000
192.89	1950.000
193.27	700.000
193.65	-1266.667
194.02	-660.000
194.40	600.000
194.78	-200.000
195.15	213.333
195.53	-2700.000
195.91	-420.000
196.29	3800.000
196.66	243.750
197.04	925.000
197.42	-1450.000
197.79	825.000
198.17	266.667
198.55	0.000
198.92	514.286
199.30	1166.667
199.68	1900.000
200.05	700.000
200.43	-566.667
200.81	161.111
201.18	2600.000
201.56	266.667
201.94	-850.000
202.31	-187.500
202.69	-660.000
203.07	2100.000
203.44	-400.000
203.82	275.000
204.19	540.000
204.57	-900.000
204.95	-550.000
205.32	-400.000
205.70	500.000
206.08	600.000
206.45	-733.333
206.83	322.222
207.20	136.842
207.58	250.000
207.96	580.000
208.33	0.000
208.71	428.571
209.08	760.000
209.46	-2700.000
209.84	-675.000
210.21	880.000
210.59	-580.000
210.96	291.667
211.34	-700.000
211.71	372.727
212.09	700.000
212.46	1900.000
212.84	-316.667
213.22	400.000
213.59	-3100.000
213.97	280.000
214.34	900.000
214.72	1033.333
215.09	1033.333
215.47	-2300.000
215.84	-310.000
216.22	-462.500
216.59	0.000
216.97	0.000
217.34	1450.000
217.72	-1400.000
218.09	1300.000
218.47	437.500
218.84	875.000
219.22	1266.667
219.59	1000.000
219.97	500.000
220.34	400.000
220.72	1400.000
221.09	4200.000
221.47	283.333
221.84	900.000
222.22	330.000
222.59	205.556
222.97	271.429
223.34	206.250
223.72	-1350.000
224.09	1200.000
224.46	207.692
224.84	-950.000
225.21	411.111
225.59	320.000
225.96	1266.667
226.34	-700.000
226.71	-725.000
227.08	-620.000
227.46	0.000
227.83	-550.000
228.21	-1200.000
228.58	325.000
228.95	850.000
229.33	311.111
229.70	1075.000
230.08	284.615
230.45	3100.000
230.82	-875.000
231.20	-966.667
231.57	-700.000
231.95	600.000
232.32	375.000
232.69	550.000
233.07	233.333
233.44	-1400.000
233.81	240.000
234.19	174.074
234.56	118.750
234.93	176.471
235.31	195.000
235.68	225.000
236.05	146.429
236.43	140.741
236.80	235.714
237.17	144.828
237.55	115.625
237.92	110.000
238.29	112.121
238.67	125.000
239.04	112.195
239.41	85.417
239.79	110.000
240.16	60.417
240.53	62.295
240.91	59.420
241.28	71.186
241.65	65.152
242.02	67.606
242.40	68.571
242.77	59.341
243.14	63.291
243.51	68.687
243.89	57.009
244.26	50.467
244.63	57.426
245.00	47.706
245.38	39.831
245.75	42.424
246.12	49.630
246.49	34.752
246.87	39.344
247.24	42.667
247.61	43.125
247.98	41.497
248.36	41.212
248.73	40.816
249.10	32.738
249.47	39.500
249.84	33.333
250.22	38.378
250.59	34.000
250.96	30.802
251.33	33.023
251.70	32.589
252.08	36.555
252.45	33.466
252.82	28.137
253.19	33.597
253.56	31.923
253.94	31.159
254.31	34.109
254.68	33.449
255.05	32.069
255.42	33.942
255.79	32.573
256.16	29.153
256.54	34.416
256.91	29.412
257.28	31.104
257.65	27.273
258.02	28.024
258.39	32.951
258.76	29.855
259.14	26.286
259.51	30.904
259.88	31.003
260.25	29.396
260.62	29.589
260.99	25.344
261.36	27.577
261.73	29.255
262.10	29.581
262.47	29.250
262.85	23.733
263.22	30.591
263.59	26.598
263.96	28.321
264.33	26.173
264.70	27.273
265.07	28.780
265.44	29.587
265.81	26.887
266.18	28.833
266.55	27.187
266.92	27.517
267.29	30.263
267.66	28.475
268.03	24.888
268.40	27.696
268.77	30.176
269.14	26.464
269.51	25.167
269.88	26.122
270.25	22.678
270.62	24.678
270.99	27.992
271.36	28.455
271.73	25.577
272.10	27.677
272.47	25.000
272.84	26.547
273.21	28.099
273.58	26.721
273.95	26.078
274.32	24.708
274.69	28.543
275.06	28.051
275.43	25.670
275.80	25.283
276.17	26.471
276.54	25.607
276.91	28.545
277.28	26.095
277.65	26.384
278.02	26.471
278.39	27.698
278.76	27.414
279.13	25.623
279.50	26.364
279.87	23.836
280.23	21.731
280.60	23.905
280.97	26.724
281.34	24.752
281.71	26.087
282.08	27.179
282.45	26.014
282.82	25.753
283.19	26.391
283.56	26.612
283.92	25.081
284.29	25.624
284.66	25.042
285.03	26.036
285.40	24.959
285.77	23.765
286.14	26.006
286.51	24.233
286.87	21.835
287.24	22.372
287.61	24.164
287.98	24.478
288.35	24.296
288.72	24.127
289.08	22.823
289.45	24.238
289.82	24.844
290.19	25.329
290.56	25.619
290.93	22.446
291.29	24.448
291.66	23.164
292.03	22.300
292.40	23.442
292.77	23.677
293.13	24.536
293.50	24.831
293.87	21.680
294.24	23.497
294.60	22.073
294.97	26.014
295.34	23.772
295.71	24.310
296.08	26.000
296.44	23.888
296.81	23.201
297.18	21.293
297.55	24.384
297.91	22.906
298.28	24.275
298.65	24.417
299.02	23.040
299.38	23.261
299.75	23.659
300.12	23.280
300.48	24.473
300.85	24.315
301.22	22.442
301.59	22.759
301.95	22.754
302.32	23.749
302.69	23.643
303.05	25.028
303.42	22.309
303.79	24.810
304.15	23.652
304.52	23.573
304.89	24.200
305.25	23.471
305.62	25.053
305.99	23.261
306.35	24.000
306.72	24.037
307.09	24.327
307.45	25.132
307.82	25.309
308.19	24.021
308.55	23.400
308.92	24.338
309.29	26.036
309.65	25.273
310.02	26.065
310.38	25.125
310.75	25.169
311.12	25.575
311.48	27.799
311.85	25.668
312.22	27.030
312.58	26.336
312.95	26.699
313.31	27.434
313.68	26.735
314.05	27.930
314.41	27.467
314.78	28.504
315.14	28.815
315.51	27.342
315.87	27.464
316.24	28.478
316.61	28.827
316.97	26.881
317.34	28.751
317.70	29.763
318.07	29.626
318.43	29.350
318.80	29.335
319.16	29.895
319.53	30.531
319.89	29.928
320.26	32.682
320.62	31.960
320.99	30.791
321.35	32.189
321.72	33.112
322.08	31.948
322.45	32.062
322.81	32.479
323.18	32.504
323.54	32.840
323.91	34.633
324.27	33.156
324.64	32.526
325.00	33.276
325.37	33.727
325.73	33.221
326.10	33.720
326.46	34.269
326.83	33.600
327.19	34.056
327.56	34.904
327.92	35.820
328.29	34.779
328.65	35.873
329.01	34.987
329.38	36.125
329.74	34.159
330.11	35.274
330.47	35.124
330.84	33.822
331.20	35.618
331.56	35.579
331.93	35.586
332.29	34.014
332.66	35.034
333.02	33.076
333.38	34.904
333.75	34.779
334.11	34.480
334.48	35.470
334.84	33.024
335.20	34.902
335.57	35.264
335.93	34.483
336.29	33.665
336.66	35.678
337.02	33.961
337.38	34.050
337.75	34.882
338.11	35.527
338.47	34.378
338.84	33.785
339.20	34.026
339.56	34.146
339.93	33.528
340.29	32.941
340.65	33.864
341.02	34.111
341.38	33.744
341.74	34.053
342.11	33.139
342.47	32.978
342.83	34.044
343.20	33.145
343.56	32.010
343.92	33.443
344.28	33.094
344.65	33.496
345.01	32.143
345.37	32.772
345.73	32.540
346.10	31.554
346.46	33.573
346.82	31.867
347.19	33.230
347.55	32.319
347.91	32.477
348.27	32.301
348.63	34.019
349.00	32.673
349.36	32.529
349.72	32.875
350.08	33.307
350.45	32.445
350.81	31.804
351.17	32.280
351.53	31.948
351.89	32.401
352.26	31.973
352.62	31.448
352.98	31.595
353.34	32.820
353.70	31.116
354.07	32.231
354.43	30.722
354.79	30.448
355.15	31.930
355.51	31.722
355.87	31.551
356.24	32.948
356.60	31.735
356.96	30.629
357.32	32.253
357.68	31.424
358.04	31.687
358.40	30.660
358.77	31.555
359.13	31.306
359.49	31.579
359.85	30.752
360.21	30.015
360.57	31.022
360.93	30.447
361.29	30.375
361.66	31.618
362.02	30.114
362.38	30.592
362.74	31.281
363.10	30.154
363.46	30.110
363.82	30.014
364.18	30.370
364.54	31.044
364.90	30.656
365.26	30.951
365.62	30.387
365.98	30.695
366.35	29.931
366.71	30.465
367.07	29.625
367.43	29.953
367.79	29.987
368.15	28.833
368.51	30.806
368.87	30.163
369.23	30.353
369.59	29.602
369.95	29.580
370.31	29.843
370.67	29.632
371.03	30.462
371.39	29.848
371.75	30.495
372.11	29.164
372.47	30.137
372.83	29.232
373.19	29.267
373.55	30.172
373.91	28.522
374.27	28.902
374.63	29.356
374.99	29.784
375.35	30.175
375.71	29.420
376.07	29.576
376.42	28.261
376.78	29.223
377.14	28.702
377.50	28.340
377.86	28.635
378.22	28.702
378.58	29.298
378.94	29.028
379.30	28.017
379.66	29.380
380.02	29.853
380.38	27.225
380.74	29.239
381.09	28.738
381.45	27.688
381.81	28.546
382.17	28.144
382.53	27.954
382.89	28.504
383.25	27.886
383.61	27.666
383.97	27.894
384.32	26.884
384.68	28.461
385.04	27.550
385.40	27.106
385.76	28.204
386.12	28.386
386.48	27.356
386.83	27.139
387.19	27.680
387.55	27.856
387.91	27.367
388.27	27.424
388.62	27.347
388.98	26.939
389.34	26.770
389.70	26.533
390.06	26.768
390.42	26.774
390.77	26.413
391.13	26.916
391.49	26.860
391.85	27.446
392.20	26.162
392.56	27.300
392.92	25.884
393.28	25.504
393.64	26.376
393.99	26.319
394.35	26.663
394.71	26.357
395.07	26.338
395.42	25.820
395.78	27.020
396.14	26.627
396.50	27.256
396.85	26.646
397.21	25.632
397.57	26.420
397.92	25.014
398.28	25.207
398.64	26.585
399.00	25.281
399.35	26.355
399.71	24.779
400.07	25.400
400.42	25.791
400.78	25.396
401.14	24.662
401.49	25.173
401.85	25.377
402.21	24.487
402.57	25.254
402.92	24.242
403.28	24.165
403.63	24.073
403.99	24.548
404.35	25.909
404.70	24.572
405.06	24.537
405.42	24.117
405.77	24.256
406.13	24.295
406.49	23.536
406.84	23.407
407.20	24.486
407.55	23.138
407.91	24.633
408.27	23.893
408.62	23.359
408.98	22.827
409.34	23.729
409.69	23.460
410.05	23.077
410.40	22.556
410.76	22.954
411.11	22.749
411.47	24.012
411.83	23.257
412.18	23.068
412.54	24.084
412.89	23.304
413.25	23.603
413.60	23.306
413.96	22.501
414.31	23.081
414.67	24.146
415.03	22.478
415.38	23.722
415.74	23.689
416.09	23.548
416.45	24.370
416.80	23.220
417.16	23.425
417.51	23.758
417.87	24.030
418.22	23.208
418.58	24.204
418.93	23.200
419.29	23.229
419.64	24.167
420.00	23.508
420.35	23.635
420.71	23.512
421.06	22.955
421.42	23.777
421.77	23.098
422.12	23.649
422.48	23.421
422.83	23.772
423.19	22.948
423.54	23.533
423.90	23.499
424.25	24.106
424.61	23.970
424.96	23.546
425.31	23.700
425.67	23.737
426.02	23.556
426.38	23.162
426.73	23.829
427.09	24.496
427.44	23.241
427.79	23.957
428.15	25.162
428.50	24.629
428.85	24.515
429.21	23.339
429.56	23.629
429.92	24.267
430.27	23.609
430.62	24.082
430.98	23.553
431.33	22.883
431.68	22.222
432.04	22.452
432.39	23.655
432.74	24.824
433.10	24.363
433.45	24.641
433.80	24.766
434.16	23.542
434.51	23.736
434.86	25.041
435.22	23.771
435.57	23.948
435.92	24.530
436.28	24.712
436.63	24.419
436.98	24.493
437.34	24.943
437.69	23.348
438.04	24.946
438.39	24.460
438.75	23.998
439.10	24.447
439.45	23.799
439.81	24.581
440.16	24.656
440.51	24.381
440.86	25.584
441.22	23.647
441.57	25.249
441.92	23.939
442.27	24.227
442.63	24.492
442.98	24.946
443.33	24.156
443.68	24.296
444.03	23.751
444.39	24.953
444.74	24.482
445.09	24.539
445.44	24.655
445.79	23.928
446.15	25.684
446.50	24.473
446.85	24.153
447.20	24.129
447.55	24.850
447.91	24.614
448.26	24.601
448.61	25.097
448.96	25.272
449.31	24.752
449.66	26.190
450.02	24.311
450.37	24.931
450.72	24.628
451.07	24.782
451.42	24.778
451.77	24.800
452.12	25.695
452.47	25.273
452.83	25.577
453.18	24.745
453.53	25.044
453.88	24.000
454.23	24.869
454.58	25.058
454.93	24.464
455.28	24.908
455.63	24.586
455.98	25.155
456.34	25.289
456.69	25.610
457.04	24.940
457.39	24.000
457.74	25.282
458.09	24.256
458.44	24.261
458.79	24.191
459.14	24.223
459.49	25.085
459.84	25.109
460.19	24.746
460.54	25.128
460.89	24.680
461.24	25.258
461.59	24.660
461.94	24.291
462.29	24.600
462.64	25.440
462.99	25.656
463.34	24.757
463.69	24.743
464.04	25.446
464.39	23.812
464.74	23.740
465.09	24.840
465.44	24.483
465.79	24.388
466.14	24.589
466.49	23.332
466.84	24.805
467.19	25.308
467.54	24.204
467.89	24.296
468.24	23.683
468.59	24.464
468.94	24.517
469.29	24.740
469.64	24.952
469.99	24.936
470.34	24.984
470.68	25.517
471.03	25.083
471.38	24.371
471.73	25.343
472.08	26.027
472.43	24.271
472.78	25.160
473.13	24.468
473.48	24.389
473.83	24.146
474.17	24.681
474.52	24.941
474.87	23.991
475.22	24.215
475.57	23.610
475.92	23.454
476.27	23.558
476.61	23.700
476.96	25.026
477.31	24.113
477.66	24.047
478.01	23.259
478.36	24.511
478.70	23.921
479.05	23.483
479.40	23.958
479.75	23.784
480.10	24.056
480.45	23.203
480.79	23.410
481.14	22.920
481.49	23.422
481.84	23.087
482.19	23.450
482.53	23.979
482.88	23.746
483.23	23.049
483.58	23.609
483.92	23.766
484.27	23.031
484.62	23.514
484.97	23.335
485.31	22.497
485.66	22.088
486.01	21.540
486.36	21.361
486.70	21.470
487.05	21.807
487.40	22.056
487.75	21.395
488.09	21.591
488.44	21.957
488.79	22.215
489.13	22.359
489.48	22.653
489.83	22.894
490.17	22.915
490.52	22.997
490.87	23.664
491.22	23.449
491.56	22.881
491.91	23.073
492.26	23.207
492.60	23.235
492.95	23.244
493.30	22.975
493.64	22.686
493.99	23.166
494.34	23.173
494.68	23.108
495.03	23.260
495.37	23.683
495.72	23.590
496.07	22.372
496.41	22.632
496.76	23.470
497.11	22.965
497.45	23.148
497.80	23.031
498.14	23.393
498.49	22.841
498.84	22.804
499.18	22.075
499.53	23.289
499.87	22.417
500.22	23.031
500.56	22.377
500.91	24.026
501.26	22.600
501.60	22.541
501.95	22.625
502.29	23.022
502.64	22.629
502.98	22.232
503.33	22.316
503.67	22.119
504.02	21.899
504.36	22.398
504.71	22.044
505.06	22.102
505.40	22.181
505.75	22.498
506.09	22.352
506.44	22.603
506.78	21.975
507.13	22.152
507.47	22.853
507.82	22.530
508.16	22.440
508.51	22.754
508.85	22.602
509.19	22.320
509.54	22.363
509.88	23.222
510.23	21.814
510.57	21.380
510.92	22.428
511.26	22.691
511.61	22.206
511.95	21.951
512.30	22.800
512.64	22.430
512.98	22.655
513.33	22.746
513.67	21.750
514.02	22.234
514.36	21.703
514.70	23.040
515.05	22.216
515.39	22.259
515.74	22.526
516.08	21.841
516.42	23.661
516.77	22.720
517.11	23.200
517.46	21.659
517.80	23.375
518.14	22.423
518.49	21.720
518.83	21.429
519.17	22.573
519.52	22.283
519.86	22.016
520.20	22.630
520.55	22.046
520.89	22.241
521.23	22.430
521.58	21.974
521.92	22.449
522.26	22.630
522.61	22.460
522.95	23.123
523.29	22.456
523.64	22.023
523.98	22.183
524.32	22.722
524.66	22.203
525.01	22.012
525.35	22.039
525.69	23.179
526.04	22.427
526.38	22.425
526.72	21.838
527.06	21.407
527.41	22.914
527.75	22.642
528.09	21.613
528.43	22.331
528.78	22.123
529.12	22.697
529.46	21.917
529.80	21.963
530.15	22.334
530.49	21.119
530.83	22.121
531.17	22.140
531.51	21.827
531.86	21.739
532.20	21.570
532.54	21.908
532.88	22.423
533.22	21.572
533.57	22.392
533.91	21.329
534.25	20.946
534.59	22.281
534.93	22.184
535.27	20.546
535.62	20.303
535.96	21.158
536.30	21.633
536.64	21.677
536.98	21.712
537.32	21.563
537.66	21.556
538.01	21.548
538.35	21.460
538.69	20.874
539.03	20.896
539.37	20.813
539.71	21.605
540.05	21.538
540.39	20.943
540.73	21.835
541.07	20.640
541.42	21.020
541.76	21.640
542.10	20.962
542.44	21.197
542.78	21.208
543.12	20.736
543.46	21.366
543.80	21.992
544.14	20.681
544.48	20.620
544.82	21.407
545.16	20.219
545.50	20.590
545.84	21.843
546.18	22.172
546.52	22.623
546.86	21.148
547.20	20.478
547.54	21.849
547.88	20.560
548.22	20.765
548.56	20.271
548.90	20.463
549.24	21.226
549.58	20.619
549.92	21.415
550.26	20.419
550.60	20.825
550.94	21.574
551.28	22.000
551.62	21.517
551.96	20.946
552.30	20.237
552.64	21.294
552.98	20.361
553.32	21.191
553.66	20.847
554.00	21.107
554.34	21.238
554.68	21.505
555.02	21.249
555.36	21.011
555.69	21.597
556.03	20.892
556.37	20.395
556.71	20.926
557.05	20.708
557.39	21.267
557.73	21.159
558.07	20.993
558.41	20.562
558.75	21.819
559.08	21.515
559.42	20.974
559.76	21.169
560.10	21.404
560.44	19.774
560.78	22.570
561.12	20.915
561.45	20.901
561.79	20.412
562.13	20.278
562.47	20.506
562.81	19.974
563.15	20.879
563.48	19.752
563.82	20.399
564.16	21.082
564.50	20.133
564.84	20.669
565.17	19.370
565.51	21.059
565.85	20.666
566.19	19.881
566.52	19.856
566.86	20.607
567.20	19.888
567.54	20.033
567.88	19.823
568.21	19.271
568.55	19.407
568.89	19.662
569.23	18.939
569.56	19.808
569.90	18.290
570.24	18.910
570.57	18.235
570.91	18.159
571.25	17.734
571.59	17.231
571.92	17.546
572.26	17.655
572.60	17.828
572.93	17.826
573.27	18.093
573.61	17.407
573.95	17.679
574.28	17.281
574.62	17.327
574.96	16.976
575.29	17.048
575.63	17.126
575.97	16.845
576.30	16.932
576.64	17.611
576.98	17.135
577.31	17.514
577.65	17.305
577.98	16.971
578.32	17.233
578.66	16.932
578.99	16.908
579.33	17.050
579.67	17.032
580.00	16.762
580.34	16.875
580.67	16.957
581.01	17.073
581.35	17.174
581.68	16.564
582.02	16.772
582.35	16.932
582.69	17.169
583.02	17.045
583.36	16.853
583.70	17.293
584.03	17.450
584.37	17.314
584.70	17.144
585.04	16.726
585.37	16.794
585.71	17.618
586.04	17.025
586.38	17.118
586.72	17.297
587.05	17.293
587.39	17.042
587.72	17.443
588.06	16.936
588.39	16.863
588.73	17.516
589.06	17.216
589.40	17.183
589.73	17.732
590.07	17.536
590.40	18.362
590.73	18.362
591.07	18.292
591.40	18.244
591.74	17.573
592.07	17.637
592.41	17.866
592.74	17.869
593.08	17.448
593.41	17.235
593.75	17.335
594.08	17.955
594.41	17.791
594.75	17.603
595.08	17.627
595.42	17.874
595.75	18.032
596.09	17.414
596.42	17.698
596.75	18.470
597.09	18.077
597.42	17.184
597.75	17.525
598.09	18.219
598.42	18.074
598.76	18.080
599.09	17.506
599.42	17.474
599.76	17.775
600.09	17.458
600.42	17.576
600.76	17.301
601.09	17.328
601.42	17.212
601.76	17.329
602.09	18.065
602.42	17.264
602.76	17.609
603.09	17.609
603.42	17.908
603.76	17.751
604.09	17.553
604.42	17.966
604.76	17.424
605.09	17.143
605.42	17.960
605.75	17.568
606.09	17.789
606.42	17.212
606.75	17.645
607.09	17.568
607.42	17.477
607.75	17.038
608.08	17.628
608.42	17.450
608.75	17.373
609.08	18.126
609.41	18.136
609.75	18.223
610.08	17.761
610.41	18.270
610.74	17.835
611.07	18.736
611.41	17.794
611.74	17.734
612.07	18.545
612.40	18.275
612.73	18.173
613.07	18.601
613.40	18.145
613.73	17.773
614.06	18.500
614.39	18.586
614.72	18.433
615.06	17.458
615.39	18.614
615.72	17.231
616.05	17.730
616.38	18.620
616.71	17.797
617.05	18.177
617.38	17.472
617.71	18.841
618.04	17.947
618.37	17.954
618.70	17.494
619.03	19.109
619.36	19.284
619.69	18.272
620.03	19.243
620.36	17.983
620.69	19.093
621.02	19.429
621.35	18.911
621.68	19.027
622.01	20.148
622.34	18.572
622.67	19.593
623.00	18.448
623.33	19.231
623.66	18.363
623.99	19.521
624.32	19.580
624.65	19.157
624.99	18.864
625.32	19.372
625.65	18.966
625.98	18.550
626.31	19.288
626.64	18.983
626.97	19.204
627.30	19.099
627.63	19.074
627.96	19.484
628.29	18.812
628.62	18.135
628.95	20.124
629.28	20.947
629.61	19.420
629.94	19.533
630.26	19.584
630.59	20.833
630.92	20.090
631.25	20.490
631.58	20.347
631.91	21.218
632.24	19.242
632.57	20.629
632.90	21.014
633.23	20.672
633.56	19.810
633.89	20.150
634.22	18.622
634.55	20.323
634.88	20.920
635.20	21.188
635.53	21.603
635.86	21.812
636.19	20.090
636.52	19.676
636.85	19.202
637.18	22.535
637.51	20.894
637.83	20.481
638.16	21.336
638.49	21.796
638.82	21.714
639.15	19.976
639.48	21.801
639.81	20.635
640.13	21.350
640.46	22.630
640.79	20.286
641.12	20.472
641.45	22.898
641.77	20.343
642.10	22.222
642.43	20.484
642.76	20.881
643.09	23.919
643.41	20.898
643.74	23.597
644.07	21.239
644.40	22.189
644.73	22.372
645.05	21.842
645.38	24.043
645.71	22.458
646.04	23.969
646.36	22.692
646.69	22.400
647.02	22.400
647.35	20.787
647.67	20.421
648.00	21.661
648.33	22.105
648.66	21.515
648.98	20.870
649.31	20.378
649.64	19.502
649.96	19.772
650.29	20.000
650.62	23.417
650.94	23.042
651.27	24.721
651.60	21.909
651.92	20.891
652.25	21.102
652.58	22.128
652.90	23.353
653.23	21.270
653.56	22.849
653.88	21.145
654.21	23.314
654.54	22.548
654.86	22.124
655.19	23.087
655.52	19.591
655.84	14.143
656.17	15.887
656.49	22.853
656.82	27.599
657.15	22.262
657.47	16.907
657.80	11.823
658.13	9.153
658.45	12.217
658.78	14.786
659.10	15.659
659.43	15.904
659.75	16.696
660.08	17.794
660.41	19.419
660.73	21.957
661.06	21.772
661.38	21.635
661.71	24.820
662.03	22.624
662.36	23.238
662.68	22.905
663.01	25.586
663.33	24.151
663.66	21.893
663.98	23.016
664.31	23.881
664.63	23.563
664.96	24.390
665.28	22.034
665.61	21.321
665.93	23.019
666.26	22.804
666.58	24.587
666.91	21.622
667.23	24.498
667.56	25.667
667.88	23.859
668.21	25.000
668.53	23.185
668.86	24.449
669.18	24.847
669.50	23.347
669.83	22.793
670.15	22.661
670.48	23.242
670.80	24.701
671.13	22.908
671.45	23.246
671.77	23.933
672.10	21.185
672.42	20.724
672.75	22.152
673.07	22.734
673.39	22.524
673.72	21.799
674.04	21.147
674.37	23.049
674.69	22.862
675.01	21.455
675.34	20.736
675.66	26.563
675.98	22.485
676.31	23.600
676.63	23.062
676.95	23.611
677.28	23.732
677.60	23.944
677.92	22.024
678.25	21.899
678.57	23.464
678.89	22.242
679.22	20.221
679.54	22.420
679.86	23.735
680.18	21.617
680.51	20.232
680.83	20.101
681.15	21.837
681.48	22.049
681.80	19.965
682.12	21.972
682.44	19.099
682.77	22.954
683.09	23.301
683.41	24.082
683.73	22.244
684.06	22.024
684.38	22.868
684.70	21.763
685.02	19.965
685.34	23.063
685.67	22.026
685.99	21.182
686.31	19.414
686.63	19.187
686.96	23.203
687.28	21.309
687.60	20.990
687.92	23.283
688.24	22.931
688.56	22.776
688.89	19.312
689.21	21.580
689.53	24.111
689.85	21.748
690.17	22.330
690.49	23.992
690.82	22.479
691.14	23.636
691.46	23.409
691.78	22.612
692.10	23.092
692.42	21.053
692.74	22.674
693.06	21.512
693.39	22.134
693.71	21.218
694.03	24.063
694.35	25.502
694.67	22.403
694.99	23.947
695.31	24.550
695.63	23.529
695.95	23.303
696.27	23.451
696.59	21.957
696.91	22.278
697.23	23.756
697.56	22.199
697.88	18.563
698.20	23.208
698.52	21.595
698.84	22.177
699.16	23.667
699.48	25.212
699.80	24.183
700.12	23.788
700.44	22.664
700.76	23.150
701.08	27.415
701.40	20.519
701.72	24.599
702.04	24.932
702.36	25.538
702.68	26.596
703.00	23.058
703.32	25.558
703.64	25.189
703.96	23.437
704.28	25.661
704.60	24.789
704.91	23.810
705.23	27.273
705.55	27.596
705.87	27.937
706.19	25.078
706.51	28.840
706.83	27.139
707.15	25.401
707.47	25.666
707.79	25.287
708.11	21.315
708.43	23.596
708.74	22.172
709.06	24.651
709.38	24.069
709.70	22.343
710.02	25.000
710.34	24.033
710.66	25.278
710.98	25.956
711.29	22.563
711.61	26.741
711.93	26.140
712.25	24.699
712.57	27.331
712.89	25.152
713.20	28.435
713.52	24.922
713.84	25.982
714.16	23.768
714.48	21.614
714.80	22.764
715.11	20.745
715.43	23.184
715.75	25.634
716.07	24.855
716.39	23.714
716.70	24.922
717.02	25.926
717.34	28.058
717.66	26.736
717.97	29.924
718.29	25.704
718.61	26.014
718.93	29.758
719.24	32.550
719.56	26.207
719.88	22.293
720.20	23.548
720.51	24.837
720.83	24.749
721.15	27.551
721.46	27.740
721.78	26.829
722.10	26.389
722.42	26.087
722.73	25.632
723.05	27.018
723.37	25.795
723.68	28.906
724.00	27.652
724.32	25.856
724.63	28.846
724.95	22.353
725.27	27.881
725.58	28.676
725.90	25.000
726.22	25.000
726.53	25.084
726.85	24.756
727.16	29.195
727.48	27.243
727.80	30.576
728.11	27.500
728.43	24.638
728.74	27.622
729.06	24.014
729.38	28.772
729.69	27.333
730.01	25.658
730.32	26.174
730.64	26.910
730.96	29.129
731.27	20.183
731.59	23.276
731.90	24.513
732.22	25.429
732.53	25.641
732.85	26.608
733.16	25.301
733.48	24.138
733.80	27.536
734.11	26.380
734.43	23.099
734.74	21.984
735.06	26.190
735.37	22.938
735.69	22.319
736.00	26.606
736.32	21.515
736.63	25.237
736.95	27.950
737.26	27.134
737.58	25.153
737.89	25.000
738.21	23.841
738.52	24.749
738.83	30.403
739.15	25.087
739.46	24.828
739.78	28.571
740.09	26.531
740.41	23.006
740.72	27.302
741.04	29.371
741.35	23.828
741.66	26.087
741.98	24.893
742.29	33.796
742.61	24.336
742.92	27.542
743.23	26.800
743.55	28.302
743.86	26.275
744.18	28.814
744.49	27.686
744.80	30.415
745.12	31.250
745.43	29.907
745.74	28.000
746.06	29.386
746.37	28.372
746.68	32.743
747.00	31.839
747.31	31.092
747.62	20.492
747.94	33.047
748.25	27.237
748.56	29.237
748.88	26.786
749.19	26.977
749.50	25.114
749.82	24.691
750.13	28.458
750.44	24.000
750.75	26.846
751.07	21.382
751.38	24.422
751.69	21.212
752.01	24.126
752.32	27.575
752.63	29.866
752.94	25.524
753.26	24.609
753.57	29.183
753.88	26.217
754.19	26.354
754.51	26.246
754.82	27.517
755.13	25.676
755.44	27.778
755.75	29.897
756.07	27.055
756.38	18.627
756.69	20.938
757.00	25.816
757.31	26.197
757.63	23.140
757.94	20.479
758.25	21.014
758.56	20.824
758.87	20.802
759.18	21.512
759.50	25.228
759.81	29.080
760.12	25.000
760.43	20.728
760.74	22.532
761.05	22.016
761.36	23.958
761.67	25.067
761.99	24.789
762.30	27.331
762.61	25.347
762.92	29.545
763.23	32.453
763.54	26.923
763.85	23.735
764.16	22.569
764.47	25.676
764.78	25.081
765.10	20.427
765.41	22.159
765.72	20.994
766.03	21.450
766.34	21.254
766.65	22.433
766.96	27.530
767.27	26.636
767.58	31.188
767.89	37.017
768.20	34.146
768.51	27.551
768.82	25.000
769.13	27.843
769.44	24.436
769.75	27.341
770.06	27.311
770.37	24.123
770.68	20.444
770.99	32.627
771.30	30.126
771.61	25.769
771.92	28.244
772.23	25.806
772.54	32.889
772.85	31.683
773.16	35.326
773.47	30.000
773.78	39.109
774.09	38.068
774.39	35.758
774.70	32.941
775.01	29.605
775.32	37.888
775.63	35.616
775.94	38.272
776.25	37.241
776.56	40.458
776.87	41.985
777.18	38.636
777.48	44.882
777.79	34.615
778.10	43.939
778.41	42.537
778.72	31.579
779.03	27.564
779.34	37.162
779.65	39.130
779.95	27.950
780.26	34.524
780.57	40.816
780.88	39.716
781.19	40.833
781.50	32.544
781.80	34.426
782.11	31.217
782.42	31.034
782.73	40.113
783.04	33.548
783.34	35.659
783.65	29.252
783.96	34.194
784.27	31.126
784.57	32.237
784.88	42.029
785.19	39.167
785.50	50.862
785.81	45.736
786.11	34.815
786.42	38.583
786.73	41.441
787.04	38.679
787.34	36.585
787.65	47.727
787.96	43.182
788.26	41.732
788.57	37.956
788.88	33.803
789.19	34.351
789.49	41.216
789.80	46.094
790.11	44.628
790.41	44.444
790.72	44.444
791.03	37.500
791.33	37.374
791.64	42.105
791.95	48.421
792.25	42.708
792.56	45.000
792.87	46.341
793.17	43.182
793.48	41.176
793.79	48.276
794.09	43.182
794.40	48.276
794.70	42.063
795.01	35.385
795.32	39.695
795.62	35.897
795.93	52.101
796.23	35.772
796.54	42.857
796.85	51.136
797.15	68.831
797.46	62.195
797.76	57.500
798.07	56.000
798.37	48.750
798.68	52.500
798.99	70.732
799.29	42.667
799.60	41.860
799.90	55.263
800.21	65.152
800.51	60.563
800.82	72.414
801.12	70.769
801.43	54.667
801.73	63.793
802.04	55.844
802.34	52.055
802.65	72.549
802.95	56.522
803.26	75.806
803.56	76.667
803.87	55.224
804.17	55.556
804.48	69.811
804.78	69.444
805.09	69.697
805.39	74.603
805.70	73.684
806.00	61.429
806.30	67.188
806.61	58.824
806.91	51.111
807.22	50.000
807.52	44.737
807.83	67.105
808.13	81.159
808.43	50.000
808.74	56.164
809.04	67.857
809.35	60.294
809.65	53.030
809.95	82.353
810.26	64.815
810.56	82.813
810.86	75.510
811.17	85.965
811.47	100.000
811.77	65.517
812.08	55.172
812.38	69.048
812.69	100.000
812.99	82.222
813.29	105.714
813.59	122.581
813.90	77.586
814.20	70.492
814.50	78.000
814.81	66.667
815.11	75.926
815.41	60.714
815.72	92.857
816.02	84.000
816.32	95.122
816.62	87.931
816.93	103.030
817.23	112.195
817.53	67.857
817.84	77.778
818.14	95.238
818.44	58.333
818.74	77.358
819.04	76.923
819.35	100.000
819.65	103.846
819.95	112.963
820.25	89.362
820.56	105.405
820.86	94.737
821.16	70.213
821.46	84.211
821.76	81.818
822.07	69.048
822.37	94.737
822.67	88.372
822.97	65.789
823.27	78.261
823.57	103.125
823.88	115.385
824.18	84.848
824.48	108.696
824.78	116.667
825.08	143.478
825.38	131.034
825.69	97.059
825.99	97.872
826.29	97.222
826.59	120.000
826.89	106.667
827.19	77.143
827.49	132.258
827.79	111.538
828.09	102.381
828.39	86.111
828.70	78.378
829.00	157.143
829.30	168.750
829.60	100.000
829.90	122.581
830.20	112.121
830.50	97.297
830.80	154.167
831.10	138.462
831.40	128.571
831.70	158.333
832.00	116.667
832.30	186.957
832.60	145.833
832.90	148.485
833.20	165.000
833.50	115.789
833.80	102.941
834.10	100.000
834.40	194.737
834.70	96.667
835.00	148.000
835.30	91.892
835.60	106.250
835.90	132.432
836.20	130.769
836.50	150.000
836.80	104.878
837.10	126.087
837.40	261.538
837.70	100.000
838.00	113.333
838.30	150.000
838.60	140.000
838.90	280.000
839.19	143.750
839.49	140.000
839.79	117.241
840.09	169.231
840.39	153.333
840.69	184.211
840.99	123.810
841.29	165.217
841.59	165.000
841.88	180.000
842.18	166.667
842.48	185.714
842.78	166.667
843.08	176.923
843.38	213.636
843.68	264.286
843.97	414.286
844.27	165.217
844.57	1600.000
844.87	271.429
845.17	150.000
845.47	157.143
845.76	170.833
846.06	528.571
846.36	205.882
846.66	261.538
846.96	200.000
847.25	207.692
847.55	142.105
847.85	183.333
848.15	480.000
848.44	263.636
848.74	138.095
849.04	175.000
849.34	158.824
849.63	168.750
849.93	243.750
850.23	766.667
850.53	450.000
850.82	263.636
851.12	217.647
851.42	145.833
851.71	237.500
852.01	0.000
852.31	194.118
852.61	330.000
852.90	141.667
853.20	277.778
853.50	-1800.000
853.79	148.000
854.09	162.500
854.39	117.241
854.68	141.379
854.98	176.190
855.28	103.226
855.57	242.857
855.87	166.667
856.17	122.222
856.46	215.789
856.76	129.032
857.05	305.882
857.35	209.091
857.65	223.077
857.94	180.000
858.24	488.889
858.53	307.143
858.83	600.000
859.13	208.696
859.42	200.000
859.72	450.000
860.01	233.333
860.31	675.000
860.60	370.000
860.90	412.500
861.20	246.154
861.49	400.000
861.79	-2700.000
862.08	457.143
862.38	277.778
862.67	300.000
862.97	430.000
863.26	126.667
863.56	825.000
863.85	261.538
864.15	247.059
864.44	216.667
864.74	308.333
865.03	345.455
865.33	350.000
865.62	266.667
865.92	500.000
866.21	725.000
866.51	500.000
866.80	266.667
867.10	900.000
867.39	3200.000
867.69	640.000
867.98	875.000
868.27	209.524
868.57	293.333
868.86	850.000
869.16	138.095
869.45	3000.000
869.75	-366.667
870.04	900.000
870.33	680.000
870.63	362.500
870.92	200.000
871.22	775.000
871.51	442.857
871.80	358.333
872.10	276.923
>>>>>End Processed Spectral Data<<<<<
