SpectraSuite Data File
++++++++++++++++++++++++++++++++++++
Date: Tue May 12 17:24:26 PDT 2015
User: schluterlab
Dark Spectrum Present: Yes
Reference Spectrum Present: Yes
Number of Sampled Component Spectra: 1
Spectrometers: USB2E3373
Integration Time (usec): 3000 (USB2E3373)
Spectra Averaged: 3 (USB2E3373)
Boxcar Smoothing: 0 (USB2E3373)
Correct for Electrical Dark: No (USB2E3373)
Strobe/Lamp Enabled: No (USB2E3373)
Correct for Detector Non-linearity: No (USB2E3373)
Correct for Stray Light: No (USB2E3373)
Number of Pixels in Processed Spectrum: 2048
>>>>>Begin Processed Spectral Data<<<<<
178.53	0.000
178.91	-241.667
179.29	-675.000
179.67	-4200.000
180.04	-120.000
180.42	550.000
180.80	1150.000
181.18	0.000
181.56	-312.500
181.94	0.000
182.31	1166.667
182.69	-2500.000
183.07	514.286
183.45	-3500.000
183.83	-1400.000
184.20	340.000
184.58	500.000
184.96	-261.538
185.34	-175.000
185.72	1800.000
186.09	-775.000
186.47	-3700.000
186.85	1100.000
187.23	640.000
187.61	1400.000
187.98	562.500
188.36	271.429
188.74	258.333
189.12	333.333
189.49	950.000
189.87	0.000
190.25	500.000
190.63	2200.000
191.00	-216.667
191.38	-3600.000
191.76	-650.000
192.14	575.000
192.51	-2800.000
192.89	1400.000
193.27	1100.000
193.65	-1066.667
194.02	-740.000
194.40	614.286
194.78	-207.143
195.15	300.000
195.53	-3600.000
195.91	-380.000
196.29	4000.000
196.66	181.250
197.04	550.000
197.42	-1250.000
197.79	450.000
198.17	275.000
198.55	0.000
198.92	485.714
199.30	1033.333
199.68	2150.000
200.05	700.000
200.43	-350.000
200.81	183.333
201.18	3800.000
201.56	250.000
201.94	-575.000
202.31	-350.000
202.69	-500.000
203.07	3300.000
203.44	-500.000
203.82	300.000
204.19	500.000
204.57	-1600.000
204.95	-900.000
205.32	-780.000
205.70	516.667
206.08	675.000
206.45	-733.333
206.83	322.222
207.20	157.895
207.58	266.667
207.96	640.000
208.33	0.000
208.71	571.429
209.08	800.000
209.46	-3100.000
209.84	-800.000
210.21	760.000
210.59	-640.000
210.96	258.333
211.34	-900.000
211.71	381.818
212.09	1050.000
212.46	1700.000
212.84	-416.667
213.22	400.000
213.59	-2900.000
213.97	450.000
214.34	925.000
214.72	1166.667
215.09	900.000
215.47	-1900.000
215.84	-280.000
216.22	-350.000
216.59	0.000
216.97	0.000
217.34	1900.000
217.72	-1200.000
218.09	1133.333
218.47	412.500
218.84	850.000
219.22	900.000
219.59	1300.000
219.97	571.429
220.34	411.111
220.72	1800.000
221.09	3500.000
221.47	241.667
221.84	1266.667
222.22	440.000
222.59	261.111
222.97	164.286
223.34	281.250
223.72	-1950.000
224.09	766.667
224.46	323.077
224.84	-600.000
225.21	433.333
225.59	286.667
225.96	1300.000
226.34	-720.000
226.71	-700.000
227.08	-520.000
227.46	0.000
227.83	-583.333
228.21	-1450.000
228.58	383.333
228.95	1125.000
229.33	388.889
229.70	925.000
230.08	338.462
230.45	3700.000
230.82	-825.000
231.20	-833.333
231.57	-966.667
231.95	560.000
232.32	291.667
232.69	533.333
233.07	333.333
233.44	-1850.000
233.81	206.667
234.19	170.370
234.56	206.250
234.93	176.471
235.31	225.000
235.68	312.500
236.05	153.571
236.43	166.667
236.80	292.857
237.17	165.517
237.55	109.375
237.92	147.500
238.29	163.636
238.67	168.750
239.04	129.268
239.41	116.667
239.79	112.500
240.16	131.250
240.53	85.246
240.91	95.652
241.28	106.780
241.65	83.333
242.02	90.141
242.40	90.000
242.77	83.516
243.14	87.342
243.51	94.949
243.89	77.570
244.26	73.832
244.63	80.198
245.00	76.147
245.38	68.644
245.75	68.939
246.12	73.333
246.49	71.631
246.87	70.492
247.24	70.000
247.61	66.250
247.98	74.150
248.36	67.273
248.73	66.837
249.10	64.881
249.47	63.500
249.84	52.736
250.22	67.027
250.59	63.000
250.96	57.384
251.33	57.209
251.70	57.589
252.08	59.244
252.45	58.566
252.82	58.935
253.19	54.941
253.56	61.154
253.94	53.623
254.31	59.302
254.68	54.007
255.05	60.690
255.42	57.664
255.79	57.329
256.16	62.034
256.54	58.442
256.91	54.575
257.28	60.201
257.65	53.918
258.02	56.637
258.39	53.582
258.76	55.942
259.14	53.714
259.51	59.475
259.88	59.574
260.25	53.022
260.62	56.712
260.99	54.270
261.36	53.203
261.73	53.989
262.10	57.592
262.47	54.250
262.85	57.333
263.22	53.213
263.59	52.685
263.96	55.890
264.33	50.617
264.70	56.757
265.07	53.415
265.44	54.817
265.81	51.179
266.18	54.462
266.55	54.374
266.92	51.454
267.29	51.535
267.66	53.139
268.03	53.812
268.40	52.854
268.77	51.322
269.14	51.627
269.51	51.448
269.88	51.633
270.25	51.404
270.62	53.219
270.99	50.710
271.36	53.049
271.73	52.411
272.10	50.707
272.47	51.587
272.84	51.297
273.21	50.826
273.58	50.405
273.95	53.183
274.32	50.584
274.69	50.394
275.06	49.362
275.43	52.107
275.80	51.321
276.17	49.081
276.54	49.907
276.91	50.746
277.28	49.270
277.65	50.185
278.02	47.610
278.39	49.640
278.76	50.000
279.13	50.178
279.50	52.909
279.87	50.466
280.23	50.460
280.60	51.825
280.97	49.655
281.34	49.340
281.71	49.565
282.08	49.915
282.45	48.142
282.82	47.659
283.19	46.582
283.56	46.281
283.92	49.511
284.29	46.589
284.66	45.378
285.03	49.420
285.40	45.950
285.77	43.981
286.14	46.440
286.51	46.779
286.87	43.987
287.24	43.994
287.61	45.897
287.98	44.328
288.35	43.852
288.72	46.131
289.08	44.745
289.45	42.378
289.82	46.250
290.19	44.510
290.56	43.086
290.93	42.878
291.29	42.127
291.66	41.949
292.03	44.320
292.40	41.463
292.77	41.365
293.13	41.797
293.50	41.430
293.87	39.837
294.24	40.979
294.60	40.242
294.97	39.860
295.34	39.044
295.71	38.108
296.08	40.400
296.44	37.357
296.81	37.717
297.18	38.023
297.55	39.039
297.91	38.177
298.28	36.715
298.65	37.791
299.02	36.791
299.38	37.530
299.75	36.951
300.12	36.468
300.48	35.480
300.85	38.141
301.22	36.163
301.59	35.967
301.95	36.523
302.32	36.903
302.69	36.765
303.05	37.710
303.42	34.978
303.79	37.378
304.15	36.524
304.52	35.095
304.89	35.714
305.25	35.150
305.62	35.608
305.99	36.196
306.35	34.842
306.72	35.068
307.09	36.025
307.45	36.431
307.82	34.774
308.19	36.598
308.55	34.900
308.92	37.488
309.29	38.363
309.65	36.075
310.02	37.323
310.38	35.593
310.75	35.391
311.12	38.027
311.48	39.286
311.85	38.073
312.22	38.013
312.58	38.290
312.95	39.417
313.31	38.858
313.68	39.869
314.05	39.377
314.41	39.479
314.78	40.436
315.14	43.886
315.51	43.141
315.87	41.606
316.24	43.044
316.61	44.763
316.97	43.211
317.34	45.373
317.70	44.601
318.07	45.641
318.43	47.188
318.80	48.424
319.16	47.552
319.53	47.876
319.89	48.746
320.26	51.210
320.62	50.641
320.99	50.906
321.35	50.928
321.72	53.226
322.08	52.909
322.45	53.406
322.81	54.437
323.18	57.282
323.54	57.578
323.91	58.749
324.27	60.477
324.64	59.862
325.00	62.241
325.37	61.551
325.73	63.659
326.10	64.623
326.46	64.162
326.83	64.480
327.19	66.827
327.56	65.176
327.92	67.623
328.29	67.512
328.65	67.551
329.01	68.606
329.38	70.051
329.74	68.745
330.11	71.590
330.47	69.991
330.84	68.594
331.20	70.135
331.56	72.107
331.93	72.541
332.29	73.384
332.66	73.724
333.02	70.876
333.38	73.037
333.75	72.644
334.11	71.896
334.48	74.615
334.84	72.128
335.20	73.139
335.57	72.124
335.93	72.666
336.29	71.808
336.66	74.957
337.02	74.337
337.38	72.313
337.75	75.591
338.11	74.852
338.47	73.582
338.84	73.751
339.20	74.372
339.56	72.750
339.93	74.331
340.29	72.521
340.65	74.686
341.02	73.693
341.38	72.578
341.74	75.415
342.11	75.626
342.47	74.323
342.83	75.964
343.20	73.888
343.56	73.550
343.92	75.723
344.28	74.561
344.65	76.039
345.01	72.063
345.37	74.119
345.73	75.397
346.10	73.227
346.46	76.156
346.82	73.611
347.19	74.498
347.55	73.224
347.91	73.187
348.27	74.129
348.63	75.079
349.00	74.943
349.36	77.276
349.72	75.459
350.08	74.534
350.45	74.334
350.81	75.076
351.17	75.501
351.53	75.443
351.89	73.815
352.26	74.225
352.62	74.661
352.98	74.310
353.34	75.039
353.70	73.700
354.07	76.308
354.43	74.424
354.79	72.969
355.15	75.574
355.51	74.622
355.87	74.096
356.24	74.981
356.60	74.505
356.96	74.375
357.32	75.057
357.68	75.477
358.04	75.608
358.40	74.663
358.77	76.033
359.13	75.450
359.49	73.684
359.85	75.652
360.21	74.517
360.57	74.818
360.93	75.541
361.29	75.036
361.66	77.330
362.02	74.929
362.38	76.479
362.74	76.008
363.10	76.157
363.46	74.931
363.82	75.035
364.18	75.533
364.54	74.535
364.90	76.037
365.26	75.642
365.62	77.003
365.98	75.705
366.35	74.690
366.71	75.920
367.07	75.836
367.43	75.084
367.79	75.798
368.15	73.881
368.51	77.326
368.87	76.155
369.23	74.844
369.59	75.320
369.95	76.084
370.31	75.359
370.67	74.393
371.03	75.210
371.39	76.870
371.75	76.692
372.11	75.731
372.47	75.274
372.83	76.751
373.19	76.422
373.55	76.495
373.91	76.105
374.27	75.066
374.63	74.847
374.99	77.628
375.35	77.218
375.71	76.253
376.07	77.056
376.42	75.384
376.78	75.787
377.14	75.033
377.50	76.155
377.86	76.874
378.22	76.173
378.58	77.542
378.94	76.222
379.30	75.743
379.66	76.942
380.02	77.302
380.38	77.049
380.74	77.451
381.09	76.928
381.45	75.434
381.81	75.355
382.17	75.641
382.53	76.665
382.89	77.824
383.25	76.732
383.61	76.023
383.97	76.005
384.32	76.311
384.68	78.491
385.04	77.960
385.40	76.216
385.76	76.068
386.12	77.489
386.48	77.082
386.83	77.078
387.19	76.737
387.55	78.622
387.91	75.462
388.27	78.049
388.62	76.526
388.98	75.685
389.34	76.621
389.70	76.592
390.06	76.951
390.42	77.298
390.77	75.246
391.13	77.852
391.49	76.104
391.85	76.800
392.20	75.685
392.56	75.747
392.92	74.733
393.28	75.000
393.64	76.147
393.99	75.697
394.35	74.985
394.71	73.462
395.07	75.547
395.42	74.415
395.78	76.990
396.14	75.120
396.50	75.451
396.85	75.122
397.21	74.910
397.57	73.879
397.92	74.523
398.28	75.069
398.64	75.334
399.00	73.383
399.35	73.913
399.71	72.958
400.07	74.658
400.42	73.791
400.78	73.842
401.14	73.928
401.49	73.560
401.85	73.349
402.21	74.165
402.57	74.267
402.92	73.273
403.28	72.971
403.63	73.455
403.99	72.316
404.35	72.919
404.70	74.070
405.06	72.207
405.42	73.190
405.77	71.114
406.13	72.777
406.49	72.143
406.84	71.235
407.20	73.630
407.55	72.985
407.91	72.814
408.27	72.347
408.62	71.260
408.98	71.614
409.34	71.537
409.69	72.060
410.05	71.258
410.40	70.318
410.76	69.548
411.11	70.853
411.47	71.358
411.83	69.303
412.18	70.713
412.54	70.931
412.89	69.381
413.25	69.669
413.60	70.035
413.96	70.377
414.31	70.189
414.67	70.391
415.03	69.732
415.38	69.968
415.74	71.131
416.09	70.081
416.45	69.942
416.80	69.917
417.16	68.491
417.51	68.981
417.87	69.212
418.22	68.226
418.58	68.917
418.93	67.876
419.29	68.515
419.64	67.050
420.00	70.048
420.35	67.770
420.71	67.561
421.06	67.098
421.42	68.164
421.77	68.462
422.12	68.192
422.48	65.896
422.83	68.248
423.19	66.955
423.54	66.100
423.90	67.894
424.25	68.575
424.61	67.499
424.96	66.403
425.31	67.707
425.67	67.789
426.02	67.471
426.38	67.445
426.73	67.727
427.09	66.429
427.44	65.729
427.79	67.238
428.15	68.002
428.50	67.371
428.85	66.255
429.21	66.451
429.56	66.351
429.92	65.838
430.27	64.973
430.62	65.247
430.98	65.220
431.33	64.466
431.68	63.852
432.04	64.977
432.39	66.191
432.74	66.335
433.10	66.334
433.45	66.284
433.80	65.803
434.16	64.109
434.51	64.912
434.86	65.651
435.22	65.478
435.57	65.916
435.92	64.769
436.28	65.841
436.63	64.776
436.98	66.723
437.34	65.240
437.69	63.942
438.04	62.742
438.39	64.273
438.75	64.532
439.10	63.950
439.45	62.408
439.81	63.968
440.16	64.777
440.51	64.245
440.86	64.729
441.22	62.771
441.57	63.937
441.92	63.228
442.27	62.990
442.63	63.516
442.98	64.224
443.33	63.310
443.68	62.676
444.03	63.195
444.39	63.465
444.74	62.371
445.09	62.454
445.44	62.646
445.79	63.304
446.15	62.789
446.50	62.500
446.85	62.400
447.20	62.637
447.55	63.187
447.91	62.334
448.26	62.460
448.61	63.350
448.96	63.290
449.31	62.871
449.66	62.071
450.02	62.345
450.37	61.688
450.72	62.369
451.07	62.304
451.42	62.656
451.77	62.829
452.12	63.244
452.47	62.637
452.83	62.986
453.18	63.303
453.53	63.588
453.88	62.571
454.23	62.406
454.58	62.471
454.93	61.435
455.28	62.240
455.63	63.239
455.98	61.309
456.34	62.553
456.69	61.402
457.04	62.411
457.39	62.571
457.74	62.669
458.09	61.314
458.44	60.131
458.79	60.265
459.14	60.175
459.49	60.759
459.84	62.337
460.19	60.169
460.54	61.197
460.89	60.714
461.24	59.336
461.59	61.621
461.94	60.461
462.29	61.728
462.64	61.181
462.99	61.548
463.34	61.892
463.69	61.222
464.04	62.349
464.39	60.103
464.74	59.555
465.09	60.476
465.44	59.684
465.79	59.390
466.14	58.082
466.49	59.957
466.84	59.866
467.19	60.281
467.54	59.339
467.89	60.505
468.24	60.278
468.59	60.000
468.94	61.051
469.29	58.338
469.64	60.129
469.99	60.219
470.34	60.595
470.68	60.414
471.03	61.374
471.38	60.397
471.73	59.046
472.08	60.339
472.43	60.770
472.78	60.115
473.13	60.075
473.48	59.963
473.83	59.776
474.17	60.486
474.52	59.893
474.87	58.840
475.22	58.652
475.57	58.395
475.92	58.815
476.27	58.542
476.61	58.499
476.96	57.106
477.31	59.023
477.66	59.581
478.01	57.710
478.36	58.342
478.70	57.965
479.05	59.100
479.40	57.391
479.75	58.441
480.10	57.841
480.45	57.470
480.79	57.051
481.14	58.060
481.49	56.542
481.84	57.520
482.19	57.467
482.53	56.653
482.88	56.944
483.23	57.871
483.58	58.618
483.92	57.130
484.27	56.764
484.62	58.065
484.97	55.902
485.31	55.319
485.66	53.005
486.01	52.530
486.36	51.856
486.70	52.211
487.05	53.787
487.40	54.060
487.75	54.720
488.09	54.631
488.44	54.780
488.79	54.946
489.13	55.730
489.48	56.332
489.83	55.796
490.17	55.574
490.52	55.771
490.87	55.388
491.22	56.871
491.56	56.610
491.91	56.362
492.26	55.501
492.60	57.813
492.95	56.955
493.30	56.415
493.64	56.244
493.99	55.054
494.34	55.894
494.68	54.316
495.03	55.456
495.37	56.281
495.72	56.597
496.07	55.526
496.41	54.996
496.76	55.382
497.11	55.656
497.45	54.932
497.80	56.905
498.14	55.802
498.49	55.246
498.84	56.262
499.18	54.205
499.53	55.168
499.87	55.256
500.22	55.643
500.56	55.664
500.91	55.659
501.26	54.662
501.60	55.373
501.95	54.301
502.29	55.511
502.64	54.080
502.98	53.802
503.33	55.278
503.67	53.819
504.02	54.948
504.36	54.661
504.71	55.913
505.06	54.998
505.40	55.686
505.75	53.742
506.09	55.623
506.44	54.793
506.78	55.198
507.13	55.356
507.47	54.828
507.82	56.399
508.16	56.345
508.51	55.556
508.85	54.321
509.19	55.458
509.54	55.371
509.88	55.793
510.23	56.029
510.57	53.958
510.92	55.594
511.26	56.426
511.61	54.998
511.95	55.500
512.30	54.750
512.64	54.829
512.98	54.792
513.33	55.584
513.67	55.049
514.02	55.273
514.36	54.933
514.70	56.160
515.05	55.834
515.39	57.895
515.74	56.260
516.08	55.828
516.42	57.541
516.77	55.893
517.11	55.360
517.46	55.388
517.80	54.997
518.14	56.563
518.49	56.009
518.83	55.000
519.17	56.628
519.52	56.253
519.86	55.422
520.20	55.616
520.55	55.172
520.89	55.517
521.23	56.367
521.58	56.225
521.92	57.026
522.26	55.628
522.61	57.160
522.95	56.817
523.29	56.667
523.64	55.896
523.98	56.573
524.32	57.036
524.66	55.768
525.01	55.799
525.35	55.215
525.69	56.111
526.04	56.038
526.38	54.856
526.72	54.833
527.06	55.943
527.41	57.799
527.75	56.604
528.09	55.689
528.43	56.132
528.78	55.397
529.12	57.435
529.46	55.406
529.80	55.199
530.15	55.274
530.49	55.054
530.83	56.002
531.17	56.027
531.51	55.242
531.86	54.710
532.20	55.192
532.54	57.062
532.88	56.590
533.22	54.784
533.57	55.278
533.91	55.012
534.25	54.126
534.59	55.029
534.93	54.039
535.27	53.045
535.62	54.084
535.96	53.723
536.30	56.002
536.64	54.845
536.98	54.122
537.32	54.500
537.66	54.847
538.01	54.613
538.35	53.899
538.69	52.549
539.03	53.794
539.37	54.551
539.71	54.877
540.05	52.985
540.39	54.969
540.73	53.924
541.07	52.760
541.42	54.229
541.76	53.761
542.10	52.836
542.44	52.868
542.78	54.374
543.12	53.067
543.46	52.694
543.80	52.945
544.14	53.622
544.48	52.494
544.82	52.905
545.16	51.791
545.50	52.981
545.84	52.083
546.18	54.746
546.52	54.230
546.86	53.772
547.20	53.036
547.54	52.502
547.88	51.886
548.22	54.098
548.56	51.915
548.90	51.246
549.24	53.190
549.58	52.255
549.92	52.914
550.26	53.685
550.60	53.759
550.94	54.003
551.28	53.862
551.62	53.517
551.96	51.486
552.30	51.879
552.64	52.104
552.98	51.611
553.32	51.216
553.66	51.466
554.00	52.445
554.34	53.129
554.68	52.957
555.02	52.749
555.36	51.130
555.69	52.814
556.03	51.401
556.37	50.988
556.71	52.151
557.05	52.163
557.39	51.533
557.73	53.100
558.07	51.375
558.41	51.542
558.75	51.778
559.08	52.466
559.42	52.971
559.76	52.031
560.10	52.443
560.44	52.157
560.78	52.174
561.12	51.113
561.45	52.128
561.79	50.811
562.13	51.548
562.47	51.330
562.81	51.204
563.15	50.614
563.48	50.000
563.82	51.279
564.16	50.746
564.50	49.548
564.84	49.301
565.17	50.683
565.51	51.416
565.85	51.018
566.19	50.000
566.52	50.542
566.86	50.321
567.20	50.562
567.54	50.164
567.88	50.026
568.21	48.627
568.55	47.617
568.89	47.354
569.23	47.455
569.56	48.003
569.90	46.245
570.24	46.644
570.57	45.944
570.91	45.055
571.25	45.077
571.59	44.867
571.92	44.241
572.26	44.340
572.60	44.710
572.93	44.796
573.27	45.434
573.61	44.857
573.95	43.924
574.28	44.813
574.62	43.712
574.96	43.241
575.29	43.808
575.63	43.746
575.97	43.427
576.30	43.837
576.64	43.931
576.98	43.209
577.31	44.121
577.65	43.544
577.98	43.236
578.32	42.651
578.66	43.021
578.99	42.962
579.33	43.730
579.67	42.765
580.00	43.041
580.34	42.356
580.67	42.125
581.01	42.967
581.35	42.437
581.68	42.224
582.02	42.364
582.35	42.162
582.69	42.556
583.02	42.661
583.36	43.050
583.70	43.740
584.03	43.947
584.37	43.539
584.70	42.448
585.04	42.517
585.37	42.583
585.71	42.517
586.04	42.844
586.38	42.542
586.72	43.140
587.05	42.383
587.39	43.186
587.72	43.108
588.06	42.389
588.39	43.296
588.73	42.631
589.06	43.799
589.40	43.631
589.73	43.527
590.07	44.852
590.40	44.913
590.73	44.767
591.07	44.478
591.40	44.112
591.74	44.399
592.07	43.386
592.41	44.325
592.74	43.208
593.08	42.480
593.41	41.981
593.75	42.079
594.08	42.193
594.41	43.597
594.75	43.459
595.08	43.450
595.42	43.581
595.75	43.435
596.09	42.475
596.42	42.935
596.75	44.030
597.09	43.830
597.42	42.898
597.75	43.367
598.09	42.840
598.42	43.084
598.76	42.251
599.09	42.883
599.42	42.180
599.76	42.130
600.09	41.966
600.42	42.196
600.76	41.638
601.09	42.182
601.42	41.887
601.76	42.392
602.09	42.531
602.42	41.996
602.76	42.543
603.09	43.137
603.42	42.202
603.76	41.866
604.09	42.273
604.42	42.260
604.76	42.394
605.09	42.776
605.42	42.828
605.75	41.848
606.09	42.464
606.42	41.826
606.75	42.518
607.09	41.098
607.42	42.587
607.75	41.242
608.08	42.323
608.42	42.534
608.75	42.191
609.08	42.543
609.41	42.955
609.75	41.987
610.08	42.761
610.41	42.688
610.74	41.948
611.07	42.929
611.41	42.678
611.74	43.499
612.07	43.112
612.40	43.275
612.73	42.686
613.07	43.588
613.40	42.707
613.73	43.335
614.06	42.750
614.39	44.343
614.72	42.692
615.06	42.681
615.39	42.327
615.72	41.336
616.05	42.692
616.38	42.618
616.71	43.082
617.05	42.779
617.38	42.921
617.71	44.319
618.04	44.195
618.37	43.135
618.70	43.072
619.03	43.407
619.36	43.405
619.69	45.317
620.03	44.618
620.36	44.573
620.69	44.955
621.02	44.158
621.35	44.054
621.68	45.870
622.01	44.354
622.34	45.011
622.67	44.382
623.00	42.954
623.33	43.860
623.66	43.979
623.99	44.521
624.32	43.835
624.65	42.923
624.99	43.611
625.32	44.556
625.65	43.448
625.98	44.491
626.31	46.068
626.64	45.103
626.97	43.688
627.30	44.643
627.63	45.133
627.96	42.879
628.29	45.875
628.62	44.397
628.95	46.099
629.28	47.765
629.61	44.728
629.94	44.685
630.26	46.187
630.59	45.567
630.92	45.202
631.25	46.782
631.58	46.866
631.91	47.574
632.24	45.773
632.57	46.955
632.90	48.137
633.23	47.429
633.56	46.997
633.89	47.267
634.22	47.363
634.55	47.527
634.88	47.426
635.20	46.300
635.53	50.290
635.86	46.756
636.19	47.475
636.52	45.946
636.85	46.063
637.18	48.646
637.51	47.263
637.83	45.881
638.16	47.479
638.49	46.347
638.82	47.770
639.15	47.709
639.48	47.275
639.81	47.985
640.13	48.466
640.46	48.673
640.79	49.935
641.12	47.769
641.45	48.124
641.77	48.745
642.10	49.398
642.43	49.218
642.76	48.295
643.09	48.991
643.41	47.826
643.74	47.914
644.07	50.590
644.40	50.444
644.73	49.399
645.05	49.629
645.38	50.383
645.71	50.228
646.04	49.618
646.36	49.922
646.69	48.000
647.02	47.680
647.35	44.567
647.67	50.405
648.00	50.163
648.33	47.368
648.66	49.242
648.98	48.261
649.31	45.614
649.64	46.750
649.96	47.226
650.29	45.143
650.62	48.748
650.94	48.193
651.27	49.761
651.60	47.261
651.92	49.309
652.25	48.504
652.58	44.539
652.90	47.305
653.23	48.449
653.56	45.994
653.88	45.815
654.21	45.455
654.54	45.974
654.86	45.870
655.19	45.251
655.52	40.460
655.84	33.076
656.17	39.090
656.49	55.575
656.82	62.582
657.15	49.063
657.47	37.199
657.80	28.221
658.13	22.343
658.45	30.640
658.78	36.362
659.10	36.335
659.43	36.920
659.75	37.248
660.08	38.033
660.41	41.470
660.73	44.417
661.06	45.646
661.38	47.871
661.71	47.842
662.03	47.909
662.36	48.000
662.68	46.927
663.01	48.649
663.33	46.226
663.66	49.310
663.98	50.000
664.31	48.321
664.63	49.808
664.96	49.906
665.28	45.951
665.61	44.528
665.93	48.491
666.26	46.729
666.58	50.826
666.91	47.490
667.23	48.394
667.56	48.871
667.88	49.585
668.21	48.975
668.53	48.387
668.86	47.896
669.18	48.065
669.50	46.901
669.83	50.719
670.15	48.025
670.48	44.531
670.80	48.606
671.13	48.207
671.45	50.701
671.77	48.423
672.10	44.704
672.42	43.257
672.75	45.411
673.07	44.515
673.39	43.930
673.72	46.713
674.04	46.953
674.37	47.368
674.69	47.026
675.01	44.590
675.34	46.899
675.66	49.414
675.98	47.732
676.31	48.200
676.63	46.322
676.95	46.825
677.28	45.233
677.60	46.479
677.92	45.437
678.25	43.798
678.57	45.624
678.89	47.740
679.22	46.691
679.54	44.662
679.86	44.677
680.18	45.870
680.51	43.449
680.83	44.088
681.15	45.061
681.48	45.660
681.80	43.257
682.12	44.637
682.44	42.703
682.77	45.018
683.09	46.990
683.41	46.327
683.73	46.260
684.06	44.246
684.38	47.868
684.70	42.986
685.02	43.750
685.34	45.775
685.67	45.016
685.99	43.021
686.31	42.681
686.63	45.041
686.96	43.954
687.28	42.617
687.60	43.345
687.92	44.054
688.24	44.310
688.56	43.594
688.89	41.300
689.21	43.353
689.53	44.664
689.85	46.951
690.17	43.883
690.49	45.161
690.82	46.008
691.14	44.646
691.46	45.996
691.78	43.470
692.10	47.137
692.42	39.927
692.74	46.512
693.06	44.380
693.39	45.059
693.71	44.401
694.03	45.365
694.35	43.574
694.67	43.992
694.99	47.672
695.31	46.396
695.63	45.928
695.95	44.118
696.27	45.796
696.59	45.346
696.91	46.835
697.23	46.380
697.56	41.079
697.88	43.912
698.20	44.528
698.52	41.440
698.84	44.969
699.16	41.578
699.48	42.797
699.80	44.880
700.12	46.882
700.44	43.692
700.76	46.778
701.08	45.431
701.40	47.792
701.72	49.198
702.04	49.593
702.36	46.237
702.68	48.670
703.00	46.617
703.32	45.409
703.64	42.065
703.96	47.135
704.28	43.915
704.60	48.451
704.91	48.459
705.23	46.875
705.55	48.071
705.87	49.841
706.19	51.411
706.51	52.351
706.83	51.327
707.15	46.791
707.47	46.005
707.79	44.598
708.11	43.537
708.43	43.596
708.74	44.796
709.06	44.419
709.38	46.154
709.70	44.142
710.02	45.924
710.34	45.304
710.66	47.500
710.98	45.902
711.29	44.011
711.61	48.189
711.93	50.760
712.25	46.988
712.57	45.981
712.89	50.000
713.20	48.243
713.52	47.040
713.84	47.130
714.16	46.377
714.48	41.210
714.80	42.276
715.11	47.074
715.43	41.341
715.75	44.789
716.07	43.064
716.39	46.571
716.70	44.237
717.02	50.842
717.34	49.281
717.66	50.000
717.97	51.515
718.29	46.831
718.61	45.946
718.93	50.865
719.24	45.638
719.56	42.414
719.88	47.134
720.20	48.710
720.51	47.386
720.83	47.492
721.15	47.279
721.46	51.370
721.78	48.780
722.10	47.569
722.42	48.495
722.73	47.653
723.05	47.719
723.37	48.410
723.68	48.438
724.00	48.106
724.32	47.148
724.63	50.000
724.95	51.765
725.27	47.584
725.58	44.118
725.90	44.014
726.22	50.685
726.53	43.478
726.85	45.928
727.16	45.302
727.48	45.515
727.80	51.079
728.11	50.000
728.43	45.652
728.74	47.552
729.06	40.143
729.38	50.175
729.69	50.667
730.01	48.026
730.32	44.966
730.64	46.844
730.96	46.847
731.27	41.896
731.59	39.655
731.90	42.340
732.22	44.571
732.53	42.165
732.85	47.661
733.16	43.675
733.48	42.633
733.80	46.087
734.11	43.865
734.43	46.199
734.74	41.287
735.06	41.534
735.37	39.175
735.69	43.768
736.00	44.648
736.32	41.818
736.63	40.063
736.95	40.994
737.26	42.988
737.58	42.025
737.89	41.867
738.21	43.709
738.52	47.492
738.83	45.788
739.15	38.676
739.46	43.103
739.78	43.878
740.09	42.857
740.41	45.706
740.72	44.762
741.04	49.650
741.35	46.875
741.66	44.664
741.98	45.494
742.29	45.370
742.61	46.903
742.92	45.763
743.23	45.200
743.55	44.906
743.86	43.529
744.18	50.000
744.49	46.694
744.80	49.770
745.12	45.536
745.43	46.262
745.74	49.778
746.06	45.614
746.37	47.442
746.68	50.442
747.00	51.121
747.31	49.160
747.62	43.033
747.94	48.498
748.25	45.136
748.56	50.847
748.88	44.643
749.19	47.907
749.50	44.292
749.82	41.152
750.13	43.874
750.44	42.333
750.75	46.980
751.07	48.026
751.38	41.584
751.69	42.761
752.01	43.706
752.32	40.864
752.63	43.624
752.94	46.154
753.26	45.703
753.57	45.136
753.88	43.071
754.19	42.960
754.51	45.183
754.82	43.624
755.13	41.216
755.44	45.556
755.75	45.017
756.07	45.890
756.38	39.216
756.69	43.750
757.00	45.697
757.31	42.535
757.63	35.813
757.94	39.096
758.25	38.889
758.56	38.902
758.87	42.356
759.18	40.698
759.50	41.337
759.81	42.433
760.12	41.573
760.43	39.216
760.74	42.278
761.05	41.910
761.36	34.375
761.67	39.353
761.99	40.000
762.30	39.550
762.61	40.972
762.92	47.348
763.23	43.774
763.54	43.462
763.85	40.467
764.16	42.708
764.47	45.946
764.78	42.345
765.10	41.463
765.41	38.920
765.72	37.017
766.03	38.369
766.34	39.721
766.65	45.627
766.96	46.559
767.27	46.729
767.58	50.000
767.89	48.619
768.20	56.098
768.51	44.898
768.82	50.000
769.13	45.490
769.44	42.481
769.75	41.199
770.06	46.218
770.37	37.281
770.68	41.778
770.99	46.610
771.30	46.444
771.61	43.077
771.92	44.275
772.23	41.532
772.54	46.222
772.85	48.515
773.16	44.022
773.47	48.889
773.78	50.495
774.09	55.682
774.39	52.727
774.70	46.471
775.01	52.632
775.32	52.795
775.63	57.534
775.94	54.321
776.25	54.483
776.56	58.015
776.87	55.725
777.18	56.061
777.48	69.291
777.79	59.231
778.10	51.515
778.41	58.209
778.72	55.639
779.03	46.795
779.34	58.108
779.65	57.143
779.95	54.037
780.26	47.619
780.57	59.184
780.88	53.901
781.19	66.667
781.50	55.030
781.80	53.552
782.11	44.444
782.42	52.299
782.73	51.977
783.04	41.290
783.34	51.938
783.65	40.136
783.96	54.839
784.27	49.669
784.57	57.237
784.88	50.725
785.19	55.833
785.50	54.310
785.81	64.341
786.11	45.185
786.42	53.543
786.73	54.955
787.04	61.321
787.34	52.846
787.65	62.121
787.96	60.606
788.26	62.992
788.57	62.774
788.88	52.113
789.19	41.985
789.49	52.703
789.80	55.469
790.11	57.851
790.41	65.741
790.72	62.037
791.03	68.269
791.33	64.646
791.64	70.526
791.95	66.316
792.25	56.250
792.56	58.000
792.87	68.293
793.17	63.636
793.48	60.000
793.79	72.414
794.09	71.591
794.40	61.207
794.70	63.492
795.01	56.154
795.32	54.198
795.62	51.282
795.93	58.824
796.23	62.602
796.54	71.429
796.85	64.773
797.15	74.026
797.46	73.171
797.76	61.250
798.07	86.667
798.37	72.500
798.68	81.250
798.99	86.585
799.29	62.667
799.60	63.953
799.90	48.684
800.21	84.848
800.51	63.380
800.82	84.483
801.12	84.615
801.43	74.667
801.73	79.310
802.04	70.130
802.34	83.562
802.65	90.196
802.95	97.826
803.26	82.258
803.56	101.667
803.87	76.119
804.17	74.603
804.48	71.698
804.78	76.389
805.09	75.758
805.39	98.413
805.70	80.702
806.00	81.429
806.30	76.563
806.61	67.059
806.91	70.000
807.22	56.522
807.52	71.053
807.83	77.632
808.13	81.159
808.43	93.548
808.74	79.452
809.04	71.429
809.35	83.824
809.65	92.424
809.95	100.000
810.26	109.259
810.56	76.562
810.86	85.714
811.17	85.965
811.47	102.174
811.77	68.966
812.08	81.034
812.38	102.381
812.69	102.381
812.99	104.444
813.29	100.000
813.59	103.226
813.90	77.586
814.20	93.443
814.50	92.000
814.81	78.947
815.11	88.889
815.41	82.143
815.72	96.429
816.02	116.000
816.32	107.317
816.62	89.655
816.93	130.303
817.23	134.146
817.53	89.286
817.84	111.111
818.14	123.810
818.44	85.417
818.74	86.792
819.04	110.256
819.35	127.273
819.65	101.923
819.95	116.667
820.25	93.617
820.56	129.730
820.86	128.947
821.16	76.596
821.46	110.526
821.76	83.636
822.07	100.000
822.37	94.737
822.67	97.674
822.97	97.368
823.27	104.348
823.57	90.625
823.88	102.564
824.18	106.061
824.48	160.870
824.78	147.222
825.08	178.261
825.38	134.483
825.69	120.588
825.99	93.617
826.29	100.000
826.59	142.857
826.89	146.667
827.19	74.286
827.49	122.581
827.79	165.385
828.09	88.095
828.39	116.667
828.70	91.892
829.00	160.714
829.30	143.750
829.60	141.667
829.90	125.806
830.20	90.909
830.50	143.243
830.80	183.333
831.10	169.231
831.40	214.286
831.70	175.000
832.00	136.667
832.30	204.348
832.60	200.000
832.90	169.697
833.20	150.000
833.50	131.579
833.80	85.294
834.10	107.895
834.40	136.842
834.70	96.667
835.00	168.000
835.30	91.892
835.60	128.125
835.90	118.919
836.20	176.923
836.50	136.364
836.80	90.244
837.10	130.435
837.40	346.154
837.70	115.789
838.00	103.333
838.30	170.833
838.60	152.000
838.90	350.000
839.19	200.000
839.49	120.000
839.79	151.724
840.09	138.462
840.39	206.667
840.69	189.474
840.99	195.238
841.29	173.913
841.59	175.000
841.88	156.000
842.18	366.667
842.48	153.571
842.78	137.037
843.08	192.308
843.38	145.455
843.68	228.571
843.97	471.429
844.27	113.043
844.57	1800.000
844.87	357.143
845.17	216.667
845.47	195.238
845.76	154.167
846.06	485.714
846.36	188.235
846.66	276.923
846.96	218.750
847.25	215.385
847.55	178.947
847.85	177.778
848.15	400.000
848.44	290.909
848.74	157.143
849.04	150.000
849.34	194.118
849.63	175.000
849.93	212.500
850.23	966.667
850.53	437.500
850.82	263.636
851.12	205.882
851.42	195.833
851.71	231.250
852.01	0.000
852.31	223.529
852.61	340.000
852.90	233.333
853.20	322.222
853.50	-2300.000
853.79	168.000
854.09	137.500
854.39	131.034
854.68	151.724
854.98	200.000
855.28	138.710
855.57	285.714
855.87	183.333
856.17	125.926
856.46	210.526
856.76	119.355
857.05	223.529
857.35	254.545
857.65	292.308
857.94	175.000
858.24	300.000
858.53	278.571
858.83	500.000
859.13	152.174
859.42	322.222
859.72	312.500
860.01	341.667
860.31	775.000
860.60	360.000
860.90	325.000
861.20	292.308
861.49	471.429
861.79	-2700.000
862.08	357.143
862.38	411.111
862.67	207.143
862.97	240.000
863.26	146.667
863.56	875.000
863.85	269.231
864.15	223.529
864.44	172.222
864.74	333.333
865.03	336.364
865.33	325.000
865.62	166.667
865.92	550.000
866.21	800.000
866.51	600.000
866.80	216.667
867.10	966.667
867.39	3400.000
867.69	540.000
867.98	625.000
868.27	195.238
868.57	306.667
868.86	950.000
869.16	171.429
869.45	3500.000
869.75	-350.000
870.04	900.000
870.33	620.000
870.63	487.500
870.92	194.118
871.22	975.000
871.51	414.286
871.80	316.667
872.10	246.154
>>>>>End Processed Spectral Data<<<<<
