SpectraSuite Data File
++++++++++++++++++++++++++++++++++++
Date: Tue May 12 16:59:30 PDT 2015
User: schluterlab
Dark Spectrum Present: Yes
Reference Spectrum Present: Yes
Number of Sampled Component Spectra: 1
Spectrometers: USB2E3373
Integration Time (usec): 3000 (USB2E3373)
Spectra Averaged: 3 (USB2E3373)
Boxcar Smoothing: 0 (USB2E3373)
Correct for Electrical Dark: No (USB2E3373)
Strobe/Lamp Enabled: No (USB2E3373)
Correct for Detector Non-linearity: No (USB2E3373)
Correct for Stray Light: No (USB2E3373)
Number of Pixels in Processed Spectrum: 2048
>>>>>Begin Processed Spectral Data<<<<<
178.53	0.000
178.91	-258.333
179.29	-850.000
179.67	-4400.000
180.04	-126.667
180.42	650.000
180.80	1800.000
181.18	0.000
181.56	-237.500
181.94	0.000
182.31	800.000
182.69	-3100.000
183.07	600.000
183.45	-3200.000
183.83	-1600.000
184.20	350.000
184.58	385.714
184.96	-246.154
185.34	-225.000
185.72	1750.000
186.09	-800.000
186.47	-2900.000
186.85	966.667
187.23	620.000
187.61	1850.000
187.98	462.500
188.36	257.143
188.74	375.000
189.12	308.333
189.49	1100.000
189.87	0.000
190.25	525.000
190.63	2800.000
191.00	-225.000
191.38	-4500.000
191.76	-800.000
192.14	487.500
192.51	-2800.000
192.89	1850.000
193.27	1033.333
193.65	-966.667
194.02	-1040.000
194.40	642.857
194.78	-214.286
195.15	233.333
195.53	-3400.000
195.91	-540.000
196.29	4200.000
196.66	212.500
197.04	750.000
197.42	-1500.000
197.79	625.000
198.17	266.667
198.55	0.000
198.92	614.286
199.30	1266.667
199.68	1650.000
200.05	650.000
200.43	-333.333
200.81	227.778
201.18	4000.000
201.56	241.667
201.94	-825.000
202.31	-375.000
202.69	-380.000
203.07	2800.000
203.44	-550.000
203.82	333.333
204.19	660.000
204.57	-1250.000
204.95	-950.000
205.32	-580.000
205.70	516.667
206.08	825.000
206.45	-766.667
206.83	344.444
207.20	184.211
207.58	216.667
207.96	760.000
208.33	0.000
208.71	500.000
209.08	580.000
209.46	-3900.000
209.84	-825.000
210.21	1080.000
210.59	-380.000
210.96	258.333
211.34	-650.000
211.71	363.636
212.09	725.000
212.46	1800.000
212.84	-500.000
213.22	522.222
213.59	-2600.000
213.97	370.000
214.34	900.000
214.72	1200.000
215.09	866.667
215.47	-4000.000
215.84	-330.000
216.22	-437.500
216.59	0.000
216.97	0.000
217.34	1550.000
217.72	-1800.000
218.09	1033.333
218.47	350.000
218.84	675.000
219.22	1133.333
219.59	1100.000
219.97	628.571
220.34	377.778
220.72	1900.000
221.09	2900.000
221.47	308.333
221.84	1300.000
222.22	350.000
222.59	194.444
222.97	278.571
223.34	256.250
223.72	-1700.000
224.09	900.000
224.46	261.538
224.84	-825.000
225.21	411.111
225.59	273.333
225.96	1333.333
226.34	-560.000
226.71	-750.000
227.08	-600.000
227.46	0.000
227.83	-650.000
228.21	-1650.000
228.58	308.333
228.95	900.000
229.33	288.889
229.70	1025.000
230.08	307.692
230.45	4300.000
230.82	-875.000
231.20	-1100.000
231.57	-866.667
231.95	680.000
232.32	350.000
232.69	483.333
233.07	216.667
233.44	-1900.000
233.81	253.333
234.19	174.074
234.56	168.750
234.93	182.353
235.31	240.000
235.68	281.250
236.05	167.857
236.43	118.519
236.80	250.000
237.17	117.241
237.55	121.875
237.92	107.500
238.29	109.091
238.67	156.250
239.04	92.683
239.41	79.167
239.79	95.000
240.16	85.417
240.53	75.410
240.91	65.217
241.28	57.627
241.65	56.061
242.02	64.789
242.40	60.000
242.77	59.341
243.14	44.304
243.51	52.525
243.89	45.794
244.26	42.056
244.63	48.515
245.00	38.532
245.38	35.593
245.75	37.121
246.12	47.407
246.49	32.624
246.87	27.869
247.24	34.000
247.61	37.500
247.98	32.653
248.36	30.303
248.73	33.673
249.10	29.762
249.47	27.500
249.84	25.373
250.22	22.162
250.59	19.500
250.96	28.270
251.33	26.512
251.70	24.554
252.08	27.731
252.45	21.912
252.82	21.293
253.19	19.763
253.56	22.692
253.94	19.565
254.31	24.419
254.68	21.603
255.05	23.103
255.42	24.453
255.79	23.127
256.16	24.407
256.54	24.675
256.91	19.281
257.28	21.739
257.65	15.987
258.02	16.814
258.39	19.771
258.76	24.928
259.14	17.429
259.51	20.700
259.88	17.933
260.25	17.308
260.62	18.356
260.99	15.978
261.36	18.663
261.73	17.287
262.10	19.634
262.47	16.000
262.85	19.467
263.22	18.509
263.59	14.834
263.96	19.298
264.33	18.519
264.70	18.428
265.07	19.024
265.44	19.725
265.81	16.745
266.18	16.018
266.55	17.967
266.92	19.016
267.29	16.447
267.66	18.610
268.03	17.040
268.40	17.125
268.77	15.198
269.14	15.401
269.51	17.149
269.88	16.939
270.25	13.607
270.62	16.738
270.99	17.850
271.36	16.667
271.73	17.191
272.10	16.364
272.47	15.278
272.84	15.170
273.21	15.289
273.58	18.016
273.95	15.811
274.32	16.926
274.69	15.354
275.06	16.393
275.43	15.326
275.80	16.604
276.17	17.096
276.54	16.262
276.91	15.672
277.28	12.774
277.65	15.129
278.02	16.176
278.39	14.568
278.76	15.517
279.13	16.192
279.50	14.364
279.87	15.270
280.23	14.549
280.60	15.876
280.97	15.690
281.34	15.182
281.71	16.870
282.08	15.726
282.45	16.554
282.82	15.050
283.19	14.149
283.56	15.702
283.92	14.821
284.29	13.478
284.66	12.941
285.03	16.584
285.40	13.388
285.77	13.117
286.14	13.313
286.51	15.644
286.87	14.241
287.24	13.664
287.61	14.590
287.98	16.269
288.35	15.259
288.72	14.871
289.08	13.814
289.45	14.787
289.82	14.062
290.19	14.495
290.56	16.739
290.93	13.813
291.29	14.227
291.66	13.983
292.03	13.745
292.40	14.499
292.77	13.092
293.13	14.693
293.50	14.845
293.87	13.279
294.24	15.245
294.60	15.209
294.97	13.846
295.34	13.944
295.71	14.060
296.08	13.867
296.44	15.375
296.81	14.268
297.18	13.308
297.55	14.778
297.91	13.670
298.28	16.063
298.65	13.252
299.02	13.028
299.38	14.748
299.75	14.390
300.12	14.679
300.48	15.808
300.85	15.852
301.22	15.116
301.59	15.566
301.95	13.069
302.32	14.668
302.69	15.498
303.05	15.488
303.42	14.350
303.79	15.493
304.15	13.641
304.52	15.856
304.89	15.778
305.25	15.907
305.62	16.631
305.99	15.652
306.35	15.474
306.72	16.961
307.09	15.735
307.45	15.734
307.82	16.667
308.19	16.701
308.55	16.600
308.92	16.879
309.29	18.343
309.65	17.245
310.02	17.951
310.38	17.049
310.75	17.068
311.12	17.625
311.48	18.629
311.85	18.511
312.22	18.720
312.58	17.979
312.95	19.417
313.31	18.633
313.68	18.668
314.05	20.788
314.41	20.484
314.78	20.076
315.14	21.422
315.51	22.517
315.87	20.438
316.24	21.942
316.61	21.397
316.97	21.468
317.34	22.552
317.70	23.266
318.07	24.555
318.43	23.199
318.80	23.468
319.16	24.476
319.53	24.071
319.89	24.283
320.26	24.674
320.62	26.465
320.99	26.692
321.35	25.974
321.72	28.653
322.08	26.685
322.45	30.245
322.81	28.820
323.18	29.130
323.54	30.749
323.91	32.004
324.27	31.388
324.64	31.488
325.00	33.190
325.37	33.474
325.73	33.642
326.10	34.383
326.46	34.600
326.83	35.200
327.19	36.867
327.56	36.981
327.92	37.787
328.29	38.380
328.65	38.784
329.01	39.521
329.38	39.425
329.74	39.112
330.11	41.182
330.47	40.665
330.84	39.776
331.20	40.948
331.56	41.192
331.93	41.660
332.29	41.241
332.66	42.772
333.02	40.893
333.38	43.106
333.75	42.285
334.11	41.946
334.48	41.368
334.84	42.821
335.20	42.772
335.57	41.310
335.93	42.893
336.29	40.879
336.66	43.568
337.02	42.772
337.38	43.852
337.75	43.497
338.11	43.797
338.47	43.353
338.84	43.184
339.20	42.338
339.56	42.641
339.93	42.977
340.29	43.277
340.65	42.163
341.02	43.926
341.38	44.335
341.74	43.771
342.11	43.907
342.47	43.560
342.83	44.545
343.20	42.522
343.56	43.844
343.92	43.848
344.28	42.026
344.65	43.602
345.01	42.778
345.37	42.388
345.73	43.651
346.10	42.709
346.46	43.780
346.82	42.130
347.19	44.668
347.55	43.091
347.91	43.807
348.27	43.610
348.63	44.225
349.00	43.412
349.36	44.591
349.72	44.801
350.08	43.634
350.45	43.564
350.81	44.190
351.17	43.606
351.53	43.649
351.89	44.134
352.26	44.822
352.62	44.495
352.98	45.092
353.34	44.376
353.70	45.183
354.07	44.769
354.43	45.392
354.79	43.888
355.15	44.870
355.51	43.958
355.87	44.955
356.24	45.497
356.60	44.292
356.96	44.882
357.32	45.290
357.68	44.347
358.04	45.669
358.40	45.427
358.77	47.333
359.13	45.195
359.49	44.033
359.85	45.570
360.21	45.319
360.57	46.569
360.93	46.681
361.29	45.887
361.66	48.024
362.02	47.088
362.38	46.465
362.74	46.355
363.10	46.704
363.46	45.994
363.82	46.353
364.18	46.799
364.54	47.997
364.90	46.452
365.26	47.536
365.62	46.754
365.98	45.217
366.35	47.655
366.71	47.675
367.07	46.416
367.43	48.019
367.79	46.543
368.15	46.540
368.51	48.312
368.87	47.486
369.23	47.748
369.59	47.336
369.95	48.811
370.31	48.392
370.67	48.300
371.03	48.599
371.39	49.030
371.75	48.011
372.11	48.402
372.47	48.767
372.83	48.946
373.19	48.184
373.55	48.591
373.91	48.481
374.27	48.214
374.63	48.814
374.99	49.259
375.35	49.462
375.71	49.208
376.07	49.536
376.42	48.082
376.78	48.748
377.14	50.197
377.50	49.875
377.86	49.712
378.22	48.446
378.58	50.363
378.94	49.849
379.30	50.819
379.66	49.308
380.02	50.205
380.38	48.478
380.74	50.577
381.09	50.117
381.45	49.769
381.81	50.532
382.17	50.549
382.53	51.650
382.89	52.099
383.25	50.622
383.61	49.741
383.97	50.210
384.32	50.934
384.68	52.406
385.04	51.465
385.40	51.661
385.76	50.439
386.12	51.082
386.48	51.307
386.83	51.467
387.19	51.060
387.55	50.883
387.91	51.732
388.27	51.041
388.62	49.765
388.98	51.020
389.34	49.673
389.70	50.354
390.06	52.561
390.42	50.709
390.77	51.106
391.13	50.996
391.49	50.877
391.85	51.446
392.20	50.894
392.56	51.135
392.92	50.646
393.28	51.345
393.64	49.943
393.99	51.334
394.35	50.971
394.71	49.578
395.07	51.034
395.42	50.644
395.78	52.067
396.14	50.964
396.50	51.384
396.85	50.793
397.21	50.120
397.57	51.285
397.92	50.607
398.28	51.793
398.64	50.145
399.00	50.347
399.35	50.939
399.71	51.159
400.07	50.970
400.42	52.418
400.78	51.906
401.14	51.380
401.49	50.922
401.85	51.043
402.21	51.904
402.57	51.227
402.92	52.061
403.28	50.418
403.63	50.088
403.99	50.483
404.35	50.703
404.70	52.274
405.06	49.354
405.42	51.227
405.77	50.276
406.13	49.403
406.49	50.142
406.84	50.592
407.20	50.628
407.55	50.831
407.91	51.308
408.27	50.030
408.62	51.626
408.98	50.917
409.34	51.023
409.69	49.720
410.05	49.791
410.40	50.942
410.76	48.769
411.11	50.829
411.47	50.123
411.83	49.326
412.18	49.215
412.54	50.450
412.89	49.145
413.25	51.083
413.60	50.234
413.96	51.047
414.31	49.410
414.67	51.024
415.03	50.447
415.38	50.726
415.74	51.421
416.09	51.968
416.45	51.002
416.80	50.738
417.16	50.477
417.51	51.210
417.87	50.501
418.22	50.972
418.58	52.166
418.93	49.732
419.29	50.154
419.64	50.636
420.00	51.492
420.35	50.697
420.71	49.592
421.06	50.265
421.42	51.353
421.77	51.694
422.12	49.890
422.48	49.974
422.83	50.725
423.19	50.162
423.54	49.643
423.90	50.963
424.25	51.238
424.61	51.538
424.96	50.819
425.31	51.013
425.67	52.862
426.02	50.084
426.38	50.525
426.73	51.995
427.09	51.483
427.44	51.154
427.79	51.687
428.15	53.388
428.50	52.971
428.85	51.734
429.21	51.756
429.56	50.648
429.92	52.014
430.27	51.234
430.62	50.220
430.98	51.447
431.33	51.764
431.68	49.877
432.04	50.181
432.39	51.647
432.74	52.576
433.10	52.547
433.45	52.441
433.80	52.234
434.16	50.972
434.51	51.961
434.86	52.967
435.22	52.242
435.57	52.934
435.92	53.386
436.28	53.917
436.63	52.296
436.98	54.223
437.34	53.253
437.69	52.296
438.04	52.312
438.39	52.189
438.75	52.283
439.10	53.319
439.45	51.498
439.81	53.383
440.16	53.275
440.51	53.041
440.86	53.048
441.22	52.652
441.57	53.596
441.92	53.455
442.27	51.856
442.63	52.947
442.98	52.478
443.33	53.562
443.68	53.068
444.03	53.723
444.39	52.825
444.74	53.830
445.09	53.397
445.44	52.922
445.79	53.021
446.15	53.474
446.50	54.114
446.85	52.888
447.20	53.035
447.55	53.670
447.91	54.129
448.26	54.047
448.61	53.013
448.96	55.120
449.31	54.620
449.66	54.540
450.02	53.377
450.37	54.026
450.72	54.711
451.07	53.810
451.42	54.713
451.77	54.582
452.12	53.602
452.47	54.800
452.83	54.873
453.18	54.955
453.53	53.937
453.88	55.714
454.23	55.084
454.58	54.196
454.93	53.158
455.28	55.569
455.63	54.846
455.98	52.905
456.34	55.198
456.69	54.451
457.04	55.251
457.39	54.343
457.74	54.673
458.09	53.734
458.44	54.053
458.79	55.279
459.14	52.810
459.49	54.134
459.84	54.783
460.19	53.955
460.54	53.675
460.89	53.518
461.24	53.265
461.59	53.968
461.94	53.664
462.29	54.634
462.64	54.774
462.99	53.999
463.34	54.828
463.69	54.809
464.04	54.750
464.39	54.093
464.74	53.048
465.09	53.337
465.44	53.210
465.79	52.422
466.14	53.312
466.49	53.500
466.84	52.731
467.19	53.193
467.54	50.931
467.89	53.756
468.24	53.793
468.59	53.571
468.94	54.952
469.29	54.001
469.64	53.569
469.99	55.141
470.34	54.269
470.68	54.621
471.03	55.304
471.38	54.702
471.73	54.801
472.08	55.838
472.43	55.059
472.78	54.097
473.13	53.630
473.48	54.279
473.83	53.828
474.17	53.617
474.52	52.429
474.87	52.814
475.22	53.798
475.57	53.935
475.92	54.165
476.27	53.482
476.61	53.727
476.96	52.821
477.31	54.396
477.66	54.804
478.01	53.481
478.36	53.656
478.70	52.804
479.05	54.655
479.40	53.373
479.75	54.518
480.10	52.904
480.45	53.501
480.79	52.811
481.14	52.782
481.49	52.379
481.84	52.287
482.19	52.838
482.53	52.306
482.88	52.195
483.23	52.639
483.58	52.648
483.92	54.388
484.27	53.467
484.62	52.547
484.97	51.772
485.31	50.855
485.66	49.157
486.01	48.010
486.36	47.211
486.70	46.605
487.05	47.777
487.40	48.765
487.75	49.326
488.09	49.972
488.44	50.510
488.79	50.573
489.13	52.333
489.48	51.778
489.83	51.043
490.17	51.445
490.52	53.661
490.87	52.112
491.22	53.103
491.56	53.096
491.91	51.927
492.26	53.630
492.60	53.349
492.95	53.240
493.30	53.230
493.64	52.606
493.99	52.952
494.34	52.532
494.68	52.944
495.03	53.435
495.37	53.354
495.72	53.100
496.07	52.381
496.41	52.042
496.76	52.343
497.11	52.742
497.45	51.688
497.80	53.244
498.14	52.612
498.49	52.043
498.84	54.252
499.18	50.868
499.53	52.641
499.87	51.797
500.22	52.879
500.56	52.461
500.91	52.876
501.26	53.101
501.60	52.960
501.95	51.971
502.29	52.000
502.64	51.301
502.98	51.756
503.33	51.893
503.67	51.700
504.02	51.008
504.36	51.493
504.71	52.696
505.06	53.449
505.40	52.316
505.75	52.572
506.09	52.403
506.44	52.491
506.78	54.112
507.13	52.739
507.47	53.081
507.82	53.187
508.16	53.552
508.51	53.478
508.85	52.279
509.19	52.472
509.54	52.979
509.88	53.655
510.23	51.765
510.57	51.882
510.92	54.396
511.26	53.263
511.61	51.748
511.95	52.663
512.30	52.800
512.64	54.206
512.98	54.126
513.33	53.740
513.67	53.599
514.02	53.662
514.36	53.219
514.70	53.760
515.05	53.436
515.39	55.592
515.74	54.675
516.08	55.610
516.42	56.612
516.77	54.507
517.11	54.987
517.46	54.526
517.80	53.960
518.14	56.169
518.49	54.576
518.83	53.077
519.17	54.576
519.52	55.926
519.86	54.278
520.20	54.740
520.55	54.211
520.89	55.747
521.23	56.893
521.58	55.479
521.92	56.443
522.26	56.220
522.61	56.744
522.95	57.057
523.29	57.251
523.64	53.584
523.98	55.810
524.32	54.902
524.66	55.304
525.01	55.562
525.35	55.451
525.69	57.255
526.04	57.525
526.38	56.563
526.72	54.714
527.06	55.411
527.41	57.437
527.75	56.421
528.09	55.629
528.43	56.742
528.78	55.874
529.12	56.472
529.46	54.939
529.80	55.666
530.15	55.981
530.49	54.272
530.83	56.063
531.17	55.904
531.51	56.162
531.86	54.771
532.20	55.315
532.54	56.372
532.88	55.778
533.22	55.210
533.57	55.949
533.91	54.138
534.25	54.645
534.59	55.380
534.93	54.039
535.27	52.533
535.62	53.267
535.96	53.842
536.30	56.490
536.64	55.466
536.98	54.877
537.32	55.562
537.66	55.740
538.01	55.232
538.35	55.022
538.69	54.794
539.03	54.726
539.37	54.733
539.71	55.000
540.05	55.631
540.39	56.667
540.73	55.949
541.07	53.450
541.42	55.970
541.76	54.007
542.10	54.192
542.44	55.486
542.78	54.500
543.12	53.865
543.46	55.702
543.80	55.201
544.14	54.427
544.48	54.623
544.82	55.596
545.16	53.795
545.50	54.640
545.84	55.429
546.18	57.152
546.52	54.951
546.86	55.319
547.20	54.845
547.54	53.958
547.88	54.380
548.22	53.673
548.56	53.506
548.90	54.508
549.24	55.148
549.58	55.348
549.92	55.337
550.26	56.728
550.60	55.888
550.94	56.581
551.28	56.690
551.62	56.207
551.96	55.608
552.30	54.647
552.64	55.534
552.98	55.284
553.32	55.634
553.66	55.765
554.00	54.891
554.34	57.590
554.68	56.788
555.02	56.280
555.36	55.319
555.69	54.777
556.03	55.350
556.37	56.023
556.71	55.346
557.05	53.932
557.39	55.800
557.73	56.334
558.07	55.399
558.41	56.957
558.75	56.703
559.08	58.327
559.42	57.623
559.76	57.662
560.10	55.747
560.44	55.939
560.78	55.179
561.12	56.961
561.45	54.506
561.79	55.181
562.13	54.833
562.47	55.419
562.81	56.278
563.15	54.880
563.48	54.348
563.82	55.583
564.16	55.597
564.50	53.828
564.84	54.347
565.17	54.308
565.51	56.712
565.85	56.323
566.19	55.060
566.52	54.753
566.86	55.517
567.20	54.326
567.54	53.930
567.88	53.052
568.21	51.772
568.55	52.432
568.89	51.734
569.23	50.949
569.56	49.960
569.90	48.868
570.24	49.029
570.57	48.378
570.91	47.551
571.25	46.649
571.59	45.967
571.92	45.452
572.26	45.903
572.60	45.404
572.93	46.348
573.27	46.870
573.61	45.750
573.95	46.464
574.28	45.153
574.62	45.109
574.96	45.050
575.29	44.487
575.63	44.264
575.97	44.060
576.30	44.141
576.64	44.831
576.98	45.252
577.31	45.263
577.65	44.669
577.98	44.064
578.32	43.589
578.66	43.993
578.99	43.759
579.33	44.362
579.67	44.957
580.00	44.210
580.34	43.943
580.67	44.474
581.01	44.832
581.35	44.425
581.68	43.418
582.02	43.848
582.35	43.517
582.69	44.437
583.02	44.054
583.36	44.653
583.70	45.193
584.03	46.060
584.37	46.012
584.70	45.260
585.04	44.754
585.37	44.387
585.71	45.146
586.04	44.856
586.38	44.889
586.72	45.637
587.05	45.471
587.39	45.714
587.72	45.816
588.06	46.288
588.39	45.624
588.73	46.500
589.06	47.097
589.40	48.294
589.73	47.230
590.07	49.073
590.40	48.258
590.73	49.614
591.07	49.108
591.40	49.381
591.74	49.756
592.07	49.626
592.41	50.080
592.74	48.920
593.08	47.428
593.41	46.828
593.75	46.296
594.08	47.213
594.41	47.768
594.75	47.397
595.08	48.182
595.42	47.959
595.75	47.680
596.09	47.967
596.42	48.252
596.75	50.040
597.09	50.764
597.42	50.980
597.75	49.493
598.09	49.610
598.42	49.204
598.76	48.342
599.09	49.025
599.42	47.958
599.76	47.931
600.09	47.424
600.42	47.790
600.76	47.723
601.09	48.119
601.42	47.730
601.76	47.870
602.09	49.080
602.42	48.022
602.76	48.425
603.09	49.811
603.42	49.101
603.76	48.626
604.09	48.570
604.42	48.701
604.76	49.467
605.09	50.204
605.42	49.086
605.75	49.822
606.09	49.082
606.42	49.906
606.75	49.009
607.09	49.585
607.42	49.297
607.75	50.000
608.08	49.553
608.42	49.958
608.75	49.166
609.08	50.022
609.41	51.136
609.75	50.733
610.08	51.349
610.41	51.076
610.74	50.433
611.07	51.660
611.41	51.854
611.74	51.960
612.07	51.734
612.40	52.778
612.73	52.921
613.07	52.610
613.40	53.484
613.73	52.272
614.06	51.400
614.39	52.071
614.72	51.632
615.06	51.731
615.39	52.129
615.72	51.355
616.05	51.934
616.38	52.867
616.71	51.438
617.05	53.597
617.38	53.034
617.71	55.062
618.04	53.617
618.37	53.696
618.70	54.042
619.03	55.311
619.36	54.585
619.69	56.201
620.03	58.382
620.36	57.225
620.69	57.024
621.02	58.764
621.35	55.516
621.68	59.513
622.01	59.188
622.34	58.048
622.67	57.303
623.00	57.726
623.33	56.950
623.66	56.620
623.99	57.945
624.32	57.588
624.65	56.155
624.99	58.959
625.32	56.981
625.65	58.828
625.98	57.741
626.31	60.682
626.64	58.998
626.97	61.132
627.30	61.335
627.63	60.675
627.96	59.781
628.29	61.551
628.62	61.933
628.95	63.298
629.28	63.453
629.61	62.654
629.94	60.933
630.26	62.912
630.59	62.145
630.92	63.498
631.25	61.741
631.58	65.092
631.91	65.271
632.24	64.431
632.57	64.538
632.90	65.735
633.23	67.261
633.56	65.648
633.89	67.738
634.22	68.568
634.55	67.634
634.88	67.032
635.20	68.161
635.53	68.525
635.86	67.897
636.19	66.330
636.52	65.622
636.85	64.078
637.18	67.172
637.51	68.603
637.83	65.446
638.16	69.402
638.49	68.743
638.82	69.249
639.15	68.155
639.48	69.550
639.81	68.010
640.13	70.675
640.46	70.544
640.79	69.441
641.12	69.816
641.45	71.539
641.77	72.655
642.10	70.147
642.43	74.253
642.76	70.312
643.09	72.334
643.41	69.846
643.74	73.237
644.07	77.286
644.40	75.592
644.73	74.474
645.05	73.997
645.38	75.038
645.71	74.507
646.04	75.420
646.36	72.770
646.69	75.840
647.02	75.040
647.35	75.276
647.67	75.365
648.00	76.221
648.33	71.278
648.66	73.030
648.98	72.174
649.31	69.636
649.64	70.124
649.96	71.124
650.29	68.286
650.62	71.429
650.94	73.042
651.27	74.641
651.60	71.987
651.92	70.814
652.25	75.276
652.58	70.638
652.90	72.006
653.23	71.640
653.56	69.436
653.88	70.191
654.21	70.235
654.54	68.082
654.86	68.732
655.19	67.678
655.52	55.792
655.84	41.165
656.17	46.677
656.49	66.302
656.82	75.236
657.15	59.829
657.47	45.504
657.80	33.925
658.13	27.356
658.45	37.224
658.78	44.972
659.10	46.611
659.43	47.397
659.75	52.323
660.08	54.887
660.41	60.526
660.73	68.256
661.06	70.721
661.38	74.617
661.71	73.022
662.03	77.186
662.36	78.667
662.68	73.929
663.01	74.054
663.33	77.547
663.66	76.529
663.98	77.381
664.31	75.560
664.63	78.736
664.96	76.735
665.28	76.836
665.61	75.660
665.93	76.226
666.26	75.140
666.58	75.046
666.91	78.958
667.23	76.707
667.56	80.903
667.88	81.328
668.21	79.713
668.53	79.637
668.86	75.551
669.18	76.986
669.50	77.273
669.83	78.850
670.15	81.289
670.48	73.242
670.80	77.689
671.13	77.689
671.45	77.756
671.77	74.583
672.10	73.250
672.42	69.243
672.75	68.038
673.07	72.019
673.39	67.412
673.72	76.125
674.04	73.297
674.37	74.229
674.69	74.349
675.01	71.455
675.34	76.357
675.66	78.320
675.98	78.304
676.31	75.800
676.63	71.968
676.95	77.976
677.28	78.093
677.60	78.672
677.92	76.786
678.25	76.163
678.57	74.860
678.89	73.960
679.22	71.507
679.54	72.598
679.86	74.695
680.18	71.705
680.51	68.988
680.83	66.892
681.15	72.444
681.48	69.271
681.80	69.527
682.12	71.626
682.44	71.351
682.77	72.242
683.09	75.340
683.41	77.551
683.73	74.016
684.06	76.786
684.38	75.000
684.70	71.763
685.02	69.792
685.34	71.831
685.67	68.328
685.99	67.980
686.31	65.948
686.63	65.854
686.96	66.176
687.28	65.436
687.60	68.601
687.92	70.519
688.24	68.793
688.56	71.174
688.89	72.467
689.21	75.145
689.53	73.320
689.85	72.561
690.17	68.738
690.49	71.774
690.82	72.269
691.14	71.919
691.46	74.743
691.78	73.294
692.10	70.802
692.42	67.151
692.74	75.388
693.06	71.318
693.39	70.553
693.71	69.352
694.03	73.176
694.35	74.900
694.67	70.876
694.99	73.392
695.31	76.126
695.63	77.149
695.95	75.566
696.27	76.106
696.59	76.611
696.91	79.494
697.23	70.136
697.56	69.917
697.88	67.066
698.20	69.057
698.52	68.872
698.84	73.101
699.16	71.642
699.48	73.305
699.80	72.549
700.12	73.903
700.44	75.467
700.76	77.566
701.08	78.851
701.40	75.325
701.72	82.353
702.04	82.385
702.36	78.226
702.68	78.723
703.00	75.439
703.32	76.427
703.64	73.048
703.96	76.302
704.28	77.249
704.60	82.254
704.91	77.871
705.23	79.261
705.55	85.163
705.87	82.540
706.19	84.639
706.51	81.818
706.83	79.056
707.15	77.005
707.47	70.218
707.79	70.345
708.11	69.841
708.43	68.539
708.74	69.910
709.06	69.070
709.38	72.953
709.70	76.294
710.02	76.359
710.34	77.901
710.66	75.278
710.98	76.230
711.29	74.095
711.61	74.930
711.93	83.587
712.25	76.506
712.57	78.778
712.89	81.212
713.20	81.470
713.52	79.751
713.84	76.133
714.16	73.043
714.48	71.182
714.80	71.274
715.11	71.277
715.43	72.067
715.75	78.873
716.07	68.497
716.39	74.000
716.70	76.636
717.02	81.818
717.34	83.453
717.66	78.125
717.97	82.576
718.29	80.634
718.61	79.392
718.93	83.391
719.24	77.181
719.56	79.310
719.88	75.159
720.20	75.806
720.51	72.549
720.83	80.268
721.15	79.932
721.46	78.767
721.78	81.882
722.10	79.514
722.42	79.599
722.73	79.422
723.05	80.000
723.37	75.972
723.68	82.813
724.00	81.061
724.32	81.369
724.63	76.538
724.95	80.392
725.27	77.695
725.58	81.985
725.90	70.070
726.22	78.082
726.53	75.251
726.85	73.616
727.16	74.161
727.48	74.086
727.80	77.338
728.11	78.929
728.43	72.101
728.74	76.573
729.06	72.043
729.38	77.895
729.69	73.333
730.01	77.303
730.32	70.805
730.64	75.415
730.96	71.772
731.27	62.385
731.59	64.943
731.90	69.081
732.22	65.714
732.53	67.236
732.85	64.620
733.16	66.265
733.48	67.085
733.80	69.565
734.11	69.939
734.43	64.912
734.74	65.147
735.06	67.460
735.37	61.082
735.69	68.986
736.00	67.278
736.32	63.333
736.63	65.931
736.95	67.391
737.26	64.939
737.58	67.485
737.89	65.361
738.21	71.523
738.52	72.575
738.83	78.022
739.15	69.686
739.46	71.379
739.78	68.367
740.09	64.723
740.41	69.632
740.72	67.619
741.04	76.573
741.35	77.734
741.66	75.099
741.98	80.258
742.29	79.630
742.61	81.416
742.92	77.542
743.23	74.800
743.55	70.189
743.86	74.902
744.18	82.627
744.49	72.727
744.80	82.949
745.12	86.161
745.43	82.710
745.74	75.111
746.06	72.368
746.37	78.605
746.68	82.301
747.00	82.511
747.31	74.370
747.62	72.951
747.94	78.970
748.25	71.206
748.56	77.542
748.88	79.464
749.19	82.326
749.50	81.735
749.82	75.309
750.13	69.565
750.44	66.667
750.75	68.792
751.07	65.789
751.38	68.647
751.69	71.044
752.01	66.084
752.32	69.767
752.63	73.826
752.94	69.231
753.26	66.797
753.57	73.930
753.88	74.157
754.19	73.285
754.51	67.110
754.82	63.087
755.13	70.270
755.44	66.667
755.75	72.165
756.07	66.438
756.38	63.725
756.69	63.438
757.00	64.095
757.31	60.845
757.63	61.157
757.94	58.777
758.25	61.353
758.56	57.208
758.87	59.649
759.18	60.174
759.50	62.310
759.81	64.095
760.12	61.798
760.43	60.224
760.74	60.506
761.05	62.865
761.36	63.281
761.67	61.186
761.99	61.127
762.30	65.916
762.61	65.625
762.92	68.939
763.23	64.151
763.54	67.692
763.85	63.813
764.16	64.931
764.47	63.514
764.78	60.912
765.10	59.451
765.41	57.955
765.72	56.630
766.03	59.215
766.34	66.202
766.65	70.342
766.96	70.040
767.27	79.439
767.58	77.228
767.89	78.453
768.20	86.585
768.51	69.388
768.82	70.614
769.13	72.157
769.44	63.910
769.75	60.674
770.06	70.588
770.37	70.175
770.68	65.778
770.99	66.949
771.30	60.251
771.61	61.154
771.92	60.305
772.23	62.500
772.54	72.000
772.85	71.287
773.16	80.435
773.47	76.667
773.78	76.238
774.09	76.705
774.39	76.970
774.70	77.059
775.01	80.263
775.32	77.019
775.63	83.562
775.94	84.568
776.25	77.931
776.56	88.550
776.87	90.076
777.18	88.636
777.48	96.063
777.79	91.538
778.10	87.121
778.41	85.821
778.72	80.451
779.03	66.667
779.34	88.514
779.65	78.882
779.95	74.534
780.26	77.381
780.57	87.755
780.88	82.270
781.19	96.667
781.50	81.657
781.80	70.492
782.11	67.196
782.42	67.241
782.73	71.186
783.04	78.065
783.34	82.946
783.65	84.354
783.96	76.774
784.27	66.225
784.57	79.605
784.88	77.536
785.19	85.833
785.50	89.655
785.81	80.620
786.11	75.556
786.42	79.528
786.73	84.685
787.04	94.340
787.34	83.740
787.65	89.394
787.96	81.061
788.26	81.890
788.57	78.832
788.88	72.535
789.19	75.573
789.49	75.000
789.80	92.188
790.11	69.421
790.41	91.667
790.72	86.111
791.03	89.423
791.33	97.980
791.64	91.579
791.95	90.526
792.25	90.625
792.56	88.000
792.87	97.561
793.17	97.727
793.48	101.176
793.79	82.759
794.09	89.773
794.40	79.310
794.70	77.778
795.01	69.231
795.32	69.466
795.62	82.051
795.93	81.513
796.23	78.862
796.54	96.939
796.85	95.455
797.15	97.403
797.46	97.561
797.76	87.500
798.07	105.333
798.37	106.250
798.68	96.250
798.99	104.878
799.29	93.333
799.60	84.884
799.90	88.158
800.21	109.091
800.51	111.268
800.82	110.345
801.12	112.308
801.43	104.000
801.73	137.931
802.04	102.597
802.34	86.301
802.65	125.490
802.95	119.565
803.26	112.903
803.56	136.667
803.87	105.970
804.17	98.413
804.48	128.302
804.78	105.556
805.09	107.576
805.39	117.460
805.70	121.053
806.00	101.429
806.30	117.187
806.61	94.118
806.91	87.778
807.22	68.478
807.52	94.737
807.83	100.000
808.13	97.101
808.43	117.742
808.74	106.849
809.04	108.929
809.35	113.235
809.65	93.939
809.95	121.569
810.26	133.333
810.56	120.313
810.86	116.327
811.17	114.035
811.47	139.130
811.77	117.241
812.08	110.345
812.38	126.190
812.69	128.571
812.99	100.000
813.29	162.857
813.59	164.516
813.90	108.621
814.20	119.672
814.50	104.000
814.81	122.807
815.11	131.481
815.41	137.500
815.72	135.714
816.02	118.000
816.32	121.951
816.62	118.966
816.93	190.909
817.23	146.341
817.53	121.429
817.84	122.222
818.14	107.143
818.44	122.917
818.74	124.528
819.04	130.769
819.35	139.394
819.65	134.615
819.95	142.593
820.25	138.298
820.56	154.054
820.86	126.316
821.16	82.979
821.46	147.368
821.76	100.000
822.07	116.667
822.37	155.263
822.67	137.209
822.97	113.158
823.27	113.043
823.57	134.375
823.88	151.282
824.18	145.455
824.48	160.870
824.78	138.889
825.08	195.652
825.38	155.172
825.69	147.059
825.99	119.149
826.29	127.778
826.59	171.429
826.89	153.333
827.19	148.571
827.49	167.742
827.79	173.077
828.09	111.905
828.39	125.000
828.70	127.027
829.00	192.857
829.30	262.500
829.60	130.556
829.90	164.516
830.20	118.182
830.50	143.243
830.80	204.167
831.10	226.923
831.40	209.524
831.70	175.000
832.00	116.667
832.30	226.087
832.60	208.333
832.90	172.727
833.20	230.000
833.50	144.737
833.80	155.882
834.10	115.789
834.40	215.789
834.70	153.333
835.00	188.000
835.30	105.405
835.60	168.750
835.90	156.757
836.20	184.615
836.50	218.182
836.80	121.951
837.10	221.739
837.40	376.923
837.70	226.316
838.00	166.667
838.30	179.167
838.60	176.000
838.90	410.000
839.19	300.000
839.49	150.000
839.79	131.034
840.09	169.231
840.39	293.333
840.69	247.368
840.99	152.381
841.29	195.652
841.59	260.000
841.88	212.000
842.18	500.000
842.48	167.857
842.78	185.185
843.08	300.000
843.38	172.727
843.68	185.714
843.97	457.143
844.27	186.957
844.57	1500.000
844.87	364.286
845.17	255.556
845.47	142.857
845.76	183.333
846.06	557.143
846.36	247.059
846.66	284.615
846.96	293.750
847.25	261.538
847.55	210.526
847.85	161.111
848.15	800.000
848.44	363.636
848.74	200.000
849.04	191.667
849.34	200.000
849.63	281.250
849.93	287.500
850.23	1133.333
850.53	425.000
850.82	336.364
851.12	247.059
851.42	191.667
851.71	300.000
852.01	0.000
852.31	211.765
852.61	440.000
852.90	162.500
853.20	422.222
853.50	-2400.000
853.79	176.000
854.09	175.000
854.39	148.276
854.68	203.448
854.98	233.333
855.28	138.710
855.57	285.714
855.87	266.667
856.17	166.667
856.46	226.316
856.76	132.258
857.05	252.941
857.35	336.364
857.65	307.692
857.94	230.000
858.24	433.333
858.53	300.000
858.83	557.143
859.13	182.609
859.42	255.556
859.72	387.500
860.01	341.667
860.31	925.000
860.60	300.000
860.90	450.000
861.20	307.692
861.49	442.857
861.79	-3000.000
862.08	585.714
862.38	366.667
862.67	164.286
862.97	370.000
863.26	150.000
863.56	950.000
863.85	284.615
864.15	241.176
864.44	222.222
864.74	291.667
865.03	345.455
865.33	575.000
865.62	246.667
865.92	600.000
866.21	725.000
866.51	580.000
866.80	250.000
867.10	1166.667
867.39	4000.000
867.69	620.000
867.98	1200.000
868.27	171.429
868.57	226.667
868.86	1175.000
869.16	128.571
869.45	3000.000
869.75	-516.667
870.04	850.000
870.33	660.000
870.63	437.500
870.92	211.765
871.22	800.000
871.51	400.000
871.80	341.667
872.10	300.000
>>>>>End Processed Spectral Data<<<<<
