SpectraSuite Data File
++++++++++++++++++++++++++++++++++++
Date: Wed May 13 21:45:18 PDT 2015
User: schluterlab
Dark Spectrum Present: Yes
Reference Spectrum Present: Yes
Number of Sampled Component Spectra: 1
Spectrometers: USB2E3373
Integration Time (usec): 3000 (USB2E3373)
Spectra Averaged: 3 (USB2E3373)
Boxcar Smoothing: 0 (USB2E3373)
Correct for Electrical Dark: No (USB2E3373)
Strobe/Lamp Enabled: No (USB2E3373)
Correct for Detector Non-linearity: No (USB2E3373)
Correct for Stray Light: No (USB2E3373)
Number of Pixels in Processed Spectrum: 2048
>>>>>Begin Processed Spectral Data<<<<<
178.53	0.000
178.91	400.000
179.29	225.000
179.67	-400.000
180.04	33.333
180.42	100.000
180.80	1200.000
181.18	100.000
181.56	-325.000
181.94	-175.000
182.31	0.000
182.69	130.769
183.07	-200.000
183.45	300.000
183.83	100.000
184.20	57.143
184.58	100.000
184.96	333.333
185.34	214.286
185.72	0.000
186.09	-100.000
186.47	-380.000
186.85	180.000
187.23	-600.000
187.61	650.000
187.98	1300.000
188.36	-25.000
188.74	0.000
189.12	-145.455
189.49	-40.000
189.87	100.000
190.25	360.000
190.63	900.000
191.00	-220.000
191.38	200.000
191.76	450.000
192.14	125.000
192.51	-36.842
192.89	766.667
193.27	400.000
193.65	-200.000
194.02	209.091
194.40	210.000
194.78	200.000
195.15	220.000
195.53	-80.000
195.91	100.000
196.29	-200.000
196.66	0.000
197.04	400.000
197.42	-20.000
197.79	-20.000
198.17	-312.500
198.55	-366.667
198.92	100.000
199.30	-566.667
199.68	-10.000
200.05	550.000
200.43	133.333
200.81	-200.000
201.18	-180.000
201.56	-250.000
201.94	475.000
202.31	13.043
202.69	-85.714
203.07	-300.000
203.44	-80.000
203.82	-100.000
204.19	-70.000
204.57	0.000
204.95	-66.667
205.32	0.000
205.70	-250.000
206.08	-50.000
206.45	-100.000
206.83	350.000
207.20	-133.333
207.58	30.000
207.96	-1600.000
208.33	-157.143
208.71	-2000.000
209.08	162.500
209.46	275.000
209.84	0.000
210.21	140.000
210.59	1700.000
210.96	180.000
211.34	900.000
211.71	-450.000
212.09	-250.000
212.46	-160.000
212.84	-333.333
213.22	-25.000
213.59	-1000.000
213.97	-300.000
214.34	-600.000
214.72	-61.538
215.09	212.500
215.47	155.556
215.84	1150.000
216.22	-75.000
216.59	-200.000
216.97	366.667
217.34	88.889
217.72	0.000
218.09	66.667
218.47	-700.000
218.84	-171.429
219.22	-125.000
219.59	-433.333
219.97	-275.000
220.34	-112.500
220.72	60.000
221.09	0.000
221.47	-66.667
221.84	100.000
222.22	0.000
222.59	1400.000
222.97	-166.667
223.34	-91.667
223.72	-1800.000
224.09	-600.000
224.46	-81.818
224.84	0.000
225.21	-71.429
225.59	-375.000
225.96	-150.000
226.34	-30.000
226.71	-185.714
227.08	300.000
227.46	-50.000
227.83	0.000
228.21	-25.000
228.58	-125.000
228.95	-58.824
229.33	-56.250
229.70	-100.000
230.08	-46.154
230.45	-50.000
230.82	-58.333
231.20	200.000
231.57	-75.000
231.95	1500.000
232.32	-58.333
232.69	-35.294
233.07	-2000.000
233.44	-21.739
233.81	-800.000
234.19	-12.500
234.56	-26.667
234.93	-86.667
235.31	-52.632
235.68	-38.462
236.05	-15.385
236.43	-33.333
236.80	3.030
237.17	-20.000
237.55	11.765
237.92	-48.276
238.29	-70.370
238.67	8.333
239.04	-22.581
239.41	2.128
239.79	0.000
240.16	11.628
240.53	7.143
240.91	17.857
241.28	12.500
241.65	9.677
242.02	15.789
242.40	20.290
242.77	10.145
243.14	2.564
243.51	10.638
243.89	3.846
244.26	31.132
244.63	7.692
245.00	8.333
245.38	2.521
245.75	22.951
246.12	9.023
246.49	3.252
246.87	0.000
247.24	20.270
247.61	5.960
247.98	14.744
248.36	14.793
248.73	11.236
249.10	10.606
249.47	18.280
249.84	19.474
250.22	14.428
250.59	14.953
250.96	15.000
251.33	4.306
251.70	20.084
252.08	13.389
252.45	18.107
252.82	17.490
253.19	16.732
253.56	14.748
253.94	19.929
254.31	17.958
254.68	20.134
255.05	14.851
255.42	18.531
255.79	17.485
256.16	19.558
256.54	17.460
256.91	15.190
257.28	16.038
257.65	14.013
258.02	14.663
258.39	17.836
258.76	15.407
259.14	17.898
259.51	17.697
259.88	16.260
260.25	17.500
260.62	14.888
260.99	17.772
261.36	18.912
261.73	18.272
262.10	16.285
262.47	17.778
262.85	16.667
263.22	15.897
263.59	15.325
263.96	18.248
264.33	14.423
264.70	18.140
265.07	18.056
265.44	17.241
265.81	16.476
266.18	17.312
266.55	15.284
266.92	18.644
267.29	16.872
267.66	18.896
268.03	18.313
268.40	16.737
268.77	20.041
269.14	16.327
269.51	18.275
269.88	17.108
270.25	15.890
270.62	17.213
270.99	14.567
271.36	17.262
271.73	19.277
272.10	18.286
272.47	17.083
272.84	18.307
273.21	16.830
273.58	18.443
273.95	17.358
274.32	17.351
274.69	17.304
275.06	20.141
275.43	16.949
275.80	18.972
276.17	18.416
276.54	17.052
276.91	17.596
277.28	15.884
277.65	16.259
278.02	20.000
278.39	15.631
278.76	17.057
279.13	16.123
279.50	18.793
279.87	17.210
280.23	19.459
280.60	15.225
280.97	17.045
281.34	18.770
281.71	15.122
282.08	16.581
282.45	18.852
282.82	18.051
283.19	18.293
283.56	17.500
283.92	16.667
284.29	15.601
284.66	15.486
285.03	15.147
285.40	16.465
285.77	16.667
286.14	17.173
286.51	18.741
286.87	15.846
287.24	15.339
287.61	17.018
287.98	17.794
288.35	14.754
288.72	15.925
289.08	16.524
289.45	16.300
289.82	18.003
290.19	17.532
290.56	15.909
290.93	15.331
291.29	15.732
291.66	15.847
292.03	15.395
292.40	15.747
292.77	17.269
293.13	16.876
293.50	16.209
293.87	15.733
294.24	14.683
294.60	15.345
294.97	15.741
295.34	12.269
295.71	13.929
296.08	14.660
296.44	14.541
296.81	13.155
297.18	14.500
297.55	14.976
297.91	15.280
298.28	15.617
298.65	14.901
299.02	16.239
299.38	14.233
299.75	14.062
300.12	12.558
300.48	14.503
300.85	12.702
301.22	13.705
301.59	12.089
301.95	13.589
302.32	14.819
302.69	13.446
303.05	15.061
303.42	14.205
303.79	14.090
304.15	13.910
304.52	14.086
304.89	12.846
305.25	12.733
305.62	13.666
305.99	13.819
306.35	14.316
306.72	15.259
307.09	13.347
307.45	12.673
307.82	13.895
308.19	11.599
308.55	11.975
308.92	13.163
309.29	13.413
309.65	12.687
310.02	14.612
310.38	14.024
310.75	12.722
311.12	14.091
311.48	12.463
311.85	13.976
312.22	12.379
312.58	13.237
312.95	13.333
313.31	13.958
313.68	12.882
314.05	13.611
314.41	14.409
314.78	14.042
315.14	14.167
315.51	13.511
315.87	13.994
316.24	14.233
316.61	14.338
316.97	14.444
317.34	14.260
317.70	14.808
318.07	14.020
318.43	14.905
318.80	14.485
319.16	14.058
319.53	13.978
319.89	14.182
320.26	14.325
320.62	13.716
320.99	14.438
321.35	14.219
321.72	13.378
322.08	14.299
322.45	14.431
322.81	15.157
323.18	14.222
323.54	13.448
323.91	13.821
324.27	15.842
324.64	14.024
325.00	13.911
325.37	14.590
325.73	14.899
326.10	14.130
326.46	15.635
326.83	14.725
327.19	14.715
327.56	15.874
327.92	14.803
328.29	15.693
328.65	16.740
329.01	13.896
329.38	15.913
329.74	16.223
330.11	13.436
330.47	13.976
330.84	14.260
331.20	14.944
331.56	14.674
331.93	15.676
332.29	14.770
332.66	14.407
333.02	15.812
333.38	15.526
333.75	14.761
334.11	14.149
334.48	14.560
334.84	14.576
335.20	15.009
335.57	13.838
335.93	13.832
336.29	13.835
336.66	13.419
337.02	13.913
337.38	14.883
337.75	15.332
338.11	14.176
338.47	14.127
338.84	13.746
339.20	14.198
339.56	13.908
339.93	14.347
340.29	13.237
340.65	14.542
341.02	13.478
341.38	14.443
341.74	13.445
342.11	12.964
342.47	12.971
342.83	13.971
343.20	13.536
343.56	14.718
343.92	14.054
344.28	14.367
344.65	13.796
345.01	13.640
345.37	13.898
345.73	14.216
346.10	13.884
346.46	14.228
346.82	12.841
347.19	12.737
347.55	14.943
347.91	13.094
348.27	12.618
348.63	14.423
349.00	13.679
349.36	13.815
349.72	14.462
350.08	13.963
350.45	13.469
350.81	13.772
351.17	13.934
351.53	13.119
351.89	12.708
352.26	12.510
352.62	13.643
352.98	13.099
353.34	13.527
353.70	13.240
354.07	13.020
354.43	13.686
354.79	13.301
355.15	13.820
355.51	12.377
355.87	12.823
356.24	13.162
356.60	12.588
356.96	12.817
357.32	13.854
357.68	13.140
358.04	13.887
358.40	13.488
358.77	12.997
359.13	13.074
359.49	12.642
359.85	13.040
360.21	13.724
360.57	13.764
360.93	12.367
361.29	13.249
361.66	13.440
362.02	12.602
362.38	13.442
362.74	12.835
363.10	12.943
363.46	12.824
363.82	13.008
364.18	12.908
364.54	13.275
364.90	12.753
365.26	12.951
365.62	12.784
365.98	12.456
366.35	13.475
366.71	10.913
367.07	12.899
367.43	12.056
367.79	14.177
368.15	12.799
368.51	13.361
368.87	13.119
369.23	13.238
369.59	12.685
369.95	11.393
370.31	12.483
370.67	13.251
371.03	13.883
371.39	13.130
371.75	13.071
372.11	12.607
372.47	13.554
372.83	13.523
373.19	13.237
373.55	13.078
373.91	12.588
374.27	12.448
374.63	12.873
374.99	13.231
375.35	12.740
375.71	12.296
376.07	13.502
376.42	12.233
376.78	13.474
377.14	13.695
377.50	12.256
377.86	13.413
378.22	12.453
378.58	12.926
378.94	12.875
379.30	13.242
379.66	13.748
380.02	13.174
380.38	12.771
380.74	13.090
381.09	13.088
381.45	12.213
381.81	13.185
382.17	12.854
382.53	12.923
382.89	12.726
383.25	12.593
383.61	13.923
383.97	12.375
384.32	12.791
384.68	12.832
385.04	12.889
385.40	13.014
385.76	14.173
386.12	12.201
386.48	12.727
386.83	12.641
387.19	12.461
387.55	12.753
387.91	12.977
388.27	13.070
388.62	13.296
388.98	12.516
389.34	12.782
389.70	12.210
390.06	13.062
390.42	12.951
390.77	12.684
391.13	12.311
391.49	12.587
391.85	12.396
392.20	13.033
392.56	13.143
392.92	12.697
393.28	12.783
393.64	11.743
393.99	12.424
394.35	12.840
394.71	12.308
395.07	12.138
395.42	12.858
395.78	12.291
396.14	13.443
396.50	12.048
396.85	13.767
397.21	12.172
397.57	12.857
397.92	12.036
398.28	12.860
398.64	12.447
399.00	13.002
399.35	12.543
399.71	11.998
400.07	12.229
400.42	11.975
400.78	12.205
401.14	11.711
401.49	13.062
401.85	12.776
402.21	12.570
402.57	12.446
402.92	12.453
403.28	12.195
403.63	12.399
403.99	13.308
404.35	12.718
404.70	11.903
405.06	12.272
405.42	11.935
405.77	12.385
406.13	12.457
406.49	11.624
406.84	12.271
407.20	12.315
407.55	12.013
407.91	12.376
408.27	12.352
408.62	12.400
408.98	12.330
409.34	12.995
409.69	12.541
410.05	12.811
410.40	11.625
410.76	12.756
411.11	13.184
411.47	12.807
411.83	11.978
412.18	11.524
412.54	12.657
412.89	11.912
413.25	11.150
413.60	12.602
413.96	11.486
414.31	12.454
414.67	12.190
415.03	12.788
415.38	11.823
415.74	11.566
416.09	12.624
416.45	12.850
416.80	12.550
417.16	13.090
417.51	12.257
417.87	11.971
418.22	12.088
418.58	11.827
418.93	12.053
419.29	12.211
419.64	12.405
420.00	12.254
420.35	11.835
420.71	11.456
421.06	11.439
421.42	12.409
421.77	12.254
422.12	13.524
422.48	11.941
422.83	12.522
423.19	12.076
423.54	12.544
423.90	11.223
424.25	12.652
424.61	12.384
424.96	12.655
425.31	12.002
425.67	12.934
426.02	12.426
426.38	12.065
426.73	11.851
427.09	12.758
427.44	13.212
427.79	11.876
428.15	12.110
428.50	11.722
428.85	12.977
429.21	12.155
429.56	12.965
429.92	12.389
430.27	13.190
430.62	12.120
430.98	12.374
431.33	12.198
431.68	12.460
432.04	12.169
432.39	12.298
432.74	12.508
433.10	11.679
433.45	12.071
433.80	12.701
434.16	12.616
434.51	12.826
434.86	12.956
435.22	12.733
435.57	12.531
435.92	12.786
436.28	12.252
436.63	12.818
436.98	12.691
437.34	12.698
437.69	12.220
438.04	12.564
438.39	12.578
438.75	12.157
439.10	13.302
439.45	12.591
439.81	12.315
440.16	13.043
440.51	13.377
440.86	12.567
441.22	12.737
441.57	12.907
441.92	12.597
442.27	12.500
442.63	12.379
442.98	12.616
443.33	13.093
443.68	12.704
444.03	12.767
444.39	13.237
444.74	12.755
445.09	12.170
445.44	13.183
445.79	12.390
446.15	13.977
446.50	12.170
446.85	12.881
447.20	12.441
447.55	12.367
447.91	12.472
448.26	12.636
448.61	12.773
448.96	12.927
449.31	12.507
449.66	12.782
450.02	13.303
450.37	12.397
450.72	12.572
451.07	13.103
451.42	12.227
451.77	12.964
452.12	12.834
452.47	13.751
452.83	11.969
453.18	12.858
453.53	12.610
453.88	13.193
454.23	12.917
454.58	12.439
454.93	13.149
455.28	13.359
455.63	11.541
455.98	12.721
456.34	12.142
456.69	12.332
457.04	12.941
457.39	13.109
457.74	12.388
458.09	13.270
458.44	12.632
458.79	12.685
459.14	12.079
459.49	12.561
459.84	12.909
460.19	12.425
460.54	12.713
460.89	12.838
461.24	13.132
461.59	12.923
461.94	13.464
462.29	12.929
462.64	12.599
462.99	14.085
463.34	13.191
463.69	11.985
464.04	12.125
464.39	12.996
464.74	13.022
465.09	12.957
465.44	13.300
465.79	12.938
466.14	12.828
466.49	12.375
466.84	12.791
467.19	12.420
467.54	12.443
467.89	13.199
468.24	12.661
468.59	12.110
468.94	13.346
469.29	12.888
469.64	13.250
469.99	13.034
470.34	12.879
470.68	12.268
471.03	13.893
471.38	12.935
471.73	12.689
472.08	13.196
472.43	13.391
472.78	13.320
473.13	11.939
473.48	12.068
473.83	12.053
474.17	13.021
474.52	12.298
474.87	12.606
475.22	12.862
475.57	12.716
475.92	12.704
476.27	11.713
476.61	13.080
476.96	13.307
477.31	12.190
477.66	12.768
478.01	12.637
478.36	12.970
478.70	12.513
479.05	13.097
479.40	13.261
479.75	12.912
480.10	13.565
480.45	12.359
480.79	13.141
481.14	13.323
481.49	13.666
481.84	12.959
482.19	12.367
482.53	12.524
482.88	13.327
483.23	12.993
483.58	13.327
483.92	12.451
484.27	12.351
484.62	12.028
484.97	12.941
485.31	12.879
485.66	12.968
486.01	12.820
486.36	12.751
486.70	12.654
487.05	12.701
487.40	12.638
487.75	13.092
488.09	12.512
488.44	12.618
488.79	12.945
489.13	12.485
489.48	12.441
489.83	12.327
490.17	13.073
490.52	13.371
490.87	12.703
491.22	13.424
491.56	13.129
491.91	13.298
492.26	12.427
492.60	12.602
492.95	13.314
493.30	12.064
493.64	12.374
493.99	12.947
494.34	13.921
494.68	12.888
495.03	12.549
495.37	12.944
495.72	12.882
496.07	13.151
496.41	12.775
496.76	12.294
497.11	13.709
497.45	12.597
497.80	13.226
498.14	13.048
498.49	11.952
498.84	12.601
499.18	12.842
499.53	12.605
499.87	12.227
500.22	13.340
500.56	12.989
500.91	13.078
501.26	12.266
501.60	12.304
501.95	12.793
502.29	13.107
502.64	13.067
502.98	12.958
503.33	12.895
503.67	13.583
504.02	12.549
504.36	12.531
504.71	12.500
505.06	13.704
505.40	13.351
505.75	13.530
506.09	13.081
506.44	13.760
506.78	13.662
507.13	13.150
507.47	13.097
507.82	13.658
508.16	13.562
508.51	12.397
508.85	12.805
509.19	13.492
509.54	12.815
509.88	13.280
510.23	12.632
510.57	13.400
510.92	12.931
511.26	12.926
511.61	11.855
511.95	13.120
512.30	11.716
512.64	13.053
512.98	13.296
513.33	12.338
513.67	12.606
514.02	13.227
514.36	13.371
514.70	13.337
515.05	12.756
515.39	12.972
515.74	12.552
516.08	13.038
516.42	12.097
516.77	11.775
517.11	12.698
517.46	13.565
517.80	14.044
518.14	13.043
518.49	12.719
518.83	13.246
519.17	13.614
519.52	12.666
519.86	13.297
520.20	12.068
520.55	12.998
520.89	12.966
521.23	13.526
521.58	13.401
521.92	12.885
522.26	12.557
522.61	13.833
522.95	13.536
523.29	12.508
523.64	12.842
523.98	13.024
524.32	12.728
524.66	13.247
525.01	13.630
525.35	13.693
525.69	13.188
526.04	13.225
526.38	12.938
526.72	12.821
527.06	13.346
527.41	13.038
527.75	13.084
528.09	13.410
528.43	13.636
528.78	12.984
529.12	13.260
529.46	13.244
529.80	12.751
530.15	12.420
530.49	12.736
530.83	13.406
531.17	13.562
531.51	12.542
531.86	12.940
532.20	12.130
532.54	12.690
532.88	12.457
533.22	12.997
533.57	12.185
533.91	13.226
534.25	13.672
534.59	12.870
534.93	13.202
535.27	13.057
535.62	12.632
535.96	13.012
536.30	12.965
536.64	11.893
536.98	13.034
537.32	11.744
537.66	12.623
538.01	12.552
538.35	11.119
538.69	12.375
539.03	12.886
539.37	12.542
539.71	13.029
540.05	12.416
540.39	12.319
540.73	12.360
541.07	12.993
541.42	12.593
541.76	13.802
542.10	12.661
542.44	13.028
542.78	12.353
543.12	13.410
543.46	12.854
543.80	12.967
544.14	12.939
544.48	12.342
544.82	13.315
545.16	12.914
545.50	13.437
545.84	12.482
546.18	11.992
546.52	12.985
546.86	12.367
547.20	12.437
547.54	12.723
547.88	12.483
548.22	12.704
548.56	12.342
548.90	12.382
549.24	13.611
549.58	12.740
549.92	13.573
550.26	13.506
550.60	12.613
550.94	11.791
551.28	13.020
551.62	13.158
551.96	13.031
552.30	11.863
552.64	12.076
552.98	13.423
553.32	12.401
553.66	12.693
554.00	12.527
554.34	12.601
554.68	13.125
555.02	11.751
555.36	13.011
555.69	12.891
556.03	11.723
556.37	12.447
556.71	12.053
557.05	12.030
557.39	12.283
557.73	12.557
558.07	13.188
558.41	12.945
558.75	13.395
559.08	10.585
559.42	12.982
559.76	11.774
560.10	13.451
560.44	12.528
560.78	12.230
561.12	12.123
561.45	12.245
561.79	12.586
562.13	12.658
562.47	13.714
562.81	12.771
563.15	12.252
563.48	11.975
563.82	13.133
564.16	13.202
564.50	11.669
564.84	11.959
565.17	13.642
565.51	12.968
565.85	11.992
566.19	12.053
566.52	11.599
566.86	12.769
567.20	11.973
567.54	12.953
567.88	12.150
568.21	11.787
568.55	12.780
568.89	12.363
569.23	12.466
569.56	12.516
569.90	12.078
570.24	11.552
570.57	12.078
570.91	12.350
571.25	11.943
571.59	11.996
571.92	12.350
572.26	12.296
572.60	12.658
572.93	11.871
573.27	11.661
573.61	12.180
573.95	12.136
574.28	11.936
574.62	12.096
574.96	12.328
575.29	12.136
575.63	12.250
575.97	12.092
576.30	11.839
576.64	11.868
576.98	11.958
577.31	12.126
577.65	12.171
577.98	12.022
578.32	11.790
578.66	11.921
578.99	11.948
579.33	11.869
579.67	11.864
580.00	11.404
580.34	12.118
580.67	12.077
581.01	11.894
581.35	11.939
581.68	11.679
582.02	12.018
582.35	11.852
582.69	12.077
583.02	11.706
583.36	11.567
583.70	11.881
584.03	12.106
584.37	11.776
584.70	11.505
585.04	11.834
585.37	11.908
585.71	12.132
586.04	11.955
586.38	12.049
586.72	11.801
587.05	12.860
587.39	12.191
587.72	11.862
588.06	11.628
588.39	12.203
588.73	12.545
589.06	11.962
589.40	12.143
589.73	12.073
590.07	12.140
590.40	12.420
590.73	12.115
591.07	12.035
591.40	12.348
591.74	11.872
592.07	11.684
592.41	12.484
592.74	11.960
593.08	12.103
593.41	12.396
593.75	11.531
594.08	11.883
594.41	11.920
594.75	12.331
595.08	11.987
595.42	11.775
595.75	12.509
596.09	11.971
596.42	11.806
596.75	12.637
597.09	12.193
597.42	11.799
597.75	11.778
598.09	12.523
598.42	12.573
598.76	12.217
599.09	12.645
599.42	12.424
599.76	12.242
600.09	12.123
600.42	11.789
600.76	12.380
601.09	11.977
601.42	11.760
601.76	11.776
602.09	13.133
602.42	12.629
602.76	12.081
603.09	12.567
603.42	12.355
603.76	12.237
604.09	12.016
604.42	12.013
604.76	12.222
605.09	12.143
605.42	12.326
605.75	12.248
606.09	11.838
606.42	12.303
606.75	11.558
607.09	11.480
607.42	12.084
607.75	11.729
608.08	12.173
608.42	12.043
608.75	12.661
609.08	12.298
609.41	12.221
609.75	11.498
610.08	11.933
610.41	11.856
610.74	12.271
611.07	11.673
611.41	12.231
611.74	12.319
612.07	12.507
612.40	12.703
612.73	12.404
613.07	12.583
613.40	11.784
613.73	12.351
614.06	12.659
614.39	11.284
614.72	12.660
615.06	11.889
615.39	12.417
615.72	11.987
616.05	11.937
616.38	12.371
616.71	11.578
617.05	12.469
617.38	12.446
617.71	11.520
618.04	11.578
618.37	11.924
618.70	11.902
619.03	11.271
619.36	12.028
619.69	10.892
620.03	12.721
620.36	12.317
620.69	11.135
621.02	10.923
621.35	12.183
621.68	11.002
622.01	12.136
622.34	11.975
622.67	11.825
623.00	13.070
623.33	12.266
623.66	10.855
623.99	11.928
624.32	12.839
624.65	12.315
624.99	12.197
625.32	12.771
625.65	11.473
625.98	12.717
626.31	12.408
626.64	11.866
626.97	11.332
627.30	13.601
627.63	12.111
627.96	12.294
628.29	12.279
628.62	13.733
628.95	11.623
629.28	11.626
629.61	12.919
629.94	12.959
630.26	12.118
630.59	11.389
630.92	11.446
631.25	10.917
631.58	13.919
631.91	11.877
632.24	12.623
632.57	10.889
632.90	13.419
633.23	11.391
633.56	14.029
633.89	13.876
634.22	14.252
634.55	12.911
634.88	12.623
635.20	12.625
635.53	11.886
635.86	12.051
636.19	12.407
636.52	12.805
636.85	11.339
637.18	10.840
637.51	11.735
637.83	12.794
638.16	12.533
638.49	11.348
638.82	14.118
639.15	11.569
639.48	12.834
639.81	10.972
640.13	11.831
640.46	13.842
640.79	12.374
641.12	10.355
641.45	12.082
641.77	10.898
642.10	12.708
642.43	11.950
642.76	9.464
643.09	12.939
643.41	13.238
643.74	10.662
644.07	14.239
644.40	11.774
644.73	10.847
645.05	10.297
645.38	10.133
645.71	12.415
646.04	8.923
646.36	12.326
646.69	12.762
647.02	13.297
647.35	12.980
647.67	13.678
648.00	10.507
648.33	12.203
648.66	10.184
648.98	12.112
649.31	11.963
649.64	11.894
649.96	11.532
650.29	9.641
650.62	12.685
650.94	11.897
651.27	10.954
651.60	12.937
651.92	11.111
652.25	11.893
652.58	11.386
652.90	10.943
653.23	9.508
653.56	10.248
653.88	7.850
654.21	12.116
654.54	11.130
654.86	11.707
655.19	10.364
655.52	13.282
655.84	11.859
656.17	14.560
656.49	19.229
656.82	18.502
657.15	13.858
657.47	9.953
657.80	7.528
658.13	7.762
658.45	11.574
658.78	11.171
659.10	10.947
659.43	10.812
659.75	11.980
660.08	11.931
660.41	11.258
660.73	12.534
661.06	10.374
661.38	9.302
661.71	12.090
662.03	13.742
662.36	10.398
662.68	12.043
663.01	11.229
663.33	10.367
663.66	8.426
663.98	11.910
664.31	11.648
664.63	5.631
664.96	11.379
665.28	10.300
665.61	11.879
665.93	8.779
666.26	13.502
666.58	9.850
666.91	11.435
667.23	11.290
667.56	11.264
667.88	12.150
668.21	11.161
668.53	12.184
668.86	14.149
669.18	11.584
669.50	12.442
669.83	10.979
670.15	8.571
670.48	12.184
670.80	13.786
671.13	12.586
671.45	11.416
671.77	9.483
672.10	10.331
672.42	10.878
672.75	10.357
673.07	9.636
673.39	11.940
673.72	11.377
674.04	10.861
674.37	12.195
674.69	12.346
675.01	9.829
675.34	12.035
675.66	12.854
675.98	11.283
676.31	8.824
676.63	12.472
676.95	10.588
677.28	12.844
677.60	9.314
677.92	13.082
678.25	12.581
678.57	12.016
678.89	10.874
679.22	8.282
679.54	11.224
679.86	10.742
680.18	10.962
680.51	10.385
680.83	8.187
681.15	11.395
681.48	10.621
681.80	9.611
682.12	8.542
682.44	10.060
682.77	11.158
683.09	10.491
683.41	11.163
683.73	10.491
684.06	12.389
684.38	8.333
684.70	9.776
685.02	12.190
685.34	12.524
685.67	11.069
685.99	10.676
686.31	12.414
686.63	12.316
686.96	14.100
687.28	6.786
687.60	12.098
687.92	10.311
688.24	14.200
688.56	10.965
688.89	10.468
689.21	8.072
689.53	8.559
689.85	11.685
690.17	11.648
690.49	11.111
690.82	11.217
691.14	9.420
691.46	9.281
691.78	8.571
692.10	10.191
692.42	7.253
692.74	12.174
693.06	10.787
693.39	8.431
693.71	11.111
694.03	14.091
694.35	11.036
694.67	9.750
694.99	10.825
695.31	11.370
695.63	13.659
695.95	10.433
696.27	9.315
696.59	11.022
696.91	8.939
697.23	9.898
697.56	13.189
697.88	10.395
698.20	13.607
698.52	9.813
698.84	11.244
699.16	10.875
699.48	14.568
699.80	13.437
700.12	9.920
700.44	10.704
700.76	12.360
701.08	11.782
701.40	15.868
701.72	10.769
702.04	8.491
702.36	10.061
702.68	10.061
703.00	12.573
703.32	11.421
703.64	10.843
703.96	12.023
704.28	12.048
704.60	9.451
704.91	9.718
705.23	8.228
705.55	12.069
705.87	13.380
706.19	8.059
706.51	8.451
706.83	9.236
707.15	11.890
707.47	11.019
707.79	8.629
708.11	10.797
708.43	11.675
708.74	13.298
709.06	11.230
709.38	10.951
709.70	12.312
710.02	13.084
710.34	6.000
710.66	11.726
710.98	13.003
711.29	12.338
711.61	8.710
711.93	12.258
712.25	4.895
712.57	9.825
712.89	8.059
713.20	9.574
713.52	8.759
713.84	10.323
714.16	12.298
714.48	9.494
714.80	8.307
715.11	14.826
715.43	12.733
715.75	12.422
716.07	9.337
716.39	13.131
716.70	14.029
717.02	7.843
717.34	12.879
717.66	6.466
717.97	7.937
718.29	12.598
718.61	10.730
718.93	7.364
719.24	14.022
719.56	8.240
719.88	9.328
720.20	7.510
720.51	5.078
720.83	12.451
721.15	7.317
721.46	6.870
721.78	8.367
722.10	13.546
722.42	7.661
722.73	13.900
723.05	13.469
723.37	11.345
723.68	11.600
724.00	4.681
724.32	11.715
724.63	11.111
724.95	6.838
725.27	13.080
725.58	13.580
725.90	8.368
726.22	6.522
726.53	5.882
726.85	10.219
727.16	11.481
727.48	12.261
727.80	12.891
728.11	10.656
728.43	7.031
728.74	10.317
729.06	8.000
729.38	9.881
729.69	11.744
730.01	10.037
730.32	14.760
730.64	12.121
730.96	13.986
731.27	8.696
731.59	13.651
731.90	7.767
732.22	11.218
732.53	10.135
732.85	9.732
733.16	12.541
733.48	10.473
733.80	8.108
734.11	15.541
734.43	11.455
734.74	12.613
735.06	11.816
735.37	11.246
735.69	11.974
736.00	6.601
736.32	10.993
736.63	10.690
736.95	8.904
737.26	13.448
737.58	9.722
737.89	13.058
738.21	9.253
738.52	9.886
738.83	6.531
739.15	9.283
739.46	9.339
739.78	8.099
740.09	10.616
740.41	8.571
740.72	9.220
741.04	10.800
741.35	7.018
741.66	11.556
741.98	13.462
742.29	15.347
742.61	14.634
742.92	15.351
743.23	8.962
743.55	7.207
743.86	10.762
744.18	7.353
744.49	5.584
744.80	11.224
745.12	13.084
745.43	12.322
745.74	11.712
746.06	10.748
746.37	7.339
746.68	13.942
747.00	11.483
747.31	5.288
747.62	8.257
747.94	14.410
748.25	14.679
748.56	12.000
748.88	10.329
749.19	11.429
749.50	8.252
749.82	10.329
750.13	3.750
750.44	4.615
750.75	11.070
751.07	13.879
751.38	9.220
751.69	10.039
752.01	7.812
752.32	9.231
752.63	10.075
752.94	14.000
753.26	7.531
753.57	10.833
753.88	10.526
754.19	10.757
754.51	6.015
754.82	10.256
755.13	1.739
755.44	12.195
755.75	9.200
756.07	8.487
756.38	10.432
756.69	11.604
757.00	9.346
757.31	12.945
757.63	6.790
757.94	14.124
758.25	11.905
758.56	8.424
758.87	10.417
759.18	11.041
759.50	9.428
759.81	13.378
760.12	13.538
760.43	8.333
760.74	8.475
761.05	10.497
761.36	7.736
761.67	10.876
761.99	8.935
762.30	10.949
762.61	7.819
762.92	13.248
763.23	13.115
763.54	12.554
763.85	8.980
764.16	5.691
764.47	8.800
764.78	6.786
765.10	11.148
765.41	12.766
765.72	7.764
766.03	8.581
766.34	8.077
766.65	7.531
766.96	5.164
767.27	12.376
767.58	-3.371
767.89	14.815
768.20	6.077
768.51	15.578
768.82	11.058
769.13	7.965
769.44	12.971
769.75	2.564
770.06	8.520
770.37	9.314
770.68	12.136
770.99	11.165
771.30	14.286
771.61	6.122
771.92	11.618
772.23	7.207
772.54	6.630
772.85	2.907
773.16	12.169
773.47	1.183
773.78	14.943
774.09	6.875
774.39	16.149
774.70	4.762
775.01	2.759
775.32	10.000
775.63	9.774
775.94	6.767
776.25	5.600
776.56	10.744
776.87	6.349
777.18	4.505
777.48	7.207
777.79	-3.150
778.10	5.505
778.41	-0.877
778.72	4.202
779.03	4.930
779.34	16.216
779.65	3.521
779.95	13.245
780.26	1.439
780.57	8.633
780.88	1.408
781.19	0.840
781.50	10.067
781.80	13.450
782.11	7.558
782.42	12.579
782.73	5.229
783.04	1.379
783.34	3.053
783.65	7.383
783.96	3.077
784.27	10.000
784.57	16.312
784.88	-7.692
785.19	23.636
785.50	10.909
785.81	1.905
786.11	5.042
786.42	9.735
786.73	-5.660
787.04	-8.257
787.34	0.000
787.65	7.500
787.96	1.653
788.26	13.768
788.57	1.587
788.88	8.130
789.19	-4.800
789.49	0.763
789.80	12.879
790.11	4.717
790.41	8.911
790.72	6.383
791.03	5.435
791.33	-7.059
791.64	6.173
791.95	1.087
792.25	9.091
792.56	21.795
792.87	-1.282
793.17	-19.231
793.48	5.952
793.79	12.500
794.09	13.462
794.40	7.292
794.70	1.802
795.01	10.156
795.32	13.043
795.62	-4.348
795.93	2.830
796.23	-1.010
796.54	13.415
796.85	4.762
797.15	-1.515
797.46	5.797
797.76	-9.211
798.07	1.136
798.37	13.415
798.68	-24.194
798.99	-12.162
799.29	12.048
799.60	1.282
799.90	9.231
800.21	7.576
800.51	13.333
800.82	-2.667
801.12	-16.667
801.43	-26.667
801.73	0.000
802.04	20.000
802.34	-3.279
802.65	8.955
802.95	1.818
803.26	22.414
803.56	16.923
803.87	-3.774
804.17	12.903
804.48	-11.765
804.78	4.878
805.09	11.594
805.39	-1.471
805.70	-34.043
806.00	12.281
806.30	6.410
806.61	2.632
806.91	1.351
807.22	11.842
807.52	19.318
807.83	-23.729
808.13	-27.273
808.43	1.667
808.74	-22.414
809.04	-3.175
809.35	8.163
809.65	-5.000
809.95	8.163
810.26	15.493
810.56	-2.083
810.86	-30.612
811.17	21.154
811.47	-2.128
811.77	-33.333
812.08	-3.774
812.38	-34.375
812.69	1.818
812.99	-7.317
813.29	-21.622
813.59	-10.811
813.90	5.455
814.20	0.000
814.50	11.667
814.81	0.000
815.11	-1.754
815.41	4.651
815.72	-10.000
816.02	17.143
816.32	-13.514
816.62	2.083
816.93	-4.444
817.23	-20.000
817.53	-38.889
817.84	-18.919
818.14	-7.317
818.44	8.000
818.74	14.286
819.04	-7.317
819.35	8.333
819.65	27.273
819.95	-33.333
820.25	-12.121
820.56	-19.048
820.86	-2.778
821.16	6.818
821.46	-6.522
821.76	-17.241
822.07	10.870
822.37	-12.121
822.67	12.195
822.97	5.405
823.27	-14.286
823.57	0.000
823.88	-8.824
824.18	-2.778
824.48	-20.000
824.78	-23.810
825.08	14.286
825.38	0.000
825.69	-9.677
825.99	19.512
826.29	-14.815
826.59	-12.500
826.89	-58.065
827.19	-56.522
827.49	-38.889
827.79	-39.130
828.09	9.677
828.39	-8.333
828.70	-9.375
829.00	-24.138
829.30	-18.919
829.60	-83.333
829.90	-22.222
830.20	0.000
830.50	-22.727
830.80	-105.882
831.10	-9.091
831.40	-11.765
831.70	19.231
832.00	21.212
832.30	29.412
832.60	-8.108
832.90	900.000
833.20	-21.429
833.50	-80.000
833.80	-10.526
834.10	-83.333
834.40	-63.636
834.70	-106.667
835.00	-90.000
835.30	-25.000
835.60	-61.905
835.90	-9.524
836.20	-20.000
836.50	-58.333
836.80	-89.474
837.10	35.135
837.40	-23.333
837.70	-56.522
838.00	0.000
838.30	-5.263
838.60	-140.000
838.90	-60.000
839.19	-50.000
839.49	-46.154
839.79	-10.526
840.09	-250.000
840.39	-140.000
840.69	-22.727
840.99	38.095
841.29	-41.667
841.59	-92.308
841.88	-86.667
842.18	-71.429
842.48	26.667
842.78	-185.714
843.08	-50.000
843.38	-112.500
843.68	-31.250
843.97	-7.143
844.27	-177.778
844.57	-63.636
844.87	-46.667
845.17	22.727
845.47	700.000
845.76	-33.333
846.06	-75.000
846.36	-850.000
846.66	-52.632
846.96	9.091
847.25	-88.889
847.55	-155.556
847.85	0.000
848.15	-69.231
848.44	-283.333
848.74	-83.333
849.04	-23.077
849.34	-300.000
849.63	-127.273
849.93	-57.143
850.23	-10.000
850.53	-187.500
850.82	-11.111
851.12	13.333
851.42	-29.412
851.71	-50.000
852.01	23.529
852.31	38.462
852.61	600.000
852.90	35.294
853.20	-26.667
853.50	-31.250
853.79	-78.571
854.09	-275.000
854.39	-30.000
854.68	5.000
854.98	-42.857
855.28	-4.000
855.57	-25.000
855.87	-37.500
856.17	-64.000
856.46	-18.750
856.76	-60.000
857.05	40.000
857.35	-150.000
857.65	-58.824
857.94	-125.000
858.24	-41.667
858.53	40.000
858.83	-154.545
859.13	-12.000
859.42	-100.000
859.72	-75.000
860.01	20.833
860.31	-250.000
860.60	-50.000
860.90	-200.000
861.20	-100.000
861.49	-13.333
861.79	-37.500
862.08	175.000
862.38	-75.000
862.67	357.143
862.97	575.000
863.26	-172.727
863.56	-90.909
863.85	-5.263
864.15	-52.941
864.44	-440.000
864.74	-80.000
865.03	-111.111
865.33	-21.429
865.62	121.429
865.92	-42.105
866.21	-66.667
866.51	-109.091
866.80	-133.333
867.10	-187.500
867.39	-12.500
867.69	-53.333
867.98	-90.000
868.27	-41.176
868.57	0.000
868.86	850.000
869.16	-250.000
869.45	-228.571
869.75	750.000
870.04	10.000
870.33	-800.000
870.63	-26.316
870.92	-58.333
871.22	-600.000
871.51	-257.143
871.80	-211.111
872.10	-150.000
>>>>>End Processed Spectral Data<<<<<
