SpectraSuite Data File
++++++++++++++++++++++++++++++++++++
Date: Tue May 12 17:01:36 PDT 2015
User: schluterlab
Dark Spectrum Present: Yes
Reference Spectrum Present: Yes
Number of Sampled Component Spectra: 1
Spectrometers: USB2E3373
Integration Time (usec): 3000 (USB2E3373)
Spectra Averaged: 3 (USB2E3373)
Boxcar Smoothing: 0 (USB2E3373)
Correct for Electrical Dark: No (USB2E3373)
Strobe/Lamp Enabled: No (USB2E3373)
Correct for Detector Non-linearity: No (USB2E3373)
Correct for Stray Light: No (USB2E3373)
Number of Pixels in Processed Spectrum: 2048
>>>>>Begin Processed Spectral Data<<<<<
178.53	0.000
178.91	-266.667
179.29	-600.000
179.67	-3600.000
180.04	-140.000
180.42	750.000
180.80	1900.000
181.18	0.000
181.56	-225.000
181.94	0.000
182.31	1066.667
182.69	-2900.000
183.07	571.429
183.45	-4300.000
183.83	-1650.000
184.20	350.000
184.58	528.571
184.96	-246.154
185.34	-191.667
185.72	1700.000
186.09	-775.000
186.47	-3900.000
186.85	1266.667
187.23	500.000
187.61	1950.000
187.98	437.500
188.36	328.571
188.74	375.000
189.12	391.667
189.49	750.000
189.87	0.000
190.25	487.500
190.63	2800.000
191.00	-158.333
191.38	-2900.000
191.76	-800.000
192.14	362.500
192.51	-2200.000
192.89	1900.000
193.27	1333.333
193.65	-733.333
194.02	-740.000
194.40	557.143
194.78	-178.571
195.15	280.000
195.53	-2600.000
195.91	-540.000
196.29	3800.000
196.66	256.250
197.04	900.000
197.42	-1200.000
197.79	650.000
198.17	291.667
198.55	0.000
198.92	385.714
199.30	1233.333
199.68	2250.000
200.05	683.333
200.43	-433.333
200.81	194.444
201.18	3200.000
201.56	266.667
201.94	-850.000
202.31	-425.000
202.69	-460.000
203.07	3100.000
203.44	-650.000
203.82	350.000
204.19	580.000
204.57	-1050.000
204.95	-575.000
205.32	-800.000
205.70	483.333
206.08	900.000
206.45	-700.000
206.83	311.111
207.20	221.053
207.58	258.333
207.96	660.000
208.33	0.000
208.71	571.429
209.08	780.000
209.46	-3300.000
209.84	-875.000
210.21	980.000
210.59	-520.000
210.96	308.333
211.34	-725.000
211.71	381.818
212.09	1075.000
212.46	1850.000
212.84	-300.000
213.22	311.111
213.59	-2900.000
213.97	400.000
214.34	1000.000
214.72	1100.000
215.09	1066.667
215.47	-3500.000
215.84	-240.000
216.22	-350.000
216.59	0.000
216.97	0.000
217.34	1650.000
217.72	-1500.000
218.09	1166.667
218.47	350.000
218.84	825.000
219.22	1100.000
219.59	1300.000
219.97	542.857
220.34	422.222
220.72	1900.000
221.09	3100.000
221.47	300.000
221.84	866.667
222.22	360.000
222.59	266.667
222.97	164.286
223.34	175.000
223.72	-1300.000
224.09	966.667
224.46	307.692
224.84	-700.000
225.21	466.667
225.59	220.000
225.96	1500.000
226.34	-940.000
226.71	-725.000
227.08	-580.000
227.46	0.000
227.83	-533.333
228.21	-1400.000
228.58	441.667
228.95	900.000
229.33	466.667
229.70	1225.000
230.08	392.308
230.45	3600.000
230.82	-1075.000
231.20	-1166.667
231.57	-1066.667
231.95	620.000
232.32	308.333
232.69	600.000
233.07	241.667
233.44	-1950.000
233.81	300.000
234.19	188.889
234.56	206.250
234.93	223.529
235.31	220.000
235.68	306.250
236.05	160.714
236.43	166.667
236.80	278.571
237.17	134.483
237.55	131.250
237.92	135.000
238.29	160.606
238.67	128.125
239.04	109.756
239.41	93.750
239.79	110.000
240.16	91.667
240.53	67.213
240.91	62.319
241.28	81.356
241.65	74.242
242.02	83.099
242.40	92.857
242.77	59.341
243.14	70.886
243.51	69.697
243.89	58.879
244.26	61.682
244.63	63.366
245.00	61.468
245.38	54.237
245.75	58.333
246.12	60.000
246.49	44.681
246.87	58.197
247.24	49.333
247.61	53.125
247.98	61.224
248.36	50.909
248.73	51.531
249.10	45.238
249.47	45.000
249.84	42.289
250.22	48.108
250.59	40.000
250.96	45.148
251.33	43.256
251.70	44.643
252.08	44.118
252.45	46.614
252.82	38.783
253.19	37.945
253.56	36.923
253.94	40.580
254.31	41.085
254.68	43.902
255.05	42.414
255.42	43.796
255.79	41.694
256.16	41.356
256.54	42.208
256.91	40.196
257.28	39.130
257.65	36.677
258.02	35.398
258.39	37.249
258.76	39.710
259.14	37.143
259.51	37.609
259.88	40.122
260.25	37.363
260.62	36.438
260.99	36.915
261.36	34.819
261.73	39.894
262.10	39.267
262.47	37.000
262.85	38.133
263.22	37.532
263.59	36.573
263.96	34.586
264.33	34.568
264.70	38.329
265.07	38.049
265.44	34.633
265.81	37.500
266.18	39.588
266.55	34.043
266.92	34.899
267.29	39.474
267.66	35.650
268.03	36.996
268.40	34.249
268.77	34.802
269.14	29.718
269.51	33.853
269.88	36.327
270.25	31.749
270.62	37.983
270.99	35.294
271.36	36.382
271.73	35.639
272.10	33.939
272.47	33.135
272.84	32.136
273.21	29.959
273.58	34.818
273.95	31.417
274.32	35.019
274.69	33.661
275.06	33.880
275.43	32.567
275.80	32.830
276.17	33.088
276.54	33.084
276.91	33.769
277.28	32.482
277.65	34.871
278.02	31.801
278.39	33.094
278.76	32.069
279.13	31.495
279.50	32.545
279.87	29.423
280.23	33.517
280.60	33.577
280.97	33.448
281.34	32.343
281.71	30.957
282.08	33.333
282.45	30.068
282.82	31.773
283.19	33.386
283.56	30.413
283.92	31.596
284.29	32.280
284.66	30.924
285.03	32.338
285.40	31.405
285.77	29.938
286.14	31.734
286.51	30.215
286.87	28.956
287.24	30.631
287.61	30.547
287.98	32.090
288.35	30.222
288.72	27.314
289.08	30.781
289.45	30.488
289.82	30.625
290.19	28.990
290.56	29.403
290.93	28.201
291.29	28.315
291.66	30.650
292.03	26.788
292.40	29.404
292.77	25.487
293.13	27.960
293.50	27.260
293.87	26.287
294.24	25.455
294.60	27.995
294.97	26.713
295.34	26.428
295.71	26.938
296.08	27.067
296.44	25.667
296.81	25.062
297.18	24.968
297.55	25.123
297.91	23.645
298.28	24.758
298.65	24.663
299.02	24.849
299.38	26.019
299.75	23.415
300.12	23.853
300.48	25.995
300.85	23.838
301.22	24.419
301.59	23.939
301.95	23.804
302.32	25.262
302.69	24.434
303.05	24.242
303.42	22.646
303.79	24.269
304.15	23.652
304.52	23.044
304.89	23.241
305.25	24.138
305.62	23.774
305.99	23.587
306.35	22.421
306.72	23.309
307.09	23.602
307.45	23.970
307.82	23.457
308.19	23.402
308.55	22.500
308.92	23.945
309.29	25.049
309.65	23.984
310.02	24.442
310.38	23.928
310.75	24.397
311.12	22.605
311.48	24.710
311.85	24.809
312.22	25.501
312.58	24.490
312.95	23.981
313.31	25.843
313.68	24.859
314.05	26.832
314.41	26.816
314.78	26.894
315.14	26.256
315.51	27.342
315.87	27.372
316.24	28.758
316.61	27.305
316.97	26.697
317.34	28.392
317.70	29.412
318.07	31.050
318.43	29.877
318.80	28.809
319.16	30.769
319.53	29.735
319.89	30.018
320.26	31.564
320.62	32.051
320.99	31.649
321.35	33.117
321.72	32.543
322.08	32.410
322.45	32.607
322.81	33.669
323.18	34.103
323.54	34.321
323.91	35.177
324.27	34.660
324.64	34.256
325.00	36.983
325.37	35.750
325.73	36.256
326.10	36.620
326.46	36.664
326.83	36.480
327.19	37.671
327.56	35.783
327.92	37.377
328.29	36.334
328.65	38.699
329.01	36.441
329.38	38.579
329.74	36.977
330.11	38.488
330.47	38.448
330.84	36.411
331.20	37.817
331.56	38.946
331.93	38.323
332.29	37.075
332.66	38.010
333.02	37.629
333.38	38.133
333.75	38.699
334.11	36.577
334.48	37.436
334.84	37.922
335.20	37.297
335.57	36.608
335.93	38.183
336.29	37.396
336.66	37.907
337.02	37.896
337.38	37.317
337.75	38.598
338.11	36.287
338.47	36.410
338.84	37.680
339.20	37.143
339.56	36.754
339.93	36.873
340.29	36.723
340.65	37.301
341.02	37.329
341.38	36.289
341.74	35.963
342.11	36.394
342.47	36.013
342.83	38.064
343.20	35.893
343.56	35.504
343.92	37.407
344.28	36.204
344.65	36.104
345.01	35.794
345.37	35.016
345.73	35.079
346.10	36.494
346.46	36.045
346.82	34.645
347.19	36.631
347.55	35.363
347.91	34.970
348.27	33.927
348.63	35.680
349.00	36.024
349.36	35.953
349.72	35.933
350.08	35.947
350.45	34.958
350.81	34.786
351.17	34.515
351.53	35.951
351.89	34.266
352.26	34.392
352.62	34.917
352.98	35.506
353.34	35.131
353.70	33.563
354.07	35.000
354.43	33.948
354.79	34.472
355.15	35.375
355.51	33.686
355.87	34.337
356.24	34.103
356.60	33.181
356.96	34.344
357.32	33.760
357.68	34.802
358.04	33.587
358.40	34.408
358.77	34.185
359.13	33.258
359.49	32.913
359.85	34.028
360.21	32.912
360.57	33.212
360.93	33.694
361.29	33.911
361.66	34.303
362.02	33.026
362.38	32.684
362.74	33.192
363.10	32.819
363.46	33.011
363.82	32.889
364.18	33.997
364.54	32.618
364.90	33.199
365.26	33.727
365.62	33.494
365.98	32.622
366.35	32.069
366.71	34.004
367.07	33.174
367.43	33.580
367.79	31.981
368.15	30.868
368.51	32.598
368.87	32.201
369.23	32.571
369.59	32.974
369.95	32.867
370.31	31.691
370.67	32.755
371.03	33.824
371.39	32.341
371.75	31.821
372.11	33.107
372.47	32.123
372.83	31.815
373.19	32.282
373.55	32.165
373.91	31.768
374.27	31.746
374.63	32.000
374.99	31.604
375.35	32.460
375.71	32.322
376.07	31.565
376.42	31.714
376.78	32.884
377.14	32.372
377.50	32.085
377.86	31.326
378.22	31.566
378.58	32.688
378.94	31.986
379.30	31.534
379.66	31.969
380.02	32.551
380.38	31.792
380.74	32.411
381.09	31.951
381.45	31.272
381.81	32.151
382.17	31.380
382.53	31.494
382.89	31.106
383.25	31.024
383.61	30.548
383.97	31.134
384.32	32.007
384.68	32.561
385.04	31.770
385.40	31.495
385.76	31.480
386.12	31.540
386.48	31.793
386.83	30.807
387.19	30.919
387.55	32.097
387.91	31.293
388.27	32.243
388.62	31.455
388.98	30.554
389.34	31.231
389.70	30.778
390.06	31.159
390.42	30.660
390.77	31.327
391.13	30.899
391.49	30.974
391.85	31.015
392.20	31.764
392.56	31.840
392.92	29.927
393.28	30.942
393.64	31.307
393.99	30.231
394.35	30.312
394.71	31.182
395.07	31.144
395.42	30.796
395.78	31.647
396.14	31.024
396.50	31.047
396.85	30.610
397.21	30.505
397.57	31.022
397.92	30.040
398.28	30.447
398.64	30.774
399.00	31.053
399.35	30.918
399.71	30.298
400.07	30.422
400.42	30.746
400.78	31.085
401.14	30.945
401.49	30.703
401.85	31.402
402.21	30.287
402.57	30.940
402.92	31.455
403.28	30.967
403.63	29.841
403.99	31.604
404.35	31.829
404.70	30.419
405.06	29.983
405.42	31.358
405.77	31.036
406.13	31.074
406.49	30.301
406.84	29.724
407.20	31.050
407.55	30.646
407.91	30.951
408.27	31.837
408.62	30.751
408.98	30.633
409.34	29.866
409.69	31.052
410.05	30.054
410.40	29.623
410.76	28.506
411.11	30.036
411.47	30.370
411.83	29.877
412.18	29.408
412.54	30.150
412.89	29.381
413.25	30.559
413.60	30.257
413.96	30.401
414.31	31.228
414.67	30.850
415.03	30.779
415.38	30.978
415.74	30.133
416.09	30.793
416.45	30.640
416.80	30.725
417.16	30.236
417.51	29.873
417.87	30.225
418.22	30.377
418.58	29.809
418.93	30.874
419.29	29.267
419.64	30.588
420.00	30.668
420.35	29.268
420.71	29.872
421.06	29.606
421.42	30.685
421.77	30.428
422.12	30.209
422.48	30.406
422.83	30.525
423.19	29.590
423.54	30.389
423.90	30.691
424.25	30.325
424.61	30.470
424.96	29.870
425.31	30.268
425.67	30.191
426.02	30.679
426.38	29.463
426.73	30.538
427.09	31.139
427.44	29.769
427.79	31.046
428.15	31.762
428.50	31.314
428.85	31.452
429.21	30.092
429.56	30.160
429.92	30.184
430.27	29.657
430.62	29.173
430.98	29.840
431.33	29.738
431.68	29.630
432.04	30.005
432.39	30.132
432.74	30.269
433.10	30.509
433.45	30.500
433.80	30.557
434.16	28.902
434.51	30.805
434.86	30.212
435.22	30.578
435.57	31.239
435.92	31.076
436.28	31.912
436.63	31.442
436.98	31.419
437.34	30.708
437.69	29.619
438.04	30.538
438.39	30.998
438.75	30.512
439.10	30.059
439.45	29.452
439.81	30.654
440.16	31.425
440.51	29.730
440.86	32.080
441.22	30.411
441.57	30.656
441.92	29.812
442.27	30.309
442.63	30.691
442.98	29.957
443.33	31.012
443.68	30.382
444.03	30.160
444.39	30.085
444.74	30.383
445.09	30.279
445.44	30.128
445.79	30.556
446.15	30.684
446.50	30.802
446.85	30.777
447.20	30.149
447.55	30.560
447.91	31.646
448.26	30.884
448.61	31.067
448.96	30.719
449.31	30.693
449.66	30.897
450.02	29.876
450.37	30.816
450.72	30.799
451.07	31.704
451.42	31.002
451.77	31.157
452.12	31.197
452.47	31.531
452.83	31.268
453.18	31.712
453.53	32.386
453.88	31.314
454.23	31.493
454.58	31.352
454.93	30.779
455.28	32.375
455.63	31.797
455.98	30.682
456.34	32.036
456.69	31.463
457.04	31.683
457.39	30.743
457.74	31.475
458.09	30.039
458.44	31.763
458.79	31.034
459.14	31.697
459.49	31.767
459.84	31.250
460.19	31.695
460.54	31.054
460.89	31.023
461.24	31.329
461.59	31.633
461.94	30.674
462.29	31.350
462.64	31.470
462.99	31.926
463.34	31.821
463.69	31.942
464.04	31.952
464.39	30.796
464.74	30.129
465.09	31.399
465.44	31.338
465.79	30.920
466.14	30.949
466.49	31.145
466.84	31.382
467.19	31.342
467.54	31.532
467.89	31.631
468.24	31.673
468.59	31.190
468.94	31.159
469.29	31.704
469.64	31.576
469.99	31.555
470.34	31.689
470.68	32.897
471.03	32.088
471.38	32.450
471.73	32.201
472.08	34.116
472.43	32.899
472.78	33.227
473.13	31.477
473.48	32.274
473.83	31.743
474.17	31.915
474.52	31.220
474.87	31.438
475.22	32.210
475.57	30.325
475.92	31.783
476.27	31.121
476.61	31.367
476.96	31.034
477.31	31.877
477.66	32.850
478.01	32.027
478.36	31.823
478.70	30.968
479.05	31.119
479.40	31.944
479.75	32.075
480.10	31.365
480.45	30.906
480.79	31.014
481.14	30.670
481.49	31.016
481.84	30.519
482.19	31.397
482.53	31.137
482.88	30.600
483.23	30.807
483.58	31.239
483.92	31.718
484.27	30.950
484.62	31.112
484.97	30.347
485.31	28.741
485.66	28.044
486.01	27.065
486.36	26.829
486.70	27.026
487.05	27.492
487.40	27.873
487.75	28.838
488.09	29.148
488.44	29.222
488.79	30.163
489.13	31.056
489.48	30.763
489.83	31.276
490.17	31.296
490.52	30.879
490.87	31.681
491.22	31.826
491.56	31.752
491.91	31.855
492.26	32.116
492.60	31.891
492.95	31.038
493.30	32.166
493.64	31.806
493.99	31.932
494.34	30.928
494.68	32.050
495.03	32.061
495.37	31.697
495.72	32.214
496.07	31.806
496.41	31.494
496.76	31.448
497.11	30.934
497.45	31.346
497.80	32.159
498.14	31.392
498.49	30.873
498.84	32.710
499.18	31.581
499.53	32.154
499.87	31.267
500.22	31.598
500.56	31.569
500.91	32.189
501.26	32.751
501.60	31.740
501.95	30.600
502.29	31.733
502.64	30.878
502.98	30.414
503.33	31.314
503.67	31.700
504.02	30.766
504.36	31.357
504.71	31.646
505.06	31.957
505.40	31.633
505.75	30.496
506.09	31.311
506.44	31.532
506.78	32.467
507.13	31.750
507.47	32.169
507.82	31.727
508.16	31.994
508.51	32.319
508.85	31.529
509.19	32.305
509.54	32.568
509.88	32.969
510.23	32.647
510.57	31.322
510.92	32.667
511.26	32.129
511.61	31.561
511.95	32.056
512.30	32.300
512.64	32.451
512.98	33.060
513.33	31.660
513.67	32.263
514.02	32.052
514.36	31.360
514.70	33.120
515.05	32.339
515.39	33.169
515.74	33.680
516.08	31.590
516.42	34.262
516.77	32.373
517.11	32.800
517.46	32.489
517.80	32.933
518.14	32.676
518.49	31.863
518.83	32.418
519.17	32.945
519.52	33.151
519.86	33.188
520.20	33.041
520.55	32.617
520.89	33.276
521.23	33.470
521.58	33.563
521.92	33.703
522.26	33.827
522.61	33.333
522.95	33.634
523.29	33.567
523.64	32.775
523.98	33.803
524.32	32.872
524.66	32.754
525.01	32.604
525.35	32.999
525.69	33.654
526.04	33.611
526.38	33.785
526.72	33.413
527.06	33.412
527.41	34.099
527.75	34.267
528.09	33.895
528.43	33.862
528.78	33.393
529.12	32.571
529.46	33.080
529.80	32.126
530.15	33.589
530.49	33.213
530.83	33.516
531.17	33.087
531.51	33.170
531.86	32.971
532.20	33.251
532.54	33.145
532.88	33.791
533.22	33.638
533.57	33.435
533.91	31.993
534.25	32.372
534.59	32.456
534.93	32.821
535.27	31.133
535.62	32.730
535.96	31.738
536.30	32.968
536.64	32.050
536.98	33.103
537.32	33.938
537.66	33.546
538.01	32.570
538.35	33.624
538.69	31.917
539.03	31.343
539.37	31.553
539.71	32.654
540.05	32.000
540.39	32.075
540.73	32.911
541.07	31.744
541.42	31.405
541.76	32.552
542.10	33.416
542.44	32.419
542.78	32.473
543.12	30.675
543.46	31.579
543.80	33.396
544.14	32.941
544.48	31.509
544.82	32.171
545.16	31.998
545.50	32.760
545.84	32.576
546.18	33.745
546.52	33.246
546.86	33.140
547.20	31.460
547.54	31.539
547.88	31.144
548.22	31.755
548.56	31.408
548.90	31.257
549.24	32.217
549.58	31.894
549.92	32.613
550.26	32.725
550.60	31.337
550.94	32.022
551.28	32.276
551.62	33.172
551.96	32.095
552.30	31.246
552.64	32.362
552.98	31.830
553.32	31.818
553.66	31.726
554.00	31.789
554.34	32.224
554.68	33.132
555.02	31.568
555.36	31.117
555.69	31.872
556.03	31.720
556.37	30.848
556.71	32.203
557.05	30.472
557.39	31.000
557.73	32.749
558.07	32.864
558.41	32.762
558.75	32.763
559.08	33.024
559.42	32.498
559.76	33.713
560.10	32.003
560.44	31.387
560.78	31.266
561.12	31.596
561.45	29.912
561.79	30.899
562.13	30.449
562.47	31.408
562.81	31.555
563.15	30.834
563.48	30.062
563.82	32.065
564.16	31.530
564.50	31.525
564.84	30.699
565.17	30.184
565.51	30.727
565.85	31.215
566.19	30.179
566.52	30.927
566.86	30.006
567.20	29.719
567.54	29.585
567.88	30.099
568.21	28.757
568.55	27.578
568.89	28.239
569.23	27.437
569.56	27.516
569.90	26.159
570.24	25.997
570.57	26.379
570.91	25.367
571.25	25.712
571.59	24.873
571.92	24.623
572.26	24.016
572.60	25.243
572.93	25.273
573.27	25.101
573.61	24.797
573.95	24.502
574.28	24.212
574.62	23.777
574.96	23.350
575.29	23.274
575.63	23.840
575.97	23.929
576.30	23.867
576.64	23.693
576.98	23.798
577.31	23.875
577.65	23.574
577.98	22.859
578.32	22.677
578.66	23.270
578.99	23.684
579.33	23.771
579.67	23.448
580.00	23.550
580.34	23.245
580.67	23.557
581.01	23.546
581.35	22.938
581.68	22.514
582.02	22.057
582.35	22.469
582.69	22.967
583.02	22.619
583.36	23.265
583.70	24.026
584.03	24.310
584.37	24.003
584.70	23.687
585.04	23.150
585.37	22.182
585.71	23.124
586.04	23.106
586.38	23.582
586.72	23.372
587.05	23.829
587.39	23.793
587.72	23.469
588.06	23.020
588.39	23.669
588.73	23.345
589.06	23.432
589.40	24.444
589.73	24.385
590.07	25.189
590.40	25.261
590.73	26.111
591.07	25.693
591.40	25.908
591.74	25.365
592.07	25.499
592.41	25.060
592.74	24.460
593.08	24.284
593.41	23.339
593.75	23.836
594.08	23.837
594.41	23.949
594.75	24.418
595.08	24.623
595.42	23.864
595.75	23.659
596.09	24.644
596.42	24.363
596.75	25.280
597.09	25.382
597.42	25.224
597.75	25.112
598.09	25.195
598.42	24.521
598.76	24.595
599.09	24.715
599.42	24.256
599.76	23.609
600.09	23.797
600.42	23.860
600.76	23.997
601.09	24.922
601.42	23.654
601.76	23.917
602.09	25.092
602.42	23.956
602.76	24.630
603.09	24.774
603.42	24.550
603.76	23.572
604.09	23.742
604.42	24.256
604.76	24.970
605.09	24.898
605.42	25.356
605.75	24.516
606.09	24.637
606.42	24.089
606.75	24.291
607.09	24.556
607.42	24.669
607.75	24.164
608.08	23.639
608.42	24.916
608.75	24.818
609.08	24.945
609.41	25.136
609.75	24.863
610.08	25.045
610.41	24.682
610.74	25.628
611.07	25.239
611.41	25.301
611.74	25.096
612.07	25.145
612.40	25.146
612.73	26.061
613.07	26.153
613.40	25.965
613.73	26.211
614.06	25.900
614.39	26.162
614.72	25.716
615.06	25.618
615.39	25.594
615.72	25.315
616.05	25.967
616.38	25.317
616.71	25.827
617.05	26.030
617.38	26.067
617.71	26.490
618.04	26.248
618.37	25.625
618.70	26.270
619.03	25.946
619.36	28.266
619.69	26.847
620.03	29.093
620.36	27.553
620.69	28.161
621.02	28.125
621.35	28.797
621.68	28.687
622.01	29.742
622.34	25.710
622.67	29.003
623.00	28.659
623.33	27.733
623.66	27.611
623.99	28.767
624.32	27.981
624.65	28.045
624.99	27.924
625.32	27.923
625.65	27.379
625.98	27.057
626.31	29.228
626.64	28.094
626.97	27.774
627.30	29.037
627.63	30.220
627.96	28.873
628.29	29.290
628.62	29.512
628.95	30.585
629.28	30.938
629.61	29.086
629.94	30.164
630.26	29.983
630.59	30.762
630.92	30.404
631.25	31.913
631.58	32.208
631.91	30.067
632.24	30.807
632.57	29.961
632.90	32.298
633.23	33.368
633.56	30.137
633.89	32.047
634.22	32.723
634.55	33.333
634.88	31.325
635.20	34.081
635.53	34.146
635.86	33.333
636.19	32.548
636.52	33.297
636.85	30.636
637.18	33.044
637.51	33.743
637.83	30.664
638.16	33.411
638.49	33.772
638.82	33.216
639.15	32.667
639.48	33.886
639.81	31.868
640.13	34.110
640.46	33.375
640.79	33.030
641.12	34.383
641.45	33.506
641.77	34.214
642.10	34.806
642.43	33.570
642.76	34.517
643.09	35.014
643.41	34.923
643.74	35.252
644.07	33.923
644.40	34.763
644.73	35.886
645.05	36.256
645.38	34.609
645.71	35.964
646.04	36.947
646.36	35.994
646.69	34.720
647.02	37.280
647.35	36.378
647.67	35.332
648.00	36.319
648.33	34.737
648.66	34.545
648.98	33.768
649.31	31.849
649.64	31.120
649.96	33.713
650.29	32.286
650.62	34.757
650.94	37.048
651.27	38.118
651.60	35.368
651.92	35.023
652.25	36.378
652.58	33.759
652.90	33.533
653.23	33.973
653.56	31.751
653.88	30.984
654.21	32.698
654.54	32.357
654.86	34.366
655.19	31.926
655.52	25.468
655.84	17.810
656.17	19.995
656.49	28.607
656.82	32.411
657.15	25.638
657.47	19.367
657.80	14.921
658.13	11.850
658.45	16.466
658.78	19.972
659.10	20.284
659.43	20.858
659.75	22.436
660.08	24.812
660.41	27.858
660.73	31.117
661.06	32.132
661.38	35.434
661.71	35.072
662.03	35.741
662.36	35.429
662.68	35.196
663.01	37.477
663.33	33.396
663.66	37.081
663.98	37.897
664.31	36.381
664.63	38.889
664.96	36.585
665.28	37.100
665.61	35.094
665.93	36.226
666.26	34.579
666.58	35.963
666.91	37.452
667.23	35.341
667.56	39.220
667.88	38.797
668.21	36.475
668.53	34.879
668.86	36.072
669.18	37.475
669.50	36.777
669.83	35.934
670.15	34.304
670.48	34.570
670.80	37.052
671.13	36.653
671.45	36.874
671.77	38.219
672.10	35.907
672.42	30.757
672.75	32.120
673.07	34.976
673.39	35.304
673.72	32.699
674.04	33.333
674.37	34.483
674.69	33.457
675.01	34.515
675.34	32.364
675.66	36.133
675.98	35.897
676.31	37.200
676.63	35.189
676.95	36.111
677.28	34.077
677.60	35.010
677.92	33.135
678.25	34.690
678.57	33.147
678.89	34.177
679.22	33.456
679.54	37.189
679.86	33.682
680.18	33.568
680.51	31.509
680.83	30.574
681.15	34.142
681.48	34.028
681.80	30.123
682.12	33.910
682.44	32.793
682.77	33.986
683.09	36.117
683.41	35.102
683.73	35.039
684.06	34.722
684.38	33.721
684.70	33.273
685.02	30.382
685.34	31.690
685.67	31.994
685.99	32.184
686.31	30.354
686.63	30.894
686.96	31.373
687.28	30.034
687.60	30.717
687.92	33.668
688.24	32.414
688.56	31.317
688.89	32.505
689.21	34.297
689.53	36.166
689.85	32.927
690.17	34.757
690.49	34.879
690.82	34.664
691.14	35.152
691.46	36.756
691.78	36.257
692.10	33.779
692.42	30.309
692.74	33.721
693.06	33.140
693.39	31.028
693.71	33.202
694.03	36.686
694.35	38.153
694.67	32.790
694.99	34.590
695.31	33.108
695.63	35.294
695.95	38.009
696.27	37.611
696.59	36.277
696.91	35.949
697.23	37.783
697.56	29.876
697.88	32.735
698.20	30.189
698.52	31.907
698.84	32.854
699.16	34.968
699.48	35.805
699.80	35.512
700.12	35.335
700.44	34.813
700.76	40.334
701.08	34.204
701.40	36.883
701.72	40.909
702.04	36.856
702.36	38.441
702.68	40.691
703.00	36.842
703.32	39.454
703.64	37.280
703.96	38.281
704.28	37.566
704.60	37.183
704.91	38.095
705.23	37.500
705.55	38.872
705.87	38.095
706.19	39.498
706.51	41.379
706.83	39.528
707.15	37.166
707.47	32.446
707.79	33.793
708.11	31.519
708.43	35.281
708.74	31.448
709.06	33.721
709.38	34.739
709.70	35.967
710.02	36.141
710.34	34.807
710.66	36.111
710.98	41.530
711.29	41.226
711.61	39.554
711.93	34.954
712.25	35.542
712.57	41.801
712.89	36.061
713.20	43.450
713.52	38.006
713.84	40.483
714.16	35.072
714.48	36.023
714.80	31.436
715.11	33.511
715.43	36.034
715.75	32.394
716.07	33.237
716.39	34.571
716.70	37.695
717.02	40.741
717.34	45.683
717.66	40.625
717.97	44.697
718.29	40.141
718.61	37.500
718.93	41.176
719.24	38.255
719.56	35.862
719.88	36.306
720.20	41.613
720.51	40.196
720.83	38.462
721.15	36.735
721.46	35.616
721.78	38.676
722.10	42.014
722.42	40.468
722.73	41.155
723.05	37.895
723.37	39.929
723.68	36.719
724.00	43.939
724.32	42.205
724.63	38.462
724.95	37.647
725.27	38.662
725.58	42.279
725.90	33.099
726.22	32.877
726.53	35.117
726.85	37.785
727.16	37.584
727.48	33.223
727.80	38.489
728.11	37.143
728.43	38.043
728.74	37.063
729.06	34.409
729.38	41.053
729.69	40.000
730.01	37.500
730.32	36.913
730.64	38.206
730.96	35.135
731.27	28.746
731.59	29.023
731.90	29.805
732.22	34.286
732.53	33.333
732.85	35.673
733.16	31.928
733.48	35.737
733.80	35.942
734.11	38.344
734.43	32.456
734.74	30.831
735.06	35.450
735.37	31.959
735.69	30.145
736.00	35.168
736.32	28.485
736.63	32.492
736.95	32.919
737.26	33.232
737.58	34.969
737.89	35.241
738.21	33.775
738.52	37.124
738.83	40.293
739.15	34.495
739.46	31.379
739.78	37.075
740.09	33.236
740.41	32.515
740.72	35.238
741.04	41.958
741.35	37.500
741.66	39.526
741.98	42.060
742.29	40.278
742.61	33.186
742.92	41.949
743.23	37.200
743.55	33.208
743.86	35.686
744.18	43.644
744.49	40.496
744.80	36.866
745.12	44.643
745.43	48.131
745.74	36.889
746.06	36.842
746.37	41.860
746.68	43.805
747.00	39.910
747.31	37.815
747.62	42.213
747.94	41.202
748.25	35.019
748.56	40.678
748.88	40.625
749.19	40.000
749.50	35.160
749.82	37.860
750.13	37.549
750.44	35.667
750.75	30.872
751.07	35.526
751.38	33.333
751.69	36.027
752.01	37.413
752.32	31.229
752.63	33.893
752.94	38.112
753.26	36.719
753.57	40.078
753.88	34.082
754.19	37.184
754.51	34.551
754.82	32.215
755.13	36.824
755.44	38.519
755.75	37.113
756.07	33.904
756.38	30.719
756.69	34.375
757.00	33.234
757.31	32.958
757.63	31.405
757.94	27.128
758.25	27.295
758.56	25.858
758.87	30.576
759.18	32.267
759.50	33.131
759.81	28.783
760.12	27.528
760.43	30.532
760.74	28.354
761.05	28.912
761.36	30.990
761.67	28.841
761.99	30.986
762.30	33.762
762.61	27.778
762.92	35.985
763.23	36.981
763.54	35.000
763.85	34.241
764.16	34.722
764.47	36.149
764.78	33.876
765.10	28.049
765.41	29.545
765.72	30.110
766.03	29.003
766.34	28.920
766.65	34.601
766.96	39.271
767.27	45.327
767.58	42.574
767.89	44.751
768.20	40.854
768.51	41.837
768.82	39.474
769.13	36.078
769.44	28.947
769.75	33.333
770.06	38.235
770.37	35.965
770.68	35.111
770.99	43.220
771.30	35.983
771.61	31.154
771.92	32.824
772.23	30.242
772.54	38.667
772.85	44.059
773.16	42.391
773.47	38.333
773.78	42.079
774.09	42.045
774.39	46.061
774.70	35.882
775.01	36.184
775.32	41.615
775.63	43.836
775.94	50.617
776.25	51.724
776.56	49.618
776.87	45.802
777.18	43.939
777.48	57.480
777.79	44.615
778.10	44.697
778.41	52.985
778.72	53.383
779.03	42.308
779.34	47.973
779.65	44.720
779.95	48.447
780.26	41.071
780.57	45.578
780.88	49.645
781.19	68.333
781.50	41.420
781.80	42.077
782.11	42.857
782.42	41.379
782.73	37.853
783.04	45.806
783.34	49.612
783.65	43.537
783.96	47.097
784.27	43.709
784.57	37.500
784.88	42.029
785.19	36.667
785.50	48.276
785.81	53.488
786.11	45.926
786.42	40.945
786.73	40.541
787.04	48.113
787.34	42.276
787.65	59.091
787.96	49.242
788.26	45.669
788.57	53.285
788.88	48.592
789.19	46.565
789.49	48.649
789.80	39.062
790.11	45.455
790.41	50.000
790.72	48.148
791.03	53.846
791.33	63.636
791.64	67.368
791.95	61.053
792.25	56.250
792.56	53.000
792.87	63.415
793.17	61.364
793.48	64.706
793.79	68.966
794.09	57.955
794.40	65.517
794.70	53.968
795.01	50.000
795.32	45.802
795.62	47.863
795.93	48.739
796.23	43.902
796.54	51.020
796.85	57.955
797.15	75.325
797.46	67.073
797.76	55.000
798.07	64.000
798.37	65.000
798.68	66.250
798.99	67.073
799.29	77.333
799.60	51.163
799.90	63.158
800.21	75.758
800.51	60.563
800.82	72.414
801.12	76.923
801.43	68.000
801.73	60.345
802.04	61.039
802.34	63.014
802.65	82.353
802.95	82.609
803.26	80.645
803.56	110.000
803.87	85.075
804.17	82.540
804.48	81.132
804.78	81.944
805.09	72.727
805.39	82.540
805.70	87.719
806.00	62.857
806.30	65.625
806.61	67.059
806.91	64.444
807.22	55.435
807.52	51.316
807.83	72.368
808.13	66.667
808.43	91.935
808.74	84.932
809.04	75.000
809.35	66.176
809.65	87.879
809.95	96.078
810.26	94.444
810.56	81.250
810.86	67.347
811.17	89.474
811.47	91.304
811.77	81.034
812.08	75.862
812.38	73.810
812.69	100.000
812.99	88.889
813.29	117.143
813.59	119.355
813.90	77.586
814.20	77.049
814.50	88.000
814.81	71.930
815.11	81.481
815.41	80.357
815.72	76.786
816.02	92.000
816.32	114.634
816.62	103.448
816.93	130.303
817.23	104.878
817.53	91.071
817.84	104.444
818.14	104.762
818.44	83.333
818.74	90.566
819.04	102.564
819.35	118.182
819.65	105.769
819.95	103.704
820.25	87.234
820.56	127.027
820.86	118.421
821.16	80.851
821.46	123.684
821.76	87.273
822.07	83.333
822.37	94.737
822.67	106.977
822.97	73.684
823.27	82.609
823.57	134.375
823.88	135.897
824.18	106.061
824.48	117.391
824.78	119.444
825.08	143.478
825.38	158.621
825.69	111.765
825.99	85.106
826.29	125.000
826.59	122.857
826.89	150.000
827.19	108.571
827.49	122.581
827.79	161.538
828.09	88.095
828.39	113.889
828.70	94.595
829.00	146.429
829.30	181.250
829.60	83.333
829.90	158.065
830.20	118.182
830.50	140.541
830.80	162.500
831.10	157.692
831.40	171.429
831.70	195.833
832.00	133.333
832.30	160.870
832.60	145.833
832.90	166.667
833.20	235.000
833.50	136.842
833.80	117.647
834.10	97.368
834.40	178.947
834.70	130.000
835.00	144.000
835.30	89.189
835.60	118.750
835.90	129.730
836.20	119.231
836.50	154.545
836.80	104.878
837.10	147.826
837.40	361.538
837.70	152.632
838.00	150.000
838.30	187.500
838.60	156.000
838.90	330.000
839.19	143.750
839.49	150.000
839.79	144.828
840.09	173.077
840.39	220.000
840.69	184.211
840.99	114.286
841.29	160.870
841.59	180.000
841.88	176.000
842.18	333.333
842.48	117.857
842.78	155.556
843.08	230.769
843.38	213.636
843.68	292.857
843.97	500.000
844.27	200.000
844.57	1750.000
844.87	271.429
845.17	233.333
845.47	190.476
845.76	145.833
846.06	500.000
846.36	182.353
846.66	300.000
846.96	175.000
847.25	238.462
847.55	189.474
847.85	177.778
848.15	540.000
848.44	218.182
848.74	171.429
849.04	187.500
849.34	200.000
849.63	262.500
849.93	281.250
850.23	1066.667
850.53	375.000
850.82	372.727
851.12	211.765
851.42	183.333
851.71	275.000
852.01	0.000
852.31	223.529
852.61	420.000
852.90	137.500
853.20	477.778
853.50	-3200.000
853.79	152.000
854.09	143.750
854.39	151.724
854.68	155.172
854.98	195.238
855.28	122.581
855.57	192.857
855.87	211.111
856.17	111.111
856.46	157.895
856.76	132.258
857.05	270.588
857.35	309.091
857.65	253.846
857.94	165.000
858.24	444.444
858.53	328.571
858.83	628.571
859.13	178.261
859.42	377.778
859.72	350.000
860.01	250.000
860.31	875.000
860.60	360.000
860.90	512.500
861.20	261.538
861.49	471.429
861.79	-3500.000
862.08	542.857
862.38	355.556
862.67	200.000
862.97	480.000
863.26	150.000
863.56	750.000
863.85	346.154
864.15	276.471
864.44	216.667
864.74	325.000
865.03	327.273
865.33	425.000
865.62	220.000
865.92	616.667
866.21	700.000
866.51	600.000
866.80	227.778
867.10	833.333
867.39	3300.000
867.69	800.000
867.98	875.000
868.27	161.905
868.57	293.333
868.86	625.000
869.16	104.762
869.45	2800.000
869.75	-466.667
870.04	675.000
870.33	800.000
870.63	400.000
870.92	200.000
871.22	850.000
871.51	542.857
871.80	375.000
872.10	300.000
>>>>>End Processed Spectral Data<<<<<
