SpectraSuite Data File
++++++++++++++++++++++++++++++++++++
Date: Tue May 12 15:34:54 PDT 2015
User: schluterlab
Dark Spectrum Present: Yes
Reference Spectrum Present: Yes
Number of Sampled Component Spectra: 1
Spectrometers: USB2E3373
Integration Time (usec): 3000 (USB2E3373)
Spectra Averaged: 3 (USB2E3373)
Boxcar Smoothing: 0 (USB2E3373)
Correct for Electrical Dark: No (USB2E3373)
Strobe/Lamp Enabled: No (USB2E3373)
Correct for Detector Non-linearity: No (USB2E3373)
Correct for Stray Light: No (USB2E3373)
Number of Pixels in Processed Spectrum: 2048
>>>>>Begin Processed Spectral Data<<<<<
178.53	0.000
178.91	-200.000
179.29	-725.000
179.67	-4100.000
180.04	-173.333
180.42	625.000
180.80	1600.000
181.18	0.000
181.56	-325.000
181.94	0.000
182.31	1266.667
182.69	-3600.000
183.07	585.714
183.45	-3500.000
183.83	-1550.000
184.20	370.000
184.58	457.143
184.96	-276.923
185.34	-275.000
185.72	1700.000
186.09	-850.000
186.47	-3200.000
186.85	1000.000
187.23	640.000
187.61	1650.000
187.98	487.500
188.36	278.571
188.74	316.667
189.12	316.667
189.49	900.000
189.87	0.000
190.25	425.000
190.63	3100.000
191.00	-300.000
191.38	-4600.000
191.76	-850.000
192.14	575.000
192.51	-2800.000
192.89	2100.000
193.27	1100.000
193.65	-800.000
194.02	-700.000
194.40	571.429
194.78	-278.571
195.15	306.667
195.53	-2900.000
195.91	-660.000
196.29	4000.000
196.66	225.000
197.04	975.000
197.42	-1750.000
197.79	675.000
198.17	308.333
198.55	0.000
198.92	585.714
199.30	1066.667
199.68	2200.000
200.05	550.000
200.43	-433.333
200.81	238.889
201.18	3400.000
201.56	375.000
201.94	-800.000
202.31	-350.000
202.69	-540.000
203.07	2900.000
203.44	-433.333
203.82	275.000
204.19	720.000
204.57	-1150.000
204.95	-575.000
205.32	-620.000
205.70	433.333
206.08	675.000
206.45	-900.000
206.83	444.444
207.20	200.000
207.58	300.000
207.96	900.000
208.33	0.000
208.71	557.143
209.08	700.000
209.46	-2600.000
209.84	-675.000
210.21	920.000
210.59	-540.000
210.96	325.000
211.34	-850.000
211.71	436.364
212.09	700.000
212.46	1950.000
212.84	-533.333
213.22	388.889
213.59	-2800.000
213.97	400.000
214.34	1100.000
214.72	1333.333
215.09	1000.000
215.47	-2900.000
215.84	-300.000
216.22	-462.500
216.59	0.000
216.97	0.000
217.34	1700.000
217.72	-1400.000
218.09	1100.000
218.47	525.000
218.84	850.000
219.22	1333.333
219.59	933.333
219.97	414.286
220.34	366.667
220.72	1500.000
221.09	3500.000
221.47	283.333
221.84	933.333
222.22	300.000
222.59	238.889
222.97	271.429
223.34	212.500
223.72	-1500.000
224.09	1333.333
224.46	253.846
224.84	-850.000
225.21	444.444
225.59	273.333
225.96	1366.667
226.34	-740.000
226.71	-700.000
227.08	-680.000
227.46	0.000
227.83	-600.000
228.21	-2050.000
228.58	375.000
228.95	900.000
229.33	333.333
229.70	950.000
230.08	269.231
230.45	3400.000
230.82	-975.000
231.20	-800.000
231.57	-1000.000
231.95	620.000
232.32	291.667
232.69	450.000
233.07	308.333
233.44	-1600.000
233.81	273.333
234.19	155.556
234.56	237.500
234.93	158.824
235.31	175.000
235.68	256.250
236.05	157.143
236.43	133.333
236.80	178.571
237.17	141.379
237.55	106.250
237.92	95.000
238.29	115.152
238.67	100.000
239.04	85.366
239.41	64.583
239.79	85.000
240.16	43.750
240.53	45.902
240.91	50.725
241.28	76.271
241.65	50.000
242.02	63.380
242.40	55.714
242.77	37.363
243.14	20.253
243.51	40.404
243.89	35.514
244.26	40.187
244.63	33.663
245.00	25.688
245.38	27.966
245.75	25.758
246.12	32.593
246.49	25.532
246.87	14.754
247.24	27.333
247.61	29.375
247.98	22.449
248.36	19.394
248.73	25.000
249.10	17.262
249.47	15.000
249.84	18.905
250.22	15.135
250.59	16.500
250.96	13.080
251.33	15.349
251.70	15.625
252.08	17.647
252.45	12.749
252.82	15.589
253.19	13.043
253.56	12.308
253.94	13.768
254.31	10.465
254.68	16.028
255.05	13.103
255.42	14.964
255.79	10.749
256.16	10.508
256.54	13.961
256.91	12.745
257.28	10.368
257.65	9.404
258.02	13.274
258.39	12.894
258.76	11.304
259.14	7.714
259.51	9.913
259.88	12.462
260.25	5.495
260.62	10.411
260.99	8.815
261.36	8.357
261.73	13.298
262.10	12.565
262.47	9.250
262.85	7.200
263.22	9.769
263.59	10.230
263.96	11.779
264.33	8.148
264.70	11.548
265.07	8.537
265.44	8.716
265.81	9.198
266.18	10.069
266.55	5.201
266.92	9.172
267.29	9.430
267.66	7.623
268.03	8.744
268.40	8.879
268.77	9.471
269.14	7.809
269.51	7.127
269.88	7.959
270.25	4.104
270.62	6.652
270.99	10.142
271.36	8.537
271.73	5.870
272.10	6.263
272.47	6.944
272.84	7.585
273.21	7.231
273.58	9.312
273.95	6.982
274.32	7.393
274.69	9.252
275.06	8.379
275.43	6.897
275.80	6.415
276.17	7.904
276.54	9.346
276.91	9.328
277.28	6.934
277.65	6.273
278.02	8.272
278.39	5.216
278.76	7.586
279.13	8.007
279.50	8.182
279.87	5.773
280.23	4.972
280.60	4.380
280.97	5.172
281.34	6.766
281.71	8.348
282.08	6.838
282.45	5.912
282.82	7.525
283.19	6.836
283.56	6.942
283.92	5.700
284.29	7.155
284.66	4.202
285.03	6.633
285.40	7.273
285.77	5.710
286.14	7.585
286.51	6.595
286.87	3.481
287.24	5.105
287.61	5.471
287.98	7.463
288.35	5.481
288.72	5.615
289.08	4.955
289.45	7.165
289.82	5.625
290.19	4.246
290.56	8.151
290.93	5.899
291.29	5.525
291.66	6.497
292.03	5.189
292.40	6.504
292.77	5.850
293.13	6.990
293.50	4.723
293.87	5.285
294.24	5.035
294.60	6.460
294.97	6.434
295.34	5.843
295.71	6.439
296.08	5.200
296.44	5.464
296.81	4.963
297.18	4.436
297.55	5.911
297.91	5.419
298.28	6.280
298.65	5.767
299.02	5.549
299.38	6.235
299.75	4.390
300.12	5.390
300.48	5.621
300.85	5.006
301.22	6.512
301.59	4.245
301.95	5.484
302.32	5.588
302.69	6.448
303.05	6.173
303.42	5.717
303.79	4.984
304.15	4.620
304.52	4.228
304.89	5.864
305.25	5.673
305.62	5.757
305.99	4.348
306.35	4.842
306.72	5.099
307.09	5.797
307.45	4.857
307.82	4.115
308.19	5.052
308.55	5.600
308.92	6.183
309.29	5.819
309.65	5.253
310.02	5.071
310.38	5.683
310.75	5.497
311.12	4.023
311.48	6.371
311.85	4.676
312.22	6.686
312.58	5.734
312.95	6.699
313.31	6.273
313.68	5.629
314.05	6.685
314.41	5.121
314.78	5.019
315.14	6.540
315.51	6.339
315.87	5.201
316.24	6.816
316.61	6.088
316.97	5.321
317.34	6.199
317.70	5.180
318.07	6.673
318.43	6.766
318.80	6.743
319.16	6.731
319.53	6.372
319.89	4.839
320.26	7.449
320.62	6.319
320.99	5.529
321.35	6.679
321.72	6.167
322.08	6.371
322.45	6.449
322.81	5.306
323.18	7.105
323.54	7.143
323.91	7.616
324.27	5.924
324.64	6.401
325.00	6.897
325.37	6.155
325.73	5.818
326.10	7.374
326.46	6.276
326.83	6.160
327.19	6.586
327.56	5.990
327.92	7.869
328.29	8.101
328.65	7.363
329.01	6.416
329.38	7.530
329.74	6.405
330.11	6.777
330.47	6.053
330.84	5.522
331.20	7.783
331.56	7.340
331.93	7.613
332.29	6.973
332.66	6.378
333.02	7.216
333.38	6.370
333.75	7.339
334.11	6.963
334.48	6.496
334.84	6.419
335.20	6.843
335.57	7.305
335.93	7.065
336.29	6.468
336.66	6.775
337.02	6.416
337.38	7.223
337.75	7.179
338.11	6.835
338.47	6.859
338.84	6.351
339.20	5.368
339.56	7.065
339.93	5.686
340.29	6.134
340.65	7.125
341.02	7.241
341.38	6.404
341.74	5.814
342.11	5.509
342.47	5.250
342.83	6.973
343.20	5.901
343.56	5.957
343.92	5.945
344.28	6.619
344.65	5.623
345.01	6.190
345.37	5.449
345.73	5.476
346.10	5.817
346.46	5.742
346.82	5.633
347.19	6.955
347.55	5.855
347.91	5.363
348.27	5.267
348.63	6.171
349.00	6.321
349.36	5.136
349.72	5.963
350.08	6.599
350.45	5.636
350.81	6.651
351.17	5.162
351.53	5.312
351.89	6.216
352.26	5.215
352.62	6.486
352.98	5.982
353.34	6.163
353.70	5.046
354.07	6.308
354.43	5.837
354.79	5.163
355.15	5.360
355.51	5.891
355.87	5.723
356.24	5.543
356.60	6.240
356.96	5.080
357.32	6.104
357.68	6.681
358.04	5.851
358.40	6.297
358.77	6.011
359.13	5.030
359.49	6.227
359.85	5.138
360.21	4.681
360.57	5.547
360.93	5.195
361.29	5.772
361.66	6.935
362.02	5.682
362.38	5.556
362.74	6.016
363.10	6.101
363.46	5.387
363.82	6.802
364.18	5.832
364.54	5.794
364.90	5.823
365.26	6.246
365.62	4.834
365.98	5.506
366.35	4.828
366.71	6.037
367.07	5.870
367.43	5.977
367.79	6.649
368.15	4.885
368.51	6.134
368.87	5.231
369.23	5.267
369.59	5.866
369.95	5.385
370.31	5.065
370.67	5.690
371.03	5.882
371.39	6.233
371.75	5.443
372.11	5.642
372.47	5.822
372.83	5.167
373.19	6.169
373.55	6.529
373.91	5.870
374.27	5.622
374.63	6.305
374.99	5.526
375.35	5.712
375.71	6.530
376.07	5.703
376.42	5.691
376.78	6.294
377.14	5.832
377.50	6.367
377.86	5.381
378.22	5.302
378.58	6.538
378.94	6.337
379.30	5.822
379.66	6.081
380.02	6.569
380.38	5.328
380.74	6.632
381.09	6.250
381.45	5.607
381.81	5.674
382.17	5.372
382.53	5.759
382.89	5.973
383.25	6.157
383.61	6.167
383.97	5.879
384.32	5.787
384.68	6.952
385.04	6.624
385.40	6.643
385.76	5.851
386.12	5.875
386.48	5.532
386.83	6.663
387.19	6.302
387.55	6.360
387.91	6.524
388.27	6.127
388.62	5.927
388.98	5.773
389.34	6.484
389.70	5.896
390.06	6.220
390.42	6.663
390.77	6.818
391.13	6.457
391.49	6.655
391.85	6.892
392.20	6.436
392.56	7.348
392.92	6.008
393.28	6.278
393.64	5.562
393.99	6.343
394.35	6.062
394.71	6.031
395.07	6.144
395.42	6.030
395.78	6.724
396.14	6.807
396.50	6.017
396.85	6.463
397.21	6.438
397.57	6.216
397.92	5.604
398.28	5.736
398.64	6.806
399.00	5.986
399.35	6.119
399.71	6.071
400.07	5.765
400.42	5.134
400.78	6.158
401.14	5.931
401.49	5.991
401.85	6.547
402.21	6.034
402.57	6.044
402.92	6.061
403.28	5.847
403.63	6.416
403.99	6.996
404.35	6.682
404.70	6.320
405.06	6.345
405.42	5.805
405.77	6.615
406.13	5.803
406.49	5.742
406.84	5.979
407.20	6.164
407.55	6.338
407.91	7.020
408.27	6.367
408.62	6.919
408.98	5.736
409.34	5.669
409.69	5.849
410.05	5.784
410.40	5.124
410.76	5.381
411.11	5.746
411.47	6.420
411.83	5.390
412.18	5.193
412.54	5.946
412.89	5.782
413.25	7.412
413.60	6.075
413.96	5.865
414.31	5.844
414.67	6.704
415.03	6.003
415.38	6.246
415.74	5.559
416.09	6.371
416.45	6.852
416.80	6.928
417.16	5.729
417.51	6.879
417.87	6.008
418.22	6.440
418.58	5.796
418.93	6.187
419.29	5.484
419.64	5.815
420.00	6.981
420.35	5.923
420.71	5.951
421.06	5.180
421.42	6.102
421.77	5.275
422.12	5.733
422.48	6.009
422.83	5.525
423.19	4.806
423.54	5.760
423.90	6.172
424.25	5.394
424.61	5.862
424.96	5.477
425.31	5.583
425.67	6.004
426.02	6.057
426.38	5.484
426.73	6.651
427.09	5.694
427.44	5.008
427.79	5.146
428.15	6.070
428.50	6.514
428.85	5.938
429.21	5.402
429.56	5.234
429.92	6.365
430.27	5.515
430.62	4.993
430.98	5.439
431.33	4.536
431.68	5.037
432.04	5.070
432.39	5.818
432.74	5.796
433.10	5.648
433.45	5.342
433.80	6.067
434.16	5.360
434.51	5.934
434.86	6.042
435.22	5.186
435.57	5.513
435.92	5.976
436.28	6.106
436.63	5.889
436.98	5.011
437.34	6.164
437.69	5.151
438.04	5.860
438.39	5.429
438.75	6.459
439.10	5.505
439.45	6.331
439.81	6.015
440.16	5.724
440.51	5.856
440.86	6.382
441.22	5.682
441.57	5.617
441.92	5.577
442.27	5.258
442.63	5.539
442.98	5.496
443.33	5.731
443.68	6.841
444.03	5.042
444.39	5.226
444.74	5.642
445.09	6.266
445.44	5.685
445.79	5.166
446.15	5.579
446.50	5.591
446.85	6.026
447.20	5.224
447.55	5.655
447.91	6.180
448.26	5.911
448.61	5.417
448.96	5.828
449.31	5.556
449.66	6.700
450.02	5.078
450.37	5.997
450.72	6.006
451.07	6.166
451.42	5.572
451.77	6.300
452.12	6.239
452.47	6.075
452.83	6.366
453.18	6.907
453.53	5.980
453.88	6.286
454.23	6.217
454.58	6.410
454.93	5.334
455.28	6.120
455.63	6.324
455.98	6.430
456.34	6.809
456.69	5.732
457.04	6.683
457.39	5.886
457.74	5.968
458.09	5.446
458.44	6.024
458.79	6.207
459.14	5.237
459.49	5.663
459.84	6.033
460.19	6.328
460.54	6.211
460.89	6.130
461.24	5.956
461.59	6.009
461.94	6.560
462.29	5.721
462.64	6.847
462.99	6.142
463.34	6.805
463.69	7.018
464.04	6.621
464.39	6.239
464.74	5.041
465.09	6.326
465.44	6.039
465.79	5.988
466.14	5.564
466.49	6.131
466.84	6.132
467.19	6.678
467.54	6.126
467.89	6.279
468.24	6.312
468.59	6.845
468.94	5.918
469.29	6.170
469.64	7.010
469.99	6.427
470.34	6.705
470.68	6.621
471.03	6.671
471.38	5.960
471.73	6.140
472.08	6.588
472.43	6.021
472.78	6.722
473.13	6.133
473.48	6.051
473.83	5.889
474.17	6.079
474.52	6.102
474.87	6.083
475.22	6.225
475.57	5.929
475.92	5.774
476.27	5.441
476.61	5.523
476.96	6.531
477.31	6.221
477.66	6.334
478.01	6.343
478.36	5.870
478.70	5.658
479.05	5.387
479.40	5.804
479.75	6.405
480.10	5.566
480.45	5.649
480.79	5.576
481.14	5.516
481.49	5.215
481.84	5.849
482.19	5.284
482.53	5.753
482.88	5.556
483.23	5.503
483.58	5.745
483.92	5.713
484.27	5.479
484.62	5.136
484.97	5.765
485.31	4.813
485.66	4.982
486.01	4.743
486.36	4.490
486.70	4.291
487.05	4.629
487.40	4.843
487.75	5.083
488.09	5.199
488.44	4.971
488.79	4.964
489.13	5.562
489.48	5.913
489.83	5.088
490.17	5.244
490.52	5.426
490.87	6.121
491.22	5.940
491.56	6.148
491.91	5.511
492.26	5.969
492.60	5.467
492.95	5.483
493.30	5.414
493.64	5.571
493.99	5.546
494.34	5.468
494.68	5.710
495.03	5.568
495.37	5.898
495.72	5.874
496.07	5.930
496.41	5.647
496.76	5.783
497.11	5.955
497.45	6.006
497.80	5.468
498.14	5.687
498.49	6.128
498.84	5.374
499.18	5.439
499.53	5.650
499.87	5.121
500.22	5.389
500.56	5.292
500.91	6.401
501.26	5.926
501.60	5.556
501.95	5.376
502.29	6.133
502.64	5.249
502.98	4.936
503.33	5.434
503.67	5.607
504.02	5.508
504.36	5.475
504.71	5.629
505.06	6.147
505.40	5.896
505.75	5.426
506.09	6.486
506.44	5.874
506.78	6.002
507.13	5.332
507.47	5.580
507.82	5.985
508.16	5.781
508.51	5.459
508.85	5.935
509.19	6.118
509.54	6.299
509.88	5.917
510.23	5.980
510.57	5.792
510.92	5.644
511.26	5.522
511.61	5.810
511.95	6.222
512.30	5.900
512.64	5.867
512.98	5.946
513.33	6.096
513.67	6.732
514.02	5.818
514.36	5.919
514.70	5.653
515.05	5.754
515.39	5.702
515.74	5.796
516.08	6.209
516.42	5.738
516.77	5.653
517.11	5.813
517.46	5.765
517.80	5.680
518.14	6.141
518.49	6.229
518.83	5.989
519.17	5.435
519.52	6.499
519.86	5.831
520.20	6.849
520.55	5.144
520.89	5.862
521.23	6.192
521.58	5.795
521.92	6.414
522.26	5.806
522.61	6.655
522.95	6.306
523.29	5.906
523.64	6.243
523.98	6.103
524.32	5.998
524.66	6.377
525.01	5.562
525.35	6.128
525.69	5.719
526.04	7.139
526.38	6.062
526.72	6.265
527.06	6.032
527.41	6.832
527.75	6.452
528.09	6.141
528.43	5.796
528.78	6.380
529.12	6.683
529.46	6.078
529.80	6.192
530.15	6.836
530.49	5.596
530.83	6.094
531.17	6.089
531.51	5.947
531.86	5.857
532.20	6.304
532.54	5.964
532.88	5.809
533.22	6.459
533.57	5.918
533.91	5.769
534.25	5.770
534.59	6.550
534.93	6.314
535.27	5.407
535.62	6.068
535.96	5.437
536.30	6.947
536.64	5.217
536.98	6.419
537.32	6.688
537.66	5.676
538.01	6.811
538.35	5.864
538.69	6.371
539.03	6.219
539.37	6.371
539.71	6.481
540.05	6.462
540.39	6.981
540.73	6.392
541.07	5.960
541.42	5.908
541.76	6.042
542.10	6.473
542.44	6.421
542.78	5.286
543.12	6.074
543.46	5.576
543.80	6.015
544.14	6.687
544.48	5.900
544.82	6.544
545.16	5.222
545.50	6.392
545.84	7.765
546.18	5.852
546.52	6.164
546.86	6.447
547.20	5.620
547.54	6.396
547.88	5.900
548.22	6.193
548.56	6.011
548.90	6.702
549.24	6.191
549.58	6.379
549.92	5.828
550.26	6.153
550.60	6.720
550.94	6.649
551.28	6.414
551.62	6.690
551.96	6.081
552.30	5.076
552.64	6.084
552.98	5.219
553.32	5.634
553.66	5.342
554.00	5.663
554.34	6.192
554.68	6.116
555.02	6.653
555.36	6.184
555.69	5.759
556.03	6.688
556.37	5.864
556.71	6.845
557.05	5.439
557.39	6.333
557.73	7.008
558.07	6.170
558.41	5.757
558.75	6.977
559.08	5.861
559.42	6.013
559.76	5.346
560.10	5.988
560.44	6.105
560.78	6.905
561.12	5.976
561.45	5.695
561.79	5.556
562.13	5.749
562.47	5.970
562.81	5.856
563.15	5.624
563.48	5.528
563.82	6.737
564.16	6.157
564.50	5.787
564.84	5.897
565.17	5.942
565.51	5.727
565.85	6.046
566.19	6.012
566.52	4.994
566.86	6.013
567.20	6.180
567.54	5.022
567.88	6.521
568.21	5.242
568.55	5.447
568.89	5.657
569.23	5.436
569.56	5.351
569.90	5.390
570.24	4.770
570.57	4.867
570.91	4.524
571.25	4.686
571.59	4.399
571.92	4.467
572.26	3.908
572.60	4.415
572.93	4.687
573.27	4.854
573.61	4.142
573.95	4.059
574.28	4.532
574.62	4.285
574.96	4.069
575.29	4.211
575.63	4.052
575.97	3.968
576.30	4.024
576.64	4.208
576.98	4.179
577.31	4.479
577.65	4.227
577.98	3.848
578.32	4.186
578.66	4.121
578.99	4.237
579.33	4.330
579.67	3.923
580.00	4.082
580.34	3.867
580.67	4.206
581.01	4.279
581.35	3.975
581.68	3.906
582.02	3.918
582.35	3.831
582.69	3.883
583.02	3.989
583.36	4.366
583.70	4.404
584.03	4.350
584.37	4.341
584.70	4.504
585.04	3.950
585.37	4.080
585.71	4.270
586.04	4.160
586.38	3.878
586.72	4.453
587.05	4.529
587.39	3.869
587.72	4.440
588.06	4.271
588.39	4.708
588.73	4.250
589.06	4.348
589.40	4.601
589.73	4.720
590.07	5.010
590.40	4.808
590.73	4.884
591.07	5.275
591.40	4.790
591.74	4.748
592.07	4.534
592.41	5.036
592.74	4.321
593.08	4.232
593.41	4.099
593.75	4.041
594.08	4.496
594.41	4.399
594.75	4.486
595.08	4.390
595.42	5.036
595.75	5.035
596.09	4.901
596.42	4.698
596.75	4.567
597.09	4.622
597.42	4.735
597.75	4.665
598.09	4.514
598.42	4.733
598.76	4.549
599.09	5.112
599.42	4.498
599.76	4.953
600.09	4.814
600.42	4.178
600.76	4.113
601.09	4.246
601.42	4.681
601.76	4.296
602.09	4.673
602.42	4.806
602.76	4.592
603.09	4.713
603.42	4.624
603.76	4.049
604.09	4.669
604.42	4.369
604.76	4.820
605.09	4.939
605.42	4.592
605.75	4.461
606.09	4.782
606.42	4.434
606.75	4.858
607.09	4.659
607.42	4.419
607.75	4.578
608.08	4.752
608.42	4.908
608.75	4.193
609.08	3.960
609.41	4.636
609.75	5.037
610.08	4.496
610.41	5.051
610.74	4.935
611.07	5.321
611.41	5.005
611.74	4.446
612.07	4.432
612.40	4.825
612.73	5.092
613.07	5.423
613.40	4.912
613.73	4.643
614.06	4.150
614.39	4.798
614.72	5.324
615.06	4.599
615.39	5.248
615.72	4.937
616.05	4.621
616.38	5.023
616.71	4.883
617.05	4.613
617.38	4.775
617.71	4.893
618.04	5.496
618.37	5.058
618.70	4.561
619.03	4.945
619.36	5.339
619.69	4.354
620.03	6.132
620.36	4.881
620.69	6.258
621.02	5.571
621.35	5.731
621.68	5.900
622.01	6.125
622.34	5.171
622.67	5.969
623.00	5.718
623.33	5.466
623.66	5.323
623.99	5.068
624.32	4.743
624.65	5.464
624.99	4.733
625.32	5.478
625.65	4.690
625.98	6.067
626.31	6.083
626.64	5.239
626.97	5.356
627.30	5.668
627.63	6.279
627.96	5.399
628.29	5.611
628.62	5.646
628.95	5.585
629.28	6.836
629.61	5.712
629.94	6.223
630.26	6.586
630.59	7.358
630.92	5.202
631.25	7.888
631.58	6.750
631.91	5.804
632.24	6.706
632.57	5.599
632.90	6.729
633.23	7.135
633.56	6.744
633.89	7.181
634.22	6.459
634.55	6.989
634.88	7.996
635.20	6.839
635.53	6.736
635.86	6.823
636.19	8.642
636.52	6.703
636.85	5.717
637.18	7.259
637.51	6.034
637.83	6.522
638.16	8.324
638.49	7.784
638.82	8.216
639.15	6.463
639.48	8.175
639.81	6.838
640.13	7.239
640.46	6.574
640.79	7.932
641.12	6.168
641.45	8.409
641.77	7.530
642.10	6.693
642.43	8.108
642.76	8.097
643.09	7.205
643.41	9.818
643.74	8.921
644.07	7.522
644.40	6.805
644.73	8.108
645.05	8.618
645.38	9.188
645.71	9.105
646.04	8.550
646.36	9.233
646.69	7.360
647.02	8.160
647.35	6.142
647.67	7.618
648.00	7.329
648.33	9.173
648.66	9.242
648.98	8.406
649.31	7.557
649.64	6.501
649.96	6.970
650.29	6.714
650.62	8.689
650.94	9.940
651.27	9.091
651.60	8.138
651.92	9.063
652.25	8.346
652.58	8.369
652.90	9.132
653.23	7.681
653.56	9.050
653.88	6.902
654.21	7.918
654.54	8.346
654.86	8.850
655.19	8.179
655.52	6.218
655.84	3.001
656.17	3.250
656.49	4.549
656.82	5.296
657.15	4.233
657.47	3.215
657.80	2.402
658.13	1.993
658.45	2.949
658.78	3.583
659.10	3.646
659.43	3.755
659.75	4.032
660.08	4.449
660.41	6.624
660.73	7.403
661.06	9.459
661.38	8.688
661.71	8.813
662.03	6.654
662.36	9.524
662.68	9.125
663.01	10.270
663.33	9.245
663.66	8.481
663.98	10.119
664.31	9.701
664.63	9.004
664.96	11.069
665.28	8.475
665.61	7.736
665.93	8.113
666.26	9.720
666.58	11.560
666.91	10.618
667.23	9.639
667.56	8.214
667.88	10.166
668.21	11.475
668.53	7.863
668.86	11.423
669.18	9.572
669.50	8.058
669.83	10.267
670.15	8.524
670.48	8.398
670.80	8.367
671.13	9.363
671.45	11.623
671.77	10.761
672.10	7.899
672.42	8.224
672.75	8.070
673.07	9.380
673.39	7.029
673.72	8.824
674.04	8.423
674.37	8.711
674.69	10.223
675.01	8.209
675.34	6.008
675.66	9.766
675.98	10.454
676.31	5.400
676.63	6.759
676.95	11.508
677.28	9.128
677.60	10.060
677.92	7.341
678.25	9.302
678.57	8.566
678.89	9.946
679.22	8.640
679.54	10.320
679.86	8.377
680.18	7.733
680.51	5.141
680.83	6.926
681.15	7.972
681.48	10.417
681.80	8.757
682.12	10.554
682.44	10.270
682.77	9.431
683.09	11.262
683.41	9.388
683.73	9.646
684.06	10.516
684.38	9.690
684.70	7.374
685.02	6.424
685.34	8.627
685.67	9.486
685.99	6.897
686.31	8.783
686.63	7.317
686.96	9.641
687.28	7.550
687.60	7.509
687.92	7.705
688.24	10.172
688.56	9.431
688.89	8.413
689.21	10.212
689.53	10.672
689.85	9.350
690.17	8.738
690.49	10.081
690.82	9.244
691.14	9.495
691.46	10.472
691.78	10.526
692.10	6.489
692.42	9.437
692.74	11.240
693.06	10.853
693.39	9.091
693.71	9.430
694.03	9.467
694.35	13.454
694.67	9.980
694.99	10.421
695.31	12.162
695.63	7.466
695.95	11.538
696.27	12.389
696.59	10.024
696.91	9.367
697.23	10.633
697.56	7.469
697.88	5.589
698.20	9.434
698.52	9.533
698.84	12.115
699.16	13.220
699.48	12.076
699.80	11.547
700.12	9.238
700.44	9.346
700.76	12.888
701.08	10.444
701.40	12.468
701.72	13.636
702.04	13.279
702.36	11.828
702.68	13.564
703.00	7.769
703.32	12.655
703.64	13.098
703.96	8.333
704.28	9.788
704.60	7.042
704.91	10.924
705.23	13.636
705.55	13.947
705.87	10.794
706.19	15.361
706.51	15.674
706.83	13.274
707.15	13.369
707.47	12.107
707.79	12.874
708.11	9.977
708.43	8.090
708.74	11.312
709.06	12.093
709.38	11.663
709.70	8.992
710.02	13.587
710.34	12.155
710.66	13.889
710.98	13.661
711.29	15.877
711.61	12.535
711.93	13.070
712.25	12.048
712.57	13.505
712.89	13.939
713.20	14.058
713.52	12.773
713.84	12.387
714.16	9.565
714.48	10.086
714.80	11.382
715.11	12.234
715.43	11.453
715.75	12.394
716.07	10.116
716.39	14.000
716.70	11.526
717.02	14.478
717.34	15.468
717.66	17.361
717.97	17.424
718.29	14.085
718.61	13.514
718.93	12.111
719.24	14.430
719.56	11.724
719.88	13.376
720.20	12.581
720.51	18.627
720.83	15.050
721.15	14.286
721.46	15.411
721.78	13.937
722.10	14.583
722.42	16.722
722.73	14.801
723.05	17.544
723.37	14.488
723.68	11.719
724.00	17.803
724.32	17.490
724.63	16.154
724.95	14.510
725.27	13.755
725.58	15.074
725.90	10.211
726.22	11.986
726.53	14.047
726.85	15.309
727.16	17.114
727.48	12.957
727.80	16.547
728.11	15.000
728.43	11.232
728.74	15.734
729.06	8.602
729.38	15.789
729.69	17.667
730.01	14.803
730.32	12.752
730.64	14.286
730.96	15.616
731.27	8.563
731.59	11.207
731.90	12.256
732.22	11.143
732.53	11.396
732.85	15.789
733.16	13.253
733.48	14.107
733.80	14.493
734.11	17.178
734.43	9.649
734.74	12.332
735.06	14.021
735.37	13.660
735.69	9.275
736.00	14.985
736.32	10.606
736.63	8.202
736.95	15.839
737.26	14.024
737.58	12.270
737.89	16.566
738.21	9.934
738.52	12.375
738.83	18.681
739.15	16.376
739.46	14.828
739.78	17.007
740.09	15.160
740.41	13.804
740.72	17.143
741.04	17.133
741.35	15.625
741.66	16.601
741.98	15.021
742.29	14.352
742.61	18.142
742.92	12.712
743.23	16.800
743.55	18.113
743.86	16.078
744.18	15.254
744.49	22.727
744.80	16.590
745.12	18.750
745.43	14.953
745.74	15.556
746.06	15.789
746.37	13.953
746.68	19.912
747.00	21.973
747.31	13.866
747.62	15.984
747.94	18.884
748.25	14.397
748.56	19.915
748.88	17.857
749.19	18.140
749.50	14.612
749.82	21.811
750.13	18.577
750.44	17.000
750.75	14.094
751.07	14.145
751.38	15.182
751.69	11.785
752.01	15.385
752.32	9.967
752.63	15.101
752.94	11.538
753.26	8.984
753.57	17.121
753.88	14.607
754.19	14.079
754.51	16.611
754.82	15.101
755.13	13.851
755.44	15.556
755.75	15.120
756.07	12.671
756.38	13.072
756.69	10.312
757.00	14.540
757.31	15.211
757.63	12.948
757.94	9.840
758.25	10.628
758.56	12.586
758.87	13.534
759.18	13.663
759.50	13.374
759.81	12.166
760.12	13.764
760.43	10.084
760.74	11.899
761.05	12.202
761.36	10.417
761.67	15.364
761.99	13.803
762.30	11.897
762.61	11.458
762.92	17.045
763.23	19.245
763.54	13.846
763.85	12.840
764.16	17.361
764.47	16.892
764.78	12.378
765.10	12.805
765.41	12.500
765.72	11.878
766.03	12.689
766.34	11.150
766.65	14.068
766.96	17.814
767.27	21.963
767.58	21.782
767.89	26.519
768.20	25.000
768.51	18.878
768.82	20.614
769.13	17.255
769.44	18.045
769.75	14.607
770.06	16.807
770.37	19.298
770.68	14.222
770.99	17.373
771.30	21.339
771.61	18.846
771.92	16.031
772.23	10.081
772.54	21.778
772.85	23.267
773.16	17.391
773.47	17.222
773.78	20.297
774.09	22.159
774.39	21.818
774.70	16.471
775.01	18.421
775.32	21.739
775.63	24.658
775.94	33.951
776.25	24.828
776.56	25.954
776.87	26.718
777.18	20.455
777.48	38.583
777.79	27.692
778.10	25.000
778.41	36.567
778.72	21.053
779.03	23.718
779.34	32.432
779.65	30.435
779.95	25.466
780.26	22.619
780.57	28.571
780.88	26.950
781.19	25.833
781.50	29.586
781.80	23.497
782.11	25.926
782.42	17.241
782.73	25.424
783.04	21.935
783.34	26.357
783.65	19.728
783.96	21.935
784.27	18.543
784.57	19.079
784.88	31.159
785.19	25.833
785.50	31.034
785.81	36.434
786.11	29.630
786.42	30.709
786.73	33.333
787.04	24.528
787.34	29.268
787.65	28.030
787.96	28.788
788.26	29.921
788.57	42.336
788.88	28.169
789.19	29.771
789.49	25.676
789.80	30.469
790.11	28.926
790.41	28.704
790.72	20.370
791.03	34.615
791.33	45.455
791.64	31.579
791.95	35.789
792.25	35.417
792.56	30.000
792.87	28.049
793.17	43.182
793.48	40.000
793.79	39.080
794.09	32.955
794.40	39.655
794.70	33.333
795.01	25.385
795.32	34.351
795.62	28.205
795.93	33.613
796.23	34.959
796.54	39.796
796.85	42.045
797.15	61.039
797.46	57.317
797.76	43.750
798.07	45.333
798.37	55.000
798.68	47.500
798.99	42.683
799.29	30.667
799.60	32.558
799.90	48.684
800.21	51.515
800.51	52.113
800.82	58.621
801.12	67.692
801.43	50.667
801.73	56.897
802.04	57.143
802.34	52.055
802.65	78.431
802.95	76.087
803.26	61.290
803.56	66.667
803.87	53.731
804.17	55.556
804.48	37.736
804.78	45.833
805.09	53.030
805.39	58.730
805.70	57.895
806.00	47.143
806.30	50.000
806.61	42.353
806.91	53.333
807.22	42.391
807.52	46.053
807.83	53.947
808.13	53.623
808.43	61.290
808.74	36.986
809.04	30.357
809.35	58.824
809.65	53.030
809.95	72.549
810.26	87.037
810.56	90.625
810.86	75.510
811.17	71.930
811.47	80.435
811.77	46.552
812.08	51.724
812.38	54.762
812.69	83.333
812.99	86.667
813.29	114.286
813.59	93.548
813.90	53.448
814.20	63.934
814.50	54.000
814.81	54.386
815.11	72.222
815.41	82.143
815.72	67.857
816.02	68.000
816.32	92.683
816.62	84.483
816.93	75.758
817.23	75.610
817.53	64.286
817.84	77.778
818.14	90.476
818.44	81.250
818.74	88.679
819.04	84.615
819.35	90.909
819.65	80.769
819.95	100.000
820.25	80.851
820.56	97.297
820.86	94.737
821.16	68.085
821.46	89.474
821.76	100.000
822.07	64.286
822.37	71.053
822.67	79.070
822.97	73.684
823.27	63.043
823.57	93.750
823.88	87.179
824.18	96.970
824.48	121.739
824.78	102.778
825.08	143.478
825.38	137.931
825.69	97.059
825.99	87.234
826.29	72.222
826.59	71.429
826.89	130.000
827.19	65.714
827.49	112.903
827.79	107.692
828.09	83.333
828.39	86.111
828.70	108.108
829.00	153.571
829.30	156.250
829.60	100.000
829.90	109.677
830.20	75.758
830.50	116.216
830.80	141.667
831.10	111.538
831.40	133.333
831.70	170.833
832.00	130.000
832.30	104.348
832.60	129.167
832.90	127.273
833.20	220.000
833.50	142.105
833.80	111.765
834.10	92.105
834.40	184.211
834.70	116.667
835.00	124.000
835.30	75.676
835.60	106.250
835.90	102.703
836.20	138.462
836.50	104.545
836.80	90.244
837.10	108.696
837.40	223.077
837.70	189.474
838.00	126.667
838.30	150.000
838.60	124.000
838.90	360.000
839.19	206.250
839.49	136.667
839.79	113.793
840.09	126.923
840.39	166.667
840.69	168.421
840.99	142.857
841.29	165.217
841.59	195.000
841.88	196.000
842.18	300.000
842.48	110.714
842.78	125.926
843.08	215.385
843.38	190.909
843.68	242.857
843.97	328.571
844.27	152.174
844.57	1600.000
844.87	271.429
845.17	166.667
845.47	85.714
845.76	179.167
846.06	485.714
846.36	188.235
846.66	207.692
846.96	231.250
847.25	169.231
847.55	142.105
847.85	200.000
848.15	460.000
848.44	254.545
848.74	161.905
849.04	158.333
849.34	152.941
849.63	250.000
849.93	187.500
850.23	1066.667
850.53	400.000
850.82	263.636
851.12	164.706
851.42	166.667
851.71	268.750
852.01	0.000
852.31	152.941
852.61	350.000
852.90	104.167
853.20	300.000
853.50	-1200.000
853.79	152.000
854.09	103.125
854.39	120.690
854.68	134.483
854.98	171.429
855.28	138.710
855.57	250.000
855.87	155.556
856.17	107.407
856.46	157.895
856.76	158.065
857.05	223.529
857.35	290.909
857.65	253.846
857.94	160.000
858.24	400.000
858.53	257.143
858.83	542.857
859.13	173.913
859.42	355.556
859.72	450.000
860.01	175.000
860.31	650.000
860.60	330.000
860.90	400.000
861.20	192.308
861.49	300.000
861.79	-1700.000
862.08	457.143
862.38	400.000
862.67	221.429
862.97	410.000
863.26	133.333
863.56	675.000
863.85	353.846
864.15	264.706
864.44	238.889
864.74	391.667
865.03	318.182
865.33	312.500
865.62	153.333
865.92	566.667
866.21	825.000
866.51	540.000
866.80	205.556
867.10	1000.000
867.39	4000.000
867.69	620.000
867.98	900.000
868.27	166.667
868.57	240.000
868.86	850.000
869.16	171.429
869.45	3100.000
869.75	-450.000
870.04	1025.000
870.33	600.000
870.63	362.500
870.92	200.000
871.22	875.000
871.51	385.714
871.80	341.667
872.10	315.385
>>>>>End Processed Spectral Data<<<<<
