SpectraSuite Data File
++++++++++++++++++++++++++++++++++++
Date: Tue May 12 16:55:50 PDT 2015
User: schluterlab
Dark Spectrum Present: Yes
Reference Spectrum Present: Yes
Number of Sampled Component Spectra: 1
Spectrometers: USB2E3373
Integration Time (usec): 3000 (USB2E3373)
Spectra Averaged: 3 (USB2E3373)
Boxcar Smoothing: 0 (USB2E3373)
Correct for Electrical Dark: No (USB2E3373)
Strobe/Lamp Enabled: No (USB2E3373)
Correct for Detector Non-linearity: No (USB2E3373)
Correct for Stray Light: No (USB2E3373)
Number of Pixels in Processed Spectrum: 2048
>>>>>Begin Processed Spectral Data<<<<<
178.53	0.000
178.91	-183.333
179.29	-925.000
179.67	-3000.000
180.04	-133.333
180.42	525.000
180.80	800.000
181.18	0.000
181.56	-200.000
181.94	0.000
182.31	933.333
182.69	-3300.000
183.07	614.286
183.45	-3600.000
183.83	-1600.000
184.20	380.000
184.58	471.429
184.96	-223.077
185.34	-191.667
185.72	2050.000
186.09	-725.000
186.47	-2200.000
186.85	933.333
187.23	640.000
187.61	1400.000
187.98	437.500
188.36	278.571
188.74	391.667
189.12	391.667
189.49	650.000
189.87	0.000
190.25	387.500
190.63	2200.000
191.00	-216.667
191.38	-2600.000
191.76	-425.000
192.14	600.000
192.51	-3100.000
192.89	1900.000
193.27	966.667
193.65	-900.000
194.02	-680.000
194.40	400.000
194.78	-185.714
195.15	300.000
195.53	-2900.000
195.91	-460.000
196.29	3900.000
196.66	275.000
197.04	825.000
197.42	-1850.000
197.79	750.000
198.17	300.000
198.55	0.000
198.92	428.571
199.30	1000.000
199.68	1350.000
200.05	650.000
200.43	-433.333
200.81	205.556
201.18	3200.000
201.56	275.000
201.94	-775.000
202.31	-225.000
202.69	-380.000
203.07	2800.000
203.44	-400.000
203.82	283.333
204.19	620.000
204.57	-1150.000
204.95	-775.000
205.32	-700.000
205.70	650.000
206.08	825.000
206.45	-1100.000
206.83	544.444
207.20	226.316
207.58	325.000
207.96	720.000
208.33	0.000
208.71	485.714
209.08	460.000
209.46	-3300.000
209.84	-650.000
210.21	720.000
210.59	-440.000
210.96	325.000
211.34	-725.000
211.71	327.273
212.09	1050.000
212.46	1900.000
212.84	-450.000
213.22	433.333
213.59	-3000.000
213.97	290.000
214.34	775.000
214.72	1233.333
215.09	966.667
215.47	-3900.000
215.84	-260.000
216.22	-375.000
216.59	0.000
216.97	0.000
217.34	1350.000
217.72	-2050.000
218.09	1133.333
218.47	437.500
218.84	750.000
219.22	1033.333
219.59	833.333
219.97	500.000
220.34	377.778
220.72	1650.000
221.09	2300.000
221.47	225.000
221.84	1033.333
222.22	390.000
222.59	216.667
222.97	228.571
223.34	256.250
223.72	-1750.000
224.09	1100.000
224.46	253.846
224.84	-875.000
225.21	344.444
225.59	266.667
225.96	1000.000
226.34	-660.000
226.71	-600.000
227.08	-520.000
227.46	0.000
227.83	-566.667
228.21	-1850.000
228.58	308.333
228.95	950.000
229.33	388.889
229.70	1025.000
230.08	392.308
230.45	3900.000
230.82	-1125.000
231.20	-700.000
231.57	-1000.000
231.95	620.000
232.32	275.000
232.69	550.000
233.07	300.000
233.44	-1750.000
233.81	246.667
234.19	144.444
234.56	231.250
234.93	223.529
235.31	255.000
235.68	287.500
236.05	153.571
236.43	148.148
236.80	285.714
237.17	168.966
237.55	106.250
237.92	135.000
238.29	139.394
238.67	171.875
239.04	102.439
239.41	112.500
239.79	80.000
240.16	95.833
240.53	90.164
240.91	73.913
241.28	89.831
241.65	72.727
242.02	83.099
242.40	104.286
242.77	73.626
243.14	72.152
243.51	79.798
243.89	71.028
244.26	65.421
244.63	60.396
245.00	62.385
245.38	63.559
245.75	74.242
246.12	70.370
246.49	65.248
246.87	56.557
247.24	59.333
247.61	63.750
247.98	60.544
248.36	60.606
248.73	60.714
249.10	57.738
249.47	49.500
249.84	52.239
250.22	61.622
250.59	54.500
250.96	52.743
251.33	54.884
251.70	52.679
252.08	52.101
252.45	51.793
252.82	52.091
253.19	45.850
253.56	51.538
253.94	48.913
254.31	52.713
254.68	51.568
255.05	52.759
255.42	51.825
255.79	50.163
256.16	50.847
256.54	50.325
256.91	51.961
257.28	51.839
257.65	48.276
258.02	49.853
258.39	46.132
258.76	52.754
259.14	44.857
259.51	49.271
259.88	49.848
260.25	43.132
260.62	46.027
260.99	46.006
261.36	45.961
261.73	46.277
262.10	47.382
262.47	46.500
262.85	45.600
263.22	46.530
263.59	46.803
263.96	46.867
264.33	48.148
264.70	49.877
265.07	46.341
265.44	46.789
265.81	47.170
266.18	46.682
266.55	49.882
266.92	45.638
267.29	45.614
267.66	46.861
268.03	44.395
268.40	42.495
268.77	46.035
269.14	45.119
269.51	43.653
269.88	48.776
270.25	44.060
270.62	45.279
270.99	48.276
271.36	44.512
271.73	46.751
272.10	45.051
272.47	44.841
272.84	43.313
273.21	46.901
273.58	43.927
273.95	44.969
274.32	42.412
274.69	44.882
275.06	42.441
275.43	44.061
275.80	43.396
276.17	40.809
276.54	45.047
276.91	44.776
277.28	43.248
277.65	42.989
278.02	43.015
278.39	42.446
278.76	42.069
279.13	43.060
279.50	43.636
279.87	42.644
280.23	42.910
280.60	43.796
280.97	43.448
281.34	42.574
281.71	43.130
282.08	42.051
282.45	43.243
282.82	39.967
283.19	41.653
283.56	40.661
283.92	43.485
284.29	41.930
284.66	39.832
285.03	41.294
285.40	40.165
285.77	41.512
286.14	41.486
286.51	38.957
286.87	38.924
287.24	37.237
287.61	39.514
287.98	40.896
288.35	40.593
288.72	38.240
289.08	38.889
289.45	40.854
289.82	39.219
290.19	38.360
290.56	40.611
290.93	37.698
291.29	39.088
291.66	37.429
292.03	38.149
292.40	35.908
292.77	36.351
293.13	36.947
293.50	36.032
293.87	34.417
294.24	38.182
294.60	37.550
294.97	37.343
295.34	35.325
295.71	35.348
296.08	35.467
296.44	36.976
296.81	35.360
297.18	35.361
297.55	36.576
297.91	31.773
298.28	36.715
298.65	34.969
299.02	34.138
299.38	34.772
299.75	34.390
300.12	34.518
300.48	35.948
300.85	36.830
301.22	35.000
301.59	35.495
301.95	35.006
302.32	34.575
302.69	34.729
303.05	35.915
303.42	34.529
303.79	35.428
304.15	35.204
304.52	35.729
304.89	34.648
305.25	34.594
305.62	36.034
305.99	35.652
306.35	36.632
306.72	35.588
307.09	35.714
307.45	36.325
307.82	35.185
308.19	36.186
308.55	34.800
308.92	36.703
309.29	35.700
309.65	36.174
310.02	37.728
310.38	35.992
310.75	35.198
311.12	36.207
311.48	38.417
311.85	36.069
312.22	37.249
312.58	38.192
312.95	38.544
313.31	38.390
313.68	37.617
314.05	38.004
314.41	37.896
314.78	40.530
315.14	40.284
315.51	40.965
315.87	39.416
316.24	40.616
316.61	41.629
316.97	39.358
317.34	41.869
317.70	41.528
318.07	44.306
318.43	42.531
318.80	42.207
319.16	40.909
319.53	42.035
319.89	43.280
320.26	46.369
320.62	44.139
320.99	45.949
321.35	44.249
321.72	47.913
322.08	46.537
322.45	45.958
322.81	46.478
323.18	47.691
323.54	47.125
323.91	49.320
324.27	48.718
324.64	48.270
325.00	49.569
325.37	49.663
325.73	49.325
326.10	49.627
326.46	50.454
326.83	49.520
327.19	51.647
327.56	49.201
327.92	53.115
328.29	52.537
328.65	52.140
329.01	51.839
329.38	52.961
329.74	52.007
330.11	53.345
330.47	52.430
330.84	51.424
331.20	52.200
331.56	53.109
331.93	53.208
332.29	52.211
332.66	53.912
333.02	51.375
333.38	53.054
333.75	52.961
334.11	52.349
334.48	53.590
334.84	52.196
335.20	53.978
335.57	52.813
335.93	52.817
336.29	51.161
336.66	53.945
337.02	53.636
337.38	52.623
337.75	51.689
338.11	52.827
338.47	52.159
338.84	51.397
339.20	50.823
339.56	51.135
339.93	51.421
340.29	50.252
340.65	50.964
341.02	50.684
341.38	52.053
341.74	52.658
342.11	52.337
342.47	51.600
342.83	51.846
343.20	52.061
343.56	50.119
343.92	52.271
344.28	50.797
344.65	51.834
345.01	50.714
345.37	50.240
345.73	51.746
346.10	51.952
346.46	51.276
346.82	52.238
347.19	51.314
347.55	51.288
347.91	49.698
348.27	49.961
348.63	51.424
349.00	51.714
349.36	50.817
349.72	50.306
350.08	52.873
350.45	51.257
350.81	51.147
351.17	50.847
351.53	50.962
351.89	49.806
352.26	51.247
352.62	52.187
352.98	51.074
353.34	51.849
353.70	50.535
354.07	52.385
354.43	51.229
354.79	49.658
355.15	50.766
355.51	50.831
355.87	51.958
356.24	51.270
356.60	50.761
356.96	52.161
357.32	51.997
357.68	51.322
358.04	51.292
358.40	50.300
358.77	50.864
359.13	50.676
359.49	50.852
359.85	51.154
360.21	51.412
360.57	51.314
360.93	51.010
361.29	49.784
361.66	51.752
362.02	50.284
362.38	52.092
362.74	51.451
363.10	51.964
363.46	50.414
363.82	51.403
364.18	51.351
364.54	51.931
364.90	50.469
365.26	51.561
365.62	50.622
365.98	50.723
366.35	50.966
366.71	52.464
367.07	51.058
367.43	52.116
367.79	51.463
368.15	50.475
368.51	51.344
368.87	51.834
369.23	52.044
369.59	51.450
369.95	52.168
370.31	50.719
370.67	51.908
371.03	50.840
371.39	51.801
371.75	51.919
372.11	51.937
372.47	52.192
372.83	52.753
373.19	52.228
373.55	51.890
373.91	52.279
374.27	50.066
374.63	51.864
374.99	52.291
375.35	51.478
375.71	52.177
376.07	53.249
376.42	50.575
376.78	52.344
377.14	52.687
377.50	52.497
377.86	54.965
378.22	53.260
378.58	52.542
378.94	51.841
379.30	53.851
379.66	52.619
380.02	53.548
380.38	53.220
380.74	53.230
381.09	54.089
381.45	52.775
381.81	53.960
382.17	52.625
382.53	53.629
382.89	54.169
383.25	53.819
383.61	52.104
383.97	54.409
384.32	54.129
384.68	54.724
385.04	53.986
385.40	53.855
385.76	52.311
386.12	55.349
386.48	55.198
386.83	53.912
387.19	55.300
387.55	54.064
387.91	54.734
388.27	55.324
388.62	53.404
388.98	53.878
389.34	53.183
389.70	53.066
390.06	55.671
390.42	55.336
390.77	53.808
391.13	53.289
391.49	53.660
391.85	54.215
392.20	54.410
392.56	54.839
392.92	53.958
393.28	54.260
393.64	54.186
393.99	53.705
394.35	52.855
394.71	53.197
395.07	53.954
395.42	55.386
395.78	56.076
396.14	54.759
396.50	55.235
396.85	54.695
397.21	54.693
397.57	54.393
397.92	55.055
398.28	54.054
398.64	54.276
399.00	52.646
399.35	52.979
399.71	52.980
400.07	53.596
400.42	54.090
400.78	53.431
401.14	53.494
401.49	53.341
401.85	54.867
402.21	53.720
402.57	55.057
402.92	53.333
403.28	52.685
403.63	53.149
403.99	53.498
404.35	54.045
404.70	55.227
405.06	52.779
405.42	54.039
405.77	53.914
406.13	53.471
406.49	51.961
406.84	52.453
407.20	53.425
407.55	52.554
407.91	54.116
408.27	54.518
408.62	53.341
408.98	53.282
409.34	52.835
409.69	53.080
410.05	53.250
410.40	53.298
410.76	51.975
411.11	53.258
411.47	52.407
411.83	52.724
412.18	52.415
412.54	53.514
412.89	52.212
413.25	53.991
413.60	53.213
413.96	53.441
414.31	52.479
414.67	54.190
415.03	53.193
415.38	53.754
415.74	53.443
416.09	52.780
416.45	54.751
416.80	52.854
417.16	52.769
417.51	53.057
417.87	53.379
418.22	53.767
418.58	54.140
418.93	54.194
419.29	52.372
419.64	53.362
420.00	52.566
420.35	52.555
420.71	53.442
421.06	53.620
421.42	51.410
421.77	53.970
422.12	52.701
422.48	51.515
422.83	52.567
423.19	52.862
423.54	52.441
423.90	53.681
424.25	53.825
424.61	53.047
424.96	53.755
425.31	53.695
425.67	53.928
426.02	53.281
426.38	51.517
426.73	53.441
427.09	54.982
427.44	52.504
427.79	54.145
428.15	55.510
428.50	53.771
428.85	53.792
429.21	53.214
429.56	52.991
429.92	53.506
430.27	52.395
430.62	52.472
430.98	53.593
431.33	52.772
431.68	52.198
432.04	53.026
432.39	53.568
432.74	53.806
433.10	53.045
433.45	54.681
433.80	55.709
434.16	52.759
434.51	52.786
434.86	53.402
435.22	53.809
435.57	54.475
435.92	54.582
436.28	54.666
436.63	52.998
436.98	54.673
437.34	54.224
437.69	53.080
438.04	53.495
438.39	54.466
438.75	54.454
439.10	53.913
439.45	54.381
439.81	53.730
440.16	54.981
440.51	54.054
440.86	54.872
441.22	53.680
441.57	54.698
441.92	53.258
442.27	53.918
442.63	54.319
442.98	53.718
443.33	53.723
443.68	53.018
444.03	53.959
444.39	53.814
444.74	54.503
445.09	54.239
445.44	53.666
445.79	54.971
446.15	53.842
446.50	53.745
446.85	55.129
447.20	53.333
447.55	52.964
447.91	54.076
448.26	53.781
448.61	54.671
448.96	54.902
449.31	55.886
449.66	54.319
450.02	54.133
450.37	55.192
450.72	54.545
451.07	53.578
451.42	54.416
451.77	54.868
452.12	53.715
452.47	54.557
452.83	55.775
453.18	55.195
453.53	55.417
453.88	55.429
454.23	54.852
454.58	55.070
454.93	54.874
455.28	55.202
455.63	55.910
455.98	53.976
456.34	55.319
456.69	54.878
457.04	54.057
457.39	54.171
457.74	55.180
458.09	54.239
458.44	55.038
458.79	55.013
459.14	53.737
459.49	54.247
459.84	55.652
460.19	54.802
460.54	53.732
460.89	54.744
461.24	53.093
461.59	54.932
461.94	54.492
462.29	53.204
462.64	54.899
462.99	55.086
463.34	53.402
463.69	55.838
464.04	55.671
464.39	53.864
464.74	53.693
465.09	54.092
465.44	53.373
465.79	54.491
466.14	53.418
466.49	54.151
466.84	53.122
467.19	53.486
467.54	53.514
467.89	54.401
468.24	53.793
468.59	53.690
468.94	55.193
469.29	54.856
469.64	54.791
469.99	53.663
470.34	54.269
470.68	54.621
471.03	54.303
471.38	54.503
471.73	54.866
472.08	56.034
472.43	54.624
472.78	55.570
473.13	52.628
473.48	53.240
473.83	54.240
474.17	55.198
474.52	53.436
474.87	52.700
475.22	52.827
475.57	53.463
475.92	52.632
476.27	52.231
476.61	52.922
476.96	53.239
477.31	54.396
477.66	54.214
478.01	53.120
478.36	53.038
478.70	52.159
479.05	53.138
479.40	52.530
479.75	53.029
480.10	52.759
480.45	52.894
480.79	52.028
481.14	53.352
481.49	51.967
481.84	51.935
482.19	51.659
482.53	51.954
482.88	51.837
483.23	51.240
483.58	53.187
483.92	53.291
484.27	51.199
484.62	52.716
484.97	51.461
485.31	50.331
485.66	49.367
486.01	48.605
486.36	48.299
486.70	47.740
487.05	48.183
487.40	48.433
487.75	50.130
488.09	49.773
488.44	49.841
488.79	49.323
489.13	50.131
489.48	51.059
489.83	50.751
490.17	50.454
490.52	51.766
490.87	51.164
491.22	51.729
491.56	51.954
491.91	51.389
492.26	51.180
492.60	51.754
492.95	51.382
493.30	50.864
493.64	51.617
493.99	50.984
494.34	51.726
494.68	51.571
495.03	51.100
495.37	51.013
495.72	50.862
496.07	50.809
496.41	50.738
496.76	50.401
497.11	50.086
497.45	50.197
497.80	51.529
498.14	50.624
498.49	49.907
498.84	50.981
499.18	49.680
499.53	50.299
499.87	49.641
500.22	50.576
500.56	51.532
500.91	50.325
501.26	50.574
501.60	50.228
501.95	50.134
502.29	50.533
502.64	49.537
502.98	48.644
503.33	50.557
503.67	50.331
504.02	48.231
504.36	49.955
504.71	50.851
505.06	49.601
505.40	50.491
505.75	49.766
506.09	49.883
506.44	50.564
506.78	51.276
507.13	50.848
507.47	50.898
507.82	51.338
508.16	51.788
508.51	49.710
508.85	49.098
509.19	50.416
509.54	50.146
509.88	51.069
510.23	50.049
510.57	48.552
510.92	50.799
511.26	50.552
511.61	49.581
511.95	49.577
512.30	49.350
512.64	50.415
512.98	49.718
513.33	50.461
513.67	49.767
514.02	50.234
514.36	50.000
514.70	49.813
515.05	50.506
515.39	50.987
515.74	50.301
516.08	50.545
516.42	51.421
516.77	48.427
517.11	50.453
517.46	50.108
517.80	50.519
518.14	52.056
518.49	49.449
518.83	49.615
519.17	49.362
519.52	51.775
519.86	49.973
520.20	50.247
520.55	50.820
520.89	50.977
521.23	50.526
521.58	51.807
521.92	49.446
522.26	50.533
522.61	51.396
522.95	51.051
523.29	50.643
523.64	48.439
523.98	50.293
524.32	49.020
524.66	47.942
525.01	49.704
525.35	50.324
525.69	50.331
526.04	49.970
526.38	49.794
526.72	49.881
527.06	48.669
527.41	50.665
527.75	50.700
528.09	50.572
528.43	49.359
528.78	50.566
529.12	49.910
529.46	48.977
529.80	48.715
530.15	49.676
530.49	48.436
530.83	49.299
531.17	49.385
531.51	49.785
531.86	49.094
532.20	49.753
532.54	48.462
532.88	49.656
533.22	48.812
533.57	49.054
533.91	47.669
534.25	47.721
534.59	49.064
534.93	46.758
535.27	47.069
535.62	47.608
535.96	47.104
536.30	48.080
536.64	48.075
536.98	47.766
537.32	48.250
537.66	47.577
538.01	46.749
538.35	48.347
538.69	46.966
539.03	47.326
539.37	47.209
539.71	48.025
540.05	47.323
540.39	47.421
540.73	46.709
541.07	47.616
541.42	46.704
541.76	47.349
542.10	46.671
542.44	46.571
542.78	46.822
543.12	44.847
543.46	46.992
543.80	47.306
544.14	46.502
544.48	45.316
544.82	47.339
545.16	46.812
545.50	45.790
545.84	46.023
546.18	48.765
546.52	47.148
546.86	46.228
547.20	46.705
547.54	46.422
547.88	45.742
548.22	45.719
548.56	44.844
548.90	44.365
549.24	45.736
549.58	45.296
549.92	46.496
550.26	46.450
550.60	45.908
550.94	47.151
551.28	46.552
551.62	49.241
551.96	45.541
552.30	45.814
552.64	46.537
552.98	45.425
553.32	44.302
553.66	46.254
554.00	44.208
554.34	46.205
554.68	45.901
555.02	46.096
555.36	45.678
555.69	46.335
556.03	44.968
556.37	44.933
556.71	46.023
557.05	45.020
557.39	46.000
557.73	46.024
558.07	44.199
558.41	45.511
558.75	46.238
559.08	46.748
559.42	46.385
559.76	46.258
560.10	43.909
560.44	44.725
560.78	45.077
561.12	44.565
561.45	44.431
561.79	43.321
562.13	43.462
562.47	45.165
562.81	44.567
563.15	44.796
563.48	42.981
563.82	45.290
564.16	44.403
564.50	43.460
564.84	44.498
565.17	43.018
565.51	44.520
565.85	44.540
566.19	44.107
566.52	42.780
566.86	44.250
567.20	44.213
567.54	44.105
567.88	43.662
568.21	42.237
568.55	42.461
568.89	42.108
569.23	41.199
569.56	41.494
569.90	40.460
570.24	40.818
570.57	39.779
570.91	40.156
571.25	39.324
571.59	38.889
571.92	39.128
572.26	38.437
572.60	38.545
572.93	38.729
573.27	39.144
573.61	39.226
573.95	38.546
574.28	39.239
574.62	37.587
574.96	37.545
575.29	37.242
575.63	37.314
575.97	37.123
576.30	37.256
576.64	37.923
576.98	38.008
577.31	38.096
577.65	37.630
577.98	37.522
578.32	36.681
578.66	37.170
578.99	37.613
579.33	38.318
579.67	37.364
580.00	37.560
580.34	37.215
580.67	37.025
581.01	37.503
581.35	37.507
581.68	36.817
582.02	36.362
582.35	36.323
582.69	37.123
583.02	36.744
583.36	37.292
583.70	37.192
584.03	37.982
584.37	37.961
584.70	37.372
585.04	37.164
585.37	36.993
585.71	37.438
586.04	36.627
586.38	36.916
586.72	37.014
587.05	37.288
587.39	37.193
587.72	38.034
588.06	37.696
588.39	37.973
588.73	37.810
589.06	38.167
589.40	38.185
589.73	37.496
590.07	39.087
590.40	38.571
590.73	40.029
591.07	39.241
591.40	38.723
591.74	38.839
592.07	38.020
592.41	39.049
592.74	37.825
593.08	37.272
593.41	37.193
593.75	36.515
594.08	37.204
594.41	36.918
594.75	36.884
595.08	37.346
595.42	37.393
595.75	36.986
596.09	37.782
596.42	37.546
596.75	38.221
597.09	38.589
597.42	37.469
597.75	37.972
598.09	37.915
598.42	36.965
598.76	36.006
599.09	37.587
599.42	36.955
599.76	36.431
600.09	36.034
600.42	37.569
600.76	36.506
601.09	37.038
601.42	36.888
601.76	36.663
602.09	37.270
602.42	37.006
602.76	36.319
603.09	36.878
603.42	37.138
603.76	36.768
604.09	36.301
604.42	36.460
604.76	37.337
605.09	37.469
605.42	36.896
605.75	36.992
606.09	37.720
606.42	35.776
606.75	37.466
607.09	36.913
607.42	36.802
607.75	36.982
608.08	37.165
608.42	36.577
608.75	36.072
609.08	36.692
609.41	37.818
609.75	37.179
610.08	37.050
610.41	36.847
610.74	37.446
611.07	37.381
611.41	37.905
611.74	36.807
612.07	36.320
612.40	37.086
612.73	37.394
613.07	37.101
613.40	38.045
613.73	37.644
614.06	36.750
614.39	37.626
614.72	37.217
615.06	36.647
615.39	36.535
615.72	36.592
616.05	37.418
616.38	36.936
616.71	36.842
617.05	37.617
617.38	37.022
617.71	37.683
618.04	37.914
618.37	37.410
618.70	37.818
619.03	37.363
619.36	38.505
619.69	37.929
620.03	39.530
620.36	38.022
620.69	38.761
621.02	38.859
621.35	37.034
621.68	39.159
622.01	38.007
622.34	38.529
622.67	38.764
623.00	38.734
623.33	38.731
623.66	37.325
623.99	39.178
624.32	38.144
624.65	37.788
624.99	38.878
625.32	38.477
625.65	37.379
625.98	36.960
626.31	38.798
626.64	38.800
626.97	37.184
627.30	37.966
627.63	39.953
627.96	38.732
628.29	39.274
628.62	39.435
628.95	39.805
629.28	40.228
629.61	38.928
629.94	38.894
630.26	38.821
630.59	39.894
630.92	37.758
631.25	38.622
631.58	40.791
631.91	38.154
632.24	39.650
632.57	39.096
632.90	41.097
633.23	40.923
633.56	40.042
633.89	40.622
634.22	40.581
634.55	40.538
634.88	40.635
635.20	42.040
635.53	41.347
635.86	42.953
636.19	39.731
636.52	38.703
636.85	40.345
637.18	40.845
637.51	40.447
637.83	39.931
638.16	41.970
638.49	41.317
638.82	40.728
639.15	37.955
639.48	39.810
639.81	40.171
640.13	40.613
640.46	39.949
640.79	41.352
641.12	39.501
641.45	41.527
641.77	42.801
642.10	40.964
642.43	43.670
642.76	40.341
643.09	41.499
643.41	41.094
643.74	44.460
644.07	42.920
644.40	42.456
644.73	44.444
645.05	44.279
645.38	41.348
645.71	39.302
646.04	42.443
646.36	43.505
646.69	42.080
647.02	43.200
647.35	40.787
647.67	42.301
648.00	43.811
648.33	41.504
648.66	42.424
648.98	38.841
649.31	39.406
649.64	39.004
649.96	40.683
650.29	39.571
650.62	42.563
650.94	43.675
651.27	44.179
651.60	41.002
651.92	39.785
652.25	41.260
652.58	39.433
652.90	40.120
653.23	40.916
653.56	39.021
653.88	41.410
654.21	41.349
654.54	38.067
654.86	39.676
655.19	38.391
655.52	34.242
655.84	29.198
656.17	34.066
656.49	48.396
656.82	54.587
657.15	43.327
657.47	32.440
657.80	24.682
658.13	19.484
658.45	26.475
658.78	31.849
659.10	32.200
659.43	32.723
659.75	33.918
660.08	35.464
660.41	36.842
660.73	39.021
661.06	39.790
661.38	42.078
661.71	41.367
662.03	41.255
662.36	42.286
662.68	42.458
663.01	40.721
663.33	39.434
663.66	42.801
663.98	40.675
664.31	42.537
664.63	44.636
664.96	43.715
665.28	39.925
665.61	40.000
665.93	40.755
666.26	42.430
666.58	40.917
666.91	40.347
667.23	39.558
667.56	42.300
667.88	43.361
668.21	44.057
668.53	42.742
668.86	42.886
669.18	42.566
669.50	38.223
669.83	41.889
670.15	40.956
670.48	39.844
670.80	41.036
671.13	42.829
671.45	41.683
671.77	40.631
672.10	42.549
672.42	39.638
672.75	39.557
673.07	38.792
673.39	38.019
673.72	40.657
674.04	37.814
674.37	38.657
674.69	41.450
675.01	39.366
675.34	39.341
675.66	42.188
675.98	40.828
676.31	42.600
676.63	40.557
676.95	41.667
677.28	38.742
677.60	39.235
677.92	38.095
678.25	39.922
678.57	40.037
678.89	41.772
679.22	37.868
679.54	39.680
679.86	38.394
680.18	39.192
680.51	36.650
680.83	38.514
681.15	38.821
681.48	40.799
681.80	37.828
682.12	37.716
682.44	38.018
682.77	40.214
683.09	37.476
683.41	39.388
683.73	42.323
684.06	40.278
684.38	40.504
684.70	36.871
685.02	35.764
685.34	40.141
685.67	39.068
685.99	36.453
686.31	36.980
686.63	38.211
686.96	38.562
687.28	37.248
687.60	36.007
687.92	37.186
688.24	36.207
688.56	38.790
688.89	37.476
689.21	37.958
689.53	37.549
689.85	37.805
690.17	35.728
690.49	38.508
690.82	38.866
691.14	38.586
691.46	40.041
691.78	38.402
692.10	38.550
692.42	36.479
692.74	37.016
693.06	39.535
693.39	38.340
693.71	37.525
694.03	40.434
694.35	41.365
694.67	39.308
694.99	39.911
695.31	39.189
695.63	40.271
695.95	41.176
696.27	41.814
696.59	40.573
696.91	37.975
697.23	40.045
697.56	36.307
697.88	33.134
698.20	39.245
698.52	35.019
698.84	36.756
699.16	36.674
699.48	38.559
699.80	39.434
700.12	39.261
700.44	40.421
700.76	38.425
701.08	40.731
701.40	39.481
701.72	41.979
702.04	42.005
702.36	41.935
702.68	41.489
703.00	37.594
703.32	39.206
703.64	37.531
703.96	42.448
704.28	41.270
704.60	42.535
704.91	42.297
705.23	41.477
705.55	40.653
705.87	44.762
706.19	44.828
706.51	45.455
706.83	41.593
707.15	39.305
707.47	42.131
707.79	40.460
708.11	36.508
708.43	40.000
708.74	37.104
709.06	37.907
709.38	39.950
709.70	37.057
710.02	39.402
710.34	39.503
710.66	43.889
710.98	41.530
711.29	40.111
711.61	40.390
711.93	41.945
712.25	43.675
712.57	42.765
712.89	43.636
713.20	44.728
713.52	42.679
713.84	42.598
714.16	37.681
714.48	34.582
714.80	40.921
715.11	37.766
715.43	37.151
715.75	38.592
716.07	39.595
716.39	37.714
716.70	42.368
717.02	40.741
717.34	43.525
717.66	43.403
717.97	47.727
718.29	42.254
718.61	41.216
718.93	44.637
719.24	43.960
719.56	41.379
719.88	41.083
720.20	40.323
720.51	39.542
720.83	41.806
721.15	42.177
721.46	40.411
721.78	41.463
722.10	42.014
722.42	43.813
722.73	41.877
723.05	38.246
723.37	46.643
723.68	37.500
724.00	43.561
724.32	44.487
724.63	46.154
724.95	43.529
725.27	42.379
725.58	41.176
725.90	42.606
726.22	41.096
726.53	39.799
726.85	43.974
727.16	40.604
727.48	39.203
727.80	42.086
728.11	43.214
728.43	41.667
728.74	41.259
729.06	36.559
729.38	43.509
729.69	44.000
730.01	41.776
730.32	38.591
730.64	41.860
730.96	40.240
731.27	35.168
731.59	36.494
731.90	39.833
732.22	40.857
732.53	37.322
732.85	40.936
733.16	35.241
733.48	37.618
733.80	44.058
734.11	39.877
734.43	38.596
734.74	38.606
735.06	41.799
735.37	36.856
735.69	36.522
736.00	41.284
736.32	35.758
736.63	38.170
736.95	39.130
737.26	35.976
737.58	39.571
737.89	37.651
738.21	38.742
738.52	39.799
738.83	42.125
739.15	41.115
739.46	35.172
739.78	38.776
740.09	40.525
740.41	39.264
740.72	39.048
741.04	40.559
741.35	41.797
741.66	40.316
741.98	44.206
742.29	47.685
742.61	41.150
742.92	38.983
743.23	36.400
743.55	43.396
743.86	41.961
744.18	41.949
744.49	41.322
744.80	41.935
745.12	39.732
745.43	50.467
745.74	41.778
746.06	44.298
746.37	51.628
746.68	48.673
747.00	45.740
747.31	44.958
747.62	40.984
747.94	46.352
748.25	33.463
748.56	41.525
748.88	47.768
749.19	43.721
749.50	39.726
749.82	42.387
750.13	39.526
750.44	39.000
750.75	40.268
751.07	39.803
751.38	38.944
751.69	35.690
752.01	42.657
752.32	38.870
752.63	42.953
752.94	39.510
753.26	44.141
753.57	40.856
753.88	41.199
754.19	39.711
754.51	39.867
754.82	36.913
755.13	39.865
755.44	39.259
755.75	43.986
756.07	41.438
756.38	35.621
756.69	38.750
757.00	40.356
757.31	39.155
757.63	37.466
757.94	34.840
758.25	38.164
758.56	35.927
758.87	39.098
759.18	37.500
759.50	39.514
759.81	34.421
760.12	39.045
760.43	36.695
760.74	37.468
761.05	35.013
761.36	32.292
761.67	35.310
761.99	38.028
762.30	36.334
762.61	37.153
762.92	38.258
763.23	39.245
763.54	36.538
763.85	36.965
764.16	38.889
764.47	38.851
764.78	38.111
765.10	34.756
765.41	37.500
765.72	33.702
766.03	35.347
766.34	40.070
766.65	41.065
766.96	46.964
767.27	45.327
767.58	50.990
767.89	46.961
768.20	56.707
768.51	44.898
768.82	43.860
769.13	39.216
769.44	38.346
769.75	36.330
770.06	41.597
770.37	39.912
770.68	37.333
770.99	44.915
771.30	41.841
771.61	36.923
771.92	38.931
772.23	41.532
772.54	44.444
772.85	50.990
773.16	44.565
773.47	46.111
773.78	42.079
774.09	45.455
774.39	47.273
774.70	45.882
775.01	40.132
775.32	51.553
775.63	56.849
775.94	50.617
776.25	52.414
776.56	52.672
776.87	53.435
777.18	55.303
777.48	56.693
777.79	51.538
778.10	54.545
778.41	55.224
778.72	45.865
779.03	42.949
779.34	44.595
779.65	49.068
779.95	45.963
780.26	44.643
780.57	57.143
780.88	51.064
781.19	54.167
781.50	53.846
781.80	44.262
782.11	46.561
782.42	44.253
782.73	42.373
783.04	40.000
783.34	44.186
783.65	41.497
783.96	49.677
784.27	46.358
784.57	46.053
784.88	47.826
785.19	52.500
785.50	55.172
785.81	63.566
786.11	42.222
786.42	48.031
786.73	54.955
787.04	56.604
787.34	50.407
787.65	54.545
787.96	52.273
788.26	62.205
788.57	54.745
788.88	54.225
789.19	44.275
789.49	52.027
789.80	45.313
790.11	55.372
790.41	47.222
790.72	54.630
791.03	62.500
791.33	57.576
791.64	55.789
791.95	54.737
792.25	52.083
792.56	60.000
792.87	69.512
793.17	70.455
793.48	58.824
793.79	66.667
794.09	63.636
794.40	62.069
794.70	51.587
795.01	54.615
795.32	45.802
795.62	57.265
795.93	58.824
796.23	47.154
796.54	62.245
796.85	68.182
797.15	64.935
797.46	64.634
797.76	66.250
798.07	73.333
798.37	65.000
798.68	62.500
798.99	69.512
799.29	68.000
799.60	63.953
799.90	75.000
800.21	84.848
800.51	66.197
800.82	82.759
801.12	70.769
801.43	81.333
801.73	55.172
802.04	70.130
802.34	75.342
802.65	96.078
802.95	76.087
803.26	93.548
803.56	83.333
803.87	85.075
804.17	85.714
804.48	88.679
804.78	66.667
805.09	72.727
805.39	85.714
805.70	94.737
806.00	77.143
806.30	70.312
806.61	65.882
806.91	65.556
807.22	57.609
807.52	60.526
807.83	75.000
808.13	72.464
808.43	88.710
808.74	54.795
809.04	83.929
809.35	76.471
809.65	90.909
809.95	86.275
810.26	92.593
810.56	79.688
810.86	91.837
811.17	96.491
811.47	110.870
811.77	82.759
812.08	79.310
812.38	88.095
812.69	92.857
812.99	93.333
813.29	108.571
813.59	119.355
813.90	82.759
814.20	90.164
814.50	84.000
814.81	64.912
815.11	103.704
815.41	87.500
815.72	108.929
816.02	102.000
816.32	95.122
816.62	86.207
816.93	90.909
817.23	107.317
817.53	98.214
817.84	86.667
818.14	116.667
818.44	106.250
818.74	107.547
819.04	100.000
819.35	127.273
819.65	123.077
819.95	109.259
820.25	95.745
820.56	121.622
820.86	94.737
821.16	87.234
821.46	105.263
821.76	81.818
822.07	52.381
822.37	118.421
822.67	97.674
822.97	76.316
823.27	102.174
823.57	150.000
823.88	92.308
824.18	127.273
824.48	126.087
824.78	116.667
825.08	147.826
825.38	131.034
825.69	88.235
825.99	102.128
826.29	91.667
826.59	111.429
826.89	153.333
827.19	108.571
827.49	129.032
827.79	150.000
828.09	107.143
828.39	138.889
828.70	78.378
829.00	157.143
829.30	168.750
829.60	102.778
829.90	129.032
830.20	127.273
830.50	108.108
830.80	141.667
831.10	188.462
831.40	171.429
831.70	170.833
832.00	143.333
832.30	139.130
832.60	150.000
832.90	142.424
833.20	205.000
833.50	115.789
833.80	102.941
834.10	92.105
834.40	126.316
834.70	103.333
835.00	160.000
835.30	94.595
835.60	131.250
835.90	118.919
836.20	169.231
836.50	109.091
836.80	80.488
837.10	169.565
837.40	338.462
837.70	136.842
838.00	163.333
838.30	154.167
838.60	164.000
838.90	300.000
839.19	193.750
839.49	163.333
839.79	124.138
840.09	138.462
840.39	180.000
840.69	194.737
840.99	142.857
841.29	139.130
841.59	210.000
841.88	156.000
842.18	233.333
842.48	157.143
842.78	188.889
843.08	176.923
843.38	190.909
843.68	221.429
843.97	457.143
844.27	169.565
844.57	1350.000
844.87	285.714
845.17	200.000
845.47	104.762
845.76	175.000
846.06	571.429
846.36	141.176
846.66	307.692
846.96	293.750
847.25	223.077
847.55	115.789
847.85	222.222
848.15	440.000
848.44	272.727
848.74	171.429
849.04	158.333
849.34	217.647
849.63	212.500
849.93	250.000
850.23	1066.667
850.53	462.500
850.82	300.000
851.12	188.235
851.42	195.833
851.71	231.250
852.01	0.000
852.31	182.353
852.61	290.000
852.90	175.000
853.20	266.667
853.50	-2700.000
853.79	116.000
854.09	140.625
854.39	120.690
854.68	134.483
854.98	195.238
855.28	135.484
855.57	242.857
855.87	172.222
856.17	114.815
856.46	173.684
856.76	116.129
857.05	247.059
857.35	236.364
857.65	200.000
857.94	170.000
858.24	411.111
858.53	278.571
858.83	585.714
859.13	182.609
859.42	311.111
859.72	350.000
860.01	225.000
860.31	825.000
860.60	370.000
860.90	487.500
861.20	230.769
861.49	400.000
861.79	-3000.000
862.08	428.571
862.38	333.333
862.67	264.286
862.97	340.000
863.26	150.000
863.56	850.000
863.85	284.615
864.15	211.765
864.44	211.111
864.74	333.333
865.03	318.182
865.33	400.000
865.62	200.000
865.92	583.333
866.21	800.000
866.51	600.000
866.80	238.889
867.10	766.667
867.39	2700.000
867.69	560.000
867.98	825.000
868.27	157.143
868.57	286.667
868.86	775.000
869.16	166.667
869.45	4300.000
869.75	-316.667
870.04	675.000
870.33	440.000
870.63	362.500
870.92	182.353
871.22	825.000
871.51	428.571
871.80	333.333
872.10	323.077
>>>>>End Processed Spectral Data<<<<<
