SpectraSuite Data File
++++++++++++++++++++++++++++++++++++
Date: Tue May 12 15:19:43 PDT 2015
User: schluterlab
Dark Spectrum Present: Yes
Reference Spectrum Present: Yes
Number of Sampled Component Spectra: 1
Spectrometers: USB2E3373
Integration Time (usec): 3000 (USB2E3373)
Spectra Averaged: 3 (USB2E3373)
Boxcar Smoothing: 0 (USB2E3373)
Correct for Electrical Dark: No (USB2E3373)
Strobe/Lamp Enabled: No (USB2E3373)
Correct for Detector Non-linearity: No (USB2E3373)
Correct for Stray Light: No (USB2E3373)
Number of Pixels in Processed Spectrum: 2048
>>>>>Begin Processed Spectral Data<<<<<
178.53	0.000
178.91	-191.667
179.29	-550.000
179.67	-2900.000
180.04	-106.667
180.42	425.000
180.80	1600.000
181.18	0.000
181.56	-237.500
181.94	0.000
182.31	933.333
182.69	-3200.000
183.07	514.286
183.45	-3400.000
183.83	-1250.000
184.20	380.000
184.58	414.286
184.96	-253.846
185.34	-133.333
185.72	1750.000
186.09	-700.000
186.47	-3700.000
186.85	1000.000
187.23	420.000
187.61	1500.000
187.98	350.000
188.36	271.429
188.74	283.333
189.12	316.667
189.49	700.000
189.87	0.000
190.25	350.000
190.63	1100.000
191.00	-175.000
191.38	-3300.000
191.76	-550.000
192.14	525.000
192.51	-3000.000
192.89	1650.000
193.27	833.333
193.65	-1300.000
194.02	-680.000
194.40	471.429
194.78	-157.143
195.15	186.667
195.53	-2500.000
195.91	-520.000
196.29	4200.000
196.66	225.000
197.04	850.000
197.42	-1600.000
197.79	650.000
198.17	258.333
198.55	0.000
198.92	385.714
199.30	1000.000
199.68	1900.000
200.05	516.667
200.43	-483.333
200.81	183.333
201.18	3000.000
201.56	258.333
201.94	-900.000
202.31	-312.500
202.69	-400.000
203.07	2600.000
203.44	-383.333
203.82	275.000
204.19	580.000
204.57	-1100.000
204.95	-825.000
205.32	-560.000
205.70	416.667
206.08	625.000
206.45	-1000.000
206.83	388.889
207.20	194.737
207.58	233.333
207.96	520.000
208.33	0.000
208.71	500.000
209.08	720.000
209.46	-2600.000
209.84	-850.000
210.21	1020.000
210.59	-460.000
210.96	216.667
211.34	-750.000
211.71	354.545
212.09	1075.000
212.46	1000.000
212.84	-366.667
213.22	344.444
213.59	-1900.000
213.97	240.000
214.34	850.000
214.72	966.667
215.09	466.667
215.47	-2200.000
215.84	-230.000
216.22	-300.000
216.59	0.000
216.97	0.000
217.34	1250.000
217.72	-1100.000
218.09	1066.667
218.47	475.000
218.84	775.000
219.22	1166.667
219.59	933.333
219.97	414.286
220.34	277.778
220.72	1400.000
221.09	3500.000
221.47	191.667
221.84	833.333
222.22	320.000
222.59	266.667
222.97	242.857
223.34	256.250
223.72	-1500.000
224.09	800.000
224.46	230.769
224.84	-850.000
225.21	277.778
225.59	240.000
225.96	1033.333
226.34	-640.000
226.71	-550.000
227.08	-540.000
227.46	0.000
227.83	-350.000
228.21	-1550.000
228.58	333.333
228.95	800.000
229.33	311.111
229.70	1125.000
230.08	292.308
230.45	3400.000
230.82	-600.000
231.20	-866.667
231.57	-833.333
231.95	420.000
232.32	158.333
232.69	216.667
233.07	266.667
233.44	-1550.000
233.81	233.333
234.19	118.519
234.56	206.250
234.93	152.941
235.31	135.000
235.68	231.250
236.05	160.714
236.43	133.333
236.80	157.143
237.17	110.345
237.55	112.500
237.92	87.500
238.29	90.909
238.67	65.625
239.04	68.293
239.41	41.667
239.79	72.500
240.16	60.417
240.53	47.541
240.91	60.870
241.28	35.593
241.65	45.455
242.02	47.887
242.40	48.571
242.77	47.253
243.14	40.506
243.51	44.444
243.89	31.776
244.26	22.430
244.63	28.713
245.00	30.275
245.38	21.186
245.75	21.970
246.12	28.148
246.49	21.277
246.87	18.033
247.24	24.000
247.61	21.875
247.98	19.728
248.36	18.182
248.73	25.000
249.10	11.310
249.47	18.000
249.84	9.950
250.22	17.838
250.59	13.500
250.96	14.768
251.33	19.070
251.70	15.179
252.08	16.807
252.45	13.944
252.82	11.027
253.19	12.253
253.56	14.231
253.94	15.942
254.31	12.791
254.68	10.105
255.05	14.483
255.42	11.314
255.79	14.984
256.16	12.881
256.54	13.312
256.91	9.804
257.28	11.706
257.65	8.464
258.02	7.965
258.39	10.888
258.76	11.594
259.14	7.429
259.51	11.079
259.88	7.599
260.25	7.143
260.62	9.863
260.99	4.959
261.36	8.635
261.73	8.511
262.10	8.901
262.47	9.750
262.85	7.200
263.22	8.740
263.59	8.696
263.96	11.028
264.33	5.926
264.70	8.108
265.07	8.049
265.44	11.009
265.81	7.075
266.18	8.467
266.55	7.329
266.92	7.159
267.29	7.895
267.66	8.744
268.03	6.054
268.40	6.977
268.77	7.709
269.14	5.640
269.51	7.795
269.88	7.755
270.25	3.672
270.62	5.794
270.99	10.142
271.36	8.130
271.73	6.289
272.10	5.859
272.47	6.944
272.84	4.990
273.21	4.959
273.58	8.097
273.95	4.107
274.32	8.366
274.69	6.693
275.06	9.654
275.43	6.322
275.80	6.792
276.17	5.699
276.54	9.159
276.91	6.716
277.28	5.657
277.65	6.642
278.02	6.434
278.39	6.835
278.76	7.586
279.13	5.338
279.50	5.455
279.87	5.400
280.23	6.446
280.60	5.474
280.97	6.724
281.34	6.436
281.71	4.696
282.08	5.983
282.45	6.081
282.82	5.853
283.19	5.882
283.56	4.132
283.92	6.026
284.29	6.156
284.66	4.034
285.03	6.633
285.40	4.298
285.77	4.475
286.14	6.656
286.51	6.595
286.87	4.589
287.24	4.805
287.61	5.623
287.98	6.866
288.35	5.630
288.72	5.008
289.08	6.907
289.45	4.878
289.82	5.000
290.19	4.978
290.56	6.696
290.93	4.029
291.29	6.906
291.66	4.096
292.03	5.610
292.40	5.149
292.77	3.343
293.13	4.137
293.50	5.668
293.87	4.607
294.24	5.315
294.60	6.864
294.97	6.154
295.34	5.046
295.71	6.439
296.08	5.200
296.44	6.607
296.81	4.218
297.18	2.408
297.55	4.680
297.91	3.202
298.28	6.401
298.65	3.926
299.02	4.825
299.38	5.995
299.75	5.122
300.12	5.849
300.48	5.621
300.85	5.721
301.22	5.814
301.59	4.009
301.95	3.617
302.32	4.889
302.69	4.751
303.05	5.163
303.42	5.269
303.79	5.850
304.15	3.960
304.52	4.757
304.89	5.224
305.25	3.893
305.62	4.904
305.99	4.239
306.35	4.316
306.72	5.099
307.09	4.348
307.45	4.646
307.82	4.321
308.19	5.052
308.55	3.000
308.92	4.711
309.29	6.312
309.65	4.262
310.02	4.462
310.38	4.985
310.75	3.375
311.12	3.640
311.48	6.564
311.85	4.485
312.22	4.394
312.58	4.082
312.95	4.660
313.31	5.056
313.68	4.315
314.05	6.502
314.41	3.352
314.78	4.924
315.14	4.265
315.51	5.393
315.87	4.836
316.24	4.669
316.61	4.208
316.97	4.128
317.34	4.762
317.70	4.214
318.07	5.338
318.43	4.833
318.80	4.378
319.16	4.545
319.53	4.513
319.89	4.122
320.26	5.214
320.62	4.670
320.99	5.815
321.35	4.545
321.72	4.744
322.08	4.340
322.45	5.450
322.81	4.575
323.18	4.973
323.54	5.139
323.91	4.352
324.27	5.570
324.64	3.374
325.00	5.431
325.37	5.481
325.73	5.059
326.10	5.137
326.46	4.294
326.83	4.000
327.19	4.739
327.56	4.633
327.92	3.770
328.29	4.910
328.65	5.565
329.01	3.764
329.38	4.738
329.74	3.757
330.11	4.344
330.47	5.371
330.84	4.400
331.20	5.076
331.56	5.699
331.93	5.389
332.29	4.507
332.66	4.762
333.02	4.639
333.38	3.490
333.75	5.588
334.11	4.782
334.48	4.786
334.84	4.899
335.20	4.021
335.57	4.702
335.93	4.962
336.29	4.809
336.66	5.403
337.02	3.251
337.38	5.503
337.75	5.405
338.11	5.401
338.47	4.318
338.84	4.911
339.20	3.636
339.56	5.299
339.93	5.100
340.29	4.370
340.65	4.778
341.02	5.551
341.38	4.762
341.74	4.485
342.11	4.424
342.47	4.102
342.83	4.840
343.20	4.689
343.56	4.369
343.92	4.211
344.28	4.386
344.65	4.401
345.01	4.683
345.37	4.327
345.73	5.317
346.10	4.781
346.46	4.545
346.82	3.472
347.19	4.173
347.55	4.528
347.91	3.701
348.27	3.331
348.63	4.430
349.00	4.798
349.36	4.280
349.72	4.434
350.08	4.193
350.45	4.113
350.81	4.434
351.17	3.390
351.53	3.695
351.89	3.574
352.26	3.628
352.62	4.299
352.98	5.215
353.34	4.545
353.70	4.052
354.07	4.769
354.43	3.763
354.79	3.948
355.15	3.522
355.51	4.079
355.87	3.765
356.24	4.388
356.60	4.871
356.96	3.867
357.32	4.898
357.68	4.332
358.04	4.483
358.40	3.898
358.77	4.282
359.13	4.204
359.49	4.596
359.85	4.095
360.21	3.046
360.57	4.526
360.93	4.040
361.29	4.401
361.66	4.474
362.02	4.048
362.38	3.968
362.74	4.176
363.10	4.278
363.46	4.420
363.82	4.488
364.18	4.196
364.54	4.077
364.90	4.150
365.26	4.372
365.62	3.246
365.98	3.716
366.35	3.517
366.71	3.470
367.07	4.369
367.43	4.231
367.79	4.056
368.15	3.935
368.51	4.066
368.87	2.989
369.23	3.673
369.59	4.113
369.95	3.776
370.31	3.217
370.67	4.372
371.03	5.042
371.39	4.155
371.75	4.606
372.11	4.759
372.47	4.452
372.83	3.399
373.19	4.798
373.55	4.330
373.91	3.039
374.27	3.836
374.63	4.407
374.99	4.515
375.35	4.368
375.71	3.958
376.07	4.045
376.42	4.220
376.78	4.303
377.14	3.932
377.50	4.182
377.86	3.587
378.22	3.230
378.58	4.358
378.94	3.561
379.30	3.578
379.66	3.672
380.02	4.692
380.38	2.869
380.74	4.383
381.09	4.439
381.45	3.642
381.81	3.783
382.17	3.419
382.53	3.479
382.89	3.844
383.25	4.204
383.61	3.804
383.97	3.479
384.32	4.039
384.68	5.229
385.04	5.217
385.40	4.093
385.76	4.506
386.12	3.401
386.48	3.891
386.83	4.218
387.19	3.534
387.55	4.594
387.91	4.561
388.27	4.105
388.62	4.577
388.98	4.257
389.34	3.212
389.70	4.304
390.06	3.354
390.42	4.133
390.77	4.115
391.13	4.225
391.49	3.448
391.85	4.308
392.20	5.066
392.56	4.839
392.92	3.706
393.28	3.756
393.64	3.440
393.99	3.557
394.35	4.414
394.71	3.619
395.07	4.197
395.42	3.923
395.78	4.688
396.14	5.060
396.50	4.272
396.85	4.817
397.21	3.911
397.57	3.825
397.92	3.120
398.28	3.309
398.64	4.247
399.00	3.848
399.35	4.026
399.71	4.415
400.07	3.482
400.42	3.164
400.78	4.282
401.14	3.523
401.49	3.975
401.85	3.766
402.21	3.984
402.57	4.309
402.92	3.879
403.28	3.103
403.63	3.708
403.99	3.981
404.35	5.100
404.70	4.135
405.06	3.818
405.42	4.369
405.77	4.906
406.13	4.230
406.49	3.866
406.84	4.343
407.20	4.110
407.55	4.246
407.91	4.403
408.27	4.124
408.62	3.903
408.98	3.844
409.34	4.267
409.69	3.671
410.05	3.518
410.40	3.180
410.76	3.606
411.11	3.969
411.47	4.074
411.83	3.691
412.18	3.382
412.54	3.724
412.89	3.599
413.25	4.162
413.60	4.206
413.96	3.172
414.31	4.250
414.67	4.407
415.03	2.810
415.38	3.975
415.74	3.917
416.09	3.748
416.45	4.396
416.80	4.747
417.16	4.010
417.51	4.459
417.87	4.130
418.22	3.827
418.58	3.694
418.93	3.569
419.29	3.697
419.64	4.179
420.00	4.773
420.35	3.310
420.71	4.551
421.06	2.354
421.42	3.627
421.77	4.220
422.12	3.308
422.48	3.903
422.83	4.241
423.19	3.726
423.54	3.840
423.90	3.681
424.25	3.302
424.61	4.121
424.96	3.388
425.31	3.667
425.67	3.648
426.02	4.206
426.38	3.851
426.73	3.702
427.09	4.686
427.44	3.433
427.79	3.087
428.15	4.243
428.50	4.800
428.85	3.762
429.21	3.296
429.56	3.639
429.92	3.083
430.27	3.725
430.62	3.769
430.98	3.743
431.33	3.024
431.68	3.062
432.04	3.621
432.39	4.171
432.74	4.274
433.10	3.378
433.45	3.504
433.80	4.357
434.16	3.468
434.51	3.973
434.86	4.137
435.22	3.079
435.57	3.023
435.92	4.326
436.28	3.917
436.63	3.728
436.98	4.110
437.34	4.452
437.69	3.415
438.04	4.086
438.39	3.853
438.75	3.842
439.10	4.209
439.45	4.466
439.81	4.106
440.16	3.687
440.51	3.547
440.86	4.330
441.22	3.301
441.57	3.622
441.92	3.258
442.27	3.144
442.63	3.201
442.98	3.718
443.33	3.696
443.68	3.571
444.03	3.157
444.39	4.049
444.74	3.986
445.09	3.581
445.44	4.304
445.79	3.655
446.15	4.105
446.50	3.797
446.85	3.586
447.20	2.786
447.55	3.643
447.91	4.049
448.26	3.940
448.61	4.035
448.96	4.357
449.31	3.245
449.66	3.821
450.02	3.512
450.37	3.331
450.72	3.857
451.07	4.305
451.42	4.090
451.77	3.723
452.12	4.197
452.47	4.192
452.83	3.775
453.18	3.964
453.53	3.848
453.88	4.114
454.23	3.544
454.58	3.963
454.93	3.679
455.28	3.305
455.63	3.723
455.98	4.230
456.34	4.134
456.69	3.293
457.04	3.699
457.39	2.971
457.74	4.223
458.09	3.313
458.44	4.326
458.79	4.191
459.14	3.273
459.49	3.681
459.84	3.750
460.19	3.785
460.54	3.818
460.89	3.838
461.24	4.124
461.59	4.025
461.94	3.842
462.29	4.176
462.64	4.083
462.99	3.967
463.34	5.379
463.69	4.598
464.04	3.685
464.39	4.007
464.74	2.755
465.09	3.831
465.44	3.536
465.79	3.811
466.14	3.710
466.49	3.744
466.84	3.679
467.19	4.452
467.54	4.625
467.89	3.873
468.24	3.590
468.59	3.750
468.94	4.287
469.29	4.520
469.64	4.502
469.99	5.141
470.34	3.669
470.68	4.621
471.03	4.203
471.38	3.907
471.73	3.592
472.08	4.044
472.43	3.849
472.78	4.417
473.13	3.066
473.48	4.340
473.83	3.357
474.17	4.073
474.52	4.028
474.87	3.127
475.22	3.655
475.57	3.410
475.92	3.832
476.27	3.156
476.61	3.056
476.96	4.023
477.31	3.753
477.66	4.133
478.01	3.404
478.36	3.656
478.70	3.275
479.05	2.667
479.40	2.827
479.75	4.022
480.10	3.195
480.45	2.941
480.79	3.364
481.14	3.043
481.49	3.156
481.84	3.914
482.19	3.362
482.53	3.469
482.88	3.315
483.23	3.067
483.58	3.187
483.92	3.885
484.27	3.168
484.62	3.353
484.97	3.078
485.31	2.930
485.66	2.530
486.01	2.586
486.36	2.532
486.70	2.252
487.05	2.518
487.40	2.588
487.75	2.905
488.09	3.097
488.44	3.187
488.79	3.159
489.13	3.135
489.48	3.036
489.83	2.877
490.17	3.179
490.52	3.230
490.87	3.621
491.22	3.546
491.56	3.469
491.91	3.047
492.26	3.341
492.60	3.280
492.95	3.444
493.30	3.185
493.64	3.100
493.99	3.220
494.34	2.869
494.68	3.541
495.03	3.772
495.37	3.782
495.72	3.636
496.07	3.190
496.41	3.345
496.76	3.672
497.11	3.813
497.45	3.639
497.80	3.939
498.14	3.467
498.49	3.621
498.84	3.879
499.18	2.971
499.53	3.353
499.87	3.504
500.22	3.132
500.56	3.110
500.91	3.896
501.26	3.675
501.60	2.960
501.95	2.688
502.29	3.556
502.64	3.264
502.98	3.246
503.33	3.385
503.67	3.929
504.02	2.821
504.36	3.801
504.71	3.642
505.06	3.332
505.40	2.948
505.75	3.368
506.09	3.780
506.44	3.148
506.78	3.544
507.13	2.908
507.47	3.445
507.82	4.526
508.16	4.067
508.51	3.527
508.85	3.324
509.19	3.475
509.54	4.102
509.88	3.978
510.23	3.333
510.57	3.330
510.92	3.696
511.26	3.815
511.61	3.594
511.95	3.634
512.30	3.300
512.64	3.011
512.98	3.844
513.33	3.586
513.67	3.521
514.02	3.377
514.36	3.531
514.70	3.200
515.05	3.303
515.39	3.399
515.74	3.773
516.08	3.758
516.42	4.536
516.77	3.947
517.11	3.787
517.46	3.772
517.80	3.878
518.14	3.718
518.49	3.969
518.83	3.681
519.17	4.160
519.52	3.714
519.86	4.142
520.20	4.767
520.55	3.448
520.89	3.563
521.23	3.855
521.58	4.303
521.92	3.965
522.26	3.495
522.61	3.981
522.95	3.904
523.29	3.684
523.64	3.815
523.98	3.873
524.32	4.037
524.66	3.420
525.01	3.964
525.35	3.830
525.69	3.853
526.04	4.640
526.38	3.355
526.72	3.938
527.06	3.193
527.41	4.837
527.75	3.469
528.09	3.733
528.43	4.820
528.78	3.637
529.12	3.251
529.46	3.799
529.80	3.855
530.15	3.948
530.49	3.911
530.83	3.778
531.17	3.567
531.51	4.414
531.86	4.831
532.20	3.523
532.54	3.578
532.88	3.748
533.22	3.778
533.57	3.783
533.91	3.089
534.25	4.097
534.59	4.503
534.93	3.811
535.27	3.244
535.62	4.259
535.96	3.605
536.30	4.327
536.64	3.106
536.98	3.902
537.32	4.750
537.66	3.571
538.01	4.706
538.35	4.741
538.69	3.337
539.03	3.358
539.37	2.791
539.71	3.704
540.05	3.569
540.39	4.088
540.73	3.481
541.07	2.949
541.42	3.669
541.76	4.316
542.10	3.946
542.44	4.115
542.78	4.028
543.12	3.804
543.46	4.637
543.80	3.697
544.14	3.777
544.48	3.406
544.82	4.587
545.16	3.643
545.50	3.995
545.84	4.167
546.18	3.901
546.52	4.656
546.86	4.449
547.20	4.199
547.54	4.560
547.88	3.710
548.22	3.704
548.56	4.066
548.90	3.737
549.24	2.843
549.58	3.479
549.92	3.995
550.26	3.922
550.60	3.659
550.94	4.003
551.28	4.138
551.62	4.897
551.96	3.581
552.30	3.428
552.64	4.595
552.98	3.222
553.32	3.329
553.66	3.779
554.00	3.990
554.34	3.862
554.68	3.427
555.02	3.938
555.36	3.657
555.69	4.319
556.03	3.885
556.37	3.760
556.71	3.977
557.05	3.342
557.39	3.867
557.73	4.650
558.07	4.158
558.41	3.358
558.75	4.583
559.08	3.431
559.42	4.438
559.76	4.989
560.10	3.579
560.44	4.048
560.78	4.540
561.12	3.624
561.45	3.755
561.79	3.558
562.13	3.222
562.47	3.894
562.81	4.034
563.15	4.396
563.48	2.981
563.82	4.055
564.16	4.167
564.50	3.496
564.84	4.073
565.17	3.922
565.51	3.017
565.85	3.701
566.19	3.571
566.52	2.948
566.86	3.853
567.20	3.708
567.54	3.493
567.88	3.756
568.21	3.145
568.55	3.356
568.89	4.015
569.23	2.675
569.56	2.995
569.90	3.306
570.24	3.271
570.57	3.310
570.91	2.995
571.25	3.084
571.59	2.623
571.92	2.449
572.26	2.399
572.60	2.833
572.93	2.760
573.27	2.613
573.61	2.572
573.95	2.415
574.28	2.642
574.62	2.143
574.96	2.599
575.29	2.785
575.63	2.403
575.97	2.629
576.30	2.455
576.64	2.603
576.98	2.600
577.31	2.486
577.65	2.811
577.98	2.271
578.32	2.084
578.66	2.527
578.99	2.643
579.33	2.639
579.67	2.331
580.00	2.201
580.34	2.190
580.67	2.461
581.01	2.787
581.35	2.624
581.68	2.369
582.02	2.301
582.35	2.259
582.69	2.351
583.02	2.424
583.36	2.447
583.70	2.559
584.03	2.436
584.37	2.776
584.70	2.488
585.04	2.236
585.37	2.232
585.71	2.764
586.04	2.351
586.38	2.370
586.72	2.548
587.05	2.934
587.39	2.630
587.72	2.586
588.06	2.334
588.39	2.329
588.73	2.397
589.06	2.597
589.40	2.535
589.73	2.753
590.07	2.986
590.40	3.101
590.73	3.562
591.07	3.378
591.40	2.954
591.74	2.841
592.07	2.579
592.41	3.197
592.74	2.490
593.08	2.832
593.41	2.633
593.75	2.401
594.08	2.926
594.41	2.607
594.75	2.877
595.08	2.641
595.42	3.028
595.75	2.863
596.09	3.024
596.42	3.059
596.75	3.205
597.09	3.343
597.42	2.776
597.75	2.718
598.09	3.283
598.42	3.550
598.76	3.200
599.09	3.420
599.42	2.768
599.76	2.782
600.09	2.915
600.42	2.901
600.76	2.583
601.09	2.727
601.42	2.886
601.76	2.828
602.09	2.870
602.42	2.921
602.76	2.581
603.09	3.243
603.42	3.450
603.76	2.314
604.09	2.968
604.42	3.202
604.76	3.398
605.09	3.102
605.42	3.332
605.75	3.198
606.09	2.946
606.42	3.157
606.75	2.837
607.09	3.158
607.42	2.853
607.75	3.384
608.08	3.656
608.42	3.188
608.75	2.439
609.08	2.640
609.41	3.273
609.75	3.205
610.08	2.743
610.41	3.206
610.74	3.680
611.07	3.138
611.41	3.429
611.74	3.250
612.07	3.420
612.40	2.632
612.73	3.345
613.07	3.649
613.40	3.208
613.73	3.145
614.06	3.250
614.39	3.283
614.72	3.265
615.06	2.720
615.39	3.713
615.72	2.953
616.05	4.219
616.38	3.399
616.71	3.473
617.05	3.734
617.38	3.539
617.71	3.150
618.04	3.814
618.37	3.669
618.70	3.291
619.03	3.297
619.36	4.271
619.69	3.430
620.03	4.631
620.36	3.468
620.69	4.342
621.02	3.804
621.35	3.438
621.68	4.794
622.01	5.314
622.34	2.331
622.67	4.916
623.00	3.744
623.33	4.184
623.66	4.391
623.99	3.836
624.32	4.065
624.65	3.687
624.99	3.313
625.32	4.142
625.65	3.586
625.98	3.208
626.31	3.635
626.64	3.797
626.97	3.443
627.30	4.037
627.63	4.945
627.96	3.991
628.29	4.125
628.62	4.192
628.95	3.546
629.28	5.259
629.61	3.866
629.94	5.877
630.26	4.246
630.59	5.230
630.92	4.933
631.25	4.714
631.58	4.822
631.91	3.425
632.24	3.207
632.57	4.715
632.90	5.280
633.23	6.716
633.56	4.742
633.89	5.466
634.22	5.490
634.55	3.871
634.88	7.010
635.20	4.484
635.53	6.156
635.86	5.481
636.19	4.153
636.52	4.432
636.85	4.531
637.18	5.742
637.51	4.246
637.83	4.462
638.16	5.744
638.49	5.150
638.82	4.577
639.15	4.348
639.48	5.806
639.81	5.128
640.13	6.012
640.46	5.815
640.79	5.722
641.12	5.118
641.45	6.210
641.77	6.077
642.10	6.158
642.43	4.836
642.76	4.688
643.09	5.620
643.41	8.135
643.74	6.187
644.07	5.605
644.40	4.882
644.73	6.156
645.05	6.984
645.38	5.972
645.71	6.373
646.04	6.260
646.36	5.321
646.69	7.680
647.02	6.240
647.35	5.669
647.67	5.835
648.00	6.840
648.33	6.917
648.66	4.545
648.98	6.377
649.31	5.398
649.64	4.564
649.96	5.974
650.29	5.857
650.62	8.247
650.94	6.175
651.27	7.656
651.60	5.947
651.92	6.452
652.25	5.984
652.58	7.234
652.90	5.240
653.23	6.056
653.56	6.083
653.88	5.286
654.21	6.012
654.54	5.271
654.86	5.752
655.19	6.464
655.52	4.344
655.84	2.158
656.17	2.011
656.49	2.851
656.82	3.267
657.15	2.681
657.47	2.095
657.80	1.519
658.13	1.128
658.45	1.663
658.78	2.375
659.10	2.227
659.43	2.651
659.75	2.805
660.08	2.945
660.41	4.174
660.73	6.274
661.06	6.456
661.38	7.155
661.71	5.935
662.03	6.274
662.36	6.286
662.68	6.704
663.01	9.730
663.33	6.792
663.66	7.692
663.98	7.738
664.31	10.261
664.63	9.962
664.96	9.381
665.28	6.968
665.61	5.849
665.93	6.038
666.26	7.850
666.58	9.358
666.91	7.529
667.23	7.430
667.56	6.982
667.88	7.054
668.21	8.197
668.53	7.258
668.86	9.820
669.18	8.554
669.50	5.785
669.83	6.982
670.15	9.148
670.48	8.008
670.80	8.964
671.13	5.976
671.45	8.617
671.77	10.390
672.10	7.899
672.42	6.579
672.75	7.120
673.07	7.631
673.39	6.709
673.72	7.612
674.04	7.885
674.37	8.530
674.69	8.178
675.01	5.597
675.34	6.783
675.66	9.766
675.98	8.679
676.31	9.000
676.63	6.958
676.95	7.937
677.28	6.288
677.60	9.054
677.92	5.357
678.25	6.395
678.57	8.194
678.89	9.584
679.22	7.169
679.54	7.117
679.86	5.410
680.18	6.503
680.51	5.970
680.83	4.730
681.15	8.146
681.48	7.465
681.80	5.779
682.12	8.478
682.44	4.324
682.77	9.609
683.09	9.320
683.41	8.980
683.73	8.661
684.06	7.143
684.38	7.752
684.70	6.475
685.02	7.813
685.34	6.866
685.67	8.682
685.99	8.210
686.31	7.396
686.63	6.341
686.96	6.536
687.28	6.040
687.60	5.119
687.92	6.868
688.24	8.276
688.56	6.406
688.89	4.015
689.21	6.744
689.53	9.091
689.85	7.520
690.17	8.932
690.49	7.056
690.82	5.252
691.14	8.889
691.46	8.008
691.78	9.357
692.10	7.443
692.42	5.626
692.74	7.558
693.06	8.527
693.39	6.917
693.71	8.644
694.03	8.679
694.35	9.438
694.67	9.165
694.99	9.313
695.31	7.207
695.63	6.109
695.95	8.371
696.27	6.637
696.59	9.069
696.91	6.076
697.23	8.824
697.56	5.394
697.88	3.593
698.20	8.491
698.52	6.615
698.84	7.187
699.16	11.301
699.48	8.475
699.80	10.022
700.12	11.547
700.44	10.047
700.76	9.547
701.08	8.355
701.40	10.649
701.72	11.765
702.04	11.653
702.36	10.753
702.68	10.904
703.00	6.767
703.32	10.918
703.64	12.594
703.96	5.208
704.28	9.788
704.60	10.986
704.91	13.445
705.23	9.943
705.55	12.463
705.87	11.111
706.19	10.972
706.51	11.285
706.83	12.684
707.15	9.893
707.47	9.201
707.79	9.195
708.11	8.844
708.43	8.764
708.74	8.597
709.06	8.372
709.38	8.933
709.70	8.719
710.02	6.793
710.34	10.773
710.66	10.833
710.98	11.749
711.29	12.256
711.61	11.699
711.93	9.119
712.25	8.735
712.57	11.897
712.89	11.818
713.20	13.099
713.52	11.838
713.84	12.085
714.16	10.435
714.48	6.916
714.80	10.027
715.11	11.436
715.43	8.939
715.75	8.169
716.07	8.382
716.39	11.143
716.70	9.346
717.02	10.101
717.34	13.309
717.66	16.667
717.97	17.045
718.29	11.620
718.61	7.770
718.93	9.689
719.24	10.403
719.56	14.483
719.88	9.554
720.20	10.323
720.51	11.438
720.83	11.371
721.15	10.884
721.46	13.014
721.78	12.544
722.10	12.847
722.42	16.722
722.73	7.220
723.05	12.632
723.37	15.194
723.68	12.891
724.00	13.258
724.32	12.167
724.63	14.615
724.95	12.157
725.27	14.126
725.58	15.809
725.90	9.507
726.22	10.616
726.53	11.371
726.85	13.355
727.16	16.107
727.48	11.628
727.80	11.871
728.11	12.500
728.43	10.870
728.74	15.035
729.06	8.602
729.38	14.386
729.69	14.000
730.01	13.487
730.32	11.409
730.64	13.621
730.96	11.712
731.27	7.034
731.59	8.046
731.90	9.749
732.22	10.286
732.53	10.256
732.85	13.450
733.16	9.337
733.48	11.599
733.80	12.754
734.11	11.656
734.43	10.819
734.74	6.702
735.06	12.434
735.37	11.598
735.69	9.275
736.00	13.761
736.32	10.000
736.63	6.309
736.95	8.385
737.26	15.244
737.58	11.656
737.89	10.241
738.21	9.603
738.52	12.709
738.83	12.088
739.15	10.105
739.46	13.103
739.78	13.265
740.09	14.869
740.41	7.669
740.72	12.698
741.04	16.084
741.35	13.672
741.66	12.648
741.98	13.305
742.29	13.426
742.61	14.159
742.92	12.288
743.23	13.600
743.55	14.340
743.86	11.373
744.18	14.407
744.49	14.463
744.80	16.590
745.12	17.857
745.43	17.290
745.74	17.778
746.06	11.842
746.37	16.279
746.68	13.274
747.00	14.350
747.31	16.807
747.62	9.836
747.94	15.880
748.25	12.840
748.56	14.831
748.88	14.732
749.19	11.163
749.50	13.242
749.82	15.638
750.13	10.277
750.44	8.333
750.75	11.745
751.07	12.500
751.38	10.891
751.69	10.438
752.01	11.189
752.32	15.615
752.63	12.416
752.94	13.287
753.26	14.844
753.57	17.121
753.88	12.360
754.19	12.996
754.51	10.963
754.82	11.409
755.13	13.176
755.44	12.963
755.75	16.151
756.07	12.329
756.38	7.843
756.69	9.063
757.00	13.353
757.31	13.803
757.63	9.091
757.94	9.043
758.25	8.937
758.56	9.840
758.87	12.030
759.18	12.791
759.50	9.422
759.81	12.166
760.12	14.326
760.43	10.644
760.74	10.380
761.05	11.406
761.36	8.594
761.67	10.512
761.99	12.676
762.30	11.254
762.61	9.028
762.92	11.742
763.23	15.094
763.54	11.154
763.85	11.284
764.16	11.806
764.47	12.500
764.78	8.795
765.10	9.146
765.41	13.068
765.72	11.878
766.03	11.480
766.34	10.801
766.65	10.646
766.96	12.146
767.27	20.561
767.58	20.792
767.89	17.680
768.20	18.902
768.51	15.816
768.82	21.930
769.13	14.902
769.44	13.534
769.75	11.236
770.06	18.487
770.37	11.842
770.68	13.333
770.99	16.102
771.30	12.971
771.61	16.154
771.92	13.359
772.23	16.532
772.54	18.667
772.85	19.802
773.16	11.413
773.47	12.222
773.78	15.842
774.09	21.023
774.39	15.152
774.70	18.235
775.01	19.737
775.32	24.224
775.63	23.288
775.94	23.457
776.25	22.759
776.56	24.427
776.87	22.901
777.18	25.758
777.48	35.433
777.79	30.000
778.10	23.485
778.41	29.104
778.72	24.812
779.03	22.436
779.34	16.892
779.65	22.360
779.95	22.981
780.26	14.286
780.57	26.531
780.88	25.532
781.19	28.333
781.50	20.118
781.80	22.951
782.11	19.048
782.42	16.667
782.73	25.424
783.04	18.710
783.34	20.155
783.65	15.646
783.96	26.452
784.27	16.556
784.57	15.789
784.88	21.739
785.19	25.000
785.50	28.448
785.81	33.333
786.11	18.519
786.42	22.047
786.73	26.126
787.04	18.868
787.34	24.390
787.65	31.061
787.96	25.758
788.26	28.346
788.57	25.547
788.88	22.535
789.19	19.847
789.49	29.054
789.80	25.000
790.11	28.099
790.41	28.704
790.72	17.593
791.03	22.115
791.33	37.374
791.64	40.000
791.95	33.684
792.25	33.333
792.56	36.000
792.87	34.146
793.17	28.409
793.48	23.529
793.79	33.333
794.09	17.045
794.40	37.069
794.70	30.159
795.01	23.077
795.32	22.901
795.62	16.239
795.93	26.050
796.23	31.707
796.54	36.735
796.85	27.273
797.15	38.961
797.46	47.561
797.76	45.000
798.07	46.667
798.37	38.750
798.68	38.750
798.99	39.024
799.29	38.667
799.60	27.907
799.90	42.105
800.21	43.939
800.51	28.169
800.82	37.931
801.12	46.154
801.43	57.333
801.73	41.379
802.04	50.649
802.34	32.877
802.65	62.745
802.95	52.174
803.26	59.677
803.56	61.667
803.87	55.224
804.17	47.619
804.48	39.623
804.78	47.222
805.09	46.970
805.39	42.857
805.70	54.386
806.00	35.714
806.30	53.125
806.61	40.000
806.91	50.000
807.22	33.696
807.52	38.158
807.83	39.474
808.13	42.029
808.43	64.516
808.74	41.096
809.04	28.571
809.35	52.941
809.65	53.030
809.95	76.471
810.26	68.519
810.56	51.563
810.86	71.429
811.17	59.649
811.47	67.391
811.77	72.414
812.08	48.276
812.38	61.905
812.69	57.143
812.99	62.222
813.29	71.429
813.59	83.871
813.90	60.345
814.20	63.934
814.50	46.000
814.81	31.579
815.11	66.667
815.41	46.429
815.72	50.000
816.02	62.000
816.32	65.854
816.62	63.793
816.93	106.061
817.23	65.854
817.53	78.571
817.84	75.556
818.14	85.714
818.44	70.833
818.74	79.245
819.04	48.718
819.35	60.606
819.65	92.308
819.95	79.630
820.25	93.617
820.56	102.703
820.86	71.053
821.16	44.681
821.46	100.000
821.76	63.636
822.07	52.381
822.37	60.526
822.67	95.349
822.97	63.158
823.27	76.087
823.57	81.250
823.88	69.231
824.18	66.667
824.48	126.087
824.78	108.333
825.08	139.130
825.38	100.000
825.69	76.471
825.99	72.340
826.29	66.667
826.59	68.571
826.89	126.667
827.19	82.857
827.49	112.903
827.79	96.154
828.09	76.190
828.39	83.333
828.70	70.270
829.00	121.429
829.30	118.750
829.60	94.444
829.90	100.000
830.20	81.818
830.50	110.811
830.80	170.833
831.10	134.615
831.40	147.619
831.70	116.667
832.00	83.333
832.30	147.826
832.60	129.167
832.90	87.879
833.20	170.000
833.50	97.368
833.80	100.000
834.10	107.895
834.40	121.053
834.70	76.667
835.00	128.000
835.30	70.270
835.60	112.500
835.90	116.216
836.20	123.077
836.50	136.364
836.80	68.293
837.10	104.348
837.40	246.154
837.70	105.263
838.00	120.000
838.30	162.500
838.60	96.000
838.90	270.000
839.19	112.500
839.49	110.000
839.79	100.000
840.09	123.077
840.39	133.333
840.69	152.632
840.99	119.048
841.29	143.478
841.59	190.000
841.88	156.000
842.18	222.222
842.48	128.571
842.78	122.222
843.08	246.154
843.38	163.636
843.68	207.143
843.97	300.000
844.27	139.130
844.57	1450.000
844.87	285.714
845.17	161.111
845.47	90.476
845.76	183.333
846.06	485.714
846.36	164.706
846.66	192.308
846.96	162.500
847.25	192.308
847.55	94.737
847.85	144.444
848.15	560.000
848.44	263.636
848.74	138.095
849.04	158.333
849.34	164.706
849.63	168.750
849.93	187.500
850.23	833.333
850.53	300.000
850.82	181.818
851.12	158.824
851.42	158.333
851.71	218.750
852.01	0.000
852.31	158.824
852.61	380.000
852.90	133.333
853.20	222.222
853.50	-1100.000
853.79	144.000
854.09	131.250
854.39	82.759
854.68	134.483
854.98	171.429
855.28	103.226
855.57	228.571
855.87	144.444
856.17	88.889
856.46	157.895
856.76	103.226
857.05	200.000
857.35	227.273
857.65	138.462
857.94	120.000
858.24	255.556
858.53	271.429
858.83	557.143
859.13	173.913
859.42	277.778
859.72	262.500
860.01	166.667
860.31	525.000
860.60	320.000
860.90	337.500
861.20	146.154
861.49	200.000
861.79	-2400.000
862.08	457.143
862.38	200.000
862.67	171.429
862.97	340.000
863.26	100.000
863.56	625.000
863.85	300.000
864.15	264.706
864.44	183.333
864.74	266.667
865.03	263.636
865.33	212.500
865.62	200.000
865.92	516.667
866.21	675.000
866.51	340.000
866.80	200.000
867.10	666.667
867.39	2500.000
867.69	440.000
867.98	900.000
868.27	128.571
868.57	313.333
868.86	750.000
869.16	133.333
869.45	2500.000
869.75	-366.667
870.04	800.000
870.33	460.000
870.63	425.000
870.92	164.706
871.22	700.000
871.51	385.714
871.80	291.667
872.10	246.154
>>>>>End Processed Spectral Data<<<<<
