SpectraSuite Data File
++++++++++++++++++++++++++++++++++++
Date: Wed May 13 21:44:27 PDT 2015
User: schluterlab
Dark Spectrum Present: Yes
Reference Spectrum Present: Yes
Number of Sampled Component Spectra: 1
Spectrometers: USB2E3373
Integration Time (usec): 3000 (USB2E3373)
Spectra Averaged: 3 (USB2E3373)
Boxcar Smoothing: 0 (USB2E3373)
Correct for Electrical Dark: No (USB2E3373)
Strobe/Lamp Enabled: No (USB2E3373)
Correct for Detector Non-linearity: No (USB2E3373)
Correct for Stray Light: No (USB2E3373)
Number of Pixels in Processed Spectrum: 2048
>>>>>Begin Processed Spectral Data<<<<<
178.53	0.000
178.91	550.000
179.29	125.000
179.67	-500.000
180.04	-566.667
180.42	140.000
180.80	900.000
181.18	183.333
181.56	-350.000
181.94	-275.000
182.31	27.273
182.69	100.000
183.07	-120.000
183.45	200.000
183.83	155.556
184.20	85.714
184.58	400.000
184.96	166.667
185.34	171.429
185.72	0.000
186.09	-500.000
186.47	-120.000
186.85	300.000
187.23	-300.000
187.61	1000.000
187.98	1200.000
188.36	-37.500
188.74	0.000
189.12	-63.636
189.49	50.000
189.87	58.333
190.25	300.000
190.63	400.000
191.00	100.000
191.38	120.000
191.76	325.000
192.14	141.667
192.51	-63.158
192.89	600.000
193.27	225.000
193.65	-160.000
194.02	127.273
194.40	110.000
194.78	-900.000
195.15	300.000
195.53	-160.000
195.91	-37.500
196.29	-266.667
196.66	0.000
197.04	600.000
197.42	-40.000
197.79	20.000
198.17	-75.000
198.55	-400.000
198.92	175.000
199.30	-133.333
199.68	-70.000
200.05	-200.000
200.43	166.667
200.81	-1200.000
201.18	-140.000
201.56	16.667
201.94	650.000
202.31	4.348
202.69	-114.286
203.07	-333.333
203.44	-20.000
203.82	-333.333
204.19	-50.000
204.57	0.000
204.95	-100.000
205.32	0.000
205.70	-700.000
206.08	-175.000
206.45	-150.000
206.83	425.000
207.20	-133.333
207.58	-80.000
207.96	-1300.000
208.33	-214.286
208.71	-900.000
209.08	50.000
209.46	200.000
209.84	0.000
210.21	-0.000
210.59	1700.000
210.96	280.000
211.34	800.000
211.71	-600.000
212.09	-200.000
212.46	-40.000
212.84	-33.333
213.22	75.000
213.59	-900.000
213.97	-300.000
214.34	-700.000
214.72	-53.846
215.09	262.500
215.47	144.444
215.84	550.000
216.22	-37.500
216.59	-750.000
216.97	666.667
217.34	88.889
217.72	0.000
218.09	500.000
218.47	-800.000
218.84	-42.857
219.22	-187.500
219.59	-300.000
219.97	-125.000
220.34	-125.000
220.72	-200.000
221.09	0.000
221.47	-150.000
221.84	-200.000
222.22	0.000
222.59	200.000
222.97	-200.000
223.34	-25.000
223.72	-1700.000
224.09	-650.000
224.46	-9.091
224.84	-75.000
225.21	-142.857
225.59	-200.000
225.96	-150.000
226.34	-10.000
226.71	-185.714
227.08	300.000
227.46	-75.000
227.83	300.000
228.21	-75.000
228.58	-175.000
228.95	-5.882
229.33	0.000
229.70	-12.500
230.08	-15.385
230.45	-125.000
230.82	-83.333
231.20	185.714
231.57	-275.000
231.95	700.000
232.32	0.000
232.69	0.000
233.07	-1000.000
233.44	4.348
233.81	-150.000
234.19	-4.167
234.56	-40.000
234.93	20.000
235.31	-21.053
235.68	-30.769
236.05	-15.385
236.43	-11.111
236.80	-12.121
237.17	-66.667
237.55	-82.353
237.92	-13.793
238.29	44.444
238.67	5.556
239.04	-3.226
239.41	-2.128
239.79	36.170
240.16	34.884
240.53	19.643
240.91	48.214
241.28	14.286
241.65	12.903
242.02	26.316
242.40	31.884
242.77	13.043
243.14	24.359
243.51	25.532
243.89	23.077
244.26	27.358
244.63	15.385
245.00	36.458
245.38	22.689
245.75	31.148
246.12	23.308
246.49	21.951
246.87	22.689
247.24	26.351
247.61	24.503
247.98	30.128
248.36	27.219
248.73	29.213
249.10	34.848
249.47	30.108
249.84	27.895
250.22	30.846
250.59	29.907
250.96	29.545
251.33	22.967
251.70	29.289
252.08	30.126
252.45	32.099
252.82	30.418
253.19	30.350
253.56	25.540
253.94	30.961
254.31	27.817
254.68	31.208
255.05	28.383
255.42	29.021
255.79	27.914
256.16	34.700
256.54	26.349
256.91	26.899
257.28	27.673
257.65	26.433
258.02	32.258
258.39	30.409
258.76	30.523
259.14	30.682
259.51	29.494
259.88	30.623
260.25	28.889
260.62	30.899
260.99	29.443
261.36	31.865
261.73	29.630
262.10	30.534
262.47	27.407
262.85	32.338
263.22	31.795
263.59	29.351
263.96	26.521
264.33	27.885
264.70	30.233
265.07	31.944
265.44	31.264
265.81	29.748
266.18	30.068
266.55	29.476
266.92	26.695
267.29	30.041
267.66	31.423
268.03	31.070
268.40	30.297
268.77	30.372
269.14	31.020
269.51	32.854
269.88	28.513
270.25	33.051
270.62	31.557
270.99	30.512
271.36	32.341
271.73	32.129
272.10	29.143
272.47	28.023
272.84	29.921
273.21	33.268
273.58	29.303
273.95	30.755
274.32	30.037
274.69	30.783
275.06	31.802
275.43	28.437
275.80	28.723
276.17	28.361
276.54	30.018
276.91	28.223
277.28	29.603
277.65	30.245
278.02	31.607
278.39	29.840
278.76	31.438
279.13	30.017
279.50	28.276
279.87	28.804
280.23	30.090
280.60	30.104
280.97	31.169
281.34	30.915
281.71	28.618
282.08	29.915
282.45	29.508
282.82	28.754
283.19	29.268
283.56	29.688
283.92	28.593
284.29	26.677
284.66	29.819
285.03	28.013
285.40	29.305
285.77	30.030
286.14	28.723
286.51	28.936
286.87	27.846
287.24	28.024
287.61	29.367
287.98	28.382
288.35	29.210
288.72	28.694
289.08	29.060
289.45	26.872
289.82	27.080
290.19	27.349
290.56	25.852
290.93	24.862
291.29	26.949
291.66	27.322
292.03	29.019
292.40	26.110
292.77	27.443
293.13	28.452
293.50	27.451
293.87	25.467
294.24	25.265
294.60	25.748
294.97	25.926
295.34	24.670
295.71	24.179
296.08	23.822
296.44	23.342
296.81	23.995
297.18	27.000
297.55	24.292
297.91	25.466
298.28	24.818
298.65	24.384
299.02	23.687
299.38	24.172
299.75	24.760
300.12	24.419
300.48	23.509
300.85	23.557
301.22	23.926
301.59	23.826
301.95	22.648
302.32	23.804
302.69	22.825
303.05	22.813
303.42	23.864
303.79	23.449
304.15	25.192
304.52	25.699
304.89	23.367
305.25	22.613
305.62	23.319
305.99	24.483
306.35	24.869
306.72	24.517
307.09	23.566
307.45	25.133
307.82	23.684
308.19	23.197
308.55	23.337
308.92	24.460
309.29	24.224
309.65	24.675
310.02	23.857
310.38	25.102
310.75	24.753
311.12	24.879
311.48	26.212
311.85	25.689
312.22	27.756
312.58	25.121
312.95	26.169
313.31	26.630
313.68	26.145
314.05	28.072
314.41	28.626
314.78	28.178
315.14	28.519
315.51	28.639
315.87	28.267
316.24	29.568
316.61	30.411
316.97	30.741
317.34	30.481
317.70	31.222
318.07	32.653
318.43	31.978
318.80	31.239
319.16	32.891
319.53	34.588
319.89	34.056
320.26	35.397
320.62	36.145
320.99	35.078
321.35	36.109
321.72	36.381
322.08	36.716
322.45	37.743
322.81	38.355
323.18	37.388
323.54	40.433
323.91	39.476
324.27	40.864
324.64	40.592
325.00	41.995
325.37	42.662
325.73	42.088
326.10	43.398
326.46	43.562
326.83	42.799
327.19	43.740
327.56	44.641
327.92	44.650
328.29	46.494
328.65	46.889
329.01	46.174
329.38	47.826
329.74	46.352
330.11	46.709
330.47	46.181
330.84	47.563
331.20	46.883
331.56	47.917
331.93	48.407
332.29	47.785
332.66	46.525
333.02	48.653
333.38	47.895
333.75	48.123
334.11	48.351
334.48	49.346
334.84	49.205
335.20	48.628
335.57	48.216
335.93	48.282
336.29	47.461
336.66	48.291
337.02	48.957
337.38	46.649
337.75	49.871
338.11	47.566
338.47	47.260
338.84	49.656
339.20	50.088
339.56	49.573
339.93	48.920
340.29	47.993
340.65	49.102
341.02	49.085
341.38	50.929
341.74	48.992
342.11	47.894
342.47	50.795
342.83	48.611
343.20	50.254
343.56	48.651
343.92	48.578
344.28	48.701
344.65	50.204
345.01	49.314
345.37	50.493
345.73	51.961
346.10	50.241
346.46	49.837
346.82	50.161
347.19	49.684
347.55	51.373
347.91	48.870
348.27	50.946
348.63	48.718
349.00	49.528
349.36	50.392
349.72	50.657
350.08	50.000
350.45	50.196
350.81	51.017
351.17	51.039
351.53	49.097
351.89	50.199
352.26	49.730
352.62	50.465
352.98	50.799
353.34	52.657
353.70	50.312
354.07	51.059
354.43	51.477
354.79	52.404
355.15	51.320
355.51	50.949
355.87	51.603
356.24	52.488
356.60	50.821
356.96	51.266
357.32	51.006
357.68	51.948
358.04	51.202
358.40	50.853
358.77	52.905
359.13	52.374
359.49	51.173
359.85	51.706
360.21	53.739
360.57	52.395
360.93	54.021
361.29	53.886
361.66	53.379
362.02	52.928
362.38	53.619
362.74	51.704
363.10	53.724
363.46	52.810
363.82	53.437
364.18	52.212
364.54	53.975
364.90	53.519
365.26	52.866
365.62	54.403
365.98	54.021
366.35	54.823
366.71	54.208
367.07	54.713
367.43	53.728
367.79	55.594
368.15	54.923
368.51	54.008
368.87	55.618
369.23	53.452
369.59	55.180
369.95	55.080
370.31	54.463
370.67	55.684
371.03	57.016
371.39	54.294
371.75	54.500
372.11	55.271
372.47	55.804
372.83	56.172
373.19	55.683
373.55	55.564
373.91	54.880
374.27	54.703
374.63	56.615
374.99	56.894
375.35	55.959
375.71	54.552
376.07	56.340
376.42	55.615
376.78	56.671
377.14	58.034
377.50	56.128
377.86	56.773
378.22	56.195
378.58	56.683
378.94	57.563
379.30	57.527
379.66	57.398
380.02	57.108
380.38	55.783
380.74	56.724
381.09	56.454
381.45	56.711
381.81	56.993
382.17	55.829
382.53	56.431
382.89	56.152
383.25	57.963
383.61	56.901
383.97	57.750
384.32	57.404
384.68	57.989
385.04	57.056
385.40	57.285
385.76	56.265
386.12	57.456
386.48	55.486
386.83	57.259
387.19	57.495
387.55	56.775
387.91	58.733
388.27	56.782
388.62	58.052
388.98	56.446
389.34	57.707
389.70	55.617
390.06	58.250
390.42	57.925
390.77	57.271
391.13	58.207
391.49	57.685
391.85	56.677
392.20	56.391
392.56	57.905
392.92	56.875
393.28	57.873
393.64	57.737
393.99	56.548
394.35	57.099
394.71	57.308
395.07	55.849
395.42	57.465
395.78	56.113
396.14	57.007
396.50	56.436
396.85	58.955
397.21	56.242
397.57	56.522
397.92	55.988
398.28	56.740
398.64	56.831
399.00	55.301
399.35	56.470
399.71	55.387
400.07	56.446
400.42	55.361
400.78	55.589
401.14	56.898
401.49	56.321
401.85	55.405
402.21	55.913
402.57	55.487
402.92	57.134
403.28	55.785
403.63	55.735
403.99	55.854
404.35	55.362
404.70	55.408
405.06	55.549
405.42	55.842
405.77	54.839
406.13	55.086
406.49	55.123
406.84	55.556
407.20	54.648
407.55	56.234
407.91	55.129
408.27	53.150
408.62	55.678
408.98	54.686
409.34	53.960
409.69	55.361
410.05	54.851
410.40	53.317
410.76	54.874
411.11	54.602
411.47	56.802
411.83	54.460
412.18	54.849
412.54	54.135
412.89	54.984
413.25	54.100
413.60	54.859
413.96	53.808
414.31	54.747
414.67	53.841
415.03	54.601
415.38	53.236
415.74	53.671
416.09	55.519
416.45	54.067
416.80	53.826
417.16	54.453
417.51	54.722
417.87	54.167
418.22	53.975
418.58	53.811
418.93	54.991
419.29	57.030
419.64	54.135
420.00	55.683
420.35	54.752
420.71	54.540
421.06	54.367
421.42	53.771
421.77	55.145
422.12	55.301
422.48	54.744
422.83	55.464
423.19	54.227
423.54	55.948
423.90	56.591
424.25	55.921
424.61	54.713
424.96	54.347
425.31	54.291
425.67	56.673
426.02	56.537
426.38	56.530
426.73	55.528
427.09	55.660
427.44	55.666
427.79	54.988
428.15	55.719
428.50	56.314
428.85	55.904
429.21	54.586
429.56	56.376
429.92	55.180
430.27	56.288
430.62	55.824
430.98	57.271
431.33	56.744
431.68	56.603
432.04	56.338
432.39	55.889
432.74	55.917
433.10	56.886
433.45	56.568
433.80	58.276
434.16	57.127
434.51	56.685
434.86	57.538
435.22	56.650
435.57	56.880
435.92	57.600
436.28	56.517
436.63	58.083
436.98	57.168
437.34	57.998
437.69	57.202
438.04	55.914
438.39	60.025
438.75	57.867
439.10	59.225
439.45	58.959
439.81	57.943
440.16	57.739
440.51	57.253
440.86	58.032
441.22	58.635
441.57	57.646
441.92	58.320
442.27	57.684
442.63	57.912
442.98	58.681
443.33	59.537
443.68	58.144
444.03	58.172
444.39	59.395
444.74	58.973
445.09	58.645
445.44	59.718
445.79	59.112
446.15	60.067
446.50	59.747
446.85	60.823
447.20	59.226
447.55	58.814
447.91	61.404
448.26	59.577
448.61	59.954
448.96	60.706
449.31	58.824
449.66	59.746
450.02	60.318
450.37	61.633
450.72	59.185
451.07	60.376
451.42	58.890
451.77	60.256
452.12	59.239
452.47	61.007
452.83	59.316
453.18	60.598
453.53	60.782
453.88	59.759
454.23	61.125
454.58	60.355
454.93	58.884
455.28	60.437
455.63	60.512
455.98	59.890
456.34	59.377
456.69	59.297
457.04	59.009
457.39	60.373
457.74	60.563
458.09	60.604
458.44	59.518
458.79	58.759
459.14	58.539
459.49	60.427
459.84	59.977
460.19	58.283
460.54	60.158
460.89	59.854
461.24	58.570
461.59	59.662
461.94	59.735
462.29	58.272
462.64	59.169
462.99	58.820
463.34	58.978
463.69	58.956
464.04	58.944
464.39	59.732
464.74	58.722
465.09	59.268
465.44	58.025
465.79	60.092
466.14	58.723
466.49	58.651
466.84	58.757
467.19	58.280
467.54	59.041
467.89	58.831
468.24	58.513
468.59	59.146
468.94	57.407
469.29	57.766
469.64	58.577
469.99	58.759
470.34	58.058
470.68	58.810
471.03	57.616
471.38	59.040
471.73	56.516
472.08	57.663
472.43	59.169
472.78	59.162
473.13	56.464
473.48	56.556
473.83	58.318
474.17	57.812
474.52	57.735
474.87	57.600
475.22	57.609
475.57	56.553
475.92	57.306
476.27	55.711
476.61	57.418
476.96	57.738
477.31	56.796
477.66	57.571
478.01	54.615
478.36	55.695
478.70	57.143
479.05	58.657
479.40	56.214
479.75	56.429
480.10	56.298
480.45	56.057
480.79	56.297
481.14	57.092
481.49	56.487
481.84	54.948
482.19	55.767
482.53	55.095
482.88	55.705
483.23	54.187
483.58	55.009
483.92	54.912
484.27	55.215
484.62	54.860
484.97	55.371
485.31	54.727
485.66	52.551
486.01	53.966
486.36	52.830
486.70	53.274
487.05	53.238
487.40	53.022
487.75	54.608
488.09	53.206
488.44	53.873
488.79	53.482
489.13	53.439
489.48	53.228
489.83	53.551
490.17	52.928
490.52	56.007
490.87	52.758
491.22	53.650
491.56	54.720
491.91	53.769
492.26	53.772
492.60	52.621
492.95	53.499
493.30	52.762
493.64	51.415
493.99	53.575
494.34	52.842
494.68	53.890
495.03	52.668
495.37	52.701
495.72	52.782
496.07	53.288
496.41	52.316
496.76	52.925
497.11	52.817
497.45	52.091
497.80	52.600
498.14	52.645
498.49	51.488
498.84	52.429
499.18	52.464
499.53	51.256
499.87	51.043
500.22	52.315
500.56	51.103
500.91	51.358
501.26	50.493
501.60	50.882
501.95	50.982
502.29	51.068
502.64	50.868
502.98	49.807
503.33	51.290
503.67	51.022
504.02	50.490
504.36	50.173
504.71	50.254
505.06	51.146
505.40	51.186
505.75	50.509
506.09	50.077
506.44	50.554
506.78	50.076
507.13	50.936
507.47	50.318
507.82	49.765
508.16	50.237
508.51	49.329
508.85	50.078
509.19	49.788
509.54	49.437
509.88	49.247
510.23	48.000
510.57	48.358
510.92	49.569
511.26	50.770
511.61	48.463
511.95	48.732
512.30	49.417
512.64	50.284
512.98	49.030
513.33	48.394
513.67	48.949
514.02	49.373
514.36	47.921
514.70	49.538
515.05	49.795
515.39	48.762
515.74	47.365
516.08	47.847
516.42	47.523
516.77	46.866
517.11	48.148
517.46	48.920
517.80	48.487
518.14	47.275
518.49	47.378
518.83	47.673
519.17	47.530
519.52	47.527
519.86	47.966
520.20	46.938
520.55	47.201
520.89	49.209
521.23	48.526
521.58	48.357
521.92	46.323
522.26	47.235
522.61	48.546
522.95	47.733
523.29	46.667
523.64	47.362
523.98	46.760
524.32	47.007
524.66	47.987
525.01	47.313
525.35	45.622
525.69	47.382
526.04	45.863
526.38	45.953
526.72	46.483
527.06	45.390
527.41	45.599
527.75	45.394
528.09	46.903
528.43	45.862
528.78	45.801
529.12	45.213
529.46	44.914
529.80	45.372
530.15	44.015
530.49	45.283
530.83	45.295
531.17	46.027
531.51	44.167
531.86	44.309
532.20	44.659
532.54	44.759
532.88	45.337
533.22	45.589
533.57	45.232
533.91	44.903
534.25	44.792
534.59	43.758
534.93	43.750
535.27	43.694
535.62	45.263
535.96	43.071
536.30	43.285
536.64	42.789
536.98	43.588
537.32	43.915
537.66	44.993
538.01	42.996
538.35	43.301
538.69	42.742
539.03	41.544
539.37	41.046
539.71	42.497
540.05	41.161
540.39	42.533
540.73	42.598
541.07	42.721
541.42	41.818
541.76	42.490
542.10	40.758
542.44	41.372
542.78	41.707
543.12	41.577
543.46	41.189
543.80	41.073
544.14	43.152
544.48	39.947
544.82	40.619
545.16	40.771
545.50	41.796
545.84	40.884
546.18	41.304
546.52	40.508
546.86	40.141
547.20	41.244
547.54	39.457
547.88	41.093
548.22	39.674
548.56	40.160
548.90	40.257
549.24	39.931
549.58	39.288
549.92	40.792
550.26	41.181
550.60	40.616
550.94	40.149
551.28	39.213
551.62	40.376
551.96	40.996
552.30	39.083
552.64	39.619
552.98	40.057
553.32	40.014
553.66	39.839
554.00	39.597
554.34	38.755
554.68	38.777
555.02	38.997
555.36	39.032
555.69	39.111
556.03	38.956
556.37	38.336
556.71	37.982
557.05	38.745
557.39	38.809
557.73	39.107
558.07	39.035
558.41	37.699
558.75	40.416
559.08	37.610
559.42	39.103
559.76	36.850
560.10	37.971
560.44	38.615
560.78	39.209
561.12	38.192
561.45	37.687
561.79	38.171
562.13	38.186
562.47	38.571
562.81	37.446
563.15	37.677
563.48	37.302
563.82	38.167
564.16	37.441
564.50	37.449
564.84	37.027
565.17	37.947
565.51	38.168
565.85	37.042
566.19	37.881
566.52	36.304
566.86	36.915
567.20	36.897
567.54	36.269
567.88	35.442
568.21	35.796
568.55	35.733
568.89	35.643
569.23	35.060
569.56	35.252
569.90	34.893
570.24	33.971
570.57	33.709
570.91	34.154
571.25	34.236
571.59	33.764
571.92	33.529
572.26	34.036
572.60	33.354
572.93	34.302
573.27	33.343
573.61	33.516
573.95	33.421
574.28	33.076
574.62	32.881
574.96	33.194
575.29	33.701
575.63	33.035
575.97	33.207
576.30	32.957
576.64	32.984
576.98	32.921
577.31	33.003
577.65	32.383
577.98	32.671
578.32	32.775
578.66	33.089
578.99	32.723
579.33	32.759
579.67	32.536
580.00	32.547
580.34	32.719
580.67	32.141
581.01	32.323
581.35	32.582
581.68	32.463
582.02	32.541
582.35	32.562
582.69	32.715
583.02	31.765
583.36	32.226
583.70	32.512
584.03	32.354
584.37	31.667
584.70	31.372
585.04	32.750
585.37	32.296
585.71	32.248
586.04	32.105
586.38	31.834
586.72	32.060
587.05	32.431
587.39	31.605
587.72	31.862
588.06	31.737
588.39	31.962
588.73	32.100
589.06	32.105
589.40	32.198
589.73	32.447
590.07	32.410
590.40	32.261
590.73	32.577
591.07	32.511
591.40	31.826
591.74	32.192
592.07	32.451
592.41	33.290
592.74	31.790
593.08	31.453
593.41	31.760
593.75	31.363
594.08	31.744
594.41	31.627
594.75	32.234
595.08	32.151
595.42	31.281
595.75	31.381
596.09	31.293
596.42	31.944
596.75	31.373
597.09	32.120
597.42	32.257
597.75	31.911
598.09	31.557
598.42	32.662
598.76	31.402
599.09	32.573
599.42	31.533
599.76	31.506
600.09	30.196
600.42	31.149
600.76	31.116
601.09	30.998
601.42	31.595
601.76	30.965
602.09	32.266
602.42	31.903
602.76	30.789
603.09	31.745
603.42	31.267
603.76	30.982
604.09	30.356
604.42	30.557
604.76	30.816
605.09	30.675
605.42	30.859
605.75	31.435
606.09	29.636
606.42	30.798
606.75	30.216
607.09	30.319
607.42	30.648
607.75	30.153
608.08	30.027
608.42	30.740
608.75	30.530
609.08	30.426
609.41	30.899
609.75	30.408
610.08	31.164
610.41	30.904
610.74	30.125
611.07	29.960
611.41	30.962
611.74	29.917
612.07	29.807
612.40	30.432
612.73	30.296
613.07	29.878
613.40	31.222
613.73	31.040
614.06	30.182
614.39	28.794
614.72	31.205
615.06	30.389
615.39	29.691
615.72	29.968
616.05	30.631
616.38	31.042
616.71	30.594
617.05	30.897
617.38	29.020
617.71	29.044
618.04	29.860
618.37	29.905
618.70	29.560
619.03	29.828
619.36	30.819
619.69	29.020
620.03	29.541
620.36	30.132
620.69	30.121
621.02	30.231
621.35	29.681
621.68	29.829
622.01	31.311
622.34	29.738
622.67	29.757
623.00	30.319
623.33	31.189
623.66	29.591
623.99	30.533
624.32	29.787
624.65	30.267
624.99	29.904
625.32	30.022
625.65	30.620
625.98	30.253
626.31	30.776
626.64	30.439
626.97	29.498
627.30	30.710
627.63	30.882
627.96	29.091
628.29	30.791
628.62	29.594
628.95	30.461
629.28	31.330
629.61	29.952
629.94	30.077
630.26	31.724
630.59	30.370
630.92	29.518
631.25	28.939
631.58	29.764
631.91	29.056
632.24	30.296
632.57	28.889
632.90	32.555
633.23	29.736
633.56	30.935
633.89	30.622
634.22	32.391
634.55	30.085
634.88	30.392
635.20	29.250
635.53	31.266
635.86	31.154
636.19	30.397
636.52	29.390
636.85	29.312
637.18	27.893
637.51	28.964
637.83	30.809
638.16	29.867
638.49	28.705
638.82	30.980
639.15	29.920
639.48	31.016
639.81	29.861
640.13	32.958
640.46	30.367
640.79	28.633
641.12	27.663
641.45	30.277
641.77	29.308
642.10	28.744
642.43	32.075
642.76	29.180
643.09	30.351
643.41	29.506
643.74	30.048
644.07	28.155
644.40	30.514
644.73	30.339
645.05	29.668
645.38	27.575
645.71	29.082
646.04	27.104
646.36	28.646
646.69	30.070
647.02	28.051
647.35	29.616
647.67	29.205
648.00	27.536
648.33	30.678
648.66	28.214
648.98	28.727
649.31	29.141
649.64	27.387
649.96	27.172
650.29	26.307
650.62	28.995
650.94	29.138
651.27	28.445
651.60	30.070
651.92	30.645
652.25	28.978
652.58	28.053
652.90	28.788
653.23	27.165
653.56	25.785
653.88	26.109
654.21	26.109
654.54	27.076
654.86	28.130
655.19	27.311
655.52	27.724
655.84	26.536
656.17	31.985
656.49	41.947
656.82	41.353
657.15	30.940
657.47	22.779
657.80	17.038
658.13	18.082
658.45	26.355
658.78	26.493
659.10	26.035
659.43	25.978
659.75	26.846
660.08	26.483
660.41	26.065
660.73	25.482
661.06	25.850
661.38	25.969
661.71	28.893
662.03	28.753
662.36	28.097
662.68	30.538
663.01	30.297
663.33	30.670
663.66	27.051
663.98	27.865
664.31	29.451
664.63	24.324
664.96	29.322
665.28	29.828
665.61	28.078
665.93	27.623
666.26	30.802
666.58	29.122
666.91	28.924
667.23	27.189
667.56	28.506
667.88	28.738
668.21	30.357
668.53	24.828
668.86	29.257
669.18	25.532
669.50	24.194
669.83	27.446
670.15	28.810
670.48	24.598
670.80	29.759
671.13	28.604
671.45	27.169
671.77	25.216
672.10	25.731
672.42	26.527
672.75	24.821
673.07	26.000
673.39	27.425
673.72	28.743
674.04	27.049
674.37	28.455
674.69	25.309
675.01	28.205
675.34	29.759
675.66	29.412
675.98	29.204
676.31	26.923
676.63	28.798
676.95	25.882
677.28	26.606
677.60	28.186
677.92	27.938
678.25	28.633
678.57	27.088
678.89	28.785
679.22	25.880
679.54	28.571
679.86	28.711
680.18	26.346
680.51	25.385
680.83	23.587
681.15	27.308
681.48	23.848
681.80	26.585
682.12	25.833
682.44	25.151
682.77	22.316
683.09	26.786
683.41	26.512
683.73	24.330
684.06	25.000
684.38	25.641
684.70	23.014
685.02	27.479
685.34	27.202
685.67	29.268
685.99	24.555
686.31	26.552
686.63	25.735
686.96	26.531
687.28	26.747
687.60	27.410
687.92	25.097
688.24	27.400
688.56	28.947
688.89	24.722
689.21	23.767
689.53	24.099
689.85	27.191
690.17	28.132
690.49	28.986
690.82	26.253
691.14	25.845
691.46	25.986
691.78	27.692
692.10	24.204
692.42	25.714
692.74	26.522
693.06	25.843
693.39	25.761
693.71	27.333
694.03	28.409
694.35	24.550
694.67	26.000
694.99	27.062
695.31	25.581
695.63	24.390
695.95	23.664
696.27	24.658
696.59	23.656
696.91	24.860
697.23	22.589
697.56	26.139
697.88	26.611
698.20	27.214
698.52	24.533
698.84	28.469
699.16	21.749
699.48	25.679
699.80	25.581
700.12	25.201
700.44	21.690
700.76	24.719
701.08	24.773
701.40	25.749
701.72	26.154
702.04	22.013
702.36	21.037
702.68	22.866
703.00	28.947
703.32	23.120
703.64	25.602
703.96	23.167
704.28	26.506
704.60	23.780
704.91	20.376
705.23	26.899
705.55	25.172
705.87	23.592
706.19	27.473
706.51	21.831
706.83	25.796
707.15	26.829
707.47	26.171
707.79	26.142
708.11	23.136
708.43	26.904
708.74	23.404
709.06	23.797
709.38	26.225
709.70	26.426
710.02	24.299
710.34	25.000
710.66	25.081
710.98	23.839
711.29	25.974
711.61	20.968
711.93	27.097
712.25	26.224
712.57	20.702
712.89	26.374
713.20	25.532
713.52	25.912
713.84	26.129
714.16	23.948
714.48	22.785
714.80	21.406
715.11	26.163
715.43	22.671
715.75	26.708
716.07	24.096
716.39	22.559
716.70	27.698
717.02	22.353
717.34	27.273
717.66	24.569
717.97	24.603
718.29	23.622
718.61	26.180
718.93	20.155
719.24	25.461
719.56	23.970
719.88	19.403
720.20	26.482
720.51	25.391
720.83	26.848
721.15	18.699
721.46	24.809
721.78	27.092
722.10	21.912
722.42	20.565
722.73	25.097
723.05	22.857
723.37	25.210
723.68	20.000
724.00	20.000
724.32	23.431
724.63	23.868
724.95	21.795
725.27	27.848
725.58	26.749
725.90	23.431
726.22	22.464
726.53	25.882
726.85	25.912
727.16	21.111
727.48	26.054
727.80	21.094
728.11	22.131
728.43	23.437
728.74	20.635
729.06	20.800
729.38	22.134
729.69	22.420
730.01	28.625
730.32	25.461
730.64	21.212
730.96	24.476
731.27	21.405
731.59	22.222
731.90	24.595
732.22	19.231
732.53	23.649
732.85	20.805
733.16	26.403
733.48	22.297
733.80	19.595
734.11	25.000
734.43	24.768
734.74	28.228
735.06	21.902
735.37	23.100
735.69	23.625
736.00	21.452
736.32	26.241
736.63	18.621
736.95	20.548
737.26	22.069
737.58	21.181
737.89	22.680
738.21	20.996
738.52	23.954
738.83	26.939
739.15	21.519
739.46	23.346
739.78	16.549
740.09	24.315
740.41	22.143
740.72	21.631
741.04	20.400
741.35	19.737
741.66	21.333
741.98	25.962
742.29	26.238
742.61	18.049
742.92	22.807
743.23	18.868
743.55	20.721
743.86	23.767
744.18	22.549
744.49	20.812
744.80	21.429
745.12	23.832
745.43	26.540
745.74	22.523
746.06	23.364
746.37	21.560
746.68	22.596
747.00	22.010
747.31	18.750
747.62	26.606
747.94	26.638
748.25	20.183
748.56	29.778
748.88	27.700
749.19	23.333
749.50	18.932
749.82	16.901
750.13	18.750
750.44	21.923
750.75	22.140
751.07	28.826
751.38	23.404
751.69	24.710
752.01	21.875
752.32	21.154
752.63	23.507
752.94	22.400
753.26	20.084
753.57	17.083
753.88	21.862
754.19	21.116
754.51	21.053
754.82	17.949
755.13	17.826
755.44	20.732
755.75	20.400
756.07	22.140
756.38	21.223
756.69	21.502
757.00	23.364
757.31	21.683
757.63	22.840
757.94	23.729
758.25	21.693
758.56	19.837
758.87	22.321
759.18	23.028
759.50	22.896
759.81	25.084
760.12	19.692
760.43	20.238
760.74	20.904
761.05	20.442
761.36	21.203
761.67	21.752
761.99	19.244
762.30	15.328
762.61	23.457
762.92	23.077
763.23	24.180
763.54	26.840
763.85	22.857
764.16	19.106
764.47	22.000
764.78	21.071
765.10	19.344
765.41	21.277
765.72	21.118
766.03	21.782
766.34	21.923
766.65	15.900
766.96	16.432
767.27	20.792
767.58	16.854
767.89	24.074
768.20	14.365
768.51	18.593
768.82	25.000
769.13	21.681
769.44	21.757
769.75	16.667
770.06	18.834
770.37	17.157
770.68	24.757
770.99	21.845
771.30	24.790
771.61	23.265
771.92	23.237
772.23	20.270
772.54	15.470
772.85	12.791
773.16	23.810
773.47	12.426
773.78	26.437
774.09	23.750
774.39	23.602
774.70	25.850
775.01	18.621
775.32	10.714
775.63	26.316
775.94	16.541
776.25	4.000
776.56	18.182
776.87	17.460
777.18	18.919
777.48	15.315
777.79	13.386
778.10	18.349
778.41	4.386
778.72	19.328
779.03	12.676
779.34	19.595
779.65	13.380
779.95	20.530
780.26	12.950
780.57	23.741
780.88	16.197
781.19	10.924
781.50	24.161
781.80	18.129
782.11	16.860
782.42	25.157
782.73	26.797
783.04	20.000
783.34	8.397
783.65	15.436
783.96	11.538
784.27	24.286
784.57	19.858
784.88	10.577
785.19	29.091
785.50	30.000
785.81	8.571
786.11	10.924
786.42	23.009
786.73	16.981
787.04	10.092
787.34	13.861
787.65	20.833
787.96	14.050
788.26	19.565
788.57	14.286
788.88	13.008
789.19	20.000
789.49	16.031
789.80	28.030
790.11	13.208
790.41	10.891
790.72	13.830
791.03	25.000
791.33	17.647
791.64	23.457
791.95	18.478
792.25	17.045
792.56	20.513
792.87	5.128
793.17	-2.564
793.48	3.571
793.79	8.750
794.09	19.231
794.40	14.583
794.70	16.216
795.01	17.188
795.32	21.739
795.62	-3.261
795.93	11.321
796.23	17.172
796.54	18.293
796.85	11.905
797.15	16.667
797.46	27.536
797.76	11.842
798.07	17.045
798.37	18.293
798.68	4.839
798.99	14.865
799.29	26.506
799.60	10.256
799.90	4.615
800.21	7.576
800.51	21.333
800.82	24.000
801.12	-29.167
801.43	-5.000
801.73	8.108
802.04	28.571
802.34	26.230
802.65	22.388
802.95	16.364
803.26	8.621
803.56	15.385
803.87	24.528
804.17	0.000
804.48	11.765
804.78	-2.439
805.09	26.087
805.39	4.412
805.70	-4.255
806.00	5.263
806.30	20.513
806.61	14.474
806.91	27.027
807.22	13.158
807.52	17.045
807.83	-13.559
808.13	-10.606
808.43	3.333
808.74	-10.345
809.04	12.698
809.35	16.327
809.65	5.000
809.95	-12.245
810.26	23.944
810.56	4.167
810.86	-8.163
811.17	15.385
811.47	14.894
811.77	2.083
812.08	37.736
812.38	-12.500
812.69	-9.091
812.99	-17.073
813.29	-10.811
813.59	-29.730
813.90	18.182
814.20	5.455
814.50	1.667
814.81	16.364
815.11	14.035
815.41	20.930
815.72	0.000
816.02	11.429
816.32	0.000
816.62	22.917
816.93	13.333
817.23	-4.444
817.53	0.000
817.84	-27.027
818.14	14.634
818.44	20.000
818.74	0.000
819.04	19.512
819.35	5.556
819.65	11.364
819.95	-38.889
820.25	6.061
820.56	-28.571
820.86	-11.111
821.16	-31.818
821.46	-2.174
821.76	12.069
822.07	15.217
822.37	42.424
822.67	31.707
822.97	8.108
823.27	-14.286
823.57	6.897
823.88	-32.353
824.18	11.111
824.48	8.571
824.78	-14.286
825.08	-39.286
825.38	11.111
825.69	-3.226
825.99	-9.756
826.29	22.222
826.59	-6.250
826.89	19.355
827.19	-39.130
827.49	0.000
827.79	-21.739
828.09	-35.484
828.39	8.333
828.70	3.125
829.00	-20.690
829.30	10.811
829.60	4.167
829.90	7.407
830.20	-3.125
830.50	27.273
830.80	-117.647
831.10	9.091
831.40	-17.647
831.70	-3.846
832.00	-21.212
832.30	17.647
832.60	-29.730
832.90	900.000
833.20	0.000
833.50	-10.000
833.80	7.895
834.10	-16.667
834.40	-45.455
834.70	-106.667
835.00	-50.000
835.30	-41.667
835.60	-9.524
835.90	28.571
836.20	-40.000
836.50	-16.667
836.80	-21.053
837.10	-2.703
837.40	10.000
837.70	13.043
838.00	62.500
838.30	-26.316
838.60	-190.000
838.90	-130.000
839.19	-75.000
839.49	-69.231
839.79	-52.632
840.09	-283.333
840.39	-120.000
840.69	-27.273
840.99	-4.762
841.29	-16.667
841.59	-76.923
841.88	-53.333
842.18	-21.429
842.48	0.000
842.78	-171.429
843.08	-28.571
843.38	-12.500
843.68	-25.000
843.97	42.857
844.27	-33.333
844.57	-118.182
844.87	0.000
845.17	63.636
845.47	700.000
845.76	-20.000
846.06	-16.667
846.36	-550.000
846.66	-36.842
846.96	-9.091
847.25	-16.667
847.55	-122.222
847.85	-47.619
848.15	-38.462
848.44	-133.333
848.74	-58.333
849.04	-123.077
849.34	-175.000
849.63	-118.182
849.93	-64.286
850.23	-5.000
850.53	-100.000
850.82	-50.000
851.12	-60.000
851.42	-76.471
851.71	-25.000
852.01	23.529
852.31	-46.154
852.61	500.000
852.90	-23.529
853.20	-20.000
853.50	-31.250
853.79	-92.857
854.09	-75.000
854.39	-15.000
854.68	-17.500
854.98	-33.333
855.28	-8.000
855.57	0.000
855.87	0.000
856.17	-12.000
856.46	18.750
856.76	20.000
857.05	-32.000
857.35	-83.333
857.65	-47.059
857.94	-133.333
858.24	-41.667
858.53	-5.000
858.83	-63.636
859.13	12.000
859.42	-64.286
859.72	-100.000
860.01	-4.167
860.31	-37.500
860.60	-56.250
860.90	-166.667
861.20	-66.667
861.49	33.333
861.79	-18.750
862.08	400.000
862.38	-116.667
862.67	342.857
862.97	300.000
863.26	-100.000
863.56	-18.182
863.85	-42.105
864.15	-47.059
864.44	-220.000
864.74	20.000
865.03	-100.000
865.33	-64.286
865.62	185.714
865.92	36.842
866.21	-11.111
866.51	-154.545
866.80	-11.111
867.10	-175.000
867.39	-50.000
867.69	-53.333
867.98	10.000
868.27	35.294
868.57	0.000
868.86	1100.000
869.16	-300.000
869.45	-142.857
869.75	550.000
870.04	10.000
870.33	-1700.000
870.63	-26.316
870.92	-8.333
871.22	-1300.000
871.51	-214.286
871.80	-88.889
872.10	-175.000
>>>>>End Processed Spectral Data<<<<<
