SpectraSuite Data File
++++++++++++++++++++++++++++++++++++
Date: Tue May 12 16:45:24 PDT 2015
User: schluterlab
Dark Spectrum Present: Yes
Reference Spectrum Present: Yes
Number of Sampled Component Spectra: 1
Spectrometers: USB2E3373
Integration Time (usec): 3000 (USB2E3373)
Spectra Averaged: 3 (USB2E3373)
Boxcar Smoothing: 0 (USB2E3373)
Correct for Electrical Dark: No (USB2E3373)
Strobe/Lamp Enabled: No (USB2E3373)
Correct for Detector Non-linearity: No (USB2E3373)
Correct for Stray Light: No (USB2E3373)
Number of Pixels in Processed Spectrum: 2048
>>>>>Begin Processed Spectral Data<<<<<
178.53	0.000
178.91	-225.000
179.29	-650.000
179.67	-4400.000
180.04	-133.333
180.42	525.000
180.80	1600.000
181.18	0.000
181.56	-350.000
181.94	0.000
182.31	1133.333
182.69	-2600.000
183.07	614.286
183.45	-2900.000
183.83	-1550.000
184.20	370.000
184.58	485.714
184.96	-253.846
185.34	-191.667
185.72	1650.000
186.09	-700.000
186.47	-3500.000
186.85	1233.333
187.23	660.000
187.61	1500.000
187.98	537.500
188.36	221.429
188.74	316.667
189.12	366.667
189.49	775.000
189.87	0.000
190.25	475.000
190.63	2800.000
191.00	-233.333
191.38	-3500.000
191.76	-650.000
192.14	500.000
192.51	-2500.000
192.89	1750.000
193.27	866.667
193.65	-1333.333
194.02	-580.000
194.40	400.000
194.78	-171.429
195.15	273.333
195.53	-2900.000
195.91	-360.000
196.29	4100.000
196.66	281.250
197.04	825.000
197.42	-1250.000
197.79	600.000
198.17	308.333
198.55	0.000
198.92	428.571
199.30	1333.333
199.68	1750.000
200.05	516.667
200.43	-483.333
200.81	188.889
201.18	2300.000
201.56	266.667
201.94	-650.000
202.31	-212.500
202.69	-360.000
203.07	3000.000
203.44	-466.667
203.82	325.000
204.19	720.000
204.57	-1700.000
204.95	-850.000
205.32	-520.000
205.70	400.000
206.08	625.000
206.45	-600.000
206.83	288.889
207.20	173.684
207.58	325.000
207.96	720.000
208.33	0.000
208.71	571.429
209.08	600.000
209.46	-3200.000
209.84	-675.000
210.21	860.000
210.59	-520.000
210.96	250.000
211.34	-625.000
211.71	281.818
212.09	950.000
212.46	1650.000
212.84	-450.000
213.22	388.889
213.59	-1600.000
213.97	340.000
214.34	950.000
214.72	1100.000
215.09	900.000
215.47	-2700.000
215.84	-270.000
216.22	-362.500
216.59	0.000
216.97	0.000
217.34	1350.000
217.72	-1450.000
218.09	1166.667
218.47	412.500
218.84	1000.000
219.22	900.000
219.59	833.333
219.97	542.857
220.34	311.111
220.72	1400.000
221.09	3100.000
221.47	283.333
221.84	1266.667
222.22	270.000
222.59	233.333
222.97	164.286
223.34	268.750
223.72	-1750.000
224.09	1000.000
224.46	276.923
224.84	-725.000
225.21	355.556
225.59	233.333
225.96	1133.333
226.34	-620.000
226.71	-750.000
227.08	-540.000
227.46	0.000
227.83	-400.000
228.21	-1250.000
228.58	358.333
228.95	1025.000
229.33	255.556
229.70	1000.000
230.08	323.077
230.45	3700.000
230.82	-950.000
231.20	-866.667
231.57	-1166.667
231.95	520.000
232.32	258.333
232.69	416.667
233.07	275.000
233.44	-1400.000
233.81	186.667
234.19	162.963
234.56	168.750
234.93	235.294
235.31	155.000
235.68	256.250
236.05	146.429
236.43	118.519
236.80	228.571
237.17	113.793
237.55	103.125
237.92	120.000
238.29	124.242
238.67	106.250
239.04	102.439
239.41	56.250
239.79	85.000
240.16	81.250
240.53	70.492
240.91	63.768
241.28	76.271
241.65	66.667
242.02	63.380
242.40	50.000
242.77	56.044
243.14	44.304
243.51	61.616
243.89	36.449
244.26	47.664
244.63	35.644
245.00	40.367
245.38	31.356
245.75	40.909
246.12	43.704
246.49	39.716
246.87	28.689
247.24	36.000
247.61	30.625
247.98	37.415
248.36	24.848
248.73	32.143
249.10	27.381
249.47	26.000
249.84	27.363
250.22	25.405
250.59	29.000
250.96	26.160
251.33	29.302
251.70	32.589
252.08	23.950
252.45	23.108
252.82	22.814
253.19	21.739
253.56	20.769
253.94	23.188
254.31	23.643
254.68	24.739
255.05	24.828
255.42	22.628
255.79	23.453
256.16	25.085
256.54	23.052
256.91	22.876
257.28	23.077
257.65	18.495
258.02	23.009
258.39	19.198
258.76	21.159
259.14	17.714
259.51	22.741
259.88	23.100
260.25	19.780
260.62	20.274
260.99	17.355
261.36	16.435
261.73	19.681
262.10	24.607
262.47	17.750
262.85	16.000
263.22	21.337
263.59	21.228
263.96	17.544
264.33	20.494
264.70	20.885
265.07	20.244
265.44	20.183
265.81	19.575
266.18	20.137
266.55	15.130
266.92	18.792
267.29	19.298
267.66	20.404
268.03	15.919
268.40	18.816
268.77	18.722
269.14	15.835
269.51	16.927
269.88	18.980
270.25	13.607
270.62	18.026
270.99	18.661
271.36	19.715
271.73	18.029
272.10	16.364
272.47	17.659
272.84	15.768
273.21	15.496
273.58	17.004
273.95	15.195
274.32	15.175
274.69	19.291
275.06	19.672
275.43	17.433
275.80	16.415
276.17	17.831
276.54	17.757
276.91	16.231
277.28	14.964
277.65	17.159
278.02	15.257
278.39	17.806
278.76	15.345
279.13	17.616
279.50	15.818
279.87	15.270
280.23	17.311
280.60	17.153
280.97	14.655
281.34	14.521
281.71	17.391
282.08	16.752
282.45	16.554
282.82	14.548
283.19	16.534
283.56	16.033
283.92	14.332
284.29	15.973
284.66	15.462
285.03	14.428
285.40	14.545
285.77	16.358
286.14	15.325
286.51	15.184
286.87	15.032
287.24	13.814
287.61	15.502
287.98	15.075
288.35	15.704
288.72	13.809
289.08	14.414
289.45	14.634
289.82	13.594
290.19	12.738
290.56	15.284
290.93	15.252
291.29	13.674
291.66	14.124
292.03	14.025
292.40	13.821
292.77	13.649
293.13	13.837
293.50	13.360
293.87	12.602
294.24	14.685
294.60	12.921
294.97	14.545
295.34	13.679
295.71	13.272
296.08	14.000
296.44	14.358
296.81	12.407
297.18	12.674
297.55	12.931
297.91	12.562
298.28	12.681
298.65	12.393
299.02	12.666
299.38	14.628
299.75	12.073
300.12	13.761
300.48	12.412
300.85	12.872
301.22	13.023
301.59	11.910
301.95	12.602
302.32	12.689
302.69	11.538
303.05	13.468
303.42	11.883
303.79	13.218
304.15	12.211
304.52	11.945
304.89	11.834
305.25	13.571
305.62	12.580
305.99	12.283
306.35	11.158
306.72	12.799
307.09	11.905
307.45	11.827
307.82	12.346
308.19	12.577
308.55	11.600
308.92	13.445
309.29	13.609
309.65	11.992
310.02	13.083
310.38	11.665
310.75	11.958
311.12	11.590
311.48	13.610
311.85	13.645
312.22	12.894
312.58	12.536
312.95	11.845
313.31	12.079
313.68	12.008
314.05	13.462
314.41	13.315
314.78	12.405
315.14	12.796
315.51	12.299
315.87	12.044
316.24	13.165
316.61	11.996
316.97	11.743
317.34	12.758
317.70	12.028
318.07	12.722
318.43	12.214
318.80	12.084
319.16	12.937
319.53	11.327
319.89	12.366
320.26	13.687
320.62	12.454
320.99	12.583
321.35	12.152
321.72	13.757
322.08	13.112
322.45	12.443
322.81	12.809
323.18	13.233
323.54	14.199
323.91	13.509
324.27	13.882
324.64	12.111
325.00	11.983
325.37	13.406
325.73	13.069
326.10	13.670
326.46	13.377
326.83	12.240
327.19	13.173
327.56	13.179
327.92	13.115
328.29	14.239
328.65	13.356
329.01	13.430
329.38	13.283
329.74	12.895
330.11	13.727
330.47	13.129
330.84	12.079
331.20	13.113
331.56	13.644
331.93	13.858
332.29	11.735
332.66	13.520
333.02	12.113
333.38	12.740
333.75	12.844
334.11	11.997
334.48	13.419
334.84	11.993
335.20	12.660
335.57	13.350
335.93	12.447
336.29	12.438
336.66	13.208
337.02	12.147
337.38	12.726
337.75	12.162
338.11	12.911
338.47	12.193
338.84	11.346
339.20	11.429
339.56	11.943
339.93	12.960
340.29	11.345
340.65	12.490
341.02	13.837
341.38	13.711
341.74	12.874
342.11	10.518
342.47	11.075
342.83	13.126
343.20	11.964
343.56	11.835
343.92	11.643
344.28	12.520
344.65	12.306
345.01	12.222
345.37	11.779
345.73	11.508
346.10	10.916
346.46	12.201
346.82	11.420
347.19	13.292
347.55	11.319
347.91	11.254
348.27	10.534
348.63	12.025
349.00	11.196
349.36	11.362
349.72	12.232
350.08	11.957
350.45	11.272
350.81	12.003
351.17	11.633
351.53	10.316
351.89	11.577
352.26	11.716
352.62	11.388
352.98	11.810
353.34	11.633
353.70	10.856
354.07	11.923
354.43	11.367
354.79	10.706
355.15	11.868
355.51	10.574
355.87	11.521
356.24	11.778
356.60	11.035
356.96	10.842
357.32	11.454
357.68	11.307
358.04	10.790
358.40	11.394
358.77	11.721
359.13	10.586
359.49	10.823
359.85	10.946
360.21	9.510
360.57	11.679
360.93	10.823
361.29	10.823
361.66	11.857
362.02	9.659
362.38	10.462
362.74	10.545
363.10	11.360
363.46	10.359
363.82	10.729
364.18	11.522
364.54	12.089
364.90	11.245
365.26	10.826
365.62	10.497
365.98	11.081
366.35	10.621
366.71	10.618
367.07	11.195
367.43	11.014
367.79	11.037
368.15	9.430
368.51	10.958
368.87	9.986
369.23	10.603
369.59	10.317
369.95	11.399
370.31	11.020
370.67	10.756
371.03	11.345
371.39	10.803
371.75	9.979
372.11	10.877
372.47	11.438
372.83	10.197
373.19	12.132
373.55	10.034
373.91	9.945
374.27	10.185
374.63	10.102
374.99	10.377
375.35	10.081
375.71	10.224
376.07	10.610
376.42	9.527
376.78	10.726
377.14	9.764
377.50	9.800
377.86	9.865
378.22	10.481
378.58	10.775
378.94	10.380
379.30	9.763
379.66	9.994
380.02	10.323
380.38	9.953
380.74	11.130
381.09	10.280
381.45	10.000
381.81	10.343
382.17	9.829
382.53	10.378
382.89	10.467
383.25	10.361
383.61	8.876
383.97	9.838
384.32	10.127
384.68	10.992
385.04	10.199
385.40	10.617
385.76	9.830
386.12	9.276
386.48	9.970
386.83	9.841
387.19	9.541
387.55	10.188
387.91	10.912
388.27	10.054
388.62	10.974
388.98	10.671
389.34	9.816
389.70	10.024
390.06	10.183
390.42	9.809
390.77	9.521
391.13	10.078
391.49	10.829
391.85	9.908
392.20	9.774
392.56	10.275
392.92	10.107
393.28	9.641
393.64	9.174
393.99	9.425
394.35	9.182
394.71	9.650
395.07	9.611
395.42	9.719
395.78	11.228
396.14	10.181
396.50	9.206
396.85	9.939
397.21	9.747
397.57	9.325
397.92	9.070
398.28	8.660
398.64	10.471
399.00	9.514
399.35	9.071
399.71	9.051
400.07	9.132
400.42	9.731
400.78	9.619
401.14	9.630
401.49	9.101
401.85	9.791
402.21	9.315
402.57	9.276
402.92	9.333
403.28	9.129
403.63	8.946
403.99	9.047
404.35	10.082
404.70	10.219
405.06	9.152
405.42	8.558
405.77	8.931
406.13	9.219
406.49	8.755
406.84	9.870
407.20	9.589
407.55	9.600
407.91	10.274
408.27	9.278
408.62	9.698
408.98	9.462
409.34	9.643
409.69	9.085
410.05	9.243
410.40	8.716
410.76	8.643
411.11	8.709
411.47	9.259
411.83	8.494
412.18	9.300
412.54	9.670
412.89	8.437
413.25	9.920
413.60	8.762
413.96	9.096
414.31	8.737
414.67	9.187
415.03	9.642
415.38	9.968
415.74	8.844
416.09	9.369
416.45	9.890
416.80	9.557
417.16	9.612
417.51	9.745
417.87	9.074
418.22	9.295
418.58	9.045
418.93	9.280
419.29	8.441
419.64	10.236
420.00	9.964
420.35	9.059
420.71	9.685
421.06	9.358
421.42	8.693
421.77	8.717
422.12	8.931
422.48	9.399
422.83	9.487
423.19	8.531
423.54	9.435
423.90	9.173
424.25	9.026
424.61	9.228
424.96	9.034
425.31	9.031
425.67	9.203
426.02	9.254
426.38	8.460
426.73	9.370
427.09	9.431
427.44	8.441
427.79	8.405
428.15	9.723
428.50	9.943
428.85	9.465
429.21	9.562
429.56	9.073
429.92	9.150
430.27	8.660
430.62	8.908
430.98	8.932
431.33	8.518
431.68	8.099
432.04	8.846
432.39	9.001
432.74	9.953
433.10	8.970
433.45	9.592
433.80	9.487
434.16	8.513
434.51	9.236
434.86	10.180
435.22	9.238
435.57	8.654
435.92	10.074
436.28	9.620
436.63	9.833
436.98	9.910
437.34	9.646
437.69	9.071
438.04	8.602
438.39	9.340
438.75	10.189
439.10	9.444
439.45	9.497
439.81	9.427
440.16	8.751
440.51	9.516
440.86	10.370
441.22	9.740
441.57	9.396
441.92	9.131
442.27	8.814
442.63	9.604
442.98	8.998
443.33	9.695
443.68	8.753
444.03	8.765
444.39	8.992
444.74	8.851
445.09	9.268
445.44	9.086
445.79	8.869
446.15	9.105
446.50	8.492
446.85	9.462
447.20	8.259
447.55	9.190
447.91	9.750
448.26	9.638
448.61	9.453
448.96	9.477
449.31	9.461
449.66	9.468
450.02	8.644
450.37	9.883
450.72	9.311
451.07	10.122
451.42	9.781
451.77	9.221
452.12	10.210
452.47	9.356
452.83	9.352
453.18	9.550
453.53	9.532
453.88	9.486
454.23	9.762
454.58	8.800
454.93	9.626
455.28	9.608
455.63	9.220
455.98	9.532
456.34	10.334
456.69	9.695
457.04	8.532
457.39	8.914
457.74	9.910
458.09	9.545
458.44	9.803
458.79	9.390
459.14	8.783
459.49	9.003
459.84	9.674
460.19	8.983
460.54	10.313
460.89	10.181
461.24	9.393
461.59	9.921
461.94	9.693
462.29	9.554
462.64	10.490
462.99	9.213
463.34	9.981
463.69	10.042
464.04	9.384
464.39	9.559
464.74	8.910
465.09	9.518
465.44	9.358
465.79	9.145
466.14	9.380
466.49	9.441
466.84	9.365
467.19	10.076
467.54	9.670
467.89	9.624
468.24	8.801
468.59	9.167
468.94	9.179
469.29	9.896
469.64	9.711
469.99	10.347
470.34	9.741
470.68	9.448
471.03	10.207
471.38	9.536
471.73	9.340
472.08	9.589
472.43	9.745
472.78	9.667
473.13	9.449
473.48	9.780
473.83	9.482
474.17	9.666
474.52	10.130
474.87	8.414
475.22	8.966
475.57	9.759
475.92	9.453
476.27	9.249
476.61	9.115
476.96	9.666
477.31	9.254
477.66	9.608
478.01	9.696
478.36	9.269
478.70	9.231
479.05	8.630
479.40	8.780
479.75	9.881
480.10	9.584
480.45	9.477
480.79	9.217
481.14	8.654
481.49	8.600
481.84	8.267
482.19	10.131
482.53	8.827
482.88	9.319
483.23	8.751
483.58	8.752
483.92	9.689
484.27	9.418
484.62	9.126
484.97	9.310
485.31	8.511
485.66	8.329
486.01	7.868
486.36	7.674
486.70	7.776
487.05	7.797
487.40	8.096
487.75	8.065
488.09	8.352
488.44	8.222
488.79	8.747
489.13	8.884
489.48	8.750
489.83	8.716
490.17	8.918
490.52	9.130
490.87	9.138
491.22	9.131
491.56	9.442
491.91	9.005
492.26	8.597
492.60	9.613
492.95	9.425
493.30	9.190
493.64	9.479
493.99	8.989
494.34	8.875
494.68	8.676
495.03	9.340
495.37	9.275
495.72	9.464
496.07	9.659
496.41	8.688
496.76	8.991
497.11	9.597
497.45	8.900
497.80	9.314
498.14	9.431
498.49	9.378
498.84	9.673
499.18	8.775
499.53	8.360
499.87	8.805
500.22	9.028
500.56	8.774
500.91	9.879
501.26	9.646
501.60	9.153
501.95	9.050
502.29	10.000
502.64	9.352
502.98	8.893
503.33	9.399
503.67	8.962
504.02	8.912
504.36	9.095
504.71	8.988
505.06	9.057
505.40	9.219
505.75	9.121
506.09	9.613
506.44	9.352
506.78	9.641
507.13	9.113
507.47	8.297
507.82	10.414
508.16	10.289
508.51	9.469
508.85	9.259
509.19	9.055
509.54	9.180
509.88	10.194
510.23	9.118
510.57	9.073
510.92	9.890
511.26	9.438
511.61	10.143
511.95	9.607
512.30	9.700
512.64	9.294
512.98	9.687
513.33	9.477
513.67	10.306
514.02	9.403
514.36	9.086
514.70	9.227
515.05	9.483
515.39	9.375
515.74	9.951
516.08	9.368
516.42	9.836
516.77	9.440
517.11	9.600
517.46	9.752
517.80	9.667
518.14	9.915
518.49	9.316
518.83	9.011
519.17	9.762
519.52	10.541
519.86	10.136
520.20	10.082
520.55	9.723
520.89	10.057
521.23	9.521
521.58	9.352
521.92	10.321
522.26	9.242
522.61	9.923
522.95	10.030
523.29	9.649
523.64	9.422
523.98	10.035
524.32	10.035
524.66	9.913
525.01	9.467
525.35	10.194
525.69	10.054
526.04	10.470
526.38	9.712
526.72	9.189
527.06	9.698
527.41	10.580
527.75	9.738
528.09	9.934
528.43	10.311
528.78	9.660
529.12	9.633
529.46	9.234
529.80	9.696
530.15	9.605
530.49	9.627
530.83	9.506
531.17	9.779
531.51	10.239
531.86	9.179
532.20	9.023
532.54	8.537
532.88	9.869
533.22	10.238
533.57	9.945
533.91	9.324
534.25	9.463
534.59	9.649
534.93	9.954
535.27	9.277
535.62	9.393
535.96	8.924
536.30	10.725
536.64	9.130
536.98	9.880
537.32	10.938
537.66	9.247
538.01	9.907
538.35	9.170
538.69	9.587
539.03	9.764
539.37	9.223
539.71	9.383
540.05	8.985
540.39	10.000
540.73	9.620
541.07	9.285
541.42	10.199
541.76	9.494
542.10	8.816
542.44	10.287
542.78	9.817
543.12	9.693
543.46	10.777
543.80	9.085
544.14	9.845
544.48	9.002
544.82	10.092
545.16	9.047
545.50	9.465
545.84	9.659
546.18	9.753
546.52	10.033
546.86	10.574
547.20	9.044
547.54	10.766
547.88	9.793
548.22	9.290
548.56	9.546
548.90	9.549
549.24	9.728
549.58	9.021
549.92	10.216
550.26	9.872
550.60	9.581
550.94	10.109
551.28	11.103
551.62	11.034
551.96	10.405
552.30	9.229
552.64	10.097
552.98	9.214
553.32	9.795
553.66	9.642
554.00	9.524
554.34	9.920
554.68	10.551
555.02	10.048
555.36	10.306
555.69	9.555
556.03	10.446
556.37	9.688
556.71	10.887
557.05	9.567
557.39	10.200
557.73	10.175
558.07	9.591
558.41	10.144
558.75	10.534
559.08	10.079
559.42	10.666
559.76	11.333
560.10	9.566
560.44	9.290
560.78	9.974
561.12	10.490
561.45	9.136
561.79	8.989
562.13	9.855
562.47	9.669
562.81	9.174
563.15	9.632
563.48	9.317
563.82	10.044
564.16	9.328
564.50	9.765
564.84	9.483
565.17	9.685
565.51	9.791
565.85	10.241
566.19	9.226
566.52	9.025
566.86	10.683
567.20	10.056
567.54	9.607
567.88	9.650
568.21	9.186
568.55	9.095
568.89	8.987
569.23	9.103
569.56	8.986
569.90	8.372
570.24	8.620
570.57	8.177
570.91	7.925
571.25	7.948
571.59	7.727
571.92	7.858
572.26	7.574
572.60	7.553
572.93	8.281
573.27	7.926
573.61	7.580
573.95	7.844
574.28	8.216
574.62	7.382
574.96	7.595
575.29	7.856
575.63	7.491
575.97	7.498
576.30	7.264
576.64	7.711
576.98	7.546
577.31	7.861
577.65	7.643
577.98	7.293
578.32	7.321
578.66	7.562
578.99	7.741
579.33	7.758
579.67	7.593
580.00	7.292
580.34	7.421
580.67	7.673
581.01	7.922
581.35	7.573
581.68	7.486
582.02	7.519
582.35	7.144
582.69	7.296
583.02	7.444
583.36	7.551
583.70	7.701
584.03	7.656
584.37	7.723
584.70	7.863
585.04	7.852
585.37	7.349
585.71	7.910
586.04	7.144
586.38	7.613
586.72	7.799
587.05	7.900
587.39	8.142
587.72	7.636
588.06	7.723
588.39	7.881
588.73	7.573
589.06	7.645
589.40	8.013
589.73	7.997
590.07	7.859
590.40	8.711
590.73	8.851
591.07	8.880
591.40	8.224
591.74	8.198
592.07	8.028
592.41	8.633
592.74	8.239
593.08	7.910
593.41	7.630
593.75	7.877
594.08	8.100
594.41	7.820
594.75	8.082
595.08	8.573
595.42	8.460
595.75	8.226
596.09	8.724
596.42	8.012
596.75	8.373
597.09	8.337
597.42	7.510
597.75	8.357
598.09	8.166
598.42	8.446
598.76	7.941
599.09	8.238
599.42	8.028
599.76	8.514
600.09	8.441
600.42	8.253
600.76	7.954
601.09	8.077
601.42	8.342
601.76	8.342
602.09	8.720
602.42	7.800
602.76	8.387
603.09	8.484
603.42	8.440
603.76	7.990
604.09	7.854
604.42	7.834
604.76	8.692
605.09	8.041
605.42	8.736
605.75	8.212
606.09	7.881
606.42	8.042
606.75	8.434
607.09	8.251
607.42	8.236
607.75	8.519
608.08	8.002
608.42	8.431
608.75	8.002
609.08	8.491
609.41	9.045
609.75	8.516
610.08	8.858
610.41	9.135
610.74	8.615
611.07	8.959
611.41	8.480
611.74	8.748
612.07	8.767
612.40	8.626
612.73	8.937
613.07	8.920
613.40	9.373
613.73	8.987
614.06	8.400
614.39	9.697
614.72	8.639
615.06	8.358
615.39	9.059
615.72	8.422
616.05	9.392
616.38	9.285
616.71	8.953
617.05	8.896
617.38	8.708
617.71	8.999
618.04	9.142
618.37	8.783
618.70	8.776
619.03	8.852
619.36	9.422
619.69	8.641
620.03	10.959
620.36	10.918
620.69	9.962
621.02	10.122
621.35	8.883
621.68	9.440
622.01	9.889
622.34	9.395
622.67	9.831
623.00	9.666
623.33	9.987
623.66	9.049
623.99	9.384
624.32	9.350
624.65	9.612
624.99	10.210
625.32	9.953
625.65	8.966
625.98	9.554
626.31	9.644
626.64	9.188
626.97	9.640
627.30	9.783
627.63	9.812
627.96	10.016
628.29	10.479
628.62	9.410
628.95	10.904
629.28	9.816
629.61	9.754
629.94	9.939
630.26	10.745
630.59	10.904
630.92	10.942
631.25	10.607
631.58	11.090
631.91	10.847
632.24	10.496
632.57	9.627
632.90	10.973
633.23	11.752
633.56	11.802
633.89	11.254
634.22	10.657
634.55	10.753
634.88	12.158
635.20	11.996
635.53	11.614
635.86	11.857
636.19	10.550
636.52	10.378
636.85	11.111
637.18	11.809
637.51	10.391
637.83	11.098
638.16	11.723
638.49	10.299
638.82	11.854
639.15	11.046
639.48	12.085
639.81	11.355
640.13	12.270
640.46	11.378
640.79	10.923
641.12	11.942
641.45	12.549
641.77	12.946
642.10	11.647
642.43	12.091
642.76	11.932
643.09	10.663
643.41	12.062
643.74	13.094
644.07	12.979
644.40	10.355
644.73	13.814
645.05	13.224
645.38	12.864
645.71	12.595
646.04	14.351
646.36	13.459
646.69	12.000
647.02	13.120
647.35	12.913
647.67	11.345
648.00	12.215
648.33	12.632
648.66	13.333
648.98	10.435
649.31	10.796
649.64	11.203
649.96	11.664
650.29	11.714
650.62	13.108
650.94	13.855
651.27	13.238
651.60	12.833
651.92	13.364
652.25	12.756
652.58	12.624
652.90	12.874
653.23	12.999
653.56	12.166
653.88	12.482
654.21	11.730
654.54	12.152
654.86	13.127
655.19	14.116
655.52	9.029
655.84	6.720
656.17	7.553
656.49	10.650
656.82	12.297
657.15	9.604
657.47	7.313
657.80	5.381
658.13	4.352
658.45	5.913
658.78	7.185
659.10	7.414
659.43	7.889
659.75	7.756
660.08	8.647
660.41	8.893
660.73	12.422
661.06	13.213
661.38	12.095
661.71	13.489
662.03	13.498
662.36	16.190
662.68	14.339
663.01	15.315
663.33	13.019
663.66	14.004
663.98	14.286
664.31	15.672
664.63	14.751
664.96	14.822
665.28	13.371
665.61	13.774
665.93	13.019
666.26	13.832
666.58	18.349
666.91	15.637
667.23	14.056
667.56	15.811
667.88	16.183
668.21	15.779
668.53	12.903
668.86	16.834
669.18	13.849
669.50	15.289
669.83	16.838
670.15	15.800
670.48	11.523
670.80	13.944
671.13	14.343
671.45	15.832
671.77	13.729
672.10	13.824
672.42	14.309
672.75	11.709
673.07	13.514
673.39	11.661
673.72	13.322
674.04	13.082
674.37	12.160
674.69	15.242
675.01	13.433
675.34	13.178
675.66	14.844
675.98	15.187
676.31	13.400
676.63	11.332
676.95	14.286
677.28	14.604
677.60	14.487
677.92	11.310
678.25	12.984
678.57	15.084
678.89	15.190
679.22	14.154
679.54	15.480
679.86	13.962
680.18	11.248
680.51	12.272
680.83	11.993
681.15	13.692
681.48	13.194
681.80	14.361
682.12	15.052
682.44	11.712
682.77	14.591
683.09	12.427
683.41	12.653
683.73	12.402
684.06	12.897
684.38	12.597
684.70	13.129
685.02	13.194
685.34	14.437
685.67	12.862
685.99	12.479
686.31	12.943
686.63	10.894
686.96	13.235
687.28	12.416
687.60	10.922
687.92	14.238
688.24	15.862
688.56	13.879
688.89	11.663
689.21	13.873
689.53	13.636
689.85	12.195
690.17	11.845
690.49	13.710
690.82	14.076
691.14	15.758
691.46	16.427
691.78	14.035
692.10	16.031
692.42	13.067
692.74	12.791
693.06	14.147
693.39	12.846
693.71	12.181
694.03	13.807
694.35	16.667
694.67	14.053
694.99	13.969
695.31	18.694
695.63	12.896
695.95	14.480
696.27	15.708
696.59	13.126
696.91	14.177
697.23	14.253
697.56	12.241
697.88	10.978
698.20	14.151
698.52	12.451
698.84	12.936
699.16	17.271
699.48	17.161
699.80	15.251
700.12	14.781
700.44	16.355
700.76	15.990
701.08	16.971
701.40	14.545
701.72	21.925
702.04	16.531
702.36	15.591
702.68	15.160
703.00	14.035
703.32	14.640
703.64	13.854
703.96	14.583
704.28	17.196
704.60	10.423
704.91	14.566
705.23	17.330
705.55	15.430
705.87	14.286
706.19	21.317
706.51	20.690
706.83	17.699
707.15	17.647
707.47	14.770
707.79	17.011
708.11	14.512
708.43	13.708
708.74	14.253
709.06	13.953
709.38	14.888
709.70	12.807
710.02	13.315
710.34	17.127
710.66	17.778
710.98	18.579
711.29	16.713
711.61	19.220
711.93	15.502
712.25	18.072
712.57	18.006
712.89	19.394
713.20	21.086
713.52	15.888
713.84	17.221
714.16	13.623
714.48	11.239
714.80	15.718
715.11	14.894
715.43	12.570
715.75	17.465
716.07	16.763
716.39	16.857
716.70	15.265
717.02	18.855
717.34	19.784
717.66	19.097
717.97	20.833
718.29	20.775
718.61	14.865
718.93	18.339
719.24	20.134
719.56	14.138
719.88	16.242
720.20	20.000
720.51	19.935
720.83	16.054
721.15	17.347
721.46	17.808
721.78	15.679
722.10	17.014
722.42	21.070
722.73	17.690
723.05	20.351
723.37	24.382
723.68	14.844
724.00	20.455
724.32	20.532
724.63	18.462
724.95	16.471
725.27	19.703
725.58	16.912
725.90	15.845
726.22	16.781
726.53	16.722
726.85	21.498
727.16	15.436
727.48	16.611
727.80	19.784
728.11	20.357
728.43	18.478
728.74	18.531
729.06	14.695
729.38	18.596
729.69	21.667
730.01	22.039
730.32	21.812
730.64	19.269
730.96	17.718
731.27	12.232
731.59	17.529
731.90	14.485
732.22	15.714
732.53	15.100
732.85	21.930
733.16	14.759
733.48	17.241
733.80	19.420
734.11	19.325
734.43	14.035
734.74	13.673
735.06	14.550
735.37	16.237
735.69	13.333
736.00	17.431
736.32	15.455
736.63	10.726
736.95	18.323
737.26	18.293
737.58	18.098
737.89	15.663
738.21	16.887
738.52	19.398
738.83	21.978
739.15	20.557
739.46	15.172
739.78	16.327
740.09	19.242
740.41	16.564
740.72	15.238
741.04	21.329
741.35	21.094
741.66	15.415
741.98	19.313
742.29	21.759
742.61	18.584
742.92	19.492
743.23	18.400
743.55	23.396
743.86	20.392
744.18	21.186
744.49	20.248
744.80	26.728
745.12	25.446
745.43	21.963
745.74	22.667
746.06	17.982
746.37	22.326
746.68	21.681
747.00	25.112
747.31	20.168
747.62	19.262
747.94	20.172
748.25	13.619
748.56	17.797
748.88	23.661
749.19	22.791
749.50	16.895
749.82	20.988
750.13	22.134
750.44	18.333
750.75	17.450
751.07	18.421
751.38	18.812
751.69	14.478
752.01	16.084
752.32	17.608
752.63	18.792
752.94	16.783
753.26	16.797
753.57	18.677
753.88	17.978
754.19	20.939
754.51	17.940
754.82	16.779
755.13	19.257
755.44	17.037
755.75	17.526
756.07	16.438
756.38	14.379
756.69	17.812
757.00	19.288
757.31	16.056
757.63	17.355
757.94	15.160
758.25	15.700
758.56	13.043
758.87	14.787
759.18	16.279
759.50	16.413
759.81	19.585
760.12	17.135
760.43	11.765
760.74	18.734
761.05	15.650
761.36	15.885
761.67	16.981
761.99	16.901
762.30	17.042
762.61	17.708
762.92	21.591
763.23	20.377
763.54	19.231
763.85	17.121
764.16	17.708
764.47	19.595
764.78	15.309
765.10	19.207
765.41	17.614
765.72	17.956
766.03	14.804
766.34	17.073
766.65	13.308
766.96	20.648
767.27	18.692
767.58	23.762
767.89	23.204
768.20	23.780
768.51	22.449
768.82	20.614
769.13	20.000
769.44	17.293
769.75	18.352
770.06	17.647
770.37	17.544
770.68	15.111
770.99	23.729
771.30	22.594
771.61	22.308
771.92	21.374
772.23	15.323
772.54	22.222
772.85	22.277
773.16	18.478
773.47	22.222
773.78	25.743
774.09	25.000
774.39	25.455
774.70	21.765
775.01	21.711
775.32	27.329
775.63	30.822
775.94	37.037
776.25	26.207
776.56	29.771
776.87	38.168
777.18	24.242
777.48	44.094
777.79	29.231
778.10	36.364
778.41	35.075
778.72	30.075
779.03	22.436
779.34	27.703
779.65	19.876
779.95	25.466
780.26	26.786
780.57	35.374
780.88	28.369
781.19	35.000
781.50	34.320
781.80	24.590
782.11	22.751
782.42	26.437
782.73	29.379
783.04	28.387
783.34	22.481
783.65	20.408
783.96	31.613
784.27	25.828
784.57	19.079
784.88	26.087
785.19	28.333
785.50	34.483
785.81	37.984
786.11	31.852
786.42	35.433
786.73	29.730
787.04	24.528
787.34	29.268
787.65	36.364
787.96	34.091
788.26	38.583
788.57	36.496
788.88	34.507
789.19	24.427
789.49	38.514
789.80	33.594
790.11	32.231
790.41	41.667
790.72	32.407
791.03	37.500
791.33	45.455
791.64	41.053
791.95	32.632
792.25	37.500
792.56	42.000
792.87	51.220
793.17	37.500
793.48	41.176
793.79	37.931
794.09	36.364
794.40	41.379
794.70	36.508
795.01	30.769
795.32	26.718
795.62	30.769
795.93	29.412
796.23	34.959
796.54	48.980
796.85	35.227
797.15	48.052
797.46	47.561
797.76	35.000
798.07	46.667
798.37	50.000
798.68	53.750
798.99	54.878
799.29	41.333
799.60	37.209
799.90	39.474
800.21	43.939
800.51	40.845
800.82	56.897
801.12	58.462
801.43	50.667
801.73	50.000
802.04	48.052
802.34	45.205
802.65	78.431
802.95	54.348
803.26	77.419
803.56	76.667
803.87	58.209
804.17	53.968
804.48	54.717
804.78	48.611
805.09	54.545
805.39	69.841
805.70	66.667
806.00	50.000
806.30	56.250
806.61	51.765
806.91	43.333
807.22	40.217
807.52	42.105
807.83	57.895
808.13	47.826
808.43	64.516
808.74	49.315
809.04	53.571
809.35	57.353
809.65	63.636
809.95	70.588
810.26	79.630
810.56	81.250
810.86	48.980
811.17	71.930
811.47	50.000
811.77	62.069
812.08	51.724
812.38	61.905
812.69	69.048
812.99	64.444
813.29	68.571
813.59	74.194
813.90	67.241
814.20	50.820
814.50	30.000
814.81	42.105
815.11	74.074
815.41	69.643
815.72	75.000
816.02	68.000
816.32	82.927
816.62	77.586
816.93	90.909
817.23	92.683
817.53	62.500
817.84	57.778
818.14	69.048
818.44	68.750
818.74	92.453
819.04	66.667
819.35	100.000
819.65	90.385
819.95	103.704
820.25	97.872
820.56	100.000
820.86	107.895
821.16	48.936
821.46	92.105
821.76	76.364
822.07	80.952
822.37	81.579
822.67	102.326
822.97	60.526
823.27	71.739
823.57	71.875
823.88	107.692
824.18	124.242
824.48	143.478
824.78	113.889
825.08	117.391
825.38	117.241
825.69	100.000
825.99	68.085
826.29	72.222
826.59	94.286
826.89	90.000
827.19	51.429
827.49	116.129
827.79	123.077
828.09	111.905
828.39	116.667
828.70	56.757
829.00	121.429
829.30	175.000
829.60	100.000
829.90	109.677
830.20	106.061
830.50	75.676
830.80	120.833
831.10	138.462
831.40	114.286
831.70	175.000
832.00	100.000
832.30	139.130
832.60	137.500
832.90	145.455
833.20	175.000
833.50	115.789
833.80	108.824
834.10	65.789
834.40	163.158
834.70	80.000
835.00	160.000
835.30	97.297
835.60	137.500
835.90	110.811
836.20	123.077
836.50	100.000
836.80	95.122
837.10	156.522
837.40	223.077
837.70	100.000
838.00	150.000
838.30	158.333
838.60	164.000
838.90	280.000
839.19	162.500
839.49	143.333
839.79	120.690
840.09	142.308
840.39	166.667
840.69	163.158
840.99	109.524
841.29	147.826
841.59	170.000
841.88	160.000
842.18	133.333
842.48	160.714
842.78	125.926
843.08	223.077
843.38	163.636
843.68	278.571
843.97	385.714
844.27	143.478
844.57	1200.000
844.87	264.286
845.17	161.111
845.47	123.810
845.76	187.500
846.06	457.143
846.36	200.000
846.66	215.385
846.96	193.750
847.25	192.308
847.55	194.737
847.85	105.556
848.15	480.000
848.44	263.636
848.74	147.619
849.04	137.500
849.34	123.529
849.63	168.750
849.93	237.500
850.23	966.667
850.53	412.500
850.82	281.818
851.12	176.471
851.42	154.167
851.71	193.750
852.01	0.000
852.31	241.176
852.61	380.000
852.90	125.000
853.20	366.667
853.50	-2600.000
853.79	128.000
854.09	112.500
854.39	113.793
854.68	113.793
854.98	195.238
855.28	125.806
855.57	235.714
855.87	155.556
856.17	114.815
856.46	178.947
856.76	103.226
857.05	188.235
857.35	245.455
857.65	238.462
857.94	150.000
858.24	377.778
858.53	235.714
858.83	485.714
859.13	121.739
859.42	244.444
859.72	287.500
860.01	116.667
860.31	875.000
860.60	340.000
860.90	425.000
861.20	230.769
861.49	471.429
861.79	-3000.000
862.08	457.143
862.38	300.000
862.67	235.714
862.97	340.000
863.26	146.667
863.56	700.000
863.85	292.308
864.15	217.647
864.44	216.667
864.74	308.333
865.03	272.727
865.33	375.000
865.62	260.000
865.92	583.333
866.21	825.000
866.51	520.000
866.80	238.889
867.10	933.333
867.39	3100.000
867.69	640.000
867.98	650.000
868.27	185.714
868.57	240.000
868.86	725.000
869.16	104.762
869.45	2100.000
869.75	-400.000
870.04	875.000
870.33	620.000
870.63	387.500
870.92	194.118
871.22	800.000
871.51	328.571
871.80	283.333
872.10	300.000
>>>>>End Processed Spectral Data<<<<<
