SpectraSuite Data File
++++++++++++++++++++++++++++++++++++
Date: Tue May 12 16:25:53 PDT 2015
User: schluterlab
Dark Spectrum Present: Yes
Reference Spectrum Present: Yes
Number of Sampled Component Spectra: 1
Spectrometers: USB2E3373
Integration Time (usec): 3000 (USB2E3373)
Spectra Averaged: 3 (USB2E3373)
Boxcar Smoothing: 0 (USB2E3373)
Correct for Electrical Dark: No (USB2E3373)
Strobe/Lamp Enabled: No (USB2E3373)
Correct for Detector Non-linearity: No (USB2E3373)
Correct for Stray Light: No (USB2E3373)
Number of Pixels in Processed Spectrum: 2048
>>>>>Begin Processed Spectral Data<<<<<
178.53	0.000
178.91	-208.333
179.29	-625.000
179.67	-3500.000
180.04	-126.667
180.42	950.000
180.80	1500.000
181.18	0.000
181.56	-325.000
181.94	0.000
182.31	933.333
182.69	-3200.000
183.07	442.857
183.45	-4000.000
183.83	-1650.000
184.20	420.000
184.58	414.286
184.96	-276.923
185.34	-183.333
185.72	1500.000
186.09	-725.000
186.47	-2900.000
186.85	833.333
187.23	640.000
187.61	1500.000
187.98	487.500
188.36	300.000
188.74	300.000
189.12	308.333
189.49	875.000
189.87	0.000
190.25	462.500
190.63	2700.000
191.00	-241.667
191.38	-3200.000
191.76	-725.000
192.14	600.000
192.51	-2800.000
192.89	2250.000
193.27	1066.667
193.65	-1200.000
194.02	-840.000
194.40	442.857
194.78	-185.714
195.15	266.667
195.53	-1800.000
195.91	-480.000
196.29	3800.000
196.66	256.250
197.04	1000.000
197.42	-1450.000
197.79	625.000
198.17	316.667
198.55	0.000
198.92	500.000
199.30	1200.000
199.68	1700.000
200.05	766.667
200.43	-433.333
200.81	200.000
201.18	3600.000
201.56	341.667
201.94	-775.000
202.31	-287.500
202.69	-420.000
203.07	3900.000
203.44	-450.000
203.82	366.667
204.19	760.000
204.57	-1300.000
204.95	-900.000
205.32	-700.000
205.70	616.667
206.08	500.000
206.45	-633.333
206.83	366.667
207.20	221.053
207.58	316.667
207.96	940.000
208.33	0.000
208.71	528.571
209.08	620.000
209.46	-3600.000
209.84	-925.000
210.21	920.000
210.59	-600.000
210.96	341.667
211.34	-925.000
211.71	345.455
212.09	1025.000
212.46	1650.000
212.84	-483.333
213.22	466.667
213.59	-2600.000
213.97	380.000
214.34	1025.000
214.72	1200.000
215.09	766.667
215.47	-3000.000
215.84	-280.000
216.22	-312.500
216.59	0.000
216.97	0.000
217.34	1400.000
217.72	-1700.000
218.09	1466.667
218.47	487.500
218.84	1025.000
219.22	1300.000
219.59	866.667
219.97	514.286
220.34	455.556
220.72	1350.000
221.09	4700.000
221.47	308.333
221.84	1266.667
222.22	320.000
222.59	244.444
222.97	228.571
223.34	225.000
223.72	-1700.000
224.09	1300.000
224.46	269.231
224.84	-925.000
225.21	511.111
225.59	286.667
225.96	1000.000
226.34	-740.000
226.71	-750.000
227.08	-360.000
227.46	0.000
227.83	-583.333
228.21	-1400.000
228.58	341.667
228.95	1000.000
229.33	411.111
229.70	1000.000
230.08	346.154
230.45	3400.000
230.82	-900.000
231.20	-666.667
231.57	-1133.333
231.95	680.000
232.32	275.000
232.69	700.000
233.07	308.333
233.44	-1300.000
233.81	260.000
234.19	177.778
234.56	293.750
234.93	200.000
235.31	165.000
235.68	268.750
236.05	189.286
236.43	170.370
236.80	257.143
237.17	165.517
237.55	162.500
237.92	130.000
238.29	130.303
238.67	168.750
239.04	109.756
239.41	89.583
239.79	105.000
240.16	106.250
240.53	80.328
240.91	85.507
241.28	88.136
241.65	83.333
242.02	101.408
242.40	84.286
242.77	68.132
243.14	72.152
243.51	77.778
243.89	72.897
244.26	53.271
244.63	72.277
245.00	65.138
245.38	55.085
245.75	57.576
246.12	64.444
246.49	65.248
246.87	60.656
247.24	55.333
247.61	56.875
247.98	61.905
248.36	56.970
248.73	57.143
249.10	57.143
249.47	52.500
249.84	57.214
250.22	49.730
250.59	54.000
250.96	55.696
251.33	52.558
251.70	55.357
252.08	50.420
252.45	45.418
252.82	49.810
253.19	53.755
253.56	45.000
253.94	48.188
254.31	51.550
254.68	49.477
255.05	50.690
255.42	47.445
255.79	48.534
256.16	47.797
256.54	48.377
256.91	46.732
257.28	47.157
257.65	45.768
258.02	45.428
258.39	48.138
258.76	48.406
259.14	44.286
259.51	49.854
259.88	50.760
260.25	45.604
260.62	47.945
260.99	42.149
261.36	49.861
261.73	47.872
262.10	47.644
262.47	45.750
262.85	46.933
263.22	49.357
263.59	42.967
263.96	46.867
264.33	44.691
264.70	46.929
265.07	43.659
265.44	45.183
265.81	46.698
266.18	43.478
266.55	46.336
266.92	45.414
267.29	46.272
267.66	45.740
268.03	44.843
268.40	42.918
268.77	45.154
269.14	42.299
269.51	43.875
269.88	44.082
270.25	42.981
270.62	41.845
270.99	44.016
271.36	43.496
271.73	44.025
272.10	44.646
272.47	43.651
272.84	42.515
273.21	43.182
273.58	40.486
273.95	42.300
274.32	41.245
274.69	45.079
275.06	41.530
275.43	43.103
275.80	44.906
276.17	42.279
276.54	44.299
276.91	44.590
277.28	40.146
277.65	44.649
278.02	42.463
278.39	41.367
278.76	41.034
279.13	41.815
279.50	42.364
279.87	39.665
280.23	40.516
280.60	43.978
280.97	42.241
281.34	41.914
281.71	41.217
282.08	43.932
282.45	41.047
282.82	41.639
283.19	40.223
283.56	39.835
283.92	41.205
284.29	41.764
284.66	40.336
285.03	39.967
285.40	40.992
285.77	39.506
286.14	39.319
286.51	39.571
286.87	38.133
287.24	36.937
287.61	39.362
287.98	38.657
288.35	38.074
288.72	36.722
289.08	36.787
289.45	39.024
289.82	38.125
290.19	37.482
290.56	38.137
290.93	37.698
291.29	34.530
291.66	34.887
292.03	35.484
292.40	35.501
292.77	35.376
293.13	34.522
293.50	34.548
293.87	32.385
294.24	35.944
294.60	33.782
294.97	33.986
295.34	35.724
295.71	32.589
296.08	33.333
296.44	33.926
296.81	32.010
297.18	31.812
297.55	32.635
297.91	31.527
298.28	31.884
298.65	30.429
299.02	31.725
299.38	30.096
299.75	30.854
300.12	31.537
300.48	31.265
300.85	31.347
301.22	30.116
301.59	30.778
301.95	30.688
302.32	30.151
302.69	31.222
303.05	31.650
303.42	28.363
303.79	29.361
304.15	29.923
304.52	28.224
304.89	30.277
305.25	29.700
305.62	30.064
305.99	28.587
306.35	28.526
306.72	29.657
307.09	29.917
307.45	27.772
307.82	28.807
308.19	29.794
308.55	30.300
308.92	30.422
309.29	30.079
309.65	29.633
310.02	30.426
310.38	28.714
310.75	28.737
311.12	29.310
311.48	28.764
311.85	29.485
312.22	29.513
312.58	29.252
312.95	30.583
313.31	29.307
313.68	28.893
314.05	30.769
314.41	30.447
314.78	31.061
315.14	31.564
315.51	31.220
315.87	31.752
316.24	30.626
316.61	32.498
316.97	31.835
317.34	32.704
317.70	33.099
318.07	32.384
318.43	34.622
318.80	33.275
319.16	34.878
319.53	34.513
319.89	33.244
320.26	36.220
320.62	35.989
320.99	36.606
321.35	37.941
321.72	38.330
322.08	38.689
322.45	38.420
322.81	38.701
323.18	40.586
323.54	40.505
323.91	42.611
324.27	42.175
324.64	41.782
325.00	43.362
325.37	43.423
325.73	45.110
326.10	44.988
326.46	46.408
326.83	47.680
327.19	47.871
327.56	47.604
327.92	49.262
328.29	51.146
328.65	52.140
329.01	51.497
329.38	51.269
329.74	50.470
330.11	52.129
330.47	52.430
330.84	52.373
331.20	53.892
331.56	56.045
331.93	55.603
332.29	53.231
332.66	57.143
333.02	55.498
333.38	55.934
333.75	56.047
334.11	55.285
334.48	57.692
334.84	55.828
335.20	56.459
335.57	56.087
335.93	56.686
336.29	57.048
336.66	59.091
337.02	57.143
337.38	59.845
337.75	58.277
338.11	58.481
338.47	58.086
338.84	58.510
339.20	57.056
339.56	58.368
339.93	57.525
340.29	57.731
340.65	59.430
341.02	58.407
341.38	58.292
341.74	60.133
342.11	59.098
342.47	58.901
342.83	60.377
343.20	58.205
343.56	58.062
343.92	59.042
344.28	58.612
344.65	60.636
345.01	57.302
345.37	58.333
345.73	58.810
346.10	59.920
346.46	59.888
346.82	57.793
347.19	60.355
347.55	58.548
347.91	58.988
348.27	59.721
348.63	61.155
349.00	60.091
349.36	61.556
349.72	60.856
350.08	60.171
350.45	60.777
350.81	61.315
351.17	59.399
351.53	60.123
351.89	58.897
352.26	58.806
352.62	61.388
352.98	60.506
353.34	61.017
353.70	60.856
354.07	61.692
354.43	61.444
354.79	59.985
355.15	62.404
355.51	61.405
355.87	61.973
356.24	62.202
356.60	60.502
356.96	62.320
357.32	61.794
357.68	62.335
358.04	62.310
358.40	62.069
358.77	64.388
359.13	62.237
359.49	62.565
359.85	62.547
360.21	62.333
360.57	61.971
360.93	63.564
361.29	63.059
361.66	64.877
362.02	62.642
362.38	62.626
362.74	64.048
363.10	64.446
363.46	62.569
363.82	63.254
364.18	62.376
364.54	64.807
364.90	63.387
365.26	65.510
365.62	63.260
365.98	64.074
366.35	63.586
366.71	65.371
367.07	64.846
367.43	64.003
367.79	63.497
368.15	64.518
368.51	63.956
368.87	65.082
369.23	64.310
369.59	64.801
369.95	65.734
370.31	64.682
370.67	65.163
371.03	64.916
371.39	67.659
371.75	65.178
372.11	65.262
372.47	66.233
372.83	65.942
373.19	66.347
373.55	65.361
373.91	64.779
374.27	66.601
374.63	66.983
374.99	67.251
375.35	67.339
375.71	66.293
376.07	66.910
376.42	65.026
376.78	68.722
377.14	69.004
377.50	65.481
377.86	67.136
378.22	66.971
378.58	67.494
378.94	67.471
379.30	67.799
379.66	68.453
380.02	67.214
380.38	67.564
380.74	67.186
381.09	67.991
381.45	67.341
381.81	67.908
382.17	67.216
382.53	67.487
382.89	68.244
383.25	68.502
383.61	67.435
383.97	67.786
384.32	67.089
384.68	69.935
385.04	67.175
385.40	67.556
385.76	67.934
386.12	68.398
386.48	69.179
386.83	69.193
387.19	69.022
387.55	69.670
387.91	68.995
388.27	69.958
388.62	67.664
388.98	67.930
389.34	67.638
389.70	68.337
390.06	68.780
390.42	69.402
390.77	69.226
391.13	68.558
391.49	68.724
391.85	70.523
392.20	68.653
392.56	68.996
392.92	69.624
393.28	68.161
393.64	69.151
393.99	68.050
394.35	69.688
394.71	67.129
395.07	70.255
395.42	70.492
395.78	70.512
396.14	70.723
396.50	68.773
396.85	69.756
397.21	69.374
397.57	68.918
397.92	68.746
398.28	69.443
398.64	68.761
399.00	67.451
399.35	68.170
399.71	68.985
400.07	69.064
400.42	69.015
400.78	69.971
401.14	69.642
401.49	68.606
401.85	68.946
402.21	69.889
402.57	70.616
402.92	69.697
403.28	68.138
403.63	68.511
403.99	68.577
404.35	67.526
404.70	69.522
405.06	68.725
405.42	69.001
405.77	68.633
406.13	67.733
406.49	68.107
406.84	67.231
407.20	68.607
407.55	68.800
407.91	69.560
408.27	69.557
408.62	69.545
408.98	68.421
409.34	67.329
409.69	68.637
410.05	67.442
410.40	67.020
410.76	67.487
411.11	67.950
411.47	67.222
411.83	67.252
412.18	68.357
412.54	67.988
412.89	67.788
413.25	67.845
413.60	68.049
413.96	67.086
414.31	67.591
414.67	68.156
415.03	68.838
415.38	68.328
415.74	68.857
416.09	68.395
416.45	67.421
416.80	69.788
417.16	67.091
417.51	69.108
417.87	68.398
418.22	67.801
418.58	68.344
418.93	68.412
419.29	67.406
419.64	68.201
420.00	70.227
420.35	67.886
420.71	68.786
421.06	67.746
421.42	68.394
421.77	69.628
422.12	69.294
422.48	68.670
422.83	69.364
423.19	67.441
423.54	69.117
423.90	69.196
424.25	69.125
424.61	69.762
424.96	70.412
425.31	68.911
425.67	71.380
426.02	70.555
426.38	68.670
426.73	70.561
427.09	68.802
427.44	70.231
427.79	70.898
428.15	71.420
428.50	69.886
428.85	70.958
429.21	70.610
429.56	70.588
429.92	69.766
430.27	69.182
430.62	68.331
430.98	69.511
431.33	68.851
431.68	69.185
432.04	70.357
432.39	70.801
432.74	70.375
433.10	71.595
433.45	73.636
433.80	72.146
434.16	71.834
434.51	70.795
434.86	72.836
435.22	71.421
435.57	72.436
435.92	72.624
436.28	72.235
436.63	72.663
436.98	72.635
437.34	73.174
437.69	71.557
438.04	72.097
438.39	71.570
438.75	71.993
439.10	72.909
439.45	71.962
439.81	71.718
440.16	71.381
440.51	71.678
440.86	73.675
441.22	70.617
441.57	72.336
441.92	71.323
442.27	72.990
442.63	71.443
442.98	71.336
443.33	71.826
443.68	73.340
444.03	72.714
444.39	72.928
444.74	72.412
445.09	72.407
445.44	72.529
445.79	73.294
446.15	72.842
446.50	73.892
446.85	72.261
447.20	73.483
447.55	72.920
447.91	73.095
448.26	73.429
448.61	73.245
448.96	74.183
449.31	73.762
449.66	74.308
450.02	72.771
450.37	74.403
450.72	75.317
451.07	71.786
451.42	73.444
451.77	73.883
452.12	72.944
452.47	73.208
452.83	73.972
453.18	73.333
453.53	74.719
453.88	73.257
454.23	74.956
454.58	72.960
454.93	73.697
455.28	73.807
455.63	74.054
455.98	73.378
456.34	75.927
456.69	75.000
457.04	73.986
457.39	73.829
457.74	73.198
458.09	73.666
458.44	72.344
458.79	73.050
459.14	73.268
459.49	71.744
459.84	74.348
460.19	72.373
460.54	72.821
460.89	72.548
461.24	70.447
461.59	73.810
461.94	72.577
462.29	73.055
462.64	73.744
462.99	74.600
463.34	72.715
463.69	73.261
464.04	73.978
464.39	72.353
464.74	72.040
465.09	72.490
465.44	72.851
465.79	72.074
466.14	70.270
466.49	71.134
466.84	71.516
467.19	71.178
467.54	72.312
467.89	71.420
468.24	73.191
468.59	71.786
468.94	72.645
469.29	71.472
469.64	72.283
469.99	72.558
470.34	72.359
470.68	73.310
471.03	72.982
471.38	72.649
471.73	73.089
472.08	74.234
472.43	73.805
472.78	71.831
473.13	71.151
473.48	72.311
473.83	71.731
474.17	72.827
474.52	72.749
474.87	70.551
475.22	71.159
475.57	71.983
475.92	70.056
476.27	70.239
476.61	70.456
476.96	70.428
477.31	72.237
477.66	72.786
478.01	70.655
478.36	71.318
478.70	70.025
479.05	71.600
479.40	69.940
479.75	71.351
480.10	71.394
480.45	70.962
480.79	70.000
481.14	70.661
481.49	69.396
481.84	70.185
482.19	70.873
482.53	69.741
482.88	70.833
483.23	70.275
483.58	69.973
483.92	70.658
484.27	69.264
484.62	69.949
484.97	70.043
485.31	69.027
485.66	68.793
486.01	66.164
486.36	65.869
486.70	64.705
487.05	65.503
487.40	65.907
487.75	67.064
488.09	66.392
488.44	67.049
488.79	68.344
489.13	68.682
489.48	69.157
489.83	68.015
490.17	68.538
490.52	69.940
490.87	69.741
491.22	70.745
491.56	68.511
491.91	68.862
492.26	68.775
492.60	70.569
492.95	68.917
493.30	69.836
493.64	69.766
493.99	68.202
494.34	69.610
494.68	70.031
495.03	68.253
495.37	69.788
495.72	70.536
496.07	68.823
496.41	68.028
496.76	68.679
497.11	68.980
497.45	68.347
497.80	70.806
498.14	68.886
498.49	68.524
498.84	70.701
499.18	68.830
499.53	68.351
499.87	69.497
500.22	69.323
500.56	68.617
500.91	69.852
501.26	69.591
501.60	68.625
501.95	68.145
502.29	67.511
502.64	67.799
502.98	68.564
503.33	68.820
503.67	68.962
504.02	68.697
504.36	68.416
504.71	69.111
505.06	68.888
505.40	68.601
505.75	68.241
506.09	67.149
506.44	69.737
506.78	70.085
507.13	70.528
507.47	68.607
507.82	69.878
508.16	69.329
508.51	70.000
508.85	69.326
509.19	70.876
509.54	68.555
509.88	70.264
510.23	68.529
510.57	68.050
510.92	70.030
511.26	70.683
511.61	67.947
511.95	68.243
512.30	69.250
512.64	69.834
512.98	70.067
513.33	69.928
513.67	70.016
514.02	69.299
514.36	69.990
514.70	70.720
515.05	70.538
515.39	70.724
515.74	71.788
516.08	70.261
516.42	71.803
516.77	71.307
517.11	70.080
517.46	69.235
517.80	70.126
518.14	72.000
518.49	69.625
518.83	70.055
519.17	70.882
519.52	70.890
519.86	70.463
520.20	70.301
520.55	70.266
520.89	70.517
521.23	73.131
521.58	70.281
521.92	70.554
522.26	71.268
522.61	72.608
522.95	72.372
523.29	71.345
523.64	70.173
523.98	71.772
524.32	70.819
524.66	69.797
525.01	70.592
525.35	70.418
525.69	70.439
526.04	70.791
526.38	71.160
526.72	71.659
527.06	69.899
527.41	71.161
527.75	72.063
528.09	70.199
528.43	71.141
528.78	70.364
529.12	72.005
529.46	70.485
529.80	69.393
530.15	70.124
530.49	70.517
530.83	71.725
531.17	70.234
531.51	70.141
531.86	69.626
532.20	71.323
532.54	70.370
532.88	70.581
533.22	70.689
533.57	70.470
533.91	69.639
534.25	68.379
534.59	69.649
534.93	69.966
535.27	69.095
535.62	70.537
535.96	68.026
536.30	71.176
536.64	69.938
536.98	68.030
537.32	70.687
537.66	70.599
538.01	71.331
538.35	70.056
538.69	69.964
539.03	69.216
539.37	69.235
539.71	70.926
540.05	69.046
540.39	70.943
540.73	69.177
541.07	69.824
541.42	69.838
541.76	69.975
542.10	68.742
542.44	70.636
542.78	70.673
543.12	68.896
543.46	68.734
543.80	69.486
544.14	70.588
544.48	69.161
544.82	69.847
545.16	68.245
545.50	69.453
545.84	70.076
546.18	72.627
546.52	70.820
546.86	70.148
547.20	70.220
547.54	69.728
547.88	68.674
548.22	69.581
548.56	68.179
548.90	67.912
549.24	70.183
549.58	69.781
549.92	70.334
550.26	72.752
550.60	69.661
550.94	71.642
551.28	71.655
551.62	71.586
551.96	72.500
552.30	71.193
552.64	71.197
552.98	70.296
553.32	69.654
553.66	70.423
554.00	69.498
554.34	72.503
554.68	70.161
555.02	71.487
555.36	70.213
555.69	69.764
556.03	68.662
556.37	69.981
556.71	71.904
557.05	68.676
557.39	70.467
557.73	71.429
558.07	70.490
558.41	71.556
558.75	71.751
559.08	72.051
559.42	71.797
559.76	72.986
560.10	71.094
560.44	69.011
560.78	71.100
561.12	72.409
561.45	70.213
561.79	71.223
562.13	70.246
562.47	70.798
562.81	71.438
563.15	70.782
563.48	68.012
563.82	71.054
564.16	71.082
564.50	69.017
564.84	70.578
565.17	69.935
565.51	71.429
565.85	72.856
566.19	70.833
566.52	70.999
566.86	71.454
567.20	70.225
567.54	70.579
567.88	70.423
568.21	67.748
568.55	68.580
568.89	68.248
569.23	67.213
569.56	67.652
569.90	65.541
570.24	66.712
570.57	66.385
570.91	65.741
571.25	65.214
571.59	63.988
571.92	63.913
572.26	63.908
572.60	63.871
572.93	65.095
573.27	64.503
573.61	64.104
573.95	64.716
574.28	64.736
574.62	63.414
574.96	62.816
575.29	62.418
575.63	62.945
575.97	62.756
576.30	62.617
576.64	64.194
576.98	63.199
577.31	63.628
577.65	62.807
577.98	62.536
578.32	62.118
578.66	62.208
578.99	62.597
579.33	63.374
579.67	63.259
580.00	62.348
580.34	62.852
580.67	62.819
581.01	63.638
581.35	63.288
581.68	62.622
582.02	62.821
582.35	62.757
582.69	62.824
583.02	62.550
583.36	63.742
583.70	63.131
584.03	64.554
584.37	64.992
584.70	64.519
585.04	63.478
585.37	64.089
585.71	64.360
586.04	63.509
586.38	63.826
586.72	64.505
587.05	64.205
587.39	63.767
587.72	64.772
588.06	64.713
588.39	64.969
588.73	64.206
589.06	65.247
589.40	66.322
589.73	65.520
590.07	67.056
590.40	66.864
590.73	68.344
591.07	67.362
591.40	66.826
591.74	67.045
592.07	67.263
592.41	67.386
592.74	66.972
593.08	65.723
593.41	66.367
593.75	64.422
594.08	64.829
594.41	66.569
594.75	65.959
595.08	66.598
595.42	66.195
595.75	65.778
596.09	66.910
596.42	65.768
596.75	68.389
597.09	68.428
597.42	68.082
597.75	67.343
598.09	67.173
598.42	67.360
598.76	66.577
599.09	67.231
599.42	65.433
599.76	67.334
600.09	67.017
600.42	67.162
600.76	66.247
601.09	67.587
601.42	66.103
601.76	67.240
602.09	66.593
602.42	66.285
602.76	66.641
603.09	67.609
603.42	68.147
603.76	66.847
604.09	66.341
604.42	67.495
604.76	68.155
605.09	67.796
605.42	67.859
605.75	67.154
606.09	67.827
606.42	66.629
606.75	67.820
607.09	67.390
607.42	67.778
607.75	66.720
608.08	66.734
608.42	67.576
608.75	67.437
609.08	69.292
609.41	69.409
609.75	69.551
610.08	68.930
610.41	68.511
610.74	68.615
611.07	69.804
611.41	70.389
611.74	70.650
612.07	70.135
612.40	69.493
612.73	70.494
613.07	69.944
613.40	71.128
613.73	69.296
614.06	68.100
614.39	71.818
614.72	70.819
615.06	69.486
615.39	69.950
615.72	69.022
616.05	70.517
616.38	69.508
616.71	70.483
617.05	71.938
617.38	72.640
617.71	71.935
618.04	71.789
618.37	71.039
618.70	71.940
619.03	72.100
619.36	72.927
619.69	72.493
620.03	75.408
620.36	73.539
620.69	74.266
621.02	75.000
621.35	73.567
621.68	75.811
622.01	76.015
622.34	74.217
622.67	74.157
623.00	73.996
623.33	74.089
623.66	74.717
623.99	76.164
624.32	74.797
624.65	73.009
624.99	76.200
625.32	73.413
625.65	74.138
625.98	73.222
626.31	76.187
626.64	76.006
626.97	76.358
627.30	77.717
627.63	77.630
627.96	76.135
628.29	78.383
628.62	76.476
628.95	80.762
629.28	79.053
629.61	77.680
629.94	79.430
630.26	78.510
630.59	79.344
630.92	78.296
631.25	78.332
631.58	80.617
631.91	81.066
632.24	78.426
632.57	78.094
632.90	82.609
633.23	81.847
633.56	81.033
633.89	82.208
634.22	82.131
634.55	82.903
634.88	82.256
635.20	82.848
635.53	84.669
635.86	82.998
636.19	81.706
636.52	81.405
636.85	80.475
637.18	81.690
637.51	83.464
637.83	80.549
638.16	84.760
638.49	84.311
638.82	85.211
639.15	83.901
639.48	86.848
639.81	85.348
640.13	83.190
640.46	85.588
640.79	85.436
641.12	84.121
641.45	84.605
641.77	87.186
642.10	85.944
642.43	88.762
642.76	85.938
643.09	84.150
643.41	83.731
643.74	86.619
644.07	87.021
644.40	88.018
644.73	89.189
645.05	87.221
645.38	88.668
645.71	88.467
646.04	89.160
646.36	90.141
646.69	92.800
647.02	89.920
647.35	86.614
647.67	89.627
648.00	93.322
648.33	86.015
648.66	89.697
648.98	86.232
649.31	85.155
649.64	84.924
649.96	86.913
650.29	86.143
650.62	85.420
650.94	86.446
651.27	91.069
651.60	86.698
651.92	86.329
652.25	90.551
652.58	83.546
652.90	86.976
653.23	87.297
653.56	86.795
653.88	83.260
654.21	86.217
654.54	84.627
654.86	85.398
655.19	83.773
655.52	74.446
655.84	61.993
656.17	71.450
656.49	99.627
656.82	100.000
657.15	100.000
657.47	74.101
657.80	51.511
658.13	40.360
658.45	55.116
658.78	66.073
659.10	66.968
659.43	68.350
659.75	72.174
660.08	75.439
660.41	76.044
660.73	87.829
661.06	87.988
661.38	89.779
661.71	90.108
662.03	92.015
662.36	93.143
662.68	86.965
663.01	88.829
663.33	89.811
663.66	93.097
663.98	94.048
664.31	91.791
664.63	90.613
664.96	89.869
665.28	88.136
665.61	90.943
665.93	88.679
666.26	91.963
666.58	89.541
666.91	89.189
667.23	90.161
667.56	93.840
667.88	96.680
668.21	92.213
668.53	89.113
668.86	86.974
669.18	93.890
669.50	88.430
669.83	94.251
670.15	94.802
670.48	84.961
670.80	90.837
671.13	89.841
671.45	93.988
671.77	87.013
672.10	86.176
672.42	84.868
672.75	86.709
673.07	86.169
673.39	83.866
673.72	87.889
674.04	90.323
674.37	87.477
674.69	86.617
675.01	86.754
675.34	86.240
675.66	88.672
675.98	88.363
676.31	90.800
676.63	88.668
676.95	88.492
677.28	90.872
677.60	87.525
677.92	87.897
678.25	85.465
678.57	89.013
678.89	90.416
679.22	87.132
679.54	87.367
679.86	85.166
680.18	85.589
680.51	83.416
680.83	82.770
681.15	87.002
681.48	87.674
681.80	85.639
682.12	85.813
682.44	87.027
682.77	87.011
683.09	88.932
683.41	89.388
683.73	87.402
684.06	86.310
684.38	91.279
684.70	87.590
685.02	86.458
685.34	87.324
685.67	83.762
685.99	83.908
686.31	80.277
686.63	84.553
686.96	82.843
687.28	84.228
687.60	84.812
687.92	84.590
688.24	87.586
688.56	83.986
688.89	85.660
689.21	85.164
689.53	87.747
689.85	86.585
690.17	85.049
690.49	86.895
690.82	91.176
691.14	87.273
691.46	91.786
691.78	88.304
692.10	84.924
692.42	81.488
692.74	89.147
693.06	87.597
693.39	87.154
693.71	86.248
694.03	87.574
694.35	89.357
694.67	84.521
694.99	91.574
695.31	89.640
695.63	90.045
695.95	90.045
696.27	88.938
696.59	90.931
696.91	94.177
697.23	91.629
697.56	84.647
697.88	83.433
698.20	85.094
698.52	81.907
698.84	86.653
699.16	86.780
699.48	86.864
699.80	87.800
700.12	88.222
700.44	85.748
700.76	88.544
701.08	93.734
701.40	89.610
701.72	93.850
702.04	92.412
702.36	87.366
702.68	93.085
703.00	85.714
703.32	88.834
703.64	92.695
703.96	89.583
704.28	89.683
704.60	96.901
704.91	90.756
705.23	95.170
705.55	93.472
705.87	99.048
706.19	100.000
706.51	97.806
706.83	93.215
707.15	89.840
707.47	85.472
707.79	86.437
708.11	88.662
708.43	87.416
708.74	84.389
709.06	84.419
709.38	88.834
709.70	88.556
710.02	88.043
710.34	90.331
710.66	88.889
710.98	87.432
711.29	91.086
711.61	94.150
711.93	95.137
712.25	92.771
712.57	93.248
712.89	92.727
713.20	100.000
713.52	91.589
713.84	92.145
714.16	87.246
714.48	90.490
714.80	89.431
715.11	83.777
715.43	91.341
715.75	90.986
716.07	93.353
716.39	86.286
716.70	90.031
717.02	96.633
717.34	98.921
717.66	93.403
717.97	104.167
718.29	96.831
718.61	87.838
718.93	92.734
719.24	94.631
719.56	90.345
719.88	88.854
720.20	93.548
720.51	88.889
720.83	88.963
721.15	90.136
721.46	91.438
721.78	92.334
722.10	93.750
722.42	93.980
722.73	90.614
723.05	91.930
723.37	90.459
723.68	93.750
724.00	93.939
724.32	97.719
724.63	94.615
724.95	94.902
725.27	92.565
725.58	86.765
725.90	86.972
726.22	94.521
726.53	90.970
726.85	88.925
727.16	94.631
727.48	90.033
727.80	91.367
728.11	93.571
728.43	90.580
728.74	94.056
729.06	90.681
729.38	91.930
729.69	93.667
730.01	89.474
730.32	87.248
730.64	90.365
730.96	80.781
731.27	79.817
731.59	79.598
731.90	83.565
732.22	86.857
732.53	84.046
732.85	85.673
733.16	86.145
733.48	85.266
733.80	82.029
734.11	89.571
734.43	82.749
734.74	83.646
735.06	81.217
735.37	78.351
735.69	84.638
736.00	88.073
736.32	82.727
736.63	80.126
736.95	82.609
737.26	84.451
737.58	83.436
737.89	83.434
738.21	88.411
738.52	87.625
738.83	93.407
739.15	86.411
739.46	84.828
739.78	88.435
740.09	80.758
740.41	84.049
740.72	87.937
741.04	90.559
741.35	96.094
741.66	86.166
741.98	99.571
742.29	96.759
742.61	91.593
742.92	88.136
743.23	85.600
743.55	87.547
743.86	88.235
744.18	95.763
744.49	95.455
744.80	97.235
745.12	95.982
745.43	100.000
745.74	92.889
746.06	87.281
746.37	100.465
746.68	95.133
747.00	96.413
747.31	88.655
747.62	86.066
747.94	95.708
748.25	87.549
748.56	98.729
748.88	92.857
749.19	90.233
749.50	95.434
749.82	92.593
750.13	94.466
750.44	80.333
750.75	86.913
751.07	86.842
751.38	85.149
751.69	83.502
752.01	88.811
752.32	82.060
752.63	83.557
752.94	86.014
753.26	92.578
753.57	82.879
753.88	87.640
754.19	90.253
754.51	83.721
754.82	80.537
755.13	80.743
755.44	90.741
755.75	84.192
756.07	88.014
756.38	80.719
756.69	79.375
757.00	83.680
757.31	80.563
757.63	77.410
757.94	80.053
758.25	74.879
758.56	70.709
758.87	78.195
759.18	79.651
759.50	83.283
759.81	80.415
760.12	78.933
760.43	80.952
760.74	76.709
761.05	75.066
761.36	78.385
761.67	77.358
761.99	78.028
762.30	82.637
762.61	79.861
762.92	83.333
763.23	82.264
763.54	85.769
763.85	83.268
764.16	84.375
764.47	80.068
764.78	75.896
765.10	77.134
765.41	76.420
765.72	74.586
766.03	79.758
766.34	82.230
766.65	83.650
766.96	83.806
767.27	93.458
767.58	84.158
767.89	95.580
768.20	98.780
768.51	88.265
768.82	85.965
769.13	74.902
769.44	80.827
769.75	72.659
770.06	84.034
770.37	81.140
770.68	82.667
770.99	81.780
771.30	87.866
771.61	85.385
771.92	80.916
772.23	81.452
772.54	84.000
772.85	88.614
773.16	89.674
773.47	99.444
773.78	82.178
774.09	94.886
774.39	95.758
774.70	88.824
775.01	103.289
775.32	83.230
775.63	94.521
775.94	93.210
776.25	91.034
776.56	102.290
776.87	111.450
777.18	91.667
777.48	114.961
777.79	102.308
778.10	97.727
778.41	100.746
778.72	101.504
779.03	91.667
779.34	95.270
779.65	88.820
779.95	91.925
780.26	83.929
780.57	98.639
780.88	100.000
781.19	105.833
781.50	92.308
781.80	84.153
782.11	80.423
782.42	88.506
782.73	83.616
783.04	92.258
783.34	101.550
783.65	87.755
783.96	90.323
784.27	90.066
784.57	87.500
784.88	89.855
785.19	90.000
785.50	101.724
785.81	106.977
786.11	94.074
786.42	88.189
786.73	109.910
787.04	100.000
787.34	94.309
787.65	90.152
787.96	100.000
788.26	100.787
788.57	95.620
788.88	85.211
789.19	91.603
789.49	89.865
789.80	99.219
790.11	90.909
790.41	100.926
790.72	92.593
791.03	111.538
791.33	102.020
791.64	103.158
791.95	106.316
792.25	103.125
792.56	95.000
792.87	119.512
793.17	114.773
793.48	105.882
793.79	110.345
794.09	118.182
794.40	97.414
794.70	103.175
795.01	87.692
795.32	94.656
795.62	97.436
795.93	102.521
796.23	84.553
796.54	112.245
796.85	107.955
797.15	120.779
797.46	108.537
797.76	100.000
798.07	120.000
798.37	120.000
798.68	116.250
798.99	107.317
799.29	122.667
799.60	97.674
799.90	114.474
800.21	121.212
800.51	114.085
800.82	132.759
801.12	123.077
801.43	125.333
801.73	118.966
802.04	107.792
802.34	108.219
802.65	135.294
802.95	150.000
803.26	132.258
803.56	138.333
803.87	132.836
804.17	125.397
804.48	126.415
804.78	111.111
805.09	137.879
805.39	134.921
805.70	143.860
806.00	95.714
806.30	120.312
806.61	105.882
806.91	103.333
807.22	93.478
807.52	103.947
807.83	126.316
808.13	117.391
808.43	133.871
808.74	105.479
809.04	132.143
809.35	136.765
809.65	134.848
809.95	137.255
810.26	131.481
810.56	129.688
810.86	132.653
811.17	128.070
811.47	123.913
811.77	124.138
812.08	125.862
812.38	140.476
812.69	171.429
812.99	131.111
813.29	148.571
813.59	200.000
813.90	115.517
814.20	116.393
814.50	140.000
814.81	114.035
815.11	151.852
815.41	101.786
815.72	128.571
816.02	114.000
816.32	151.220
816.62	125.862
816.93	193.939
817.23	156.098
817.53	141.071
817.84	104.444
818.14	135.714
818.44	131.250
818.74	154.717
819.04	117.949
819.35	172.727
819.65	146.154
819.95	127.778
820.25	151.064
820.56	175.676
820.86	157.895
821.16	104.255
821.46	173.684
821.76	129.091
822.07	114.286
822.37	160.526
822.67	139.535
822.97	163.158
823.27	132.609
823.57	156.250
823.88	153.846
824.18	139.394
824.48	230.435
824.78	180.556
825.08	221.739
825.38	186.207
825.69	108.824
825.99	123.404
826.29	141.667
826.59	154.286
826.89	156.667
827.19	142.857
827.49	170.968
827.79	246.154
828.09	140.476
828.39	152.778
828.70	127.027
829.00	203.571
829.30	250.000
829.60	147.222
829.90	151.613
830.20	151.515
830.50	175.676
830.80	250.000
831.10	223.077
831.40	214.286
831.70	220.833
832.00	163.333
832.30	221.739
832.60	195.833
832.90	175.758
833.20	250.000
833.50	168.421
833.80	126.471
834.10	139.474
834.40	205.263
834.70	126.667
835.00	200.000
835.30	124.324
835.60	193.750
835.90	132.432
836.20	176.923
836.50	204.545
836.80	141.463
837.10	178.261
837.40	423.077
837.70	215.789
838.00	150.000
838.30	216.667
838.60	196.000
838.90	490.000
839.19	262.500
839.49	146.667
839.79	182.759
840.09	192.308
840.39	253.333
840.69	236.842
840.99	209.524
841.29	234.783
841.59	225.000
841.88	160.000
842.18	366.667
842.48	203.571
842.78	203.704
843.08	284.615
843.38	168.182
843.68	300.000
843.97	528.571
844.27	178.261
844.57	2100.000
844.87	328.571
845.17	300.000
845.47	223.810
845.76	212.500
846.06	628.571
846.36	258.824
846.66	323.077
846.96	300.000
847.25	307.692
847.55	252.632
847.85	238.889
848.15	820.000
848.44	381.818
848.74	238.095
849.04	212.500
849.34	205.882
849.63	300.000
849.93	262.500
850.23	1300.000
850.53	575.000
850.82	390.909
851.12	241.176
851.42	154.167
851.71	262.500
852.01	0.000
852.31	200.000
852.61	440.000
852.90	150.000
853.20	488.889
853.50	-3200.000
853.79	164.000
854.09	165.625
854.39	189.655
854.68	179.310
854.98	233.333
855.28	180.645
855.57	321.429
855.87	288.889
856.17	188.889
856.46	210.526
856.76	125.806
857.05	235.294
857.35	363.636
857.65	292.308
857.94	175.000
858.24	433.333
858.53	300.000
858.83	614.286
859.13	217.391
859.42	333.333
859.72	425.000
860.01	291.667
860.31	900.000
860.60	320.000
860.90	337.500
861.20	353.846
861.49	528.571
861.79	-4100.000
862.08	542.857
862.38	333.333
862.67	235.714
862.97	480.000
863.26	146.667
863.56	675.000
863.85	269.231
864.15	270.588
864.44	250.000
864.74	391.667
865.03	381.818
865.33	512.500
865.62	260.000
865.92	616.667
866.21	1075.000
866.51	780.000
866.80	194.444
867.10	1400.000
867.39	3500.000
867.69	600.000
867.98	1050.000
868.27	195.238
868.57	253.333
868.86	750.000
869.16	176.190
869.45	3400.000
869.75	-533.333
870.04	725.000
870.33	780.000
870.63	462.500
870.92	235.294
871.22	1025.000
871.51	585.714
871.80	366.667
872.10	361.538
>>>>>End Processed Spectral Data<<<<<
