SpectraSuite Data File
++++++++++++++++++++++++++++++++++++
Date: Tue May 12 15:16:20 PDT 2015
User: schluterlab
Dark Spectrum Present: Yes
Reference Spectrum Present: Yes
Number of Sampled Component Spectra: 1
Spectrometers: USB2E3373
Integration Time (usec): 3000 (USB2E3373)
Spectra Averaged: 3 (USB2E3373)
Boxcar Smoothing: 0 (USB2E3373)
Correct for Electrical Dark: No (USB2E3373)
Strobe/Lamp Enabled: No (USB2E3373)
Correct for Detector Non-linearity: No (USB2E3373)
Correct for Stray Light: No (USB2E3373)
Number of Pixels in Processed Spectrum: 2048
>>>>>Begin Processed Spectral Data<<<<<
178.53	0.000
178.91	-175.000
179.29	-575.000
179.67	-3600.000
180.04	-146.667
180.42	475.000
180.80	1400.000
181.18	0.000
181.56	-312.500
181.94	0.000
182.31	1100.000
182.69	-2500.000
183.07	485.714
183.45	-3400.000
183.83	-1150.000
184.20	300.000
184.58	400.000
184.96	-238.462
185.34	-216.667
185.72	1750.000
186.09	-500.000
186.47	-1900.000
186.85	833.333
187.23	520.000
187.61	1550.000
187.98	375.000
188.36	250.000
188.74	308.333
189.12	291.667
189.49	850.000
189.87	0.000
190.25	500.000
190.63	2100.000
191.00	-158.333
191.38	-2300.000
191.76	-475.000
192.14	387.500
192.51	-2300.000
192.89	1350.000
193.27	933.333
193.65	-1000.000
194.02	-720.000
194.40	485.714
194.78	-178.571
195.15	246.667
195.53	-3400.000
195.91	-500.000
196.29	2500.000
196.66	237.500
197.04	1050.000
197.42	-1100.000
197.79	600.000
198.17	308.333
198.55	0.000
198.92	385.714
199.30	933.333
199.68	1850.000
200.05	433.333
200.43	-533.333
200.81	161.111
201.18	2100.000
201.56	233.333
201.94	-425.000
202.31	-312.500
202.69	-500.000
203.07	3300.000
203.44	-516.667
203.82	266.667
204.19	560.000
204.57	-1100.000
204.95	-625.000
205.32	-580.000
205.70	616.667
206.08	600.000
206.45	-666.667
206.83	377.778
207.20	184.211
207.58	316.667
207.96	580.000
208.33	0.000
208.71	471.429
209.08	640.000
209.46	-2500.000
209.84	-650.000
210.21	780.000
210.59	-500.000
210.96	275.000
211.34	-1000.000
211.71	372.727
212.09	650.000
212.46	1600.000
212.84	-383.333
213.22	388.889
213.59	-2500.000
213.97	280.000
214.34	775.000
214.72	900.000
215.09	933.333
215.47	-2700.000
215.84	-150.000
216.22	-387.500
216.59	0.000
216.97	0.000
217.34	1300.000
217.72	-950.000
218.09	700.000
218.47	437.500
218.84	750.000
219.22	1066.667
219.59	800.000
219.97	571.429
220.34	355.556
220.72	1350.000
221.09	2600.000
221.47	258.333
221.84	600.000
222.22	290.000
222.59	194.444
222.97	214.286
223.34	237.500
223.72	-1550.000
224.09	1166.667
224.46	238.462
224.84	-725.000
225.21	288.889
225.59	273.333
225.96	1033.333
226.34	-480.000
226.71	-450.000
227.08	-600.000
227.46	0.000
227.83	-433.333
228.21	-1150.000
228.58	341.667
228.95	825.000
229.33	333.333
229.70	875.000
230.08	300.000
230.45	2800.000
230.82	-750.000
231.20	-966.667
231.57	-800.000
231.95	560.000
232.32	283.333
232.69	366.667
233.07	325.000
233.44	-1450.000
233.81	173.333
234.19	103.704
234.56	156.250
234.93	164.706
235.31	190.000
235.68	262.500
236.05	132.143
236.43	140.741
236.80	185.714
237.17	103.448
237.55	87.500
237.92	105.000
238.29	127.273
238.67	100.000
239.04	80.488
239.41	72.917
239.79	80.000
240.16	81.250
240.53	57.377
240.91	75.362
241.28	69.492
241.65	57.576
242.02	57.746
242.40	65.714
242.77	50.549
243.14	48.101
243.51	61.616
243.89	64.486
244.26	45.794
244.63	45.545
245.00	42.202
245.38	27.966
245.75	48.485
246.12	42.222
246.49	39.716
246.87	30.328
247.24	47.333
247.61	39.375
247.98	38.095
248.36	30.909
248.73	36.224
249.10	32.738
249.47	36.000
249.84	30.348
250.22	28.649
250.59	32.000
250.96	32.068
251.33	31.163
251.70	34.375
252.08	30.672
252.45	28.685
252.82	26.996
253.19	30.830
253.56	25.769
253.94	27.899
254.31	25.581
254.68	26.829
255.05	27.586
255.42	25.912
255.79	29.316
256.16	29.492
256.54	26.299
256.91	26.144
257.28	26.087
257.65	23.511
258.02	25.074
258.39	30.946
258.76	29.275
259.14	22.857
259.51	27.988
259.88	27.660
260.25	25.275
260.62	24.110
260.99	23.691
261.36	24.234
261.73	25.266
262.10	24.869
262.47	24.750
262.85	23.200
263.22	24.422
263.59	25.831
263.96	27.820
264.33	20.988
264.70	27.764
265.07	25.854
265.44	24.771
265.81	23.821
266.18	24.943
266.55	22.931
266.92	22.148
267.29	26.535
267.66	23.543
268.03	23.318
268.40	22.833
268.77	25.330
269.14	20.174
269.51	22.494
269.88	23.673
270.25	20.518
270.62	25.536
270.99	27.789
271.36	22.154
271.73	22.642
272.10	22.222
272.47	21.429
272.84	20.559
273.21	23.554
273.58	24.696
273.95	20.739
274.32	23.346
274.69	24.213
275.06	22.587
275.43	20.498
275.80	20.943
276.17	23.713
276.54	21.682
276.91	22.015
277.28	23.175
277.65	23.247
278.02	22.426
278.39	23.921
278.76	21.897
279.13	21.886
279.50	21.636
279.87	20.857
280.23	22.836
280.60	22.628
280.97	21.207
281.34	21.122
281.71	21.217
282.08	23.932
282.45	18.919
282.82	23.077
283.19	20.827
283.56	20.992
283.92	23.616
284.29	20.133
284.66	20.000
285.03	21.227
285.40	20.661
285.77	20.216
286.14	21.672
286.51	21.626
286.87	18.354
287.24	20.871
287.61	19.453
287.98	20.746
288.35	20.148
288.72	21.396
289.08	18.318
289.45	19.970
289.82	19.844
290.19	20.059
290.56	21.252
290.93	19.712
291.29	19.199
291.66	19.633
292.03	20.196
292.40	20.732
292.77	19.081
293.13	19.829
293.50	17.949
293.87	19.512
294.24	18.182
294.60	18.439
294.97	21.259
295.34	18.725
295.71	20.631
296.08	20.267
296.44	19.441
296.81	19.603
297.18	17.997
297.55	19.212
297.91	17.488
298.28	18.841
298.65	19.509
299.02	19.300
299.38	20.024
299.75	17.927
300.12	19.610
300.48	19.438
300.85	18.594
301.22	18.372
301.59	17.571
301.95	18.670
302.32	18.161
302.69	19.118
303.05	21.773
303.42	17.713
303.79	19.935
304.15	19.252
304.52	19.345
304.89	20.682
305.25	20.245
305.62	19.829
305.99	18.478
306.35	19.474
306.72	18.939
307.09	19.358
307.45	19.219
307.82	20.473
308.19	20.825
308.55	20.200
308.92	21.786
309.29	21.696
309.65	20.416
310.02	20.487
310.38	19.442
310.75	21.119
311.12	21.264
311.48	22.490
311.85	20.802
312.22	22.254
312.58	21.380
312.95	21.553
313.31	22.004
313.68	21.857
314.05	23.535
314.41	22.905
314.78	23.674
315.14	23.412
315.51	23.841
315.87	22.628
316.24	23.343
316.61	23.814
316.97	23.486
317.34	24.438
317.70	25.198
318.07	25.979
318.43	25.220
318.80	24.168
319.16	25.787
319.53	24.602
319.89	25.448
320.26	27.933
320.62	26.648
320.99	28.122
321.35	26.252
321.72	28.748
322.08	28.163
322.45	28.974
322.81	28.271
323.18	29.751
323.54	29.878
323.91	30.553
324.27	30.416
324.64	29.844
325.00	32.414
325.37	32.462
325.73	32.462
326.10	34.714
326.46	33.691
326.83	33.760
327.19	34.859
327.56	34.585
327.92	36.148
328.29	35.761
328.65	37.243
329.01	36.869
329.38	36.717
329.74	36.892
330.11	39.357
330.47	40.153
330.84	36.756
331.20	39.171
331.56	39.724
331.93	38.922
332.29	38.435
332.66	38.350
333.02	37.543
333.38	39.529
333.75	40.951
334.11	38.926
334.48	40.855
334.84	39.105
335.20	40.719
335.57	39.043
335.93	39.781
336.29	39.552
336.66	40.223
337.02	39.350
337.38	40.241
337.75	40.625
338.11	41.181
338.47	40.813
338.84	41.406
339.20	39.394
339.56	39.613
339.93	40.301
340.29	40.252
340.65	39.983
341.02	40.467
341.38	40.722
341.74	40.947
342.11	41.402
342.47	40.115
342.83	43.068
343.20	41.310
343.56	39.476
343.92	41.288
344.28	39.952
344.65	41.402
345.01	40.635
345.37	40.705
345.73	41.032
346.10	39.920
346.46	41.388
346.82	40.895
347.19	41.422
347.55	40.749
347.91	41.465
348.27	40.899
348.63	41.297
349.00	41.203
349.36	42.023
349.72	41.055
350.08	42.547
350.45	41.508
350.81	41.055
351.17	41.217
351.53	40.878
351.89	40.482
352.26	41.194
352.62	41.554
352.98	41.871
353.34	41.371
353.70	42.202
354.07	42.538
354.43	41.167
354.79	41.154
355.15	42.956
355.51	41.843
355.87	42.470
356.24	42.494
356.60	41.705
356.96	42.002
357.32	41.598
357.68	40.749
358.04	42.401
358.40	41.754
358.77	42.074
359.13	42.042
359.49	41.142
359.85	42.293
360.21	40.490
360.57	40.876
360.93	42.063
361.29	41.270
361.66	42.356
362.02	41.335
362.38	41.991
362.74	43.383
363.10	42.006
363.46	41.160
363.82	42.567
364.18	42.959
364.54	41.917
364.90	42.503
365.26	42.262
365.62	41.713
365.98	42.189
366.35	41.586
366.71	42.609
367.07	42.526
367.43	42.310
367.79	42.686
368.15	42.266
368.51	43.212
368.87	41.712
369.23	42.204
369.59	42.953
369.95	43.706
370.31	43.053
370.67	43.234
371.03	43.908
371.39	43.006
371.75	43.894
372.11	43.712
372.47	41.644
372.83	42.896
373.19	42.769
373.55	43.093
373.91	43.025
374.27	43.717
374.63	42.983
374.99	43.329
375.35	43.011
375.71	43.206
376.07	43.501
376.42	41.752
376.78	43.866
377.14	44.495
377.50	43.446
377.86	43.177
378.22	44.668
378.58	44.794
378.94	43.030
379.30	42.874
379.66	44.250
380.02	43.636
380.38	42.389
380.74	43.195
381.09	43.808
381.45	43.526
381.81	43.676
382.17	43.834
382.53	43.191
382.89	42.342
383.25	43.280
383.61	43.112
383.97	43.671
384.32	43.460
384.68	44.979
385.04	43.611
385.40	42.527
385.76	43.944
386.12	43.599
386.48	44.073
386.83	45.049
387.19	42.580
387.55	42.874
387.91	43.476
388.27	43.129
388.62	43.310
388.98	43.265
389.34	42.951
389.70	42.983
390.06	44.024
390.42	43.368
390.77	43.735
391.13	42.849
391.49	43.194
391.85	42.831
392.20	43.147
392.56	42.712
392.92	43.010
393.28	42.265
393.64	42.431
393.99	41.909
394.35	42.260
394.71	42.340
395.07	42.701
395.42	41.979
395.78	42.936
396.14	43.434
396.50	43.502
396.85	43.476
397.21	43.321
397.57	42.379
397.92	42.114
398.28	42.140
398.64	42.408
399.00	41.956
399.35	41.546
399.71	42.550
400.07	41.267
400.42	41.731
400.78	42.874
401.14	42.866
401.49	41.647
401.85	42.236
402.21	41.769
402.57	43.268
402.92	43.091
403.28	42.959
403.63	41.260
403.99	42.340
404.35	42.028
404.70	43.650
405.06	41.325
405.42	41.951
405.77	42.282
406.13	40.944
406.49	41.217
406.84	40.214
407.20	42.066
407.55	41.908
407.91	42.183
408.27	41.601
408.62	41.336
408.98	41.928
409.34	40.795
409.69	41.693
410.05	41.145
410.40	40.224
410.76	40.927
411.11	41.351
411.47	41.852
411.83	39.250
412.18	40.640
412.54	41.441
412.89	40.826
413.25	41.505
413.60	40.829
413.96	41.113
414.31	40.319
414.67	42.148
415.03	40.996
415.38	41.009
415.74	41.377
416.09	39.913
416.45	41.435
416.80	41.116
417.16	40.484
417.51	40.064
417.87	41.615
418.22	39.186
418.58	40.892
418.93	40.690
419.29	39.864
419.64	40.581
420.00	41.169
420.35	41.521
420.71	40.490
421.06	40.200
421.42	40.242
421.77	39.867
422.12	40.187
422.48	39.651
422.83	41.016
423.19	38.121
423.54	39.495
423.90	41.110
424.25	39.901
424.61	39.292
424.96	40.316
425.31	40.175
425.67	40.404
426.02	40.325
426.38	39.848
426.73	39.560
427.09	41.400
427.44	39.561
427.79	40.652
428.15	40.837
428.50	40.000
428.85	40.388
429.21	40.249
429.56	39.382
429.92	40.278
430.27	39.816
430.62	38.815
430.98	38.872
431.33	39.667
431.68	38.765
432.04	39.834
432.39	40.724
432.74	40.515
433.10	39.756
433.45	39.977
433.80	39.989
434.16	39.254
434.51	39.732
434.86	40.555
435.22	40.573
435.57	40.486
435.92	40.979
436.28	40.035
436.63	39.438
436.98	40.766
437.34	40.240
437.69	38.746
438.04	40.860
438.39	40.689
438.75	39.866
439.10	40.313
439.45	39.062
439.81	39.965
440.16	39.791
440.51	39.696
440.86	40.342
441.22	40.152
441.57	40.735
441.92	39.832
442.27	39.639
442.63	40.091
442.98	38.308
443.33	39.743
443.68	38.984
444.03	39.491
444.39	39.171
444.74	38.975
445.09	39.336
445.44	39.957
445.79	40.351
446.15	39.789
446.50	39.241
446.85	38.894
447.20	38.607
447.55	39.750
447.91	39.957
448.26	39.244
448.61	40.022
448.96	40.577
449.31	38.889
449.66	39.701
450.02	38.898
450.37	39.867
450.72	40.110
451.07	39.151
451.42	39.834
451.77	40.493
452.12	39.762
452.47	39.915
452.83	40.225
453.18	40.180
453.53	38.603
453.88	40.057
454.23	39.977
454.58	39.510
454.93	40.037
455.28	40.942
455.63	39.007
455.98	39.932
456.34	39.878
456.69	39.695
457.04	39.678
457.39	39.257
457.74	39.358
458.09	39.023
458.44	38.992
458.79	39.576
459.14	38.953
459.49	39.015
459.84	39.620
460.19	39.379
460.54	39.031
460.89	39.392
461.24	38.774
461.59	39.399
461.94	39.007
462.29	39.016
462.64	39.008
462.99	39.283
463.34	39.598
463.69	39.867
464.04	40.127
464.39	38.695
464.74	38.218
465.09	39.698
465.44	39.282
465.79	38.596
466.14	39.269
466.49	38.307
466.84	37.904
467.19	38.371
467.54	38.859
467.89	38.908
468.24	39.433
468.59	38.988
468.94	38.466
469.29	38.424
469.64	38.714
469.99	38.946
470.34	38.393
470.68	37.586
471.03	40.427
471.38	39.735
471.73	38.602
472.08	39.922
472.43	39.541
472.78	38.860
473.13	37.797
473.48	38.142
473.83	38.751
474.17	38.602
474.52	37.974
474.87	37.464
475.22	38.150
475.57	37.775
475.92	37.455
476.27	37.432
476.61	36.729
476.96	38.506
477.31	38.201
477.66	38.218
478.01	37.597
478.36	38.877
478.70	37.469
479.05	38.441
479.40	37.500
479.75	37.885
480.10	38.045
480.45	37.535
480.79	37.512
481.14	37.137
481.49	37.237
481.84	37.335
482.19	37.162
482.53	36.978
482.88	37.366
483.23	36.536
483.58	37.567
483.92	37.934
484.27	36.687
484.62	37.394
484.97	35.645
485.31	35.612
485.66	35.055
486.01	34.338
486.36	33.199
486.70	33.059
487.05	33.239
487.40	34.663
487.75	34.751
488.09	35.057
488.44	35.468
488.79	35.821
489.13	35.797
489.48	36.596
489.83	36.322
490.17	35.549
490.52	35.831
490.87	36.681
491.22	37.145
491.56	36.320
491.91	36.066
492.26	35.991
492.60	35.900
492.95	36.112
493.30	36.215
493.64	36.658
493.99	36.449
494.34	36.351
494.68	35.812
495.03	35.788
495.37	36.155
495.72	36.923
496.07	36.523
496.41	35.317
496.76	35.711
497.11	35.818
497.45	35.116
497.80	36.469
498.14	35.229
498.49	35.887
498.84	36.542
499.18	35.009
499.53	37.115
499.87	35.939
500.22	36.435
500.56	36.165
500.91	36.039
501.26	36.059
501.60	35.656
501.95	35.663
502.29	35.244
502.64	34.760
502.98	35.082
503.33	34.388
503.67	34.879
504.02	34.931
504.36	35.294
504.71	35.430
505.06	34.866
505.40	34.581
505.75	35.407
506.09	35.698
506.44	35.855
506.78	35.775
507.13	35.628
507.47	35.129
507.82	35.669
508.16	35.963
508.51	35.942
508.85	35.185
509.19	35.781
509.54	35.254
509.88	36.151
510.23	35.686
510.57	35.135
510.92	36.364
511.26	35.442
511.61	35.204
511.95	34.694
512.30	35.000
512.64	34.995
512.98	34.700
513.33	35.605
513.67	35.629
514.02	35.481
514.36	34.112
514.70	35.307
515.05	33.777
515.39	37.116
515.74	35.867
516.08	34.858
516.42	36.120
516.77	34.560
517.11	34.987
517.46	34.806
517.80	34.407
518.14	35.944
518.49	35.116
518.83	34.121
519.17	35.441
519.52	36.537
519.86	35.204
520.20	35.178
520.55	35.048
520.89	34.885
521.23	35.572
521.58	35.169
521.92	35.510
522.26	34.419
522.61	35.948
522.95	36.096
523.29	35.146
523.64	34.277
523.98	35.387
524.32	34.429
524.66	35.130
525.01	34.852
525.35	34.944
525.69	35.340
526.04	35.158
526.38	34.550
526.72	35.143
527.06	34.891
527.41	36.094
527.75	35.240
528.09	34.196
528.43	35.876
528.78	35.480
529.12	35.882
529.46	34.833
529.80	34.346
530.15	34.826
530.49	33.815
530.83	34.491
531.17	34.625
531.51	34.948
531.86	33.696
532.20	33.436
532.54	35.217
532.88	35.166
533.22	34.674
533.57	34.289
533.91	33.508
534.25	32.660
534.59	33.333
534.93	33.220
535.27	32.783
535.62	32.614
535.96	33.452
536.30	34.247
536.64	35.031
536.98	33.732
537.32	34.000
537.66	33.610
538.01	33.313
538.35	34.435
538.69	33.070
539.03	33.085
539.37	32.767
539.71	33.210
540.05	33.354
540.39	33.899
540.73	33.354
541.07	32.434
541.42	33.893
541.76	33.600
542.10	32.922
542.44	33.229
542.78	32.662
543.12	32.577
543.46	33.396
543.80	33.020
544.14	33.437
544.48	33.029
544.82	33.761
545.16	32.119
545.50	33.497
545.84	33.586
546.18	33.745
546.52	33.574
546.86	34.043
547.20	33.204
547.54	32.489
547.88	32.847
548.22	32.848
548.56	31.291
548.90	32.028
549.24	32.912
549.58	32.216
549.92	31.893
550.26	32.928
550.60	33.333
550.94	33.243
551.28	32.759
551.62	34.069
551.96	33.176
552.30	31.378
552.64	32.362
552.98	31.701
553.32	32.138
553.66	31.270
554.00	31.210
554.34	32.557
554.68	32.863
555.02	32.111
555.36	31.582
555.69	33.573
556.03	31.529
556.37	31.358
556.71	33.312
557.05	30.996
557.39	31.133
557.73	32.278
558.07	32.059
558.41	32.762
558.75	32.490
559.08	33.024
559.42	32.283
559.76	32.502
560.10	32.416
560.44	31.387
560.78	31.650
561.12	31.786
561.45	31.414
561.79	31.211
562.13	31.017
562.47	31.343
562.81	32.141
563.15	31.092
563.48	30.248
563.82	31.691
564.16	31.654
564.50	30.621
564.84	31.185
565.17	30.600
565.51	32.020
565.85	32.079
566.19	31.012
566.52	30.325
566.86	31.115
567.20	31.124
567.54	30.841
567.88	30.256
568.21	29.955
568.55	29.572
568.89	29.745
569.23	29.292
569.56	29.473
569.90	28.494
570.24	28.961
570.57	28.066
570.91	27.613
571.25	27.610
571.59	26.791
571.92	26.749
572.26	26.577
572.60	26.520
572.93	27.113
573.27	26.910
573.61	26.584
573.95	26.270
574.28	26.491
574.62	26.036
574.96	26.266
575.29	25.334
575.63	25.724
575.97	25.779
576.30	25.639
576.64	26.344
576.98	25.981
577.31	26.047
577.65	25.781
577.98	25.380
578.32	25.192
578.66	24.981
578.99	25.362
579.33	25.507
579.67	25.917
580.00	25.705
580.34	25.838
580.67	25.168
581.01	25.631
581.35	25.403
581.68	25.063
582.02	24.575
582.35	24.611
582.69	24.935
583.02	24.890
583.36	25.290
583.70	25.594
584.03	26.647
584.37	25.972
584.70	25.056
585.04	25.387
585.37	24.977
585.71	25.596
586.04	24.915
586.38	25.305
586.72	25.689
587.05	25.965
587.39	25.664
587.72	25.592
588.06	25.776
588.39	25.384
588.73	25.661
589.06	25.824
589.40	25.853
589.73	26.680
590.07	26.596
590.40	26.899
590.73	27.947
591.07	27.249
591.40	26.387
591.74	26.705
592.07	26.290
592.41	27.178
592.74	26.547
593.08	26.172
593.41	25.583
593.75	25.359
594.08	25.685
594.41	26.458
594.75	25.856
595.08	25.960
595.42	26.959
595.75	26.423
596.09	26.382
596.42	27.094
596.75	27.003
597.09	26.868
597.42	27.020
597.75	26.288
598.09	26.057
598.42	26.357
598.76	26.176
599.09	26.149
599.42	25.433
599.76	25.611
600.09	25.119
600.42	25.932
600.76	25.357
601.09	25.544
601.42	25.695
601.76	25.564
602.09	26.122
602.42	25.915
602.76	25.806
603.09	26.546
603.42	26.349
603.76	25.560
604.09	25.878
604.42	25.537
604.76	26.235
605.09	25.837
605.42	26.168
605.75	26.490
606.09	26.090
606.42	25.742
606.75	26.467
607.09	25.227
607.42	25.753
607.75	26.314
608.08	25.142
608.42	26.133
608.75	25.503
609.08	26.353
609.41	26.045
609.75	26.969
610.08	25.809
610.41	25.780
610.74	25.974
611.07	26.512
611.41	26.506
611.74	27.151
612.07	26.397
612.40	26.365
612.73	27.459
613.07	27.015
613.40	26.566
613.73	26.810
614.06	26.100
614.39	26.515
614.72	26.419
615.06	25.569
615.39	25.000
615.72	25.750
616.05	27.423
616.38	26.078
616.71	26.370
617.05	26.304
617.38	25.843
617.71	27.053
618.04	27.201
618.37	26.681
618.70	26.501
619.03	27.350
619.36	28.392
619.69	27.243
620.03	27.332
620.36	27.553
620.69	28.480
621.02	28.193
621.35	27.364
621.68	28.319
622.01	28.487
622.34	28.478
622.67	27.809
623.00	27.434
623.33	27.126
623.66	26.880
623.99	28.219
624.32	28.117
624.65	26.860
624.99	27.924
625.32	26.587
625.65	26.966
625.98	27.406
626.31	27.967
626.64	27.031
626.97	28.998
627.30	28.183
627.63	28.807
627.96	27.621
628.29	29.043
628.62	27.887
628.95	29.433
629.28	29.360
629.61	28.559
629.94	28.695
630.26	29.029
630.59	29.610
630.92	28.789
631.25	28.921
631.58	30.376
631.91	29.876
632.24	29.349
632.57	28.782
632.90	31.159
633.23	30.955
633.56	30.137
633.89	31.083
634.22	30.786
634.55	29.570
634.88	29.792
635.20	31.390
635.53	30.778
635.86	31.879
636.19	31.313
636.52	29.189
636.85	27.724
637.18	31.528
637.51	30.391
637.83	29.634
638.16	29.777
638.49	30.180
638.82	30.634
639.15	30.200
639.48	32.701
639.81	31.868
640.13	31.656
640.46	32.111
640.79	31.990
641.12	30.052
641.45	32.342
641.77	31.440
642.10	31.861
642.43	33.997
642.76	30.398
643.09	31.556
643.41	31.417
643.74	33.669
644.07	34.218
644.40	31.361
644.73	33.033
645.05	31.798
645.38	32.772
645.71	32.322
646.04	34.504
646.36	31.612
646.69	32.480
647.02	33.920
647.35	30.709
647.67	30.632
648.00	32.248
648.33	33.835
648.66	31.970
648.98	31.014
649.31	30.769
649.64	31.397
649.96	28.876
650.29	29.857
650.62	31.370
650.94	32.681
651.27	32.855
651.60	31.768
651.92	31.183
652.25	32.441
652.58	31.631
652.90	29.042
653.23	31.019
653.56	30.861
653.88	30.690
654.21	29.472
654.54	30.893
654.86	33.333
655.19	30.475
655.52	25.809
655.84	19.442
656.17	22.524
656.49	32.196
656.82	36.841
657.15	29.371
657.47	22.090
657.80	16.593
658.13	13.317
658.45	18.214
658.78	21.912
659.10	23.073
659.43	23.572
659.75	24.628
660.08	26.880
660.41	27.223
660.73	31.368
661.06	31.231
661.38	33.390
661.71	31.115
662.03	31.559
662.36	32.571
662.68	35.382
663.01	33.694
663.33	31.698
663.66	33.333
663.98	34.524
664.31	33.396
664.63	33.142
664.96	35.084
665.28	30.885
665.61	32.264
665.93	32.453
666.26	33.458
666.58	33.945
666.91	31.853
667.23	34.137
667.56	32.649
667.88	34.855
668.21	30.123
668.53	31.452
668.86	35.471
669.18	31.161
669.50	31.818
669.83	35.524
670.15	31.601
670.48	30.273
670.80	36.454
671.13	30.478
671.45	33.667
671.77	32.653
672.10	31.957
672.42	30.592
672.75	30.063
673.07	29.889
673.39	28.115
673.72	31.142
674.04	31.720
674.37	29.220
674.69	33.457
675.01	30.597
675.34	32.558
675.66	33.008
675.98	31.755
676.31	33.600
676.63	31.412
676.95	31.548
677.28	32.252
677.60	32.998
677.92	31.746
678.25	29.457
678.57	32.961
678.89	32.550
679.22	32.904
679.54	29.715
679.86	31.588
680.18	29.877
680.51	26.700
680.83	27.365
681.15	30.329
681.48	32.639
681.80	28.196
682.12	30.796
682.44	30.631
682.77	31.851
683.09	32.233
683.41	33.265
683.73	30.118
684.06	30.952
684.38	32.364
684.70	27.338
685.02	28.472
685.34	30.810
685.67	28.939
685.99	30.049
686.31	28.814
686.63	27.317
686.96	28.758
687.28	27.181
687.60	28.669
687.92	28.643
688.24	30.172
688.56	29.715
688.89	27.342
689.21	31.214
689.53	30.435
689.85	30.285
690.17	30.097
690.49	32.056
690.82	31.303
691.14	31.111
691.46	33.060
691.78	32.554
692.10	31.679
692.42	27.949
692.74	32.171
693.06	30.039
693.39	28.656
693.71	28.684
694.03	29.783
694.35	32.731
694.67	29.124
694.99	31.042
695.31	33.784
695.63	29.638
695.95	30.317
696.27	32.522
696.59	30.788
696.91	30.633
697.23	31.674
697.56	29.876
697.88	26.148
698.20	29.623
698.52	25.292
698.84	30.595
699.16	31.130
699.48	31.568
699.80	32.898
700.12	33.718
700.44	32.477
700.76	32.697
701.08	33.681
701.40	29.351
701.72	35.294
702.04	33.062
702.36	32.258
702.68	33.245
703.00	29.574
703.32	31.762
703.64	34.761
703.96	32.812
704.28	32.540
704.60	33.803
704.91	37.255
705.23	31.250
705.55	32.047
705.87	38.095
706.19	35.737
706.51	36.364
706.83	38.348
707.15	33.957
707.47	31.235
707.79	30.115
708.11	29.478
708.43	29.438
708.74	28.733
709.06	31.395
709.38	31.514
709.70	31.335
710.02	30.163
710.34	33.149
710.66	33.056
710.98	29.235
711.29	35.097
711.61	35.097
711.93	33.131
712.25	33.434
712.57	30.547
712.89	31.515
713.20	36.102
713.52	33.333
713.84	33.837
714.16	29.565
714.48	31.124
714.80	29.539
715.11	30.585
715.43	31.844
715.75	30.986
716.07	32.081
716.39	32.571
716.70	32.087
717.02	34.680
717.34	37.410
717.66	33.333
717.97	34.848
718.29	35.915
718.61	34.122
718.93	34.602
719.24	33.557
719.56	33.448
719.88	29.299
720.20	35.806
720.51	29.739
720.83	34.783
721.15	36.054
721.46	36.301
721.78	33.101
722.10	32.986
722.42	33.445
722.73	33.213
723.05	34.386
723.37	37.456
723.68	38.672
724.00	35.985
724.32	37.262
724.63	31.154
724.95	36.863
725.27	32.714
725.58	35.662
725.90	31.690
726.22	32.192
726.53	32.776
726.85	36.482
727.16	34.228
727.48	35.216
727.80	34.173
728.11	36.786
728.43	33.696
728.74	34.266
729.06	32.258
729.38	32.632
729.69	36.333
730.01	34.868
730.32	33.557
730.64	34.551
730.96	33.934
731.27	25.994
731.59	30.172
731.90	27.577
732.22	28.571
732.53	27.920
732.85	30.702
733.16	28.012
733.48	30.721
733.80	30.435
734.11	30.061
734.43	30.702
734.74	28.418
735.06	30.423
735.37	26.031
735.69	25.797
736.00	31.804
736.32	29.394
736.63	26.183
736.95	28.261
737.26	31.402
737.58	27.914
737.89	27.711
738.21	32.119
738.52	34.783
738.83	32.967
739.15	29.965
739.46	28.621
739.78	30.952
740.09	32.070
740.41	29.141
740.72	34.921
741.04	34.965
741.35	33.203
741.66	32.016
741.98	33.476
742.29	39.352
742.61	30.531
742.92	34.746
743.23	29.200
743.55	30.189
743.86	34.510
744.18	34.322
744.49	34.711
744.80	41.475
745.12	31.696
745.43	35.047
745.74	37.778
746.06	34.649
746.37	34.884
746.68	37.168
747.00	35.874
747.31	34.454
747.62	29.918
747.94	34.764
748.25	34.241
748.56	38.136
748.88	34.821
749.19	32.093
749.50	28.311
749.82	32.099
750.13	34.783
750.44	31.667
750.75	33.221
751.07	34.539
751.38	29.703
751.69	29.966
752.01	31.119
752.32	31.561
752.63	34.228
752.94	29.720
753.26	36.719
753.57	36.576
753.88	33.333
754.19	31.769
754.51	30.897
754.82	32.215
755.13	29.054
755.44	30.370
755.75	34.021
756.07	33.562
756.38	28.105
756.69	30.000
757.00	30.564
757.31	29.014
757.63	30.303
757.94	26.862
758.25	28.502
758.56	25.400
758.87	30.075
759.18	31.686
759.50	31.003
759.81	28.190
760.12	26.966
760.43	27.731
760.74	28.101
761.05	28.647
761.36	26.302
761.67	29.380
761.99	27.324
762.30	28.939
762.61	31.597
762.92	29.924
763.23	30.189
763.54	32.308
763.85	31.128
764.16	37.500
764.47	33.446
764.78	28.013
765.10	28.354
765.41	25.000
765.72	27.901
766.03	26.284
766.34	28.223
766.65	31.939
766.96	29.960
767.27	37.383
767.58	35.644
767.89	38.674
768.20	41.463
768.51	31.122
768.82	33.333
769.13	25.882
769.44	28.571
769.75	32.584
770.06	29.832
770.37	26.754
770.68	31.556
770.99	34.746
771.30	30.544
771.61	29.615
771.92	32.061
772.23	32.258
772.54	34.667
772.85	44.554
773.16	32.609
773.47	31.667
773.78	38.614
774.09	46.591
774.39	43.636
774.70	32.941
775.01	30.263
775.32	40.373
775.63	45.205
775.94	46.296
776.25	40.690
776.56	44.275
776.87	46.565
777.18	43.939
777.48	46.457
777.79	42.308
778.10	48.485
778.41	41.045
778.72	39.850
779.03	37.179
779.34	35.135
779.65	42.236
779.95	34.783
780.26	38.095
780.57	46.259
780.88	43.972
781.19	50.000
781.50	38.462
781.80	40.984
782.11	41.270
782.42	28.161
782.73	36.158
783.04	34.194
783.34	41.860
783.65	38.095
783.96	46.452
784.27	35.762
784.57	34.211
784.88	38.406
785.19	48.333
785.50	43.966
785.81	50.388
786.11	45.926
786.42	36.220
786.73	46.847
787.04	42.453
787.34	46.341
787.65	49.242
787.96	41.667
788.26	49.606
788.57	45.255
788.88	40.845
789.19	38.931
789.49	41.216
789.80	42.969
790.11	41.322
790.41	44.444
790.72	45.370
791.03	50.962
791.33	51.515
791.64	54.737
791.95	45.263
792.25	41.667
792.56	46.000
792.87	40.244
793.17	52.273
793.48	51.765
793.79	56.322
794.09	55.682
794.40	51.724
794.70	46.825
795.01	39.231
795.32	42.748
795.62	41.880
795.93	48.739
796.23	40.650
796.54	38.776
796.85	57.955
797.15	59.740
797.46	59.756
797.76	55.000
798.07	49.333
798.37	55.000
798.68	57.500
798.99	56.098
799.29	41.333
799.60	55.814
799.90	55.263
800.21	60.606
800.51	50.704
800.82	75.862
801.12	66.154
801.43	54.667
801.73	60.345
802.04	63.636
802.34	65.753
802.65	78.431
802.95	73.913
803.26	74.194
803.56	88.333
803.87	65.672
804.17	61.905
804.48	52.830
804.78	51.389
805.09	63.636
805.39	79.365
805.70	63.158
806.00	67.143
806.30	60.937
806.61	63.529
806.91	65.556
807.22	44.565
807.52	50.000
807.83	68.421
808.13	59.420
808.43	70.968
808.74	56.164
809.04	73.214
809.35	73.529
809.65	74.242
809.95	84.314
810.26	94.444
810.56	82.813
810.86	85.714
811.17	80.702
811.47	78.261
811.77	63.793
812.08	46.552
812.38	66.667
812.69	88.095
812.99	57.778
813.29	94.286
813.59	93.548
813.90	68.966
814.20	65.574
814.50	64.000
814.81	77.193
815.11	87.037
815.41	76.786
815.72	82.143
816.02	74.000
816.32	97.561
816.62	82.759
816.93	121.212
817.23	90.244
817.53	60.714
817.84	84.444
818.14	102.381
818.44	72.917
818.74	92.453
819.04	71.795
819.35	90.909
819.65	84.615
819.95	87.037
820.25	95.745
820.56	110.811
820.86	105.263
821.16	57.447
821.46	121.053
821.76	69.091
822.07	78.571
822.37	73.684
822.67	120.930
822.97	76.316
823.27	78.261
823.57	75.000
823.88	97.436
824.18	90.909
824.48	169.565
824.78	80.556
825.08	147.826
825.38	127.586
825.69	100.000
825.99	76.596
826.29	66.667
826.59	94.286
826.89	130.000
827.19	117.143
827.49	125.806
827.79	134.615
828.09	83.333
828.39	94.444
828.70	81.081
829.00	117.857
829.30	225.000
829.60	111.111
829.90	100.000
830.20	84.848
830.50	145.946
830.80	141.667
831.10	130.769
831.40	142.857
831.70	170.833
832.00	90.000
832.30	147.826
832.60	145.833
832.90	136.364
833.20	200.000
833.50	115.789
833.80	76.471
834.10	105.263
834.40	178.947
834.70	106.667
835.00	120.000
835.30	102.703
835.60	128.125
835.90	108.108
836.20	115.385
836.50	86.364
836.80	107.317
837.10	156.522
837.40	261.538
837.70	142.105
838.00	150.000
838.30	150.000
838.60	140.000
838.90	350.000
839.19	143.750
839.49	126.667
839.79	110.345
840.09	115.385
840.39	173.333
840.69	194.737
840.99	138.095
841.29	139.130
841.59	180.000
841.88	144.000
842.18	288.889
842.48	114.286
842.78	129.630
843.08	153.846
843.38	163.636
843.68	121.429
843.97	357.143
844.27	134.783
844.57	1250.000
844.87	285.714
845.17	200.000
845.47	152.381
845.76	141.667
846.06	500.000
846.36	182.353
846.66	300.000
846.96	181.250
847.25	161.538
847.55	173.684
847.85	172.222
848.15	500.000
848.44	300.000
848.74	157.143
849.04	145.833
849.34	182.353
849.63	243.750
849.93	237.500
850.23	700.000
850.53	387.500
850.82	209.091
851.12	147.059
851.42	187.500
851.71	256.250
852.01	0.000
852.31	158.824
852.61	390.000
852.90	158.333
853.20	322.222
853.50	-800.000
853.79	148.000
854.09	121.875
854.39	120.690
854.68	148.276
854.98	185.714
855.28	125.806
855.57	242.857
855.87	183.333
856.17	96.296
856.46	163.158
856.76	125.806
857.05	247.059
857.35	245.455
857.65	253.846
857.94	125.000
858.24	411.111
858.53	250.000
858.83	528.571
859.13	152.174
859.42	288.889
859.72	387.500
860.01	258.333
860.31	700.000
860.60	280.000
860.90	400.000
861.20	223.077
861.49	271.429
861.79	-3100.000
862.08	428.571
862.38	233.333
862.67	207.143
862.97	280.000
863.26	130.000
863.56	600.000
863.85	330.769
864.15	247.059
864.44	222.222
864.74	283.333
865.03	236.364
865.33	225.000
865.62	260.000
865.92	550.000
866.21	650.000
866.51	360.000
866.80	133.333
867.10	700.000
867.39	2300.000
867.69	420.000
867.98	650.000
868.27	171.429
868.57	226.667
868.86	725.000
869.16	157.143
869.45	2800.000
869.75	-483.333
870.04	575.000
870.33	520.000
870.63	350.000
870.92	194.118
871.22	725.000
871.51	328.571
871.80	291.667
872.10	300.000
>>>>>End Processed Spectral Data<<<<<
