SpectraSuite Data File
++++++++++++++++++++++++++++++++++++
Date: Wed May 13 21:42:08 PDT 2015
User: schluterlab
Dark Spectrum Present: Yes
Reference Spectrum Present: Yes
Number of Sampled Component Spectra: 1
Spectrometers: USB2E3373
Integration Time (usec): 3000 (USB2E3373)
Spectra Averaged: 3 (USB2E3373)
Boxcar Smoothing: 0 (USB2E3373)
Correct for Electrical Dark: No (USB2E3373)
Strobe/Lamp Enabled: No (USB2E3373)
Correct for Detector Non-linearity: No (USB2E3373)
Correct for Stray Light: No (USB2E3373)
Number of Pixels in Processed Spectrum: 2048
>>>>>Begin Processed Spectral Data<<<<<
178.53	0.000
178.91	250.000
179.29	175.000
179.67	-200.000
180.04	-233.333
180.42	260.000
180.80	1800.000
181.18	300.000
181.56	-275.000
181.94	-425.000
182.31	-72.727
182.69	123.077
183.07	40.000
183.45	400.000
183.83	44.444
184.20	300.000
184.58	-200.000
184.96	233.333
185.34	157.143
185.72	0.000
186.09	-1300.000
186.47	-420.000
186.85	200.000
187.23	-200.000
187.61	650.000
187.98	1200.000
188.36	-87.500
188.74	0.000
189.12	-27.273
189.49	-50.000
189.87	58.333
190.25	260.000
190.63	900.000
191.00	-160.000
191.38	260.000
191.76	375.000
192.14	183.333
192.51	-21.053
192.89	366.667
193.27	275.000
193.65	-320.000
194.02	218.182
194.40	150.000
194.78	200.000
195.15	400.000
195.53	-160.000
195.91	-87.500
196.29	-200.000
196.66	0.000
197.04	100.000
197.42	-20.000
197.79	-10.000
198.17	-125.000
198.55	-233.333
198.92	175.000
199.30	-600.000
199.68	10.000
200.05	300.000
200.43	183.333
200.81	-600.000
201.18	-260.000
201.56	-150.000
201.94	650.000
202.31	8.696
202.69	-171.429
203.07	-600.000
203.44	-140.000
203.82	-533.333
204.19	-70.000
204.57	0.000
204.95	-183.333
205.32	0.000
205.70	-300.000
206.08	-300.000
206.45	-50.000
206.83	100.000
207.20	-100.000
207.58	-30.000
207.96	-1400.000
208.33	-171.429
208.71	-1400.000
209.08	175.000
209.46	400.000
209.84	0.000
210.21	80.000
210.59	1600.000
210.96	180.000
211.34	900.000
211.71	-700.000
212.09	-283.333
212.46	-190.000
212.84	-366.667
213.22	75.000
213.59	-1900.000
213.97	-400.000
214.34	-300.000
214.72	-23.077
215.09	125.000
215.47	133.333
215.84	950.000
216.22	-87.500
216.59	-1000.000
216.97	800.000
217.34	122.222
217.72	0.000
218.09	266.667
218.47	-500.000
218.84	-57.143
219.22	-62.500
219.59	-266.667
219.97	-325.000
220.34	-112.500
220.72	-240.000
221.09	0.000
221.47	-100.000
221.84	100.000
222.22	0.000
222.59	500.000
222.97	-266.667
223.34	-58.333
223.72	-1300.000
224.09	-850.000
224.46	-45.455
224.84	-12.500
225.21	14.286
225.59	-275.000
225.96	-166.667
226.34	-110.000
226.71	-85.714
227.08	400.000
227.46	-75.000
227.83	-200.000
228.21	-6.250
228.58	-375.000
228.95	-52.941
229.33	-12.500
229.70	-175.000
230.08	-38.462
230.45	-112.500
230.82	-83.333
231.20	200.000
231.57	-50.000
231.95	1400.000
232.32	-33.333
232.69	-41.176
233.07	-1700.000
233.44	-60.870
233.81	-200.000
234.19	4.167
234.56	-60.000
234.93	13.333
235.31	10.526
235.68	-76.923
236.05	100.000
236.43	-5.556
236.80	15.152
237.17	-80.000
237.55	-58.824
237.92	-24.138
238.29	-55.556
238.67	-8.333
239.04	-41.935
239.41	-10.638
239.79	2.128
240.16	2.326
240.53	12.500
240.91	8.929
241.28	-5.357
241.65	16.129
242.02	3.947
242.40	13.043
242.77	-5.797
243.14	11.538
243.51	20.213
243.89	14.423
244.26	25.472
244.63	10.577
245.00	9.375
245.38	15.126
245.75	8.197
246.12	15.789
246.49	1.626
246.87	5.042
247.24	17.568
247.61	19.205
247.98	14.103
248.36	14.201
248.73	16.292
249.10	15.657
249.47	13.441
249.84	15.789
250.22	14.925
250.59	14.486
250.96	21.818
251.33	7.177
251.70	16.318
252.08	15.481
252.45	11.934
252.82	19.011
253.19	15.953
253.56	12.590
253.94	20.641
254.31	16.197
254.68	20.805
255.05	14.851
255.42	16.783
255.79	12.883
256.16	18.612
256.54	15.238
256.91	14.873
257.28	16.981
257.65	16.242
258.02	11.437
258.39	17.544
258.76	15.116
259.14	14.205
259.51	15.449
259.88	15.718
260.25	14.444
260.62	16.573
260.99	16.711
261.36	19.171
261.73	13.827
262.10	15.776
262.47	17.284
262.85	17.910
263.22	18.462
263.59	17.662
263.96	16.058
264.33	13.462
264.70	16.279
265.07	19.213
265.44	20.000
265.81	16.247
266.18	15.945
266.55	16.812
266.92	17.373
267.29	17.901
267.66	15.924
268.03	18.930
268.40	16.525
268.77	18.802
269.14	18.980
269.51	17.659
269.88	15.275
270.25	19.068
270.62	15.574
270.99	17.323
271.36	16.667
271.73	18.273
272.10	18.095
272.47	14.971
272.84	19.094
273.21	16.047
273.58	15.779
273.95	16.415
274.32	18.470
274.69	16.576
275.06	17.314
275.43	16.008
275.80	17.553
276.17	14.365
276.54	14.920
276.91	16.551
277.28	14.801
277.65	19.406
278.02	18.214
278.39	16.696
278.76	18.395
279.13	16.638
279.50	17.586
279.87	14.855
280.23	17.838
280.60	15.744
280.97	16.071
281.34	18.927
281.71	14.472
282.08	17.094
282.45	17.541
282.82	16.773
283.19	18.140
283.56	17.031
283.92	16.514
284.29	14.977
284.66	17.298
285.03	14.495
285.40	15.710
285.77	15.315
286.14	17.021
286.51	17.391
286.87	15.692
287.24	14.159
287.61	17.922
287.98	16.471
288.35	14.605
288.72	16.069
289.08	16.667
289.45	15.272
289.82	16.339
290.19	16.550
290.56	13.778
290.93	14.365
291.29	15.048
291.66	14.891
292.03	16.213
292.40	16.824
292.77	15.127
293.13	14.226
293.50	15.948
293.87	13.333
294.24	15.873
294.60	15.605
294.97	15.212
295.34	14.248
295.71	13.403
296.08	12.696
296.44	14.413
296.81	13.155
297.18	14.125
297.55	12.972
297.91	13.416
298.28	12.954
298.65	14.286
299.02	14.408
299.38	13.620
299.75	13.582
300.12	11.395
300.48	12.515
300.85	13.395
301.22	14.750
301.59	12.911
301.95	12.195
302.32	13.069
302.69	11.186
303.05	12.403
303.42	13.182
303.79	14.301
304.15	12.924
304.52	12.473
304.89	12.514
305.25	12.184
305.62	13.774
305.99	13.493
306.35	13.480
306.72	13.530
307.09	12.304
307.45	12.247
307.82	11.895
308.19	11.285
308.55	12.590
308.92	13.556
309.29	13.213
309.65	12.887
310.02	12.028
310.38	11.890
310.75	13.609
311.12	13.120
311.48	12.166
311.85	12.795
312.22	13.733
312.58	13.140
312.95	13.234
313.31	13.407
313.68	13.740
314.05	13.233
314.41	14.025
314.78	13.283
315.14	13.426
315.51	13.511
315.87	14.087
316.24	13.407
316.61	13.790
316.97	13.148
317.34	12.478
317.70	13.292
318.07	13.931
318.43	13.550
318.80	11.606
319.16	12.821
319.53	13.889
319.89	12.918
320.26	14.787
320.62	13.809
320.99	12.597
321.35	13.471
321.72	14.244
322.08	14.299
322.45	14.061
322.81	14.418
323.18	14.132
323.54	14.621
323.91	14.724
324.27	14.491
324.64	13.415
325.00	13.823
325.37	14.078
325.73	13.973
326.10	13.541
326.46	14.548
326.83	14.887
327.19	14.959
327.56	14.907
327.92	13.516
328.29	15.776
328.65	15.074
329.01	13.808
329.38	15.913
329.74	14.764
330.11	14.157
330.47	14.149
330.84	14.260
331.20	13.578
331.56	14.312
331.93	14.126
332.29	15.552
332.66	14.068
333.02	14.944
333.38	14.298
333.75	13.823
334.11	14.236
334.48	14.908
334.84	14.311
335.20	14.494
335.57	13.403
335.93	13.660
336.29	13.835
336.66	13.846
337.02	14.087
337.38	13.838
337.75	13.523
338.11	13.407
338.47	14.555
338.84	12.543
339.20	13.845
339.56	14.590
339.93	13.742
340.29	13.920
340.65	14.115
341.02	14.393
341.38	13.682
341.74	12.437
342.11	13.377
342.47	13.389
342.83	13.399
343.20	13.367
343.56	14.963
343.92	13.160
344.28	13.799
344.65	13.469
345.01	13.479
345.37	14.063
345.73	13.644
346.10	14.526
346.46	13.984
346.82	13.082
347.19	14.082
347.55	14.540
347.91	12.549
348.27	13.170
348.63	12.420
349.00	12.972
349.36	13.187
349.72	12.993
350.08	13.183
350.45	13.782
350.81	13.615
351.17	13.549
351.53	12.412
351.89	13.106
352.26	12.278
352.62	13.333
352.98	13.179
353.34	12.963
353.70	14.097
354.07	12.784
354.43	11.897
354.79	12.500
355.15	13.121
355.51	12.984
355.87	12.744
356.24	13.483
356.60	12.666
356.96	13.891
357.32	13.235
357.68	12.911
358.04	13.887
358.40	13.721
358.77	13.991
359.13	12.918
359.49	13.020
359.85	13.343
360.21	13.801
360.57	13.232
360.93	12.822
361.29	14.508
361.66	12.604
362.02	12.454
362.38	12.482
362.74	12.835
363.10	12.798
363.46	12.968
363.82	14.191
364.18	12.328
364.54	12.546
364.90	12.195
365.26	12.173
365.62	12.926
365.98	12.527
366.35	12.624
366.71	12.625
367.07	12.686
367.43	12.474
367.79	12.509
368.15	13.080
368.51	12.377
368.87	13.119
369.23	12.313
369.59	12.192
369.95	12.627
370.31	11.506
370.67	12.238
371.03	12.918
371.39	12.988
371.75	12.786
372.11	12.749
372.47	13.338
372.83	13.037
373.19	13.165
373.55	12.066
373.91	12.093
374.27	11.411
374.63	12.945
374.99	12.813
375.35	12.945
375.71	11.617
376.07	13.365
376.42	12.834
376.78	14.069
377.14	13.017
377.50	13.038
377.86	13.280
378.22	13.085
378.58	12.169
378.94	13.313
379.30	13.679
379.66	13.132
380.02	12.623
380.38	13.313
380.74	14.345
381.09	12.967
381.45	13.120
381.81	12.754
382.17	12.539
382.53	13.662
382.89	13.148
383.25	13.580
383.61	13.620
383.97	13.250
384.32	12.539
384.68	12.400
385.04	12.217
385.40	13.387
385.76	12.835
386.12	12.589
386.48	12.978
386.83	12.703
387.19	12.647
387.55	13.059
387.91	12.854
388.27	12.639
388.62	12.859
388.98	13.079
389.34	13.033
389.70	13.065
390.06	13.375
390.42	13.531
390.77	13.261
391.13	12.942
391.49	13.283
391.85	12.396
392.20	12.594
392.56	13.206
392.92	13.283
393.28	12.609
393.64	13.028
393.99	13.219
394.35	13.704
394.71	12.821
395.07	11.824
395.42	13.163
395.78	12.999
396.14	13.697
396.50	12.429
396.85	13.002
397.21	13.296
397.57	12.547
397.92	13.772
398.28	13.367
398.64	12.933
399.00	13.225
399.35	13.224
399.71	12.813
400.07	13.012
400.42	13.166
400.78	12.628
401.14	12.753
401.49	11.684
401.85	13.022
402.21	11.765
402.57	13.611
402.92	13.016
403.28	12.570
403.63	12.895
403.99	13.116
404.35	12.843
404.70	12.810
405.06	12.625
405.42	12.186
405.77	12.615
406.13	12.857
406.49	13.481
406.84	12.088
407.20	13.262
407.55	12.727
407.91	12.905
408.27	12.539
408.62	13.382
408.98	12.762
409.34	13.181
409.69	13.515
410.05	12.873
410.40	12.295
410.76	13.237
411.11	14.366
411.47	13.869
411.83	12.601
412.18	13.098
412.54	13.471
412.89	12.226
413.25	12.389
413.60	13.041
413.96	12.797
414.31	13.070
414.67	13.397
415.03	12.314
415.38	12.880
415.74	11.956
416.09	13.219
416.45	12.782
416.80	13.020
417.16	13.158
417.51	12.793
417.87	13.624
418.22	13.381
418.58	12.286
418.93	12.743
419.29	13.465
419.64	13.359
420.00	12.825
420.35	13.210
420.71	13.833
421.06	13.407
421.42	14.051
421.77	13.064
422.12	13.410
422.48	12.323
422.83	13.585
423.19	12.823
423.54	13.486
423.90	13.302
424.25	14.269
424.61	13.309
424.96	12.655
425.31	12.956
425.67	13.463
426.02	13.840
426.38	12.624
426.73	13.378
427.09	12.946
427.44	13.740
427.79	12.945
428.15	13.028
428.50	13.353
428.85	13.653
429.21	12.943
429.56	13.921
429.92	13.795
430.27	13.650
430.62	14.271
430.98	13.432
431.33	13.702
431.68	13.685
432.04	14.028
432.39	13.106
432.74	13.427
433.10	13.655
433.45	13.195
433.80	13.448
434.16	13.162
434.51	13.859
434.86	13.840
435.22	12.847
435.57	12.715
435.92	12.786
436.28	14.054
436.63	13.799
436.98	13.396
437.34	14.347
437.69	13.636
438.04	13.639
438.39	13.823
438.75	13.111
439.10	13.707
439.45	13.499
439.81	14.039
440.16	14.377
440.51	13.674
440.86	13.989
441.22	14.228
441.57	13.774
441.92	13.738
442.27	13.474
442.63	13.348
442.98	12.616
443.33	13.939
443.68	13.442
444.03	13.910
444.39	13.684
444.74	13.915
445.09	13.601
445.44	14.310
445.79	13.371
446.15	13.699
446.50	13.326
446.85	14.431
447.20	13.487
447.55	14.550
447.91	14.270
448.26	13.779
448.61	13.982
448.96	14.237
449.31	14.392
449.66	14.922
450.02	14.611
450.37	14.512
450.72	13.605
451.07	13.981
451.42	13.787
451.77	13.938
452.12	14.141
452.47	14.848
452.83	14.092
453.18	13.940
453.53	13.934
453.88	14.578
454.23	14.524
454.58	14.583
454.93	14.112
455.28	14.258
455.63	13.600
455.98	13.268
456.34	13.859
456.69	14.441
457.04	13.684
457.39	14.372
457.74	13.944
458.09	14.159
458.44	14.277
458.79	14.443
459.14	14.270
459.49	14.878
459.84	13.923
460.19	13.325
460.54	13.990
460.89	14.245
461.24	13.748
461.59	14.070
461.94	14.728
462.29	14.032
462.64	14.182
462.99	14.152
463.34	14.434
463.69	15.399
464.04	13.806
464.39	14.155
464.74	14.312
465.09	14.507
465.44	14.983
465.79	15.124
466.14	14.709
466.49	14.135
466.84	15.123
467.19	13.694
467.54	15.295
467.89	14.393
468.24	14.997
468.59	14.659
468.94	13.921
469.29	15.863
469.64	15.272
469.99	14.828
470.34	14.026
470.68	14.275
471.03	14.175
471.38	15.021
471.73	14.266
472.08	15.464
472.43	15.567
472.78	15.145
473.13	14.776
473.48	14.808
473.83	15.066
474.17	14.648
474.52	14.822
474.87	14.717
475.22	14.614
475.57	15.003
475.92	14.940
476.27	14.744
476.61	14.609
476.96	15.020
477.31	14.563
477.66	14.972
478.01	14.615
478.36	14.550
478.70	14.715
479.05	15.205
479.40	14.873
479.75	14.506
480.10	14.737
480.45	14.860
480.79	15.530
481.14	14.843
481.49	14.554
481.84	14.090
482.19	14.822
482.53	14.429
482.88	15.340
483.23	14.485
483.58	15.359
483.92	14.494
484.27	13.541
484.62	14.825
484.97	15.180
485.31	14.877
485.66	14.652
486.01	14.868
486.36	14.182
486.70	14.407
487.05	14.791
487.40	14.556
487.75	14.585
488.09	14.482
488.44	14.651
488.79	15.556
489.13	14.950
489.48	14.536
489.83	14.783
490.17	15.116
490.52	14.960
490.87	14.650
491.22	15.214
491.56	14.710
491.91	15.314
492.26	14.894
492.60	14.478
492.95	15.792
493.30	15.116
493.64	14.293
493.99	15.362
494.34	15.751
494.68	15.370
495.03	14.328
495.37	15.085
495.72	15.338
496.07	15.197
496.41	14.740
496.76	15.174
497.11	15.493
497.45	16.051
497.80	15.750
498.14	15.919
498.49	15.330
498.84	15.536
499.18	14.933
499.53	15.017
499.87	14.750
500.22	15.729
500.56	15.998
500.91	15.543
501.26	15.468
501.60	14.412
501.95	15.189
502.29	14.951
502.64	14.899
502.98	15.173
503.33	15.328
503.67	14.995
504.02	15.049
504.36	15.305
504.71	15.447
505.06	15.588
505.40	14.897
505.75	16.836
506.09	15.738
506.44	15.625
506.78	15.389
507.13	15.385
507.47	15.589
507.82	15.280
508.16	15.515
508.51	15.909
508.85	15.086
509.19	15.132
509.54	15.871
509.88	16.237
510.23	15.579
510.57	15.678
510.92	16.325
511.26	15.567
511.61	16.301
511.95	14.829
512.30	15.825
512.64	15.210
512.98	15.014
513.33	16.338
513.67	16.014
514.02	16.078
514.36	16.180
514.70	16.686
515.05	16.325
515.39	15.743
515.74	15.749
516.08	15.752
516.42	16.302
516.77	15.583
517.11	15.814
517.46	16.267
517.80	16.707
518.14	15.738
518.49	15.973
518.83	16.169
519.17	16.928
519.52	15.983
519.86	16.272
520.20	16.252
520.55	16.915
520.89	16.192
521.23	16.090
521.58	16.561
521.92	14.959
522.26	16.005
522.61	16.096
522.95	16.062
523.29	16.698
523.64	16.275
523.98	16.010
524.32	15.375
524.66	16.429
525.01	15.793
525.35	16.524
525.69	16.302
526.04	15.700
526.38	16.699
526.72	16.437
527.06	15.925
527.41	15.950
527.75	15.888
528.09	16.678
528.43	16.282
528.78	15.568
529.12	16.235
529.46	17.019
529.80	16.570
530.15	15.701
530.49	16.105
530.83	16.452
531.17	16.233
531.51	15.509
531.86	16.531
532.20	16.058
532.54	16.207
532.88	17.018
533.22	16.431
533.57	16.424
533.91	17.161
534.25	16.406
534.59	15.701
534.93	16.008
535.27	16.433
535.62	16.908
535.96	17.241
536.30	17.088
536.64	15.106
536.98	15.557
537.32	15.231
537.66	17.348
538.01	16.019
538.35	16.989
538.69	15.585
539.03	15.772
539.37	16.298
539.71	15.894
540.05	16.869
540.39	15.348
540.73	15.503
541.07	17.211
541.42	16.498
541.76	16.915
542.10	15.166
542.44	15.870
542.78	17.071
543.12	16.375
543.46	15.342
543.80	16.225
544.14	15.692
544.48	15.594
544.82	16.005
545.16	16.362
545.50	16.070
545.84	17.041
546.18	16.059
546.52	17.502
546.86	16.396
547.20	16.083
547.54	16.869
547.88	16.397
548.22	16.612
548.56	15.610
548.90	16.441
549.24	18.403
549.58	15.730
549.92	17.461
550.26	16.458
550.60	15.991
550.94	15.746
551.28	16.578
551.62	18.120
551.96	16.179
552.30	16.012
552.64	15.678
552.98	16.761
553.32	16.655
553.66	16.214
554.00	15.695
554.34	16.044
554.68	17.301
555.02	16.243
555.36	16.490
555.69	15.950
556.03	15.368
556.37	15.505
556.71	15.557
557.05	17.269
557.39	16.277
557.73	16.415
558.07	15.901
558.41	17.184
558.75	17.013
559.08	15.958
559.42	16.680
559.76	16.208
560.10	16.065
560.44	17.318
560.78	15.971
561.12	16.398
561.45	15.646
561.79	16.644
562.13	16.526
562.47	16.357
562.81	17.172
563.15	15.793
563.48	16.036
563.82	16.963
564.16	16.385
564.50	15.875
564.84	16.284
565.17	16.225
565.51	15.374
565.85	14.857
566.19	16.623
566.52	16.317
566.86	15.613
567.20	15.761
567.54	15.371
567.88	15.174
568.21	15.209
568.55	15.128
568.89	14.656
569.23	15.353
569.56	15.311
569.90	15.452
570.24	14.260
570.57	14.875
570.91	14.747
571.25	14.236
571.59	14.793
571.92	14.814
572.26	14.880
572.60	14.413
572.93	14.808
573.27	14.333
573.61	14.857
573.95	14.278
574.28	14.488
574.62	14.145
574.96	14.911
575.29	14.468
575.63	14.700
575.97	15.054
576.30	14.648
576.64	14.514
576.98	14.228
577.31	14.485
577.65	14.049
577.98	14.380
578.32	14.221
578.66	14.486
578.99	14.531
579.33	14.743
579.67	14.511
580.00	14.360
580.34	14.203
580.67	14.723
581.01	14.086
581.35	14.089
581.68	14.045
582.02	14.360
582.35	14.517
582.69	14.377
583.02	14.069
583.36	14.181
583.70	14.319
584.03	14.397
584.37	14.016
584.70	14.514
585.04	14.716
585.37	14.411
585.71	14.665
586.04	14.085
586.38	13.970
586.72	14.723
587.05	14.552
587.39	14.363
587.72	14.282
588.06	14.391
588.39	14.805
588.73	14.049
589.06	14.484
589.40	14.757
589.73	14.265
590.07	15.421
590.40	14.502
590.73	15.154
591.07	14.710
591.40	14.522
591.74	14.762
592.07	15.062
592.41	15.015
592.74	14.583
593.08	14.974
593.41	14.579
593.75	14.535
594.08	14.888
594.41	15.174
594.75	14.768
595.08	14.750
595.42	14.531
595.75	15.546
596.09	14.973
596.42	14.338
596.75	14.875
597.09	15.787
597.42	15.478
597.75	15.644
598.09	15.665
598.42	15.168
598.76	15.323
599.09	15.766
599.42	15.144
599.76	15.321
600.09	15.361
600.42	15.330
600.76	15.152
601.09	15.141
601.42	15.210
601.76	14.903
602.09	14.998
602.42	15.353
602.76	14.639
603.09	15.400
603.42	14.834
603.76	14.887
604.09	15.059
604.42	14.943
604.76	14.884
605.09	15.315
605.42	15.655
605.75	15.075
606.09	14.570
606.42	15.295
606.75	14.805
607.09	15.027
607.42	15.455
607.75	14.004
608.08	14.743
608.42	15.370
608.75	15.862
609.08	15.238
609.41	15.648
609.75	15.330
610.08	15.434
610.41	15.306
610.74	15.063
611.07	15.782
611.41	15.711
611.74	15.424
612.07	14.904
612.40	15.568
612.73	15.203
613.07	15.022
613.40	15.033
613.73	15.547
614.06	15.312
614.39	15.397
614.72	15.991
615.06	15.556
615.39	16.004
615.72	15.281
616.05	15.653
616.38	15.865
616.71	14.457
617.05	15.663
617.38	16.020
617.71	14.828
618.04	15.783
618.37	15.142
618.70	16.429
619.03	15.258
619.36	15.943
619.69	15.424
620.03	14.417
620.36	15.310
620.69	14.704
621.02	16.000
621.35	14.963
621.68	14.425
622.01	15.777
622.34	16.336
622.67	16.210
623.00	15.653
623.33	14.884
623.66	15.836
623.99	16.279
624.32	15.334
624.65	16.246
624.99	15.577
625.32	15.161
625.65	16.822
625.98	14.771
626.31	15.837
626.64	15.219
626.97	16.090
627.30	16.938
627.63	16.436
627.96	15.758
628.29	16.651
628.62	17.215
628.95	15.030
629.28	16.847
629.61	17.895
629.94	16.344
630.26	17.241
630.59	17.682
630.92	15.663
631.25	15.757
631.58	16.060
631.91	15.483
632.24	15.258
632.57	15.889
632.90	16.103
633.23	16.427
633.56	17.746
633.89	16.627
634.22	19.081
634.55	19.123
634.88	16.054
635.20	17.625
635.53	16.796
635.86	17.692
636.19	17.866
636.52	15.122
636.85	16.767
637.18	14.616
637.51	16.854
637.83	18.016
638.16	16.667
638.49	15.888
638.82	16.340
639.15	17.686
639.48	16.979
639.81	16.806
640.13	17.746
640.46	16.949
640.79	17.986
641.12	15.976
641.45	15.866
641.77	16.937
642.10	18.003
642.43	18.553
642.76	15.457
643.09	18.051
643.41	17.384
643.74	17.609
644.07	16.990
644.40	17.413
644.73	15.254
645.05	16.405
645.38	16.445
645.71	18.367
646.04	16.162
646.36	18.576
646.69	16.783
647.02	17.304
647.35	18.647
647.67	17.930
648.00	15.761
648.33	17.119
648.66	16.194
648.98	15.994
649.31	16.718
649.64	14.085
649.96	17.694
650.29	17.647
650.62	16.804
650.94	15.172
651.27	17.314
651.60	16.084
651.92	18.638
652.25	16.583
652.58	17.492
652.90	15.993
653.23	14.941
653.56	16.198
653.88	13.823
654.21	15.700
654.54	16.944
654.86	15.285
655.19	15.126
655.52	15.603
655.84	14.744
656.17	17.493
656.49	22.590
656.82	21.991
657.15	16.368
657.47	11.832
657.80	8.932
658.13	9.377
658.45	13.546
658.78	13.433
659.10	13.585
659.43	14.059
659.75	13.594
660.08	14.414
660.41	14.300
660.73	14.738
661.06	16.667
661.38	13.178
661.71	19.467
662.03	18.605
662.36	15.929
662.68	19.140
663.01	16.949
663.33	16.199
663.66	12.417
663.98	17.978
664.31	19.121
664.63	11.261
664.96	15.974
665.28	18.455
665.61	15.335
665.93	16.274
666.26	20.675
666.58	15.203
666.91	16.816
667.23	16.590
667.56	18.161
667.88	18.925
668.21	15.625
668.53	15.632
668.86	18.465
669.18	20.095
669.50	18.203
669.83	16.468
670.15	15.714
670.48	16.552
670.80	19.694
671.13	16.018
671.45	16.438
671.77	18.319
672.10	16.569
672.42	15.649
672.75	17.321
673.07	14.727
673.39	17.164
673.72	17.365
674.04	14.959
674.37	17.073
674.69	14.609
675.01	14.957
675.34	17.068
675.66	17.429
675.98	16.372
676.31	17.647
676.63	18.141
676.95	16.471
677.28	16.743
677.60	18.873
677.92	18.182
678.25	17.354
678.57	17.515
678.89	15.352
679.22	15.528
679.54	17.755
679.86	17.578
680.18	17.500
680.51	15.962
680.83	12.281
681.15	17.092
681.48	15.230
681.80	16.155
682.12	12.917
682.44	15.091
682.77	14.737
683.09	13.839
683.41	16.744
683.73	16.071
684.06	16.814
684.38	15.385
684.70	15.275
685.02	16.529
685.34	16.830
685.67	18.011
685.99	15.302
686.31	14.138
686.63	18.750
686.96	16.698
687.28	15.170
687.60	18.147
687.92	14.397
688.24	15.200
688.56	15.351
688.89	12.918
689.21	15.247
689.53	13.288
689.85	13.933
690.17	15.604
690.49	15.942
690.82	11.933
691.14	15.217
691.46	14.849
691.78	16.703
692.10	17.622
692.42	16.264
692.74	15.652
693.06	14.157
693.39	14.052
693.71	16.222
694.03	16.136
694.35	17.793
694.67	17.250
694.99	14.691
695.31	18.088
695.63	15.122
695.95	15.522
696.27	13.425
696.59	15.591
696.91	16.201
697.23	12.944
697.56	14.149
697.88	18.503
698.20	15.335
698.52	14.252
698.84	15.789
699.16	14.894
699.48	19.012
699.80	18.605
700.12	16.354
700.44	14.366
700.76	15.169
701.08	14.804
701.40	13.473
701.72	15.077
702.04	15.094
702.36	15.549
702.68	11.585
703.00	14.912
703.32	15.042
703.64	15.060
703.96	18.182
704.28	16.265
704.60	16.463
704.91	13.480
705.23	18.987
705.55	12.759
705.87	14.437
706.19	12.454
706.51	13.028
706.83	15.287
707.15	19.817
707.47	16.804
707.79	14.213
708.11	15.681
708.43	17.005
708.74	14.096
709.06	14.439
709.38	18.156
709.70	15.616
710.02	10.903
710.34	14.333
710.66	14.332
710.98	14.241
711.29	14.935
711.61	14.839
711.93	13.871
712.25	12.238
712.57	11.930
712.89	15.018
713.20	15.248
713.52	13.139
713.84	10.323
714.16	12.621
714.48	15.823
714.80	13.738
715.11	18.314
715.43	9.627
715.75	16.149
716.07	15.663
716.39	16.498
716.70	21.942
717.02	12.157
717.34	13.636
717.66	13.362
717.97	10.317
718.29	13.780
718.61	10.730
718.93	14.341
719.24	16.605
719.56	10.861
719.88	12.313
720.20	11.067
720.51	18.359
720.83	14.397
721.15	13.008
721.46	13.359
721.78	11.952
722.10	15.139
722.42	16.129
722.73	13.514
723.05	13.061
723.37	17.227
723.68	12.800
724.00	9.362
724.32	12.971
724.63	17.284
724.95	11.966
725.27	18.565
725.58	16.872
725.90	13.808
726.22	14.855
726.53	9.804
726.85	13.869
727.16	12.593
727.48	14.943
727.80	14.062
728.11	12.705
728.43	13.281
728.74	10.317
729.06	9.600
729.38	18.972
729.69	14.947
730.01	10.037
730.32	17.343
730.64	12.879
730.96	17.133
731.27	11.037
731.59	15.238
731.90	11.327
732.22	13.462
732.53	7.095
732.85	14.430
733.16	17.162
733.48	13.176
733.80	13.514
734.11	13.176
734.43	15.789
734.74	13.814
735.06	12.968
735.37	15.502
735.69	16.828
736.00	13.531
736.32	14.894
736.63	12.414
736.95	13.356
737.26	13.448
737.58	14.236
737.89	13.746
738.21	10.320
738.52	14.068
738.83	14.286
739.15	16.034
739.46	15.564
739.78	10.211
740.09	11.986
740.41	11.429
740.72	13.475
741.04	10.800
741.35	10.965
741.66	20.000
741.98	15.385
742.29	17.327
742.61	13.659
742.92	19.737
743.23	14.151
743.55	11.261
743.86	8.520
744.18	11.275
744.49	12.690
744.80	11.735
745.12	10.280
745.43	11.374
745.74	11.712
746.06	11.215
746.37	5.963
746.68	11.058
747.00	13.397
747.31	9.615
747.62	13.761
747.94	17.467
748.25	19.266
748.56	16.889
748.88	12.676
749.19	20.476
749.50	7.282
749.82	6.573
750.13	7.917
750.44	8.846
750.75	16.605
751.07	18.861
751.38	11.348
751.69	12.741
752.01	13.281
752.32	10.000
752.63	16.045
752.94	17.200
753.26	11.297
753.57	14.167
753.88	10.931
754.19	12.749
754.51	13.158
754.82	15.018
755.13	9.130
755.44	18.293
755.75	10.400
756.07	11.070
756.38	10.791
756.69	13.993
757.00	13.396
757.31	8.414
757.63	12.037
757.94	12.712
758.25	11.376
758.56	10.598
758.87	12.798
759.18	16.088
759.50	8.081
759.81	9.365
760.12	13.538
760.43	7.440
760.74	11.017
761.05	13.812
761.36	13.754
761.67	9.668
761.99	12.371
762.30	10.949
762.61	10.700
762.92	14.530
763.23	16.803
763.54	14.719
763.85	14.286
764.16	10.163
764.47	8.000
764.78	12.143
765.10	12.131
765.41	13.374
765.72	17.081
766.03	12.211
766.34	14.231
766.65	9.623
766.96	7.981
767.27	8.911
767.58	8.427
767.89	13.580
768.20	9.392
768.51	13.568
768.82	16.346
769.13	11.947
769.44	14.226
769.75	7.692
770.06	17.489
770.37	7.843
770.68	15.534
770.99	15.534
771.30	10.504
771.61	11.837
771.92	15.768
772.23	13.964
772.54	4.972
772.85	4.651
773.16	14.815
773.47	8.876
773.78	12.644
774.09	7.500
774.39	12.422
774.70	13.605
775.01	11.724
775.32	6.429
775.63	3.008
775.94	5.263
776.25	5.600
776.56	15.702
776.87	6.349
777.18	1.802
777.48	5.405
777.79	7.087
778.10	1.835
778.41	12.281
778.72	6.723
779.03	7.042
779.34	11.486
779.65	9.859
779.95	9.934
780.26	6.475
780.57	16.547
780.88	3.521
781.19	5.042
781.50	20.134
781.80	12.865
782.11	11.047
782.42	13.836
782.73	13.725
783.04	11.724
783.34	6.107
783.65	6.711
783.96	10.769
784.27	12.857
784.57	4.255
784.88	-4.808
785.19	20.909
785.50	13.636
785.81	-0.952
786.11	1.681
786.42	5.310
786.73	0.943
787.04	0.000
787.34	-0.990
787.65	15.833
787.96	8.264
788.26	13.768
788.57	0.000
788.88	4.878
789.19	4.000
789.49	-1.527
789.80	10.606
790.11	-2.830
790.41	3.960
790.72	3.191
791.03	3.261
791.33	5.882
791.64	-3.704
791.95	5.435
792.25	21.591
792.56	25.641
792.87	-7.692
793.17	-2.564
793.48	3.571
793.79	12.500
794.09	14.423
794.40	7.292
794.70	9.910
795.01	6.250
795.32	2.609
795.62	-7.609
795.93	1.887
796.23	6.061
796.54	10.976
796.85	1.190
797.15	-6.061
797.46	14.493
797.76	-3.947
798.07	5.682
798.37	-2.439
798.68	-1.613
798.99	2.703
799.29	2.410
799.60	12.821
799.90	3.077
800.21	6.061
800.51	1.333
800.82	6.667
801.12	-16.667
801.43	-13.333
801.73	1.351
802.04	2.857
802.34	1.639
802.65	1.493
802.95	-12.727
803.26	5.172
803.56	0.000
803.87	5.660
804.17	-17.742
804.48	-11.765
804.78	-24.390
805.09	-5.797
805.39	-2.941
805.70	-29.787
806.00	-1.754
806.30	20.513
806.61	-10.526
806.91	5.405
807.22	-1.316
807.52	7.955
807.83	-11.864
808.13	-10.606
808.43	15.000
808.74	-22.414
809.04	-11.111
809.35	0.000
809.65	18.333
809.95	-40.816
810.26	7.042
810.56	2.083
810.86	-12.245
811.17	1.923
811.47	19.149
811.77	-18.750
812.08	5.660
812.38	-3.125
812.69	7.273
812.99	0.000
813.29	-18.919
813.59	-10.811
813.90	-5.455
814.20	7.273
814.50	-18.333
814.81	7.273
815.11	-19.298
815.41	18.605
815.72	17.500
816.02	-8.571
816.32	-5.405
816.62	8.333
816.93	20.000
817.23	-17.778
817.53	-61.111
817.84	2.703
818.14	0.000
818.44	-2.000
818.74	-2.041
819.04	12.195
819.35	-11.111
819.65	-11.364
819.95	-72.222
820.25	-9.091
820.56	-33.333
820.86	-44.444
821.16	-22.727
821.46	-6.522
821.76	-15.517
822.07	-30.435
822.37	21.212
822.67	12.195
822.97	5.405
823.27	-31.429
823.57	13.793
823.88	-29.412
824.18	11.111
824.48	-11.429
824.78	-47.619
825.08	-7.143
825.38	0.000
825.69	-25.806
825.99	-9.756
826.29	-44.444
826.59	-6.250
826.89	-22.581
827.19	-52.174
827.49	-13.889
827.79	-39.130
828.09	-3.226
828.39	-2.083
828.70	-46.875
829.00	-17.241
829.30	2.703
829.60	-45.833
829.90	22.222
830.20	9.375
830.50	4.545
830.80	-76.471
831.10	-50.000
831.40	-20.588
831.70	-50.000
832.00	-15.152
832.30	29.412
832.60	-5.405
832.90	1400.000
833.20	7.143
833.50	-95.000
833.80	-15.789
834.10	-12.500
834.40	-77.273
834.70	-53.333
835.00	-20.000
835.30	-8.333
835.60	4.762
835.90	-14.286
836.20	-52.000
836.50	-41.667
836.80	-26.316
837.10	2.703
837.40	16.667
837.70	-8.696
838.00	16.667
838.30	-15.789
838.60	-110.000
838.90	-140.000
839.19	-75.000
839.49	23.077
839.79	-26.316
840.09	-183.333
840.39	-30.000
840.69	-36.364
840.99	-23.810
841.29	-58.333
841.59	-115.385
841.88	-33.333
842.18	-57.143
842.48	30.000
842.78	-214.286
843.08	-64.286
843.38	-25.000
843.68	-56.250
843.97	50.000
844.27	-133.333
844.57	-54.545
844.87	-113.333
845.17	-22.727
845.47	766.667
845.76	-60.000
846.06	-100.000
846.36	-1100.000
846.66	-89.474
846.96	-68.182
847.25	-88.889
847.55	-188.889
847.85	-23.810
848.15	-76.923
848.44	-166.667
848.74	-41.667
849.04	7.692
849.34	-200.000
849.63	-136.364
849.93	-121.429
850.23	40.000
850.53	-150.000
850.82	-50.000
851.12	-66.667
851.42	-29.412
851.71	-12.500
852.01	-35.294
852.31	-61.538
852.61	700.000
852.90	0.000
853.20	-80.000
853.50	-62.500
853.79	-150.000
854.09	-175.000
854.39	-60.000
854.68	-12.500
854.98	-23.810
855.28	-40.000
855.57	-4.167
855.87	-16.667
856.17	-32.000
856.46	-34.375
856.76	-15.000
857.05	-24.000
857.35	-66.667
857.65	-47.059
857.94	-125.000
858.24	-91.667
858.53	-30.000
858.83	-90.909
859.13	16.000
859.42	-121.429
859.72	-162.500
860.01	12.500
860.31	-162.500
860.60	0.000
860.90	-116.667
861.20	-83.333
861.49	-13.333
861.79	-62.500
862.08	500.000
862.38	-83.333
862.67	314.286
862.97	425.000
863.26	-109.091
863.56	-9.091
863.85	42.105
864.15	-23.529
864.44	-200.000
864.74	-100.000
865.03	-44.444
865.33	-35.714
865.62	114.286
865.92	21.053
866.21	0.000
866.51	-100.000
866.80	-77.778
867.10	-125.000
867.39	37.500
867.69	-86.667
867.98	-80.000
868.27	-52.941
868.57	0.000
868.86	1050.000
869.16	-200.000
869.45	-257.143
869.75	500.000
870.04	50.000
870.33	-600.000
870.63	-47.368
870.92	-150.000
871.22	-1200.000
871.51	-314.286
871.80	-100.000
872.10	-450.000
>>>>>End Processed Spectral Data<<<<<
