SpectraSuite Data File
++++++++++++++++++++++++++++++++++++
Date: Tue May 12 17:08:11 PDT 2015
User: schluterlab
Dark Spectrum Present: Yes
Reference Spectrum Present: Yes
Number of Sampled Component Spectra: 1
Spectrometers: USB2E3373
Integration Time (usec): 3000 (USB2E3373)
Spectra Averaged: 3 (USB2E3373)
Boxcar Smoothing: 0 (USB2E3373)
Correct for Electrical Dark: No (USB2E3373)
Strobe/Lamp Enabled: No (USB2E3373)
Correct for Detector Non-linearity: No (USB2E3373)
Correct for Stray Light: No (USB2E3373)
Number of Pixels in Processed Spectrum: 2048
>>>>>Begin Processed Spectral Data<<<<<
178.53	0.000
178.91	-200.000
179.29	-700.000
179.67	-3200.000
180.04	-146.667
180.42	675.000
180.80	1650.000
181.18	0.000
181.56	-275.000
181.94	0.000
182.31	1133.333
182.69	-3200.000
183.07	557.143
183.45	-3300.000
183.83	-1300.000
184.20	410.000
184.58	585.714
184.96	-253.846
185.34	-166.667
185.72	2050.000
186.09	-800.000
186.47	-2700.000
186.85	966.667
187.23	660.000
187.61	1800.000
187.98	500.000
188.36	285.714
188.74	358.333
189.12	358.333
189.49	975.000
189.87	0.000
190.25	475.000
190.63	2800.000
191.00	-200.000
191.38	-3400.000
191.76	-700.000
192.14	387.500
192.51	-2700.000
192.89	1750.000
193.27	833.333
193.65	-866.667
194.02	-720.000
194.40	342.857
194.78	-142.857
195.15	326.667
195.53	-3100.000
195.91	-480.000
196.29	3400.000
196.66	256.250
197.04	925.000
197.42	-1650.000
197.79	650.000
198.17	341.667
198.55	0.000
198.92	457.143
199.30	1033.333
199.68	1100.000
200.05	733.333
200.43	-533.333
200.81	244.444
201.18	3000.000
201.56	275.000
201.94	-750.000
202.31	-325.000
202.69	-380.000
203.07	3000.000
203.44	-466.667
203.82	350.000
204.19	680.000
204.57	-900.000
204.95	-500.000
205.32	-460.000
205.70	583.333
206.08	850.000
206.45	-633.333
206.83	411.111
207.20	210.526
207.58	208.333
207.96	640.000
208.33	0.000
208.71	485.714
209.08	600.000
209.46	-2200.000
209.84	-675.000
210.21	860.000
210.59	-440.000
210.96	308.333
211.34	-1075.000
211.71	409.091
212.09	950.000
212.46	1750.000
212.84	-483.333
213.22	400.000
213.59	-1800.000
213.97	420.000
214.34	900.000
214.72	1033.333
215.09	1100.000
215.47	-3000.000
215.84	-300.000
216.22	-375.000
216.59	0.000
216.97	0.000
217.34	1600.000
217.72	-1550.000
218.09	1233.333
218.47	425.000
218.84	775.000
219.22	933.333
219.59	700.000
219.97	500.000
220.34	277.778
220.72	1450.000
221.09	3300.000
221.47	200.000
221.84	933.333
222.22	260.000
222.59	233.333
222.97	285.714
223.34	243.750
223.72	-1550.000
224.09	1300.000
224.46	238.462
224.84	-775.000
225.21	422.222
225.59	233.333
225.96	1100.000
226.34	-540.000
226.71	-825.000
227.08	-440.000
227.46	0.000
227.83	-583.333
228.21	-1600.000
228.58	300.000
228.95	850.000
229.33	311.111
229.70	1050.000
230.08	346.154
230.45	3100.000
230.82	-700.000
231.20	-666.667
231.57	-933.333
231.95	560.000
232.32	250.000
232.69	600.000
233.07	283.333
233.44	-1450.000
233.81	220.000
234.19	122.222
234.56	175.000
234.93	188.235
235.31	170.000
235.68	175.000
236.05	139.286
236.43	155.556
236.80	257.143
237.17	120.690
237.55	90.625
237.92	72.500
238.29	93.939
238.67	93.750
239.04	82.927
239.41	56.250
239.79	75.000
240.16	72.917
240.53	55.738
240.91	44.928
241.28	50.847
241.65	43.939
242.02	57.746
242.40	57.143
242.77	54.945
243.14	32.911
243.51	35.354
243.89	37.383
244.26	35.514
244.63	31.683
245.00	35.780
245.38	20.339
245.75	26.515
246.12	35.556
246.49	18.440
246.87	22.951
247.24	24.667
247.61	28.750
247.98	22.449
248.36	15.152
248.73	22.959
249.10	10.119
249.47	17.500
249.84	16.418
250.22	11.892
250.59	11.500
250.96	18.143
251.33	15.349
251.70	12.946
252.08	18.067
252.45	13.944
252.82	17.110
253.19	11.858
253.56	13.077
253.94	15.217
254.31	14.729
254.68	11.847
255.05	14.828
255.42	11.679
255.79	13.355
256.16	12.203
256.54	12.013
256.91	12.092
257.28	8.696
257.65	9.091
258.02	11.504
258.39	14.040
258.76	10.725
259.14	8.571
259.51	12.536
259.88	11.550
260.25	9.615
260.62	10.959
260.99	6.061
261.36	9.471
261.73	10.904
262.10	8.901
262.47	10.250
262.85	7.467
263.22	8.483
263.59	11.509
263.96	10.777
264.33	5.185
264.70	9.091
265.07	10.488
265.44	8.945
265.81	8.019
266.18	8.924
266.55	8.983
266.92	8.054
267.29	7.895
267.66	8.296
268.03	6.951
268.40	9.302
268.77	7.709
269.14	7.158
269.51	6.459
269.88	9.796
270.25	5.616
270.62	4.936
270.99	11.156
271.36	8.333
271.73	7.128
272.10	7.475
272.47	6.746
272.84	7.585
273.21	6.405
273.58	9.312
273.95	7.598
274.32	7.004
274.69	9.252
275.06	9.836
275.43	6.705
275.80	5.283
276.17	7.353
276.54	8.785
276.91	7.836
277.28	6.752
277.65	6.458
278.02	6.801
278.39	8.993
278.76	6.552
279.13	6.762
279.50	6.727
279.87	6.518
280.23	5.893
280.60	5.839
280.97	6.379
281.34	6.106
281.71	6.783
282.08	8.034
282.45	6.588
282.82	4.515
283.19	7.631
283.56	6.777
283.92	8.469
284.29	7.321
284.66	5.546
285.03	6.799
285.40	5.620
285.77	6.019
286.14	6.811
286.51	7.362
286.87	4.905
287.24	5.105
287.61	7.599
287.98	7.313
288.35	7.704
288.72	7.436
289.08	7.057
289.45	7.165
289.82	6.875
290.19	6.442
290.56	9.025
290.93	6.475
291.29	7.597
291.66	6.780
292.03	7.714
292.40	7.182
292.77	6.685
293.13	6.562
293.50	6.748
293.87	6.775
294.24	7.413
294.60	6.729
294.97	8.392
295.34	8.499
295.71	8.673
296.08	8.400
296.44	7.243
296.81	7.072
297.18	7.098
297.55	8.128
297.91	7.512
298.28	7.850
298.65	8.221
299.02	8.082
299.38	8.873
299.75	7.683
300.12	8.945
300.48	8.899
300.85	8.105
301.22	7.326
301.59	8.255
301.95	7.701
302.32	10.244
302.69	8.597
303.05	9.203
303.42	7.623
303.79	8.126
304.15	8.911
304.52	9.091
304.89	9.595
305.25	9.010
305.62	9.808
305.99	8.043
306.35	8.421
306.72	8.429
307.09	8.489
307.45	8.765
307.82	7.819
308.19	10.103
308.55	10.000
308.92	8.342
309.29	10.059
309.65	9.911
310.02	11.359
310.38	10.169
310.75	9.450
311.12	11.494
311.48	10.811
311.85	10.973
312.22	10.029
312.58	10.496
312.95	11.553
313.31	11.142
313.68	11.163
314.05	12.363
314.41	10.987
314.78	10.511
315.14	11.848
315.51	12.204
315.87	11.496
316.24	12.792
316.61	11.280
316.97	11.101
317.34	12.040
317.70	11.150
318.07	12.544
318.43	13.181
318.80	11.821
319.16	12.937
319.53	11.770
319.89	12.455
320.26	13.035
320.62	13.278
320.99	14.776
321.35	12.523
321.72	14.896
322.08	14.681
322.45	13.715
322.81	13.266
323.18	14.298
323.54	14.983
323.91	16.410
324.27	15.385
324.64	14.014
325.00	16.121
325.37	15.683
325.73	15.683
326.10	15.493
326.46	16.185
326.83	15.600
327.19	15.984
327.56	15.815
327.92	15.820
328.29	17.430
328.65	17.551
329.01	16.595
329.38	16.836
329.74	16.311
330.11	16.160
330.47	18.500
330.84	15.617
331.20	18.359
331.56	17.703
331.93	17.023
332.29	16.752
332.66	17.772
333.02	16.323
333.38	16.928
333.75	17.765
334.11	17.366
334.48	17.949
334.84	17.061
335.20	16.595
335.57	16.793
335.93	17.830
336.29	17.330
336.66	17.753
337.02	17.109
337.38	17.799
337.75	17.568
338.11	17.637
338.47	17.866
338.84	16.427
339.20	16.104
339.56	16.821
339.93	17.224
340.29	16.471
340.65	17.519
341.02	17.619
341.38	17.241
341.74	17.027
342.11	16.277
342.47	16.571
342.83	16.981
343.20	17.623
343.56	16.044
343.92	16.350
344.28	17.305
344.65	17.278
345.01	16.667
345.37	15.946
345.73	15.952
346.10	15.936
346.46	16.587
346.82	15.509
347.19	17.079
347.55	15.301
347.91	16.239
348.27	15.182
348.63	16.456
349.00	15.080
349.36	17.276
349.72	16.514
350.08	16.770
350.45	16.299
350.81	15.749
351.17	15.948
351.53	16.012
351.89	15.773
352.26	14.890
352.62	15.535
352.98	15.721
353.34	16.256
353.70	15.749
354.07	14.923
354.43	14.747
354.79	15.490
355.15	15.926
355.51	15.257
355.87	15.738
356.24	16.089
356.60	14.992
356.96	14.329
357.32	15.373
357.68	15.786
358.04	15.426
358.40	14.468
358.77	16.153
359.13	14.865
359.49	14.752
359.85	15.041
360.21	15.007
360.57	15.839
360.93	14.574
361.29	15.584
361.66	15.884
362.02	12.997
362.38	14.502
362.74	15.074
363.10	15.007
363.46	14.710
363.82	15.007
364.18	14.509
364.54	15.308
364.90	15.261
365.26	14.573
365.62	14.917
365.98	14.315
366.35	13.862
366.71	14.781
367.07	15.017
367.43	14.641
367.79	14.162
368.15	13.772
368.51	13.508
368.87	14.266
369.23	13.583
369.59	13.891
369.95	13.566
370.31	13.826
370.67	14.434
371.03	15.196
371.39	14.681
371.75	13.678
372.11	14.344
372.47	14.315
372.83	14.140
373.19	14.942
373.55	14.433
373.91	13.605
374.27	12.963
374.63	14.305
374.99	13.208
375.35	13.978
375.71	14.512
376.07	13.727
376.42	13.619
376.78	13.873
377.14	13.106
377.50	13.109
377.86	13.581
378.22	13.224
378.58	14.104
378.94	12.794
379.30	12.796
379.66	12.643
380.02	13.138
380.38	12.646
380.74	14.245
381.09	13.960
381.45	12.023
381.81	12.707
382.17	14.103
382.53	12.837
382.89	13.010
383.25	12.611
383.61	12.853
383.97	12.717
384.32	13.020
384.68	14.082
385.04	12.192
385.40	12.574
385.76	12.346
386.12	12.492
386.48	13.374
386.83	12.653
387.19	12.485
387.55	12.485
387.91	12.760
388.27	12.314
388.62	12.911
388.98	12.070
389.34	12.255
389.70	12.500
390.06	12.317
390.42	12.153
390.77	11.794
391.13	12.492
391.49	12.281
391.85	13.046
392.20	12.753
392.56	12.664
392.92	12.184
393.28	11.379
393.64	11.525
393.99	11.974
394.35	11.713
394.71	11.460
395.07	11.314
395.42	11.651
395.78	12.585
396.14	13.012
396.50	11.552
396.85	11.646
397.21	12.034
397.57	11.237
397.92	10.687
398.28	10.645
398.64	12.158
399.00	11.331
399.35	11.326
399.71	11.038
400.07	11.244
400.42	11.104
400.78	11.378
401.14	12.214
401.49	11.118
401.85	11.414
402.21	11.131
402.57	11.670
402.92	11.455
403.28	10.740
403.63	10.653
403.99	11.821
404.35	11.665
404.70	10.927
405.06	10.949
405.42	10.652
405.77	10.750
406.13	10.575
406.49	10.517
406.84	11.562
407.20	11.130
407.55	11.077
407.91	11.487
408.27	10.794
408.62	11.591
408.98	10.999
409.34	10.111
409.69	10.952
410.05	10.912
410.40	10.601
410.76	10.189
411.11	10.723
411.47	10.185
411.83	10.076
412.18	10.266
412.54	10.571
412.89	10.265
413.25	10.718
413.60	10.456
413.96	10.174
414.31	10.153
414.67	11.173
415.03	10.281
415.38	10.284
415.74	10.486
416.09	10.306
416.45	11.506
416.80	10.712
417.16	10.567
417.51	11.083
417.87	10.701
418.22	10.267
418.58	10.000
418.93	10.708
419.29	9.858
419.64	10.357
420.00	10.859
420.35	9.814
420.71	9.452
421.06	9.947
421.42	10.190
421.77	10.494
422.12	9.537
422.48	9.913
422.83	10.268
423.19	9.827
423.54	9.984
423.90	10.306
424.25	10.017
424.61	10.621
424.96	9.938
425.31	9.688
425.67	10.325
426.02	10.039
426.38	9.568
426.73	10.121
427.09	10.617
427.44	9.623
427.79	9.949
428.15	10.371
428.50	10.514
428.85	10.170
429.21	10.157
429.56	9.671
429.92	9.647
430.27	10.305
430.62	9.496
430.98	9.431
431.33	9.829
431.68	9.086
432.04	10.450
432.39	10.099
432.74	9.953
433.10	9.468
433.45	9.994
433.80	10.866
434.16	9.879
434.51	9.701
434.86	9.744
435.22	9.670
435.57	9.959
435.92	10.074
436.28	10.426
436.63	10.211
436.98	10.304
437.34	10.388
437.69	9.295
438.04	9.731
438.39	10.041
438.75	11.080
439.10	9.714
439.45	10.006
439.81	10.816
440.16	9.301
440.51	9.572
440.86	9.858
441.22	9.794
441.57	10.446
441.92	9.674
442.27	9.639
442.63	9.553
442.98	9.052
443.33	10.123
443.68	10.111
444.03	9.614
444.39	10.028
444.74	9.265
445.09	9.426
445.44	9.883
445.79	9.698
446.15	9.316
446.50	9.124
446.85	9.811
447.20	9.204
447.55	9.081
447.91	10.176
448.26	9.904
448.61	9.784
448.96	9.967
449.31	9.846
449.66	10.022
450.02	8.806
450.37	9.883
450.72	9.477
451.07	10.878
451.42	10.611
451.77	9.966
452.12	9.189
452.47	10.328
452.83	9.296
453.18	9.970
453.53	10.302
453.88	10.571
454.23	10.227
454.58	9.790
454.93	9.871
455.28	10.220
455.63	10.284
455.98	10.209
456.34	9.666
456.69	9.756
457.04	9.368
457.39	9.314
457.74	10.135
458.09	9.433
458.44	9.748
458.79	9.496
459.14	9.165
459.49	10.079
459.84	9.239
460.19	9.492
460.54	10.484
460.89	9.168
461.24	9.393
461.59	9.694
461.94	9.515
462.29	9.611
462.64	9.925
462.99	9.853
463.34	11.147
463.69	10.405
464.04	9.787
464.39	10.132
464.74	8.968
465.09	9.054
465.44	9.086
465.79	9.254
466.14	9.327
466.49	9.550
466.84	8.974
467.19	10.135
467.54	9.489
467.89	9.390
468.24	9.265
468.59	9.821
468.94	9.843
469.29	9.713
469.64	10.225
469.99	10.090
470.34	9.108
470.68	9.862
471.03	9.807
471.38	10.199
471.73	9.471
472.08	9.002
472.43	9.187
472.78	9.155
473.13	9.449
473.48	9.169
473.83	9.364
474.17	9.119
474.52	9.123
474.87	8.755
475.22	10.109
475.57	8.604
475.92	8.636
476.27	7.835
476.61	8.472
476.96	9.718
477.31	9.306
477.66	9.608
478.01	8.510
478.36	9.011
478.70	8.486
479.05	8.525
479.40	9.177
479.75	8.838
480.10	9.293
480.45	8.543
480.79	8.571
481.14	8.226
481.49	8.051
481.84	8.707
482.19	8.908
482.53	8.740
482.88	8.423
483.23	8.480
483.58	8.438
483.92	9.324
484.27	8.647
484.62	8.871
484.97	8.298
485.31	7.813
485.66	7.565
486.01	7.087
486.36	6.867
486.70	7.020
487.05	7.574
487.40	7.312
487.75	7.391
488.09	7.443
488.44	8.126
488.79	7.359
489.13	7.727
489.48	7.391
489.83	8.465
490.17	8.216
490.52	8.096
490.87	8.362
491.22	8.289
491.56	8.256
491.91	7.930
492.26	8.107
492.60	8.155
492.95	8.111
493.30	8.053
493.64	8.715
493.99	8.140
494.34	7.844
494.68	7.835
495.03	8.262
495.37	8.465
495.72	8.065
496.07	7.727
496.41	8.558
496.76	7.936
497.11	8.912
497.45	8.505
497.80	8.712
498.14	7.998
498.49	7.892
498.84	8.551
499.18	8.044
499.53	8.268
499.87	8.086
500.22	8.245
500.56	7.707
500.91	8.534
501.26	8.406
501.60	7.741
501.95	7.437
502.29	8.178
502.64	7.940
502.98	8.181
503.33	7.973
503.67	7.991
504.02	8.016
504.36	8.235
504.71	8.042
505.06	7.790
505.40	8.095
505.75	7.858
506.09	8.399
506.44	8.083
506.78	8.223
507.13	7.998
507.47	7.666
507.82	8.564
508.16	8.525
508.51	7.971
508.85	7.645
509.19	7.685
509.54	8.008
509.88	7.807
510.23	7.745
510.57	8.012
510.92	8.092
511.26	8.434
511.61	8.666
511.95	7.815
512.30	7.700
512.64	7.529
512.98	8.098
513.33	8.145
513.67	8.286
514.02	7.844
514.36	7.892
514.70	7.947
515.05	7.938
515.39	7.950
515.74	8.147
516.08	8.551
516.42	8.634
516.77	7.627
517.11	8.000
517.46	8.836
517.80	8.083
518.14	8.563
518.49	7.332
518.83	7.637
519.17	7.488
519.52	8.247
519.86	8.556
520.20	8.384
520.55	8.140
520.89	8.046
521.23	8.645
521.58	8.262
521.92	8.047
522.26	7.761
522.61	7.843
522.95	8.589
523.29	7.895
523.64	8.035
523.98	8.451
524.32	7.382
524.66	8.174
525.01	8.225
525.35	8.427
525.69	8.368
526.04	9.578
526.38	8.181
526.72	7.936
527.06	7.451
527.41	8.948
527.75	7.851
528.09	8.067
528.43	8.786
528.78	8.348
529.12	8.790
529.46	7.949
529.80	8.061
530.15	8.250
530.49	7.521
530.83	8.288
531.17	8.057
531.51	7.603
531.86	8.092
532.20	8.158
532.54	7.659
532.88	8.057
533.22	8.288
533.57	7.810
533.91	7.284
534.25	7.501
534.59	7.778
534.93	8.134
535.27	7.342
535.62	7.410
535.96	7.801
536.30	7.922
536.64	6.957
536.98	7.615
537.32	8.875
537.66	7.398
538.01	8.235
538.35	8.484
538.69	8.070
539.03	7.463
539.37	7.464
539.71	7.901
540.05	7.138
540.39	8.113
540.73	7.848
541.07	7.215
541.42	7.152
541.76	7.891
542.10	7.645
542.44	8.292
542.78	8.181
543.12	7.423
543.46	8.020
543.80	7.644
544.14	7.802
544.48	7.725
544.82	8.073
545.16	7.165
545.50	7.806
545.84	8.207
546.18	8.583
546.52	8.262
546.86	8.317
547.20	7.817
547.54	8.043
547.88	7.664
548.22	6.861
548.56	7.778
548.90	7.948
549.24	7.960
549.58	7.603
549.92	8.055
550.26	7.640
550.60	7.784
550.94	7.327
551.28	9.172
551.62	8.897
551.96	8.041
552.30	7.053
552.64	7.896
552.98	7.345
553.32	7.106
553.66	7.296
554.00	7.272
554.34	7.790
554.68	6.989
555.02	7.807
555.36	8.178
555.69	7.657
556.03	8.089
556.37	7.839
556.71	8.214
557.05	7.077
557.39	7.800
557.73	7.682
558.07	7.914
558.41	7.745
558.75	8.550
559.08	7.791
559.42	8.160
559.76	7.128
560.10	7.571
560.44	7.299
560.78	8.951
561.12	7.883
561.45	7.384
561.79	6.866
562.13	6.886
562.47	7.592
562.81	6.962
563.15	7.951
563.48	6.894
563.82	7.860
564.16	7.338
564.50	7.474
564.84	6.869
565.17	7.605
565.51	7.882
565.85	7.341
566.19	7.083
566.52	6.799
566.86	7.939
567.20	6.854
567.54	6.714
567.88	7.042
568.21	6.790
568.55	6.858
568.89	6.706
569.23	6.169
569.56	6.390
569.90	6.504
570.24	6.167
570.57	6.067
570.91	5.554
571.25	5.931
571.59	5.499
571.92	5.544
572.26	5.175
572.60	5.832
572.93	5.549
573.27	5.658
573.61	5.522
573.95	5.403
574.28	5.817
574.62	5.170
574.96	5.357
575.29	5.456
575.63	5.159
575.97	5.063
576.30	5.087
576.64	5.206
576.98	5.201
577.31	5.554
577.65	5.394
577.98	4.926
578.32	5.200
578.66	4.996
578.99	5.307
579.33	5.593
579.67	5.054
580.00	5.068
580.34	5.074
580.67	5.168
581.01	5.245
581.35	5.307
581.68	4.882
582.02	4.785
582.35	4.802
582.69	4.910
583.02	4.867
583.36	5.041
583.70	5.326
584.03	5.195
584.37	5.477
584.70	5.374
585.04	5.115
585.37	5.275
585.71	5.461
586.04	4.793
586.38	5.147
586.72	5.251
587.05	5.455
587.39	4.956
587.72	4.928
588.06	5.364
588.39	5.450
588.73	5.339
589.06	5.573
589.40	5.665
589.73	5.539
590.07	5.731
590.40	6.063
590.73	5.986
591.07	6.414
591.40	6.028
591.74	6.047
592.07	5.616
592.41	6.435
592.74	5.529
593.08	5.501
593.41	5.177
593.75	5.095
594.08	5.790
594.41	5.474
594.75	5.651
595.08	5.247
595.42	5.859
595.75	6.120
596.09	5.944
596.42	5.899
596.75	6.010
597.09	5.489
597.42	5.755
597.75	5.680
598.09	5.745
598.42	5.467
598.76	6.130
599.09	5.811
599.42	5.675
599.76	6.072
600.09	5.390
600.42	5.249
600.76	5.099
601.09	5.592
601.42	5.456
601.76	5.800
602.09	5.923
602.42	5.508
602.76	5.389
603.09	5.732
603.42	5.872
603.76	5.315
604.09	5.610
604.42	5.235
604.76	5.294
605.09	5.796
605.42	6.054
605.75	5.527
606.09	6.121
606.42	5.900
606.75	5.597
607.09	5.803
607.42	5.826
607.75	5.494
608.08	5.727
608.42	5.956
608.75	5.819
609.08	5.587
609.41	5.727
609.75	6.090
610.08	5.755
610.41	5.929
610.74	6.234
611.07	6.821
611.41	6.395
611.74	5.832
612.07	5.780
612.40	6.335
612.73	6.291
613.07	6.488
613.40	6.065
613.73	6.091
614.06	6.450
614.39	6.313
614.72	6.178
615.06	5.490
615.39	5.891
615.72	6.050
616.05	6.328
616.38	6.038
616.71	5.534
617.05	6.645
617.38	5.730
617.71	6.580
618.04	6.113
618.37	6.281
618.70	6.236
619.03	6.471
619.36	7.475
619.69	6.662
620.03	7.371
620.36	6.744
620.69	6.641
621.02	7.201
621.35	7.378
621.68	7.301
622.01	7.601
622.34	5.899
622.67	7.514
623.00	6.535
623.33	6.950
623.66	5.988
623.99	7.192
624.32	7.249
624.65	6.912
624.99	6.964
625.32	6.880
625.65	6.207
625.98	6.695
626.31	6.083
626.64	6.682
626.97	6.963
627.30	7.997
627.63	7.457
627.96	7.121
628.29	7.756
628.62	7.186
628.95	7.535
629.28	7.362
629.61	6.766
629.94	7.174
630.26	7.712
630.59	9.397
630.92	8.520
631.25	7.888
631.58	8.775
631.91	6.660
632.24	7.289
632.57	6.582
632.90	8.799
633.23	9.129
633.56	8.746
633.89	8.039
634.22	8.934
634.55	8.710
634.88	8.762
635.20	8.969
635.53	8.130
635.86	9.060
636.19	8.081
636.52	8.108
636.85	7.335
637.18	8.992
637.51	8.268
637.83	7.666
638.16	9.027
638.49	8.623
638.82	8.333
639.15	7.286
639.48	8.057
639.81	8.913
640.13	9.939
640.46	10.240
640.79	8.192
641.12	8.136
641.45	10.091
641.77	8.719
642.10	9.237
642.43	9.104
642.76	8.523
643.09	8.069
643.41	9.257
643.74	11.223
644.07	9.440
644.40	8.580
644.73	10.811
645.05	11.887
645.38	9.342
645.71	11.533
646.04	11.298
646.36	7.981
646.69	8.640
647.02	9.760
647.35	9.134
647.67	8.914
648.00	9.935
648.33	11.429
648.66	10.152
648.98	9.275
649.31	8.232
649.64	8.299
649.96	9.815
650.29	8.286
650.62	11.193
650.94	10.542
651.27	11.483
651.60	10.329
651.92	10.445
652.25	10.236
652.58	9.078
652.90	8.383
653.23	9.601
653.56	9.496
653.88	9.398
654.21	9.677
654.54	10.249
654.86	10.177
655.19	8.839
655.52	6.644
655.84	4.036
656.17	4.176
656.49	5.864
656.82	6.951
657.15	5.498
657.47	4.343
657.80	3.174
658.13	2.663
658.45	3.648
658.78	4.473
659.10	4.404
659.43	4.954
659.75	4.996
660.08	5.326
660.41	7.260
660.73	9.410
661.06	11.261
661.38	9.881
661.71	10.612
662.03	9.506
662.36	9.714
662.68	8.380
663.01	11.712
663.33	12.830
663.66	11.440
663.98	12.103
664.31	11.940
664.63	11.111
664.96	11.445
665.28	9.793
665.61	8.302
665.93	10.755
666.26	9.720
666.58	12.477
666.91	11.583
667.23	12.249
667.56	11.294
667.88	12.033
668.21	12.090
668.53	12.903
668.86	13.627
669.18	13.238
669.50	10.331
669.83	11.088
670.15	11.642
670.48	10.156
670.80	11.155
671.13	12.151
671.45	13.828
671.77	11.503
672.10	9.874
672.42	10.033
672.75	9.494
673.07	10.016
673.39	9.585
673.72	9.170
674.04	10.573
674.37	12.886
674.69	10.409
675.01	10.448
675.34	7.946
675.66	12.305
675.98	11.637
676.31	12.200
676.63	9.543
676.95	10.119
677.28	9.939
677.60	10.060
677.92	11.310
678.25	10.271
678.57	9.683
678.89	10.669
679.22	11.397
679.54	11.210
679.86	11.867
680.18	8.963
680.51	9.950
680.83	8.953
681.15	11.265
681.48	12.153
681.80	12.609
682.12	11.938
682.44	10.450
682.77	12.278
683.09	10.097
683.41	10.816
683.73	11.220
684.06	10.119
684.38	11.822
684.70	9.892
685.02	9.549
685.34	10.739
685.67	11.576
685.99	9.360
686.31	9.399
686.63	7.317
686.96	12.092
687.28	8.054
687.60	8.874
687.92	10.218
688.24	10.345
688.56	12.100
688.89	11.090
689.21	11.753
689.53	12.451
689.85	10.366
690.17	9.320
690.49	12.500
690.82	9.664
691.14	13.131
691.46	10.678
691.78	12.086
692.10	9.733
692.42	11.978
692.74	8.915
693.06	8.527
693.39	8.893
693.71	10.609
694.03	12.623
694.35	11.245
694.67	11.813
694.99	11.086
695.31	11.486
695.63	10.633
695.95	9.276
696.27	14.602
696.59	13.842
696.91	10.633
697.23	11.765
697.56	9.959
697.88	6.587
698.20	10.377
698.52	7.977
698.84	10.678
699.16	13.220
699.48	13.347
699.80	14.815
700.12	14.088
700.44	11.916
700.76	15.036
701.08	15.666
701.40	12.727
701.72	14.171
702.04	14.363
702.36	14.247
702.68	12.766
703.00	11.529
703.32	13.400
703.64	13.602
703.96	10.156
704.28	12.434
704.60	12.394
704.91	12.325
705.23	17.045
705.55	14.540
705.87	9.841
706.19	17.868
706.51	15.361
706.83	16.814
707.15	17.647
707.47	11.138
707.79	12.184
708.11	10.658
708.43	12.135
708.74	11.538
709.06	12.558
709.38	12.159
709.70	11.444
710.02	14.946
710.34	12.983
710.66	15.000
710.98	15.301
711.29	13.370
711.61	15.877
711.93	12.462
712.25	13.554
712.57	12.862
712.89	11.515
713.20	17.252
713.52	15.265
713.84	11.480
714.16	13.043
714.48	10.375
714.80	10.840
715.11	12.500
715.43	11.732
715.75	11.831
716.07	12.717
716.39	13.714
716.70	11.838
717.02	16.498
717.34	16.906
717.66	19.792
717.97	20.076
718.29	14.437
718.61	14.527
718.93	14.533
719.24	14.765
719.56	15.517
719.88	13.376
720.20	14.194
720.51	16.013
720.83	11.371
721.15	10.544
721.46	13.699
721.78	16.028
722.10	13.889
722.42	18.729
722.73	15.884
723.05	16.140
723.37	19.788
723.68	14.844
724.00	17.424
724.32	15.209
724.63	14.615
724.95	13.725
725.27	17.100
725.58	18.382
725.90	12.676
726.22	16.438
726.53	17.726
726.85	17.590
727.16	18.792
727.48	18.272
727.80	12.230
728.11	13.929
728.43	11.957
728.74	17.133
729.06	11.470
729.38	18.246
729.69	19.000
730.01	16.447
730.32	14.094
730.64	15.282
730.96	15.616
731.27	11.927
731.59	11.207
731.90	14.485
732.22	11.429
732.53	9.687
732.85	15.789
733.16	12.048
733.48	15.674
733.80	17.681
734.11	16.871
734.43	11.111
734.74	11.796
735.06	14.286
735.37	14.691
735.69	12.464
736.00	16.820
736.32	10.606
736.63	7.571
736.95	10.870
737.26	14.329
737.58	12.883
737.89	12.651
738.21	13.576
738.52	18.395
738.83	20.513
739.15	16.725
739.46	16.897
739.78	13.946
740.09	15.452
740.41	16.564
740.72	15.873
741.04	16.783
741.35	14.844
741.66	18.972
741.98	17.597
742.29	17.593
742.61	18.584
742.92	19.492
743.23	14.400
743.55	14.340
743.86	15.294
744.18	17.797
744.49	20.248
744.80	21.198
745.12	19.196
745.43	19.626
745.74	16.444
746.06	10.965
746.37	19.535
746.68	18.142
747.00	15.695
747.31	15.546
747.62	16.803
747.94	16.738
748.25	17.121
748.56	16.525
748.88	19.196
749.19	16.744
749.50	14.612
749.82	17.284
750.13	18.972
750.44	13.667
750.75	16.107
751.07	12.829
751.38	13.861
751.69	12.121
752.01	13.636
752.32	14.618
752.63	17.450
752.94	13.636
753.26	18.359
753.57	16.342
753.88	14.607
754.19	13.357
754.51	15.947
754.82	11.409
755.13	13.851
755.44	15.926
755.75	17.869
756.07	14.041
756.38	10.458
756.69	13.750
757.00	16.024
757.31	16.056
757.63	11.570
757.94	9.309
758.25	12.560
758.56	11.442
758.87	13.033
759.18	13.953
759.50	13.070
759.81	13.056
760.12	15.169
760.43	11.765
760.74	13.165
761.05	14.589
761.36	11.458
761.67	12.399
761.99	12.394
762.30	13.505
762.61	13.889
762.92	17.803
763.23	18.113
763.54	16.538
763.85	12.451
764.16	17.014
764.47	14.865
764.78	13.029
765.10	14.329
765.41	10.227
765.72	12.707
766.03	12.085
766.34	11.498
766.65	12.548
766.96	19.433
767.27	22.897
767.58	25.248
767.89	24.862
768.20	27.439
768.51	9.694
768.82	16.667
769.13	13.333
769.44	17.293
769.75	16.105
770.06	15.126
770.37	17.105
770.68	15.111
770.99	18.644
771.30	15.063
771.61	18.846
771.92	16.031
772.23	14.919
772.54	20.000
772.85	20.297
773.16	16.304
773.47	22.222
773.78	20.297
774.09	26.705
774.39	27.273
774.70	19.412
775.01	14.474
775.32	24.845
775.63	26.712
775.94	32.099
776.25	33.103
776.56	29.008
776.87	33.588
777.18	28.030
777.48	37.795
777.79	32.308
778.10	23.485
778.41	29.104
778.72	23.308
779.03	23.077
779.34	29.054
779.65	26.087
779.95	23.602
780.26	26.190
780.57	27.891
780.88	29.787
781.19	26.667
781.50	30.769
781.80	25.137
782.11	22.751
782.42	15.517
782.73	20.904
783.04	30.323
783.34	24.031
783.65	23.810
783.96	27.097
784.27	27.152
784.57	24.342
784.88	26.812
785.19	20.000
785.50	24.138
785.81	37.984
786.11	23.704
786.42	29.921
786.73	33.333
787.04	32.075
787.34	24.390
787.65	30.303
787.96	27.273
788.26	34.646
788.57	25.547
788.88	31.690
789.19	31.298
789.49	32.432
789.80	30.469
790.11	32.231
790.41	31.481
790.72	30.556
791.03	44.231
791.33	30.303
791.64	29.474
791.95	38.947
792.25	29.167
792.56	33.000
792.87	51.220
793.17	32.955
793.48	41.176
793.79	34.483
794.09	34.091
794.40	50.862
794.70	31.746
795.01	21.538
795.32	22.137
795.62	24.786
795.93	33.613
796.23	31.707
796.54	41.837
796.85	40.909
797.15	55.844
797.46	51.220
797.76	26.250
798.07	44.000
798.37	42.500
798.68	58.750
798.99	60.976
799.29	49.333
799.60	36.047
799.90	57.895
800.21	40.909
800.51	39.437
800.82	55.172
801.12	73.846
801.43	62.667
801.73	75.862
802.04	44.156
802.34	41.096
802.65	64.706
802.95	39.130
803.26	72.581
803.56	80.000
803.87	61.194
804.17	58.730
804.48	58.491
804.78	44.444
805.09	72.727
805.39	42.857
805.70	70.175
806.00	45.714
806.30	57.813
806.61	45.882
806.91	42.222
807.22	36.957
807.52	42.105
807.83	57.895
808.13	59.420
808.43	58.065
808.74	58.904
809.04	64.286
809.35	55.882
809.65	42.424
809.95	76.471
810.26	87.037
810.56	79.688
810.86	83.673
811.17	75.439
811.47	60.870
811.77	56.897
812.08	56.897
812.38	52.381
812.69	69.048
812.99	60.000
813.29	97.143
813.59	109.677
813.90	67.241
814.20	81.967
814.50	54.000
814.81	45.614
815.11	70.370
815.41	75.000
815.72	87.500
816.02	84.000
816.32	75.610
816.62	77.586
816.93	100.000
817.23	102.439
817.53	73.214
817.84	55.556
818.14	90.476
818.44	81.250
818.74	71.698
819.04	74.359
819.35	84.848
819.65	84.615
819.95	98.148
820.25	93.617
820.56	102.703
820.86	81.579
821.16	48.936
821.46	86.842
821.76	60.000
822.07	52.381
822.37	97.368
822.67	83.721
822.97	86.842
823.27	91.304
823.57	87.500
823.88	89.744
824.18	106.061
824.48	130.435
824.78	122.222
825.08	113.043
825.38	82.759
825.69	100.000
825.99	57.447
826.29	61.111
826.59	74.286
826.89	143.333
827.19	77.143
827.49	109.677
827.79	138.462
828.09	66.667
828.39	77.778
828.70	72.973
829.00	125.000
829.30	162.500
829.60	80.556
829.90	58.065
830.20	81.818
830.50	140.541
830.80	137.500
831.10	165.385
831.40	128.571
831.70	141.667
832.00	113.333
832.30	113.043
832.60	141.667
832.90	136.364
833.20	170.000
833.50	126.316
833.80	108.824
834.10	76.316
834.40	115.789
834.70	116.667
835.00	148.000
835.30	86.486
835.60	131.250
835.90	89.189
836.20	123.077
836.50	104.545
836.80	87.805
837.10	104.348
837.40	338.462
837.70	152.632
838.00	103.333
838.30	141.667
838.60	132.000
838.90	280.000
839.19	137.500
839.49	146.667
839.79	113.793
840.09	165.385
840.39	160.000
840.69	178.947
840.99	138.095
841.29	126.087
841.59	140.000
841.88	120.000
842.18	211.111
842.48	128.571
842.78	151.852
843.08	246.154
843.38	186.364
843.68	235.714
843.97	257.143
844.27	156.522
844.57	1250.000
844.87	250.000
845.17	188.889
845.47	128.571
845.76	158.333
846.06	442.857
846.36	205.882
846.66	230.769
846.96	150.000
847.25	184.615
847.55	168.421
847.85	227.778
848.15	720.000
848.44	263.636
848.74	161.905
849.04	145.833
849.34	111.765
849.63	193.750
849.93	237.500
850.23	966.667
850.53	375.000
850.82	245.455
851.12	194.118
851.42	183.333
851.71	225.000
852.01	0.000
852.31	188.235
852.61	380.000
852.90	150.000
853.20	288.889
853.50	-2200.000
853.79	120.000
854.09	118.750
854.39	144.828
854.68	131.034
854.98	209.524
855.28	103.226
855.57	350.000
855.87	122.222
856.17	100.000
856.46	157.895
856.76	129.032
857.05	182.353
857.35	200.000
857.65	223.077
857.94	120.000
858.24	344.444
858.53	285.714
858.83	557.143
859.13	182.609
859.42	155.556
859.72	400.000
860.01	266.667
860.31	675.000
860.60	410.000
860.90	337.500
861.20	269.231
861.49	314.286
861.79	-2800.000
862.08	371.429
862.38	333.333
862.67	228.571
862.97	310.000
863.26	150.000
863.56	750.000
863.85	246.154
864.15	270.588
864.44	155.556
864.74	316.667
865.03	290.909
865.33	350.000
865.62	213.333
865.92	433.333
866.21	775.000
866.51	420.000
866.80	200.000
867.10	966.667
867.39	2700.000
867.69	600.000
867.98	700.000
868.27	152.381
868.57	293.333
868.86	1075.000
869.16	171.429
869.45	1700.000
869.75	-450.000
870.04	600.000
870.33	760.000
870.63	350.000
870.92	152.941
871.22	625.000
871.51	414.286
871.80	300.000
872.10	230.769
>>>>>End Processed Spectral Data<<<<<
