SpectraSuite Data File
++++++++++++++++++++++++++++++++++++
Date: Tue May 12 16:38:12 PDT 2015
User: schluterlab
Dark Spectrum Present: Yes
Reference Spectrum Present: Yes
Number of Sampled Component Spectra: 1
Spectrometers: USB2E3373
Integration Time (usec): 3000 (USB2E3373)
Spectra Averaged: 3 (USB2E3373)
Boxcar Smoothing: 0 (USB2E3373)
Correct for Electrical Dark: No (USB2E3373)
Strobe/Lamp Enabled: No (USB2E3373)
Correct for Detector Non-linearity: No (USB2E3373)
Correct for Stray Light: No (USB2E3373)
Number of Pixels in Processed Spectrum: 2048
>>>>>Begin Processed Spectral Data<<<<<
178.53	0.000
178.91	-233.333
179.29	-750.000
179.67	-3600.000
180.04	-146.667
180.42	650.000
180.80	1350.000
181.18	0.000
181.56	-437.500
181.94	0.000
182.31	866.667
182.69	-3300.000
183.07	600.000
183.45	-3200.000
183.83	-1400.000
184.20	330.000
184.58	400.000
184.96	-253.846
185.34	-216.667
185.72	1900.000
186.09	-800.000
186.47	-3100.000
186.85	966.667
187.23	580.000
187.61	1600.000
187.98	375.000
188.36	350.000
188.74	250.000
189.12	325.000
189.49	825.000
189.87	0.000
190.25	425.000
190.63	2700.000
191.00	-258.333
191.38	-3200.000
191.76	-1025.000
192.14	525.000
192.51	-2800.000
192.89	1450.000
193.27	1033.333
193.65	-700.000
194.02	-600.000
194.40	442.857
194.78	-135.714
195.15	206.667
195.53	-2600.000
195.91	-580.000
196.29	4300.000
196.66	275.000
197.04	750.000
197.42	-1450.000
197.79	600.000
198.17	291.667
198.55	0.000
198.92	342.857
199.30	1000.000
199.68	1450.000
200.05	683.333
200.43	-383.333
200.81	205.556
201.18	2900.000
201.56	241.667
201.94	-725.000
202.31	-262.500
202.69	-420.000
203.07	3500.000
203.44	-450.000
203.82	358.333
204.19	500.000
204.57	-1300.000
204.95	-600.000
205.32	-560.000
205.70	566.667
206.08	750.000
206.45	-766.667
206.83	366.667
207.20	200.000
207.58	291.667
207.96	860.000
208.33	0.000
208.71	557.143
209.08	520.000
209.46	-2400.000
209.84	-625.000
210.21	680.000
210.59	-560.000
210.96	250.000
211.34	-1025.000
211.71	400.000
212.09	700.000
212.46	1450.000
212.84	-350.000
213.22	400.000
213.59	-2800.000
213.97	300.000
214.34	825.000
214.72	833.333
215.09	833.333
215.47	-2900.000
215.84	-310.000
216.22	-462.500
216.59	0.000
216.97	0.000
217.34	1150.000
217.72	-1650.000
218.09	1166.667
218.47	487.500
218.84	550.000
219.22	1100.000
219.59	733.333
219.97	571.429
220.34	388.889
220.72	1550.000
221.09	3500.000
221.47	300.000
221.84	866.667
222.22	300.000
222.59	216.667
222.97	292.857
223.34	218.750
223.72	-1450.000
224.09	1500.000
224.46	238.462
224.84	-925.000
225.21	522.222
225.59	233.333
225.96	1333.333
226.34	-480.000
226.71	-500.000
227.08	-400.000
227.46	0.000
227.83	-600.000
228.21	-1100.000
228.58	391.667
228.95	825.000
229.33	377.778
229.70	950.000
230.08	369.231
230.45	3100.000
230.82	-625.000
231.20	-633.333
231.57	-1166.667
231.95	560.000
232.32	191.667
232.69	533.333
233.07	166.667
233.44	-1750.000
233.81	206.667
234.19	174.074
234.56	175.000
234.93	141.176
235.31	175.000
235.68	243.750
236.05	139.286
236.43	125.926
236.80	192.857
237.17	162.069
237.55	109.375
237.92	130.000
238.29	127.273
238.67	115.625
239.04	104.878
239.41	79.167
239.79	72.500
240.16	87.500
240.53	59.016
240.91	63.768
241.28	86.441
241.65	59.091
242.02	64.789
242.40	77.143
242.77	57.143
243.14	51.899
243.51	66.667
243.89	44.860
244.26	43.925
244.63	49.505
245.00	44.037
245.38	43.220
245.75	45.455
246.12	45.926
246.49	39.716
246.87	41.803
247.24	47.333
247.61	43.125
247.98	48.980
248.36	38.788
248.73	43.367
249.10	35.714
249.47	38.500
249.84	35.323
250.22	32.432
250.59	36.000
250.96	34.599
251.33	29.302
251.70	35.268
252.08	30.672
252.45	30.279
252.82	29.658
253.19	32.806
253.56	30.385
253.94	29.348
254.31	31.395
254.68	29.268
255.05	30.000
255.42	27.737
255.79	29.967
256.16	31.864
256.54	29.870
256.91	28.105
257.28	30.100
257.65	22.257
258.02	26.549
258.39	28.653
258.76	30.145
259.14	26.571
259.51	28.280
259.88	31.611
260.25	26.374
260.62	27.397
260.99	25.895
261.36	29.526
261.73	27.128
262.10	30.890
262.47	27.250
262.85	26.667
263.22	26.992
263.59	27.110
263.96	29.323
264.33	25.679
264.70	27.027
265.07	27.805
265.44	29.358
265.81	27.830
266.18	24.714
266.55	26.241
266.92	25.056
267.29	26.754
267.66	26.457
268.03	24.215
268.40	27.273
268.77	25.991
269.14	24.512
269.51	24.944
269.88	25.918
270.25	23.326
270.62	26.395
270.99	26.978
271.36	27.236
271.73	24.528
272.10	24.646
272.47	25.595
272.84	23.752
273.21	24.174
273.58	27.126
273.95	23.819
274.32	26.848
274.69	27.953
275.06	25.137
275.43	25.096
275.80	24.151
276.17	26.287
276.54	26.542
276.91	26.493
277.28	22.445
277.65	24.170
278.02	25.368
278.39	23.201
278.76	26.897
279.13	25.267
279.50	24.182
279.87	20.670
280.23	24.678
280.60	22.628
280.97	23.276
281.34	24.752
281.71	24.174
282.08	25.299
282.45	23.142
282.82	23.244
283.19	23.847
283.56	23.140
283.92	23.779
284.29	25.790
284.66	21.176
285.03	24.710
285.40	22.314
285.77	20.988
286.14	23.529
286.51	21.626
286.87	20.728
287.24	22.222
287.61	22.036
287.98	22.239
288.35	21.926
288.72	19.727
289.08	22.222
289.45	24.390
289.82	21.406
290.19	22.255
290.56	24.745
290.93	21.295
291.29	20.304
291.66	20.056
292.03	20.898
292.40	21.003
292.77	19.777
293.13	21.541
293.50	18.893
293.87	18.970
294.24	19.860
294.60	21.265
294.97	19.021
295.34	21.248
295.71	21.156
296.08	21.200
296.44	18.551
296.81	19.975
297.18	17.617
297.55	19.458
297.91	18.966
298.28	18.720
298.65	20.245
299.02	19.903
299.38	18.705
299.75	19.268
300.12	20.757
300.48	20.960
300.85	19.070
301.22	19.535
301.59	18.868
301.95	19.370
302.32	19.674
302.69	18.665
303.05	20.988
303.42	18.386
303.79	19.285
304.15	18.042
304.52	18.288
304.89	20.896
305.25	20.356
305.62	20.469
305.99	19.565
306.35	20.211
306.72	20.499
307.09	18.944
307.45	19.430
307.82	20.576
308.19	19.691
308.55	19.700
308.92	21.197
309.29	20.513
309.65	21.011
310.02	21.805
310.38	20.140
310.75	21.022
311.12	20.881
311.48	21.911
311.85	21.947
312.22	22.159
312.58	20.991
312.95	21.068
313.31	22.846
313.68	21.201
314.05	23.993
314.41	22.160
314.78	22.443
315.14	23.507
315.51	23.084
315.87	23.996
316.24	22.689
316.61	25.336
316.97	23.119
317.34	24.708
317.70	25.637
318.07	25.890
318.43	26.011
318.80	26.357
319.16	26.923
319.53	26.460
319.89	25.000
320.26	26.909
320.62	27.747
320.99	27.645
321.35	27.737
321.72	27.609
322.08	28.624
322.45	28.792
322.81	28.637
323.18	29.218
323.54	29.443
323.91	30.190
324.27	29.797
324.64	29.671
325.00	30.000
325.37	29.511
325.73	31.029
326.10	30.986
326.46	30.636
326.83	28.960
327.19	31.406
327.56	30.272
327.92	31.311
328.29	32.406
328.65	32.021
329.01	31.822
329.38	33.080
329.74	30.914
330.11	32.667
330.47	32.140
330.84	30.716
331.20	31.980
331.56	32.297
331.93	32.934
332.29	32.313
332.66	32.908
333.02	32.216
333.38	33.159
333.75	32.527
334.11	32.131
334.48	31.966
334.84	31.926
335.20	32.335
335.57	31.822
335.93	31.034
336.29	31.675
336.66	33.019
337.02	31.908
337.38	31.728
337.75	32.601
338.11	30.802
338.47	30.737
338.84	31.160
339.20	30.823
339.56	32.044
339.93	31.522
340.29	30.924
340.65	31.685
341.02	31.376
341.38	32.594
341.74	31.894
342.11	30.718
342.47	30.763
342.83	30.681
343.20	30.800
343.56	30.580
343.92	31.131
344.28	32.137
344.65	31.214
345.01	29.841
345.37	30.849
345.73	30.000
346.10	30.279
346.46	31.260
346.82	29.321
347.19	30.835
347.55	28.415
347.91	29.230
348.27	29.435
348.63	30.538
349.00	29.931
349.36	30.039
349.72	30.581
350.08	30.202
350.45	28.941
350.81	30.199
351.17	27.658
351.53	29.176
351.89	28.982
352.26	29.705
352.62	29.186
352.98	29.141
353.34	29.892
353.70	29.281
354.07	29.154
354.43	28.879
354.79	29.385
355.15	28.790
355.51	29.154
355.87	30.045
356.24	28.329
356.60	28.919
356.96	28.734
357.32	29.088
357.68	29.222
358.04	28.799
358.40	29.160
358.77	29.001
359.13	28.904
359.49	28.317
359.85	27.997
360.21	28.083
360.57	28.029
360.93	27.922
361.29	27.633
361.66	28.934
362.02	27.202
362.38	28.355
362.74	27.105
363.10	28.191
363.46	26.796
363.82	27.630
364.18	28.378
364.54	28.255
364.90	27.979
365.26	28.105
365.62	27.417
365.98	28.080
366.35	27.655
366.71	28.452
367.07	27.372
367.43	27.804
367.79	26.529
368.15	26.459
368.51	26.809
368.87	26.563
369.23	26.750
369.59	27.040
369.95	28.531
370.31	26.420
370.67	27.065
371.03	28.081
371.39	26.870
371.75	26.657
372.11	28.008
372.47	26.849
372.83	26.988
373.19	28.033
373.55	27.560
373.91	26.174
374.27	26.257
374.63	27.254
374.99	26.752
375.35	25.874
375.71	26.715
376.07	25.862
376.42	26.087
376.78	26.268
377.14	26.606
377.50	26.529
377.86	26.521
378.22	26.447
378.58	27.179
378.94	27.158
379.30	26.076
379.66	26.610
380.02	26.569
380.38	25.761
380.74	27.220
381.09	26.577
381.45	26.185
381.81	25.650
382.17	26.557
382.53	26.035
382.89	25.902
383.25	25.400
383.61	25.821
383.97	25.495
384.32	25.678
384.68	26.679
385.04	26.202
385.40	26.868
385.76	25.629
386.12	26.345
386.48	25.106
386.83	26.100
387.19	26.737
387.55	26.207
387.91	25.924
388.27	26.056
388.62	25.763
388.98	25.656
389.34	24.450
389.70	25.472
390.06	25.427
390.42	25.601
390.77	26.044
391.13	26.132
391.49	25.348
391.85	25.538
392.20	25.089
392.56	25.030
392.92	24.930
393.28	25.280
393.64	25.115
393.99	25.430
394.35	24.779
394.71	24.789
395.07	25.547
395.42	26.171
395.78	26.342
396.14	25.241
396.50	24.789
396.85	24.329
397.21	24.789
397.57	25.523
397.92	24.321
398.28	25.207
398.64	25.131
399.00	24.800
399.35	24.906
399.71	24.724
400.07	25.685
400.42	25.612
400.78	25.161
401.14	25.484
401.49	24.942
401.85	25.203
402.21	25.308
402.57	25.135
402.92	24.061
403.28	23.926
403.63	24.367
403.99	24.970
404.35	24.853
404.70	25.458
405.06	23.470
405.42	24.476
405.77	25.138
406.13	25.380
406.49	24.673
406.84	25.099
407.20	24.087
407.55	24.677
407.91	25.335
408.27	24.985
408.62	25.074
408.98	25.251
409.34	24.313
409.69	24.580
410.05	24.210
410.40	24.323
410.76	24.728
411.11	24.408
411.47	23.704
411.83	24.136
412.18	24.758
412.54	24.024
412.89	23.186
413.25	24.743
413.60	24.007
413.96	24.417
414.31	25.030
414.67	24.395
415.03	24.393
415.38	24.227
415.74	25.205
416.09	25.172
416.45	24.564
416.80	25.850
417.16	24.188
417.51	24.650
417.87	24.593
418.22	24.423
418.58	25.223
418.93	24.688
419.29	23.044
419.64	24.167
420.00	24.284
420.35	24.042
420.71	24.504
421.06	24.662
421.42	23.834
421.77	24.431
422.12	24.090
422.48	23.677
422.83	24.275
423.19	24.298
423.54	24.630
423.90	24.009
424.25	24.051
424.61	24.086
424.96	23.659
425.31	23.426
425.67	24.130
426.02	24.397
426.38	24.329
426.73	24.176
427.09	24.970
427.44	24.254
427.79	25.043
428.15	24.926
428.50	25.200
428.85	24.809
429.21	24.797
429.56	24.576
429.92	24.217
430.27	23.706
430.62	23.152
430.98	23.453
431.33	23.790
431.68	23.012
432.04	23.332
432.39	24.094
432.74	24.766
433.10	24.529
433.45	24.813
433.80	25.593
434.16	24.015
434.51	24.355
434.86	24.551
435.22	23.663
435.57	24.126
435.92	25.498
436.28	25.173
436.63	24.581
436.98	25.225
437.34	24.315
437.69	25.084
438.04	24.570
438.39	25.628
438.75	24.889
439.10	23.745
439.45	23.742
439.81	24.291
440.16	24.986
440.51	24.381
440.86	24.672
441.22	24.297
441.57	24.672
441.92	24.827
442.27	24.794
442.63	24.085
442.98	24.784
443.33	24.906
443.68	24.195
444.03	24.317
444.39	24.435
444.74	24.482
445.09	24.276
445.44	24.601
445.79	24.123
446.15	24.842
446.50	24.262
446.85	24.900
447.20	24.527
447.55	24.742
447.91	25.200
448.26	24.601
448.61	24.986
448.96	25.054
449.31	24.587
449.66	24.862
450.02	24.041
450.37	24.764
450.72	25.124
451.07	25.015
451.42	25.193
451.77	25.258
452.12	25.014
452.47	24.970
452.83	24.282
453.18	26.126
453.53	25.696
453.88	25.029
454.23	25.915
454.58	25.758
454.93	25.445
455.28	25.826
455.63	25.355
455.98	25.155
456.34	25.775
456.69	24.634
457.04	25.298
457.39	24.971
457.74	24.775
458.09	24.930
458.44	25.301
458.79	24.881
459.14	24.768
459.49	25.028
459.84	25.217
460.19	25.254
460.54	26.040
460.89	24.947
461.24	25.258
461.59	25.624
461.94	25.355
462.29	25.172
462.64	25.503
462.99	24.696
463.34	25.535
463.69	25.348
464.04	25.158
464.39	25.243
464.74	24.385
465.09	25.131
465.44	24.429
465.79	25.531
466.14	24.006
466.49	24.959
466.84	24.582
467.19	26.128
467.54	25.285
467.89	25.646
468.24	24.725
468.59	25.298
468.94	24.457
469.29	25.473
469.64	25.273
469.99	25.000
470.34	25.427
470.68	25.379
471.03	25.083
471.38	25.960
471.73	26.192
472.08	25.832
472.43	26.071
472.78	25.608
473.13	24.531
473.48	24.817
473.83	25.147
474.17	24.863
474.52	24.941
474.87	24.901
475.22	24.786
475.57	25.236
475.92	24.681
476.27	24.320
476.61	24.879
476.96	25.287
477.31	25.398
477.66	25.335
478.01	25.529
478.36	24.717
478.70	24.963
479.05	23.849
479.40	24.554
479.75	25.819
480.10	24.831
480.45	24.930
480.79	23.963
481.14	23.680
481.49	23.879
481.84	25.110
482.19	24.760
482.53	24.769
482.88	24.686
483.23	24.222
483.58	24.372
483.92	25.000
484.27	23.973
484.62	24.363
484.97	24.114
485.31	23.579
485.66	22.404
486.01	21.708
486.36	21.594
486.70	21.552
487.05	21.929
487.40	22.175
487.75	22.770
488.09	22.869
488.44	22.881
488.79	23.291
489.13	23.778
489.48	24.211
489.83	23.937
490.17	24.690
490.52	24.591
490.87	24.483
491.22	24.379
491.56	24.726
491.91	24.373
492.26	24.855
492.60	24.419
492.95	24.286
493.30	24.932
493.64	24.843
493.99	24.866
494.34	24.608
494.68	23.816
495.03	24.966
495.37	24.809
495.72	24.942
496.07	24.394
496.41	24.066
496.76	24.272
497.11	24.336
497.45	24.551
497.80	24.560
498.14	24.780
498.49	24.327
498.84	24.860
499.18	23.492
499.53	24.437
499.87	24.933
500.22	23.584
500.56	23.723
500.91	24.768
501.26	24.897
501.60	23.588
501.95	24.552
502.29	24.267
502.64	24.526
502.98	24.233
503.33	24.410
503.67	24.018
504.02	23.824
504.36	23.982
504.71	25.213
505.06	23.885
505.40	24.474
505.75	23.667
506.09	25.292
506.44	23.966
506.78	24.291
507.13	23.461
507.47	25.085
507.82	25.158
508.16	25.429
508.51	25.072
508.85	25.451
509.19	24.572
509.54	24.219
509.88	24.465
510.23	24.657
510.57	23.938
510.92	25.025
511.26	25.452
511.61	24.028
511.95	25.585
512.30	24.850
512.64	23.728
512.98	24.910
513.33	24.436
513.67	25.375
514.02	25.039
514.36	25.026
514.70	23.840
515.05	25.413
515.39	25.768
515.74	25.478
516.08	24.728
516.42	25.738
516.77	25.760
517.11	24.693
517.46	24.677
517.80	25.014
518.14	26.479
518.49	24.090
518.83	24.451
519.17	26.290
519.52	25.778
519.86	25.668
520.20	25.425
520.55	24.760
520.89	25.345
521.23	25.584
521.58	24.613
521.92	24.781
522.26	25.415
522.61	25.847
522.95	25.946
523.29	26.316
523.64	25.780
523.98	25.117
524.32	26.067
524.66	25.333
525.01	25.385
525.35	24.573
525.69	25.888
526.04	26.532
526.38	25.898
526.72	25.537
527.06	25.547
527.41	25.756
527.75	25.015
528.09	25.105
528.43	26.052
528.78	25.224
529.12	26.189
529.46	24.839
529.80	23.949
530.15	25.044
530.49	25.511
530.83	24.863
531.17	24.969
531.51	26.242
531.86	24.155
532.20	24.227
532.54	25.173
532.88	24.984
533.22	25.655
533.57	25.259
533.91	23.951
534.25	24.235
534.59	24.035
534.93	24.460
535.27	22.994
535.62	23.104
535.96	24.232
536.30	25.168
536.64	24.472
536.98	25.299
537.32	25.125
537.66	23.852
538.01	24.644
538.35	26.138
538.69	24.333
539.03	24.876
539.37	23.301
539.71	24.630
540.05	24.246
540.39	25.346
540.73	24.557
541.07	24.780
541.42	24.316
541.76	24.414
542.10	24.476
542.44	24.875
542.78	25.110
543.12	24.417
543.46	24.812
543.80	24.687
544.14	24.272
544.48	23.662
544.82	24.648
545.16	23.619
545.50	24.892
545.84	24.747
546.18	25.488
546.52	25.246
546.86	25.210
547.20	24.677
547.54	24.509
547.88	23.723
548.22	23.376
548.56	23.630
548.90	23.547
549.24	23.879
549.58	23.776
549.92	24.296
550.26	25.085
550.60	24.152
550.94	24.830
551.28	23.931
551.62	25.172
551.96	24.459
552.30	23.731
552.64	25.049
552.98	23.518
553.32	23.752
553.66	24.169
554.00	24.582
554.34	24.101
554.68	24.395
555.02	24.440
555.36	23.205
555.69	23.364
556.03	24.204
556.37	23.964
556.71	25.554
557.05	23.067
557.39	24.600
557.73	24.596
558.07	24.950
558.41	24.606
558.75	25.171
559.08	25.161
559.42	24.481
559.76	25.232
560.10	23.882
560.44	23.225
560.78	24.041
561.12	24.285
561.45	23.404
561.79	23.783
562.13	23.184
562.47	23.816
562.81	23.878
563.15	23.853
563.48	23.168
563.82	24.142
564.16	23.756
564.50	23.327
564.84	23.830
565.17	23.470
565.51	24.076
565.85	23.134
566.19	23.036
566.52	22.984
566.86	23.584
567.20	22.753
567.54	22.598
567.88	23.057
568.21	22.017
568.55	22.082
568.89	21.852
569.23	21.225
569.56	20.966
569.90	20.481
570.24	20.647
570.57	19.890
570.91	19.501
571.25	19.632
571.59	18.979
571.92	19.160
572.26	18.760
572.60	19.134
572.93	20.012
573.27	18.926
573.61	19.058
573.95	19.248
574.28	19.171
574.62	18.537
574.96	18.377
575.29	18.338
575.63	18.492
575.97	18.038
576.30	18.223
576.64	18.682
576.98	18.180
577.31	18.499
577.65	18.930
577.98	18.241
578.32	18.078
578.66	18.002
578.99	18.523
579.33	18.133
579.67	18.532
580.00	18.161
580.34	18.306
580.67	18.479
581.01	18.367
581.35	17.909
581.68	17.324
582.02	17.539
582.35	17.433
582.69	17.796
583.02	17.446
583.36	18.034
583.70	18.446
584.03	18.593
584.37	18.375
584.70	18.537
585.04	18.225
585.37	17.493
585.71	18.090
586.04	17.839
586.38	18.434
586.72	18.275
587.05	19.043
587.39	18.508
587.72	18.858
588.06	18.177
588.39	18.373
588.73	19.232
589.06	18.704
589.40	19.030
589.73	18.650
590.07	19.389
590.40	19.686
590.73	20.308
591.07	19.469
591.40	20.040
591.74	19.927
592.07	19.676
592.41	20.304
592.74	19.041
593.08	18.359
593.41	18.372
593.75	18.507
594.08	18.941
594.41	18.671
594.75	19.349
595.08	19.067
595.42	19.849
595.75	19.019
596.09	19.152
596.42	18.864
596.75	20.272
597.09	19.686
597.42	20.041
597.75	19.635
598.09	20.066
598.42	19.665
598.76	19.391
599.09	19.198
599.42	18.512
599.76	19.098
600.09	17.831
600.42	18.957
600.76	18.593
601.09	18.709
601.42	19.324
601.76	18.690
602.09	19.684
602.42	18.558
602.76	19.431
603.09	19.834
603.42	18.789
603.76	18.800
604.09	18.784
604.42	18.267
604.76	19.518
605.09	19.551
605.42	19.382
605.75	19.384
606.09	19.587
606.42	18.790
606.75	19.316
607.09	18.831
607.42	19.325
607.75	19.068
608.08	19.131
608.42	19.295
608.75	18.999
609.08	19.270
609.41	20.136
609.75	20.238
610.08	19.919
610.41	19.543
610.74	19.004
611.07	20.464
611.41	19.880
611.74	20.220
612.07	19.605
612.40	19.981
612.73	20.320
613.07	19.767
613.40	20.201
613.73	19.970
614.06	19.400
614.39	19.949
614.72	19.538
615.06	19.683
615.39	20.297
615.72	19.022
616.05	19.789
616.38	20.599
616.71	19.913
617.05	20.209
617.38	20.000
617.71	21.541
618.04	20.022
618.37	20.956
618.70	20.785
619.03	21.245
619.36	22.048
619.69	21.900
620.03	23.614
620.36	21.773
620.69	21.967
621.02	22.351
621.35	22.278
621.68	22.050
622.01	23.911
622.34	20.320
622.67	22.331
623.00	22.873
623.33	20.783
623.66	21.291
623.99	22.123
624.32	21.477
624.65	21.856
624.99	22.042
625.32	20.908
625.65	21.586
625.98	21.897
626.31	22.700
626.64	22.096
626.97	23.030
627.30	22.748
627.63	22.998
627.96	21.674
628.29	23.267
628.62	22.926
628.95	23.670
629.28	25.241
629.61	23.023
629.94	22.990
630.26	23.484
630.59	24.379
630.92	23.139
631.25	24.297
631.58	25.747
631.91	23.216
632.24	23.810
632.57	24.067
632.90	26.087
633.23	25.184
633.56	24.868
633.89	24.223
634.22	25.296
634.55	24.839
634.88	26.506
635.20	25.224
635.53	26.016
635.86	27.740
636.19	24.691
636.52	25.081
636.85	24.595
637.18	25.027
637.51	24.358
637.83	25.172
638.16	25.674
638.49	26.587
638.82	26.878
639.15	25.382
639.48	27.251
639.81	25.763
640.13	25.890
640.46	26.928
640.79	26.398
641.12	25.591
641.45	25.226
641.77	26.024
642.10	25.033
642.43	26.174
642.76	26.136
643.09	26.513
643.41	27.209
643.74	28.058
644.07	27.139
644.40	25.444
644.73	29.730
645.05	28.232
645.38	28.637
645.71	29.135
646.04	28.244
646.36	28.638
646.69	25.760
647.02	29.600
647.35	29.291
647.67	28.363
648.00	28.990
648.33	29.023
648.66	26.818
648.98	25.652
649.31	25.911
649.64	25.864
649.96	25.747
650.29	24.714
650.62	27.982
650.94	29.367
651.27	29.665
651.60	28.169
651.92	26.728
652.25	27.559
652.58	26.525
652.90	27.395
653.23	25.702
653.56	25.371
653.88	25.991
654.21	26.686
654.54	26.354
654.86	25.369
655.19	26.385
655.52	21.295
655.84	15.108
656.17	16.651
656.49	23.905
656.82	27.777
657.15	22.126
657.47	16.593
657.80	12.332
658.13	9.789
658.45	13.391
658.78	16.152
659.10	16.785
659.43	17.166
659.75	18.668
660.08	19.674
660.41	22.414
660.73	25.471
661.06	25.526
661.38	26.746
661.71	30.396
662.03	29.848
662.36	27.048
662.68	26.629
663.01	27.928
663.33	29.057
663.66	29.586
663.98	29.167
664.31	29.851
664.63	28.352
664.96	29.456
665.28	28.437
665.61	28.679
665.93	28.302
666.26	29.346
666.58	30.826
666.91	27.799
667.23	29.317
667.56	31.828
667.88	31.328
668.21	31.762
668.53	28.024
668.86	30.461
669.18	30.550
669.50	28.719
669.83	31.622
670.15	30.353
670.48	26.562
670.80	30.080
671.13	29.681
671.45	30.862
671.77	31.169
672.10	29.264
672.42	28.125
672.75	27.532
673.07	27.504
673.39	25.080
673.72	26.298
674.04	27.419
674.37	29.038
674.69	28.810
675.01	26.679
675.34	28.682
675.66	31.641
675.98	26.824
676.31	28.200
676.63	28.827
676.95	29.762
677.28	28.600
677.60	30.181
677.92	29.762
678.25	28.101
678.57	27.002
678.89	29.837
679.22	24.081
679.54	28.114
679.86	28.447
680.18	26.362
680.51	26.202
680.83	24.324
681.15	26.516
681.48	29.340
681.80	27.671
682.12	28.547
682.44	24.685
682.77	29.359
683.09	27.573
683.41	27.551
683.73	27.953
684.06	27.976
684.38	30.426
684.70	29.137
685.02	24.306
685.34	27.465
685.67	26.849
685.99	25.944
686.31	24.345
686.63	23.902
686.96	26.797
687.28	23.993
687.60	26.280
687.92	25.963
688.24	28.103
688.56	26.335
688.89	24.857
689.21	30.250
689.53	27.866
689.85	29.878
690.17	28.932
690.49	27.823
690.82	28.151
691.14	28.687
691.46	28.337
691.78	28.655
692.10	25.954
692.42	27.405
692.74	27.519
693.06	28.488
693.39	23.715
693.71	25.933
694.03	27.613
694.35	28.715
694.67	28.513
694.99	29.047
695.31	27.703
695.63	30.769
695.95	27.376
696.27	30.973
696.59	30.788
696.91	28.861
697.23	29.186
697.56	27.801
697.88	24.351
698.20	26.981
698.52	25.681
698.84	27.926
699.16	28.998
699.48	30.297
699.80	28.758
700.12	30.716
700.44	30.140
700.76	29.594
701.08	29.765
701.40	30.390
701.72	37.433
702.04	34.959
702.36	31.989
702.68	29.521
703.00	29.073
703.32	27.792
703.64	30.479
703.96	29.687
704.28	29.101
704.60	29.859
704.91	29.412
705.23	30.966
705.55	31.454
705.87	28.571
706.19	35.737
706.51	36.364
706.83	32.743
707.15	32.620
707.47	29.056
707.79	30.345
708.11	25.850
708.43	26.742
708.74	24.661
709.06	27.209
709.38	30.521
709.70	29.973
710.02	31.793
710.34	29.834
710.66	34.167
710.98	32.240
711.29	31.198
711.61	33.705
711.93	31.611
712.25	30.422
712.57	32.476
712.89	33.939
713.20	32.268
713.52	36.760
713.84	30.211
714.16	28.406
714.48	25.360
714.80	29.810
715.11	30.319
715.43	29.050
715.75	31.268
716.07	30.347
716.39	33.143
716.70	32.710
717.02	37.374
717.34	32.014
717.66	37.500
717.97	39.394
718.29	29.577
718.61	31.081
718.93	35.640
719.24	29.866
719.56	30.345
719.88	28.981
720.20	28.710
720.51	28.758
720.83	34.448
721.15	31.973
721.46	32.534
721.78	34.495
722.10	29.861
722.42	34.114
722.73	30.325
723.05	36.842
723.37	32.509
723.68	32.812
724.00	32.955
724.32	36.502
724.63	28.077
724.95	35.686
725.27	33.086
725.58	30.882
725.90	29.577
726.22	28.082
726.53	31.773
726.85	34.853
727.16	30.537
727.48	27.575
727.80	34.892
728.11	30.000
728.43	28.623
728.74	31.469
729.06	28.315
729.38	32.632
729.69	33.667
730.01	32.237
730.32	29.530
730.64	33.887
730.96	31.532
731.27	20.489
731.59	28.161
731.90	29.805
732.22	28.000
732.53	27.066
732.85	33.041
733.16	29.819
733.48	30.721
733.80	30.725
734.11	32.515
734.43	27.193
734.74	26.810
735.06	29.101
735.37	24.485
735.69	26.957
736.00	28.135
736.32	22.424
736.63	23.028
736.95	30.745
737.26	28.659
737.58	30.061
737.89	27.711
738.21	27.815
738.52	28.763
738.83	34.799
739.15	29.965
739.46	27.586
739.78	29.932
740.09	27.114
740.41	28.528
740.72	34.286
741.04	32.517
741.35	34.766
741.66	32.806
741.98	35.622
742.29	34.259
742.61	30.973
742.92	34.322
743.23	30.800
743.55	27.170
743.86	31.373
744.18	36.441
744.49	35.537
744.80	35.023
745.12	35.714
745.43	37.383
745.74	38.667
746.06	35.965
746.37	36.744
746.68	35.398
747.00	34.529
747.31	37.395
747.62	32.377
747.94	33.047
748.25	33.463
748.56	36.864
748.88	37.054
749.19	30.233
749.50	35.160
749.82	37.037
750.13	35.178
750.44	31.333
750.75	30.537
751.07	32.566
751.38	30.363
751.69	26.936
752.01	27.273
752.32	29.236
752.63	32.550
752.94	33.217
753.26	35.156
753.57	34.241
753.88	29.588
754.19	28.881
754.51	31.229
754.82	25.839
755.13	32.432
755.44	30.741
755.75	32.990
756.07	31.507
756.38	26.471
756.69	25.938
757.00	28.487
757.31	28.169
757.63	26.997
757.94	24.734
758.25	27.295
758.56	24.714
758.87	28.321
759.18	26.453
759.50	26.444
759.81	29.674
760.12	28.090
760.43	25.770
760.74	26.582
761.05	26.260
761.36	22.656
761.67	27.224
761.99	28.451
762.30	27.331
762.61	28.125
762.92	31.818
763.23	31.321
763.54	30.769
763.85	30.739
764.16	31.944
764.47	25.676
764.78	23.453
765.10	29.268
765.41	23.864
765.72	23.481
766.03	25.982
766.34	27.178
766.65	26.996
766.96	36.842
767.27	37.850
767.58	38.119
767.89	38.122
768.20	41.463
768.51	32.653
768.82	35.526
769.13	32.157
769.44	26.692
769.75	27.341
770.06	28.571
770.37	29.386
770.68	27.556
770.99	29.661
771.30	38.912
771.61	32.308
771.92	28.244
772.23	28.629
772.54	37.333
772.85	35.644
773.16	35.326
773.47	32.222
773.78	35.149
774.09	41.477
774.39	40.606
774.70	28.824
775.01	36.842
775.32	39.130
775.63	44.521
775.94	51.235
776.25	46.897
776.56	44.275
776.87	41.221
777.18	46.212
777.48	51.969
777.79	45.385
778.10	42.424
778.41	48.507
778.72	43.609
779.03	42.308
779.34	41.892
779.65	40.373
779.95	36.646
780.26	39.881
780.57	36.735
780.88	43.972
781.19	50.000
781.50	36.686
781.80	35.519
782.11	37.566
782.42	38.506
782.73	38.418
783.04	33.548
783.34	34.884
783.65	40.136
783.96	40.645
784.27	35.762
784.57	30.921
784.88	48.551
785.19	45.000
785.50	43.966
785.81	46.512
786.11	42.222
786.42	46.457
786.73	51.351
787.04	51.887
787.34	42.276
787.65	46.970
787.96	39.394
788.26	40.945
788.57	45.985
788.88	41.549
789.19	47.328
789.49	45.946
789.80	41.406
790.11	42.149
790.41	53.704
790.72	43.519
791.03	47.115
791.33	50.505
791.64	50.526
791.95	52.632
792.25	44.792
792.56	56.000
792.87	56.098
793.17	50.000
793.48	54.118
793.79	57.471
794.09	59.091
794.40	56.034
794.70	45.238
795.01	40.769
795.32	43.511
795.62	37.607
795.93	43.697
796.23	47.967
796.54	53.061
796.85	53.409
797.15	64.935
797.46	60.976
797.76	72.500
798.07	64.000
798.37	57.500
798.68	68.750
798.99	68.293
799.29	62.667
799.60	56.977
799.90	63.158
800.21	43.939
800.51	63.380
800.82	72.414
801.12	75.385
801.43	70.667
801.73	51.724
802.04	71.429
802.34	56.164
802.65	105.882
802.95	80.435
803.26	74.194
803.56	96.667
803.87	83.582
804.17	60.317
804.48	77.358
804.78	70.833
805.09	68.182
805.39	65.079
805.70	98.246
806.00	68.571
806.30	67.188
806.61	52.941
806.91	56.667
807.22	47.826
807.52	59.211
807.83	60.526
808.13	72.464
808.43	72.581
808.74	64.384
809.04	67.857
809.35	69.118
809.65	77.273
809.95	92.157
810.26	109.259
810.56	81.250
810.86	71.429
811.17	66.667
811.47	93.478
811.77	75.862
812.08	62.069
812.38	76.190
812.69	90.476
812.99	66.667
813.29	94.286
813.59	109.677
813.90	60.345
814.20	73.770
814.50	76.000
814.81	54.386
815.11	92.593
815.41	75.000
815.72	100.000
816.02	78.000
816.32	78.049
816.62	77.586
816.93	106.061
817.23	100.000
817.53	85.714
817.84	82.222
818.14	92.857
818.44	85.417
818.74	94.340
819.04	84.615
819.35	103.030
819.65	100.000
819.95	111.111
820.25	100.000
820.56	135.135
820.86	97.368
821.16	82.979
821.46	139.474
821.76	81.818
822.07	73.810
822.37	78.947
822.67	93.023
822.97	50.000
823.27	93.478
823.57	112.500
823.88	100.000
824.18	93.939
824.48	195.652
824.78	136.111
825.08	126.087
825.38	137.931
825.69	126.471
825.99	104.255
826.29	72.222
826.59	102.857
826.89	96.667
827.19	68.571
827.49	151.613
827.79	188.462
828.09	111.905
828.39	105.556
828.70	105.405
829.00	128.571
829.30	156.250
829.60	119.444
829.90	154.839
830.20	115.152
830.50	129.730
830.80	145.833
831.10	173.077
831.40	147.619
831.70	187.500
832.00	93.333
832.30	160.870
832.60	154.167
832.90	163.636
833.20	160.000
833.50	118.421
833.80	111.765
834.10	105.263
834.40	89.474
834.70	106.667
835.00	172.000
835.30	94.595
835.60	134.375
835.90	113.514
836.20	150.000
836.50	122.727
836.80	82.927
837.10	121.739
837.40	330.769
837.70	200.000
838.00	126.667
838.30	154.167
838.60	148.000
838.90	310.000
839.19	168.750
839.49	110.000
839.79	117.241
840.09	157.692
840.39	206.667
840.69	157.895
840.99	123.810
841.29	173.913
841.59	165.000
841.88	156.000
842.18	333.333
842.48	117.857
842.78	144.444
843.08	284.615
843.38	163.636
843.68	235.714
843.97	442.857
844.27	143.478
844.57	1450.000
844.87	264.286
845.17	172.222
845.47	133.333
845.76	191.667
846.06	528.571
846.36	158.824
846.66	192.308
846.96	200.000
847.25	261.538
847.55	215.789
847.85	194.444
848.15	300.000
848.44	345.455
848.74	166.667
849.04	137.500
849.34	105.882
849.63	243.750
849.93	200.000
850.23	900.000
850.53	375.000
850.82	254.545
851.12	205.882
851.42	187.500
851.71	212.500
852.01	0.000
852.31	229.412
852.61	350.000
852.90	145.833
853.20	300.000
853.50	-1700.000
853.79	120.000
854.09	137.500
854.39	151.724
854.68	162.069
854.98	228.571
855.28	125.806
855.57	257.143
855.87	172.222
856.17	151.852
856.46	163.158
856.76	135.484
857.05	229.412
857.35	309.091
857.65	169.231
857.94	130.000
858.24	477.778
858.53	228.571
858.83	657.143
859.13	200.000
859.42	233.333
859.72	300.000
860.01	241.667
860.31	925.000
860.60	340.000
860.90	275.000
861.20	284.615
861.49	328.571
861.79	-2400.000
862.08	414.286
862.38	344.444
862.67	142.857
862.97	420.000
863.26	123.333
863.56	950.000
863.85	353.846
864.15	235.294
864.44	194.444
864.74	341.667
865.03	318.182
865.33	375.000
865.62	233.333
865.92	466.667
866.21	950.000
866.51	740.000
866.80	177.778
867.10	866.667
867.39	3100.000
867.69	560.000
867.98	725.000
868.27	176.190
868.57	253.333
868.86	775.000
869.16	147.619
869.45	3400.000
869.75	-483.333
870.04	850.000
870.33	700.000
870.63	337.500
870.92	211.765
871.22	725.000
871.51	414.286
871.80	275.000
872.10	253.846
>>>>>End Processed Spectral Data<<<<<
