SpectraSuite Data File
++++++++++++++++++++++++++++++++++++
Date: Wed May 13 21:50:22 PDT 2015
User: schluterlab
Dark Spectrum Present: Yes
Reference Spectrum Present: Yes
Number of Sampled Component Spectra: 1
Spectrometers: USB2E3373
Integration Time (usec): 3000 (USB2E3373)
Spectra Averaged: 3 (USB2E3373)
Boxcar Smoothing: 0 (USB2E3373)
Correct for Electrical Dark: No (USB2E3373)
Strobe/Lamp Enabled: No (USB2E3373)
Correct for Detector Non-linearity: No (USB2E3373)
Correct for Stray Light: No (USB2E3373)
Number of Pixels in Processed Spectrum: 2048
>>>>>Begin Processed Spectral Data<<<<<
178.53	0.000
178.91	750.000
179.29	216.667
179.67	-450.000
180.04	-233.333
180.42	160.000
180.80	1800.000
181.18	283.333
181.56	-550.000
181.94	-350.000
182.31	-72.727
182.69	138.462
183.07	-260.000
183.45	283.333
183.83	188.889
184.20	128.571
184.58	-133.333
184.96	566.667
185.34	400.000
185.72	0.000
186.09	-800.000
186.47	-260.000
186.85	240.000
187.23	-400.000
187.61	250.000
187.98	2200.000
188.36	0.000
188.74	0.000
189.12	-72.727
189.49	-50.000
189.87	141.667
190.25	360.000
190.63	600.000
191.00	-140.000
191.38	320.000
191.76	525.000
192.14	150.000
192.51	-5.263
192.89	300.000
193.27	350.000
193.65	-460.000
194.02	272.727
194.40	280.000
194.78	-800.000
195.15	160.000
195.53	-200.000
195.91	-100.000
196.29	-433.333
196.66	0.000
197.04	650.000
197.42	-80.000
197.79	-20.000
198.17	-112.500
198.55	-266.667
198.92	175.000
199.30	-300.000
199.68	-50.000
200.05	600.000
200.43	133.333
200.81	-1500.000
201.18	-300.000
201.56	-116.667
201.94	675.000
202.31	4.348
202.69	-214.286
203.07	-633.333
203.44	-80.000
203.82	-400.000
204.19	-40.000
204.57	0.000
204.95	-250.000
205.32	0.000
205.70	-450.000
206.08	-200.000
206.45	-133.333
206.83	125.000
207.20	-466.667
207.58	-80.000
207.96	-2400.000
208.33	-228.571
208.71	-2800.000
209.08	212.500
209.46	500.000
209.84	0.000
210.21	110.000
210.59	1500.000
210.96	340.000
211.34	1200.000
211.71	-1100.000
212.09	-283.333
212.46	-270.000
212.84	33.333
213.22	-125.000
213.59	-500.000
213.97	-250.000
214.34	-800.000
214.72	-15.385
215.09	225.000
215.47	211.111
215.84	1000.000
216.22	-125.000
216.59	-850.000
216.97	666.667
217.34	211.111
217.72	0.000
218.09	100.000
218.47	-600.000
218.84	-85.714
219.22	-87.500
219.59	-266.667
219.97	-475.000
220.34	-75.000
220.72	-120.000
221.09	0.000
221.47	-183.333
221.84	-400.000
222.22	0.000
222.59	1600.000
222.97	-233.333
223.34	-75.000
223.72	-400.000
224.09	-400.000
224.46	-100.000
224.84	-25.000
225.21	-114.286
225.59	-400.000
225.96	-183.333
226.34	-140.000
226.71	-114.286
227.08	550.000
227.46	-62.500
227.83	-500.000
228.21	-62.500
228.58	-75.000
228.95	35.294
229.33	6.250
229.70	-37.500
230.08	-15.385
230.45	-137.500
230.82	-8.333
231.20	142.857
231.57	-250.000
231.95	-0.000
232.32	-58.333
232.69	-5.882
233.07	-2200.000
233.44	-39.130
233.81	-550.000
234.19	-8.333
234.56	-40.000
234.93	-53.333
235.31	36.842
235.68	0.000
236.05	-30.769
236.43	16.667
236.80	6.061
237.17	-53.333
237.55	11.765
237.92	3.448
238.29	-7.407
238.67	19.444
239.04	9.677
239.41	25.532
239.79	65.957
240.16	53.488
240.53	21.429
240.91	33.929
241.28	33.929
241.65	27.419
242.02	35.526
242.40	28.986
242.77	28.986
243.14	48.718
243.51	26.596
243.89	39.423
244.26	54.717
244.63	19.231
245.00	41.667
245.38	37.815
245.75	40.984
246.12	39.098
246.49	28.455
246.87	37.815
247.24	36.486
247.61	39.073
247.98	43.590
248.36	34.911
248.73	37.079
249.10	42.424
249.47	42.473
249.84	43.158
250.22	41.294
250.59	39.252
250.96	49.091
251.33	38.756
251.70	44.770
252.08	38.912
252.45	41.564
252.82	42.205
253.19	40.078
253.56	37.410
253.94	44.484
254.31	39.789
254.68	45.638
255.05	39.934
255.42	45.804
255.79	41.718
256.16	41.956
256.54	42.857
256.91	41.456
257.28	46.855
257.65	43.631
258.02	43.109
258.39	46.199
258.76	40.407
259.14	40.909
259.51	42.135
259.88	44.173
260.25	43.056
260.62	40.730
260.99	42.175
261.36	43.782
261.73	41.728
262.10	40.458
262.47	40.988
262.85	40.299
263.22	42.564
263.59	43.896
263.96	43.552
264.33	36.538
264.70	42.326
265.07	42.824
265.44	44.828
265.81	43.478
266.18	46.697
266.55	41.485
266.92	40.466
267.29	42.387
267.66	45.011
268.03	46.296
268.40	44.703
268.77	41.322
269.14	45.714
269.51	44.764
269.88	41.344
270.25	41.314
270.62	39.139
270.99	42.323
271.36	42.857
271.73	44.578
272.10	40.571
272.47	41.459
272.84	40.354
273.21	40.705
273.58	41.393
273.95	41.509
274.32	43.843
274.69	39.709
275.06	41.519
275.43	43.315
275.80	39.539
276.17	41.621
276.54	40.497
276.91	39.721
277.28	38.809
277.65	41.608
278.02	40.893
278.39	42.984
278.76	43.645
279.13	40.309
279.50	41.379
279.87	40.217
280.23	43.063
280.60	41.696
280.97	40.584
281.34	41.325
281.71	39.024
282.08	41.368
282.45	39.180
282.82	43.450
283.19	38.567
283.56	41.094
283.92	42.202
284.29	39.158
284.66	39.044
285.03	40.391
285.40	37.613
285.77	40.841
286.14	39.818
286.51	41.679
286.87	39.692
287.24	40.118
287.61	41.114
287.98	40.441
288.35	39.195
288.72	38.594
289.08	40.313
289.45	39.060
289.82	37.670
290.19	38.289
290.56	39.631
290.93	36.464
291.29	37.483
291.66	38.798
292.03	37.602
292.40	37.820
292.77	36.680
293.13	39.609
293.50	36.078
293.87	36.800
294.24	38.228
294.60	36.281
294.97	37.963
295.34	36.016
295.71	35.742
296.08	35.471
296.44	35.842
296.81	34.836
297.18	36.375
297.55	34.434
297.91	37.267
298.28	35.593
298.65	36.207
299.02	35.653
299.38	33.988
299.75	34.856
300.12	33.953
300.48	34.269
300.85	36.259
301.22	34.959
301.59	33.451
301.95	33.449
302.32	35.706
302.69	34.802
303.05	34.994
303.42	35.568
303.79	36.067
304.15	36.035
304.52	37.312
304.89	36.102
305.25	35.126
305.62	35.900
305.99	36.561
306.35	36.155
306.72	36.317
307.09	37.748
307.45	37.806
307.82	36.316
308.19	35.946
308.55	38.178
308.92	38.114
309.29	37.037
309.65	37.662
310.02	37.674
310.38	39.634
310.75	38.659
311.12	37.609
311.48	38.971
311.85	38.878
312.22	41.683
312.58	40.000
312.95	40.796
313.31	40.037
313.68	41.317
314.05	42.628
314.41	43.516
314.78	43.548
315.14	43.426
315.51	43.578
315.87	44.486
316.24	44.536
316.61	45.936
316.97	46.481
317.34	45.009
317.70	47.279
318.07	47.205
318.43	47.516
318.80	47.208
319.16	48.099
319.53	48.387
319.89	51.220
320.26	51.479
320.62	50.788
320.99	51.163
321.35	50.982
321.72	51.588
322.08	51.937
322.45	54.024
322.81	54.898
323.18	55.009
323.54	55.866
323.91	55.827
324.27	55.896
324.64	55.923
325.00	55.906
325.37	58.362
325.73	56.061
326.10	57.443
326.46	55.769
326.83	56.877
327.19	59.024
327.56	58.501
327.92	58.809
328.29	60.351
328.65	59.860
329.01	59.015
329.38	61.565
329.74	59.227
330.11	61.226
330.47	57.726
330.84	62.094
331.20	60.632
331.56	61.322
331.93	61.154
332.29	61.164
332.66	58.729
333.02	61.164
333.38	60.175
333.75	59.983
334.11	60.851
334.48	63.470
334.84	59.894
335.20	57.976
335.57	61.358
335.93	60.137
336.29	59.370
336.66	60.684
337.02	62.000
337.38	59.704
337.75	60.465
338.11	60.547
338.47	58.990
338.84	59.622
339.20	60.229
339.56	59.215
339.93	59.205
340.29	58.668
340.65	59.025
341.02	58.486
341.38	58.784
341.74	59.328
342.11	59.207
342.47	56.904
342.83	58.578
343.20	60.406
343.56	57.400
343.92	57.352
344.28	57.630
344.65	58.939
345.01	57.224
345.37	57.484
345.73	58.824
346.10	57.785
346.46	56.992
346.82	58.587
347.19	56.566
347.55	58.078
347.91	57.210
348.27	56.309
348.63	55.689
349.00	54.717
349.36	56.593
349.72	55.994
350.08	57.020
350.45	57.635
350.81	57.199
351.17	56.967
351.53	57.816
351.89	54.964
352.26	55.058
352.62	55.814
352.98	55.192
353.34	55.556
353.70	54.984
354.07	53.725
354.43	55.443
354.79	56.010
355.15	53.804
355.51	54.442
355.87	56.450
356.24	54.976
356.60	54.105
356.96	53.799
357.32	53.947
357.68	54.163
358.04	54.616
358.40	54.806
358.77	53.287
359.13	54.163
359.49	52.612
359.85	54.132
360.21	54.356
360.57	54.449
360.93	53.414
361.29	53.738
361.66	52.999
362.02	53.892
362.38	52.733
362.74	53.299
363.10	53.507
363.46	52.089
363.82	54.472
364.18	51.342
364.54	53.027
364.90	52.404
365.26	52.583
365.62	51.918
365.98	52.598
366.35	52.340
366.71	51.498
367.07	51.028
367.43	51.359
367.79	52.536
368.15	53.024
368.51	51.125
368.87	51.291
369.23	52.456
369.59	51.515
369.95	51.451
370.31	50.976
370.67	51.412
371.03	52.264
371.39	51.597
371.75	51.429
372.11	51.211
372.47	51.334
372.83	50.624
373.19	51.079
373.55	50.723
373.91	49.859
374.27	49.378
374.63	51.422
374.99	50.000
375.35	50.753
375.71	50.136
376.07	50.103
376.42	49.332
376.78	50.727
377.14	51.051
377.50	49.870
377.86	50.133
378.22	50.442
378.58	50.946
378.94	50.562
379.30	49.282
379.66	50.123
380.02	49.632
380.38	48.193
380.74	50.209
381.09	50.060
381.45	49.274
381.81	49.415
382.17	49.590
382.53	47.815
382.89	49.337
383.25	48.272
383.61	48.789
383.97	49.187
384.32	48.645
384.68	48.242
385.04	48.381
385.40	49.066
385.76	48.723
386.12	48.160
386.48	48.903
386.83	46.058
387.19	49.291
387.55	48.007
387.91	49.200
388.27	47.965
388.62	48.564
388.98	47.935
389.34	48.496
389.70	46.703
390.06	46.750
390.42	48.776
390.77	47.021
391.13	48.674
391.49	45.857
391.85	47.476
392.20	45.927
392.56	48.254
392.92	46.928
393.28	47.066
393.64	48.257
393.99	45.777
394.35	46.790
394.71	47.308
395.07	45.723
395.42	46.435
395.78	46.654
396.14	46.100
396.50	46.481
396.85	47.929
397.21	45.318
397.57	45.652
397.92	45.569
398.28	47.377
398.64	46.812
399.00	46.205
399.35	45.573
399.71	46.651
400.07	46.687
400.42	46.520
400.78	44.955
401.14	45.003
401.49	45.057
401.85	46.867
402.21	46.625
402.57	45.494
402.92	46.934
403.28	45.528
403.63	44.451
403.99	44.274
404.35	45.511
404.70	45.015
405.06	44.157
405.42	44.410
405.77	44.240
406.13	44.171
406.49	44.398
406.84	46.276
407.20	43.991
407.55	44.805
407.91	43.812
408.27	42.982
408.62	44.690
408.98	43.958
409.34	43.750
409.69	45.549
410.05	44.030
410.40	42.970
410.76	44.103
411.11	42.600
411.47	45.720
411.83	43.294
412.18	44.521
412.54	44.799
412.89	44.138
413.25	43.304
413.60	44.451
413.96	43.071
414.31	44.266
414.67	44.317
415.03	44.926
415.38	44.782
415.74	43.210
416.09	44.019
416.45	44.429
416.80	43.826
417.16	42.443
417.51	43.670
417.87	43.254
418.22	43.051
418.58	42.970
418.93	43.063
419.29	43.828
419.64	43.257
420.00	42.921
420.35	44.292
420.71	43.998
421.06	43.727
421.42	43.735
421.77	43.642
422.12	44.642
422.48	42.694
422.83	43.828
423.19	43.531
423.54	43.168
423.90	42.696
424.25	44.483
424.61	42.822
424.96	42.224
425.31	42.120
425.67	43.739
426.02	43.110
426.38	43.905
426.73	42.639
427.09	44.090
427.44	43.218
427.79	42.637
428.15	42.385
428.50	42.659
428.85	43.419
429.21	43.219
429.56	43.677
429.92	42.686
430.27	43.661
430.62	43.652
430.98	43.575
431.33	44.277
431.68	43.131
432.04	43.099
432.39	42.436
432.74	43.716
433.10	43.870
433.45	42.249
433.80	42.759
434.16	41.835
434.51	44.185
434.86	43.227
435.22	42.501
435.57	43.059
435.92	42.642
436.28	43.123
436.63	44.053
436.98	43.243
437.34	43.590
437.69	42.680
438.04	42.218
438.39	43.524
438.75	42.610
439.10	43.551
439.45	42.070
439.81	43.781
440.16	43.710
440.51	42.509
440.86	42.383
441.22	43.316
441.57	43.438
441.92	42.872
442.27	42.641
442.63	42.896
442.98	42.998
443.33	43.397
443.68	42.119
444.03	43.219
444.39	42.241
444.74	44.009
445.09	42.070
445.44	43.268
445.79	43.211
446.15	44.260
446.50	43.502
446.85	43.720
447.20	43.335
447.55	42.809
447.91	42.697
448.26	43.282
448.61	43.268
448.96	42.426
449.31	42.890
449.66	42.279
450.02	42.695
450.37	42.891
450.72	41.561
451.07	42.947
451.42	42.483
451.77	42.605
452.12	43.197
452.47	42.414
452.83	41.804
453.18	42.393
453.53	41.866
453.88	42.289
454.23	43.201
454.58	42.831
454.93	41.950
455.28	42.389
455.63	41.859
455.98	41.935
456.34	41.704
456.69	42.492
457.04	42.539
457.39	41.491
457.74	42.549
458.09	42.358
458.44	41.716
458.79	41.516
459.14	39.831
459.49	43.720
459.84	42.503
460.19	41.897
460.54	42.518
460.89	42.680
461.24	41.739
461.59	42.210
461.94	40.708
462.29	41.973
462.64	41.425
462.99	40.912
463.34	42.334
463.69	42.139
464.04	40.996
464.39	41.489
464.74	41.769
465.09	42.033
465.44	40.909
465.79	41.461
466.14	41.163
466.49	42.053
466.84	41.602
467.19	41.401
467.54	40.376
467.89	41.358
468.24	40.381
468.59	40.663
468.94	40.358
469.29	41.375
469.64	41.213
469.99	41.379
470.34	41.065
470.68	39.777
471.03	39.563
471.38	40.264
471.73	40.123
472.08	40.481
472.43	41.227
472.78	39.757
473.13	39.248
473.48	39.791
473.83	39.611
474.17	40.365
474.52	41.036
474.87	39.988
475.22	40.036
475.57	40.547
475.92	39.804
476.27	39.336
476.61	39.751
476.96	39.406
477.31	39.860
477.66	39.492
478.01	40.275
478.36	38.965
478.70	40.118
479.05	39.845
479.40	39.158
479.75	39.107
480.10	39.266
480.45	37.911
480.79	39.920
481.14	40.274
481.49	39.911
481.84	39.868
482.19	38.444
482.53	39.571
482.88	40.029
483.23	39.750
483.58	39.650
483.92	39.543
484.27	38.884
484.62	39.458
484.97	39.859
485.31	39.101
485.66	37.924
486.01	39.361
486.36	40.244
486.70	41.026
487.05	40.629
487.40	40.830
487.75	40.655
488.09	40.413
488.44	39.397
488.79	39.478
489.13	38.529
489.48	38.820
489.83	38.455
490.17	38.448
490.52	39.832
490.87	37.599
491.22	38.577
491.56	38.908
491.91	37.302
492.26	38.781
492.60	38.191
492.95	38.630
493.30	36.628
493.64	37.602
493.99	37.101
494.34	38.006
494.68	37.900
495.03	37.895
495.37	37.567
495.72	38.396
496.07	37.798
496.41	36.687
496.76	37.203
497.11	37.606
497.45	38.132
497.80	37.759
498.14	37.582
498.49	36.712
498.84	37.500
499.18	36.884
499.53	36.780
499.87	36.730
500.22	37.680
500.56	37.111
500.91	36.670
501.26	36.995
501.60	36.569
501.95	36.895
502.29	37.621
502.64	37.608
502.98	36.657
503.33	36.350
503.67	37.147
504.02	36.373
504.36	36.107
504.71	36.433
505.06	37.137
505.40	36.340
505.75	36.877
506.09	36.484
506.44	36.290
506.78	36.110
507.13	36.019
507.47	36.320
507.82	36.107
508.16	36.095
508.51	36.002
508.85	35.459
509.19	35.926
509.54	37.319
509.88	34.409
510.23	35.684
510.57	35.911
510.92	35.884
511.26	36.304
511.61	34.358
511.95	35.777
512.30	34.925
512.64	35.414
512.98	35.402
513.33	35.268
513.67	35.207
514.02	34.550
514.36	34.607
514.70	35.566
515.05	34.640
515.39	34.434
515.74	33.215
516.08	34.454
516.42	34.044
516.77	34.153
517.11	33.862
517.46	35.654
517.80	34.685
518.14	33.864
518.49	33.876
518.83	33.652
519.17	33.313
519.52	34.198
519.86	34.730
520.20	33.293
520.55	33.582
520.89	33.333
521.23	33.846
521.58	34.260
521.92	33.438
522.26	32.726
522.61	32.321
522.95	33.096
523.29	32.635
523.64	33.121
523.98	33.100
524.32	33.333
524.66	33.247
525.01	33.683
525.35	33.114
525.69	33.532
526.04	32.443
526.38	33.142
526.72	32.084
527.06	32.366
527.41	31.833
527.75	32.577
528.09	33.220
528.43	33.582
528.78	32.494
529.12	32.600
529.46	32.502
529.80	31.521
530.15	31.338
530.49	34.097
530.83	32.227
531.17	33.014
531.51	31.490
531.86	31.775
532.20	31.702
532.54	31.172
532.88	31.314
533.22	33.064
533.57	32.384
533.91	32.387
534.25	33.529
534.59	31.789
534.93	31.824
535.27	32.357
535.62	32.171
535.96	32.531
536.30	33.378
536.64	31.306
536.98	31.324
537.32	30.890
537.66	32.581
538.01	32.108
538.35	31.146
538.69	31.304
539.03	31.275
539.37	31.187
539.71	30.900
540.05	30.162
540.39	30.833
540.73	32.123
541.07	31.701
541.42	30.909
541.76	31.732
542.10	30.670
542.44	31.532
542.78	31.645
543.12	32.615
543.46	31.306
543.80	32.179
544.14	31.796
544.48	30.524
544.82	31.742
545.16	30.223
545.50	31.128
545.84	31.206
546.18	30.996
546.52	30.699
546.86	30.742
547.20	31.308
547.54	30.021
547.88	31.714
548.22	30.489
548.56	30.821
548.90	30.650
549.24	30.903
549.58	29.751
549.92	30.154
550.26	31.956
550.60	30.631
550.94	30.373
551.28	30.356
551.62	29.774
551.96	30.015
552.30	29.767
552.64	29.237
552.98	29.759
553.32	30.714
553.66	31.328
554.00	29.950
554.34	29.084
554.68	30.723
555.02	29.716
555.36	29.576
555.69	29.497
556.03	29.450
556.37	29.516
556.71	29.502
557.05	29.520
557.39	28.937
557.73	29.349
558.07	29.465
558.41	29.372
558.75	28.791
559.08	28.789
559.42	29.583
559.76	28.976
560.10	28.517
560.44	29.182
560.78	28.058
561.12	29.713
561.45	29.592
561.79	29.161
562.13	29.184
562.47	29.643
562.81	28.644
563.15	28.258
563.48	28.699
563.82	29.343
564.16	29.587
564.50	29.986
564.84	28.041
565.17	29.404
565.51	29.479
565.85	28.648
566.19	29.536
566.52	28.768
566.86	29.014
567.20	29.383
567.54	29.706
567.88	29.563
568.21	29.929
568.55	29.838
568.89	29.462
569.23	30.431
569.56	30.246
569.90	31.135
570.24	30.072
570.57	30.706
570.91	30.459
571.25	29.841
571.59	30.487
571.92	30.801
572.26	30.591
572.60	30.952
572.93	30.803
573.27	30.125
573.61	30.521
573.95	30.910
574.28	30.446
574.62	30.733
574.96	30.709
575.29	31.118
575.63	30.532
575.97	30.951
576.30	30.754
576.64	31.150
576.98	31.004
577.31	30.809
577.65	30.859
577.98	31.161
578.32	30.875
578.66	31.127
578.99	31.221
579.33	31.309
579.67	30.932
580.00	30.758
580.34	30.393
580.67	31.308
581.01	30.877
581.35	30.557
581.68	31.024
582.02	30.973
582.35	31.239
582.69	31.691
583.02	30.479
583.36	31.095
583.70	31.127
584.03	30.547
584.37	30.601
584.70	30.892
585.04	30.358
585.37	30.158
585.71	30.101
586.04	30.476
586.38	30.545
586.72	30.289
587.05	30.570
587.39	30.464
587.72	30.559
588.06	30.506
588.39	30.087
588.73	30.265
589.06	29.939
589.40	30.134
589.73	29.788
590.07	29.603
590.40	29.534
590.73	29.457
591.07	30.046
591.40	29.261
591.74	29.124
592.07	29.621
592.41	29.429
592.74	29.398
593.08	29.197
593.41	29.512
593.75	29.231
594.08	29.879
594.41	29.982
594.75	29.348
595.08	29.798
595.42	28.597
595.75	29.465
596.09	30.023
596.42	29.248
596.75	28.741
597.09	29.527
597.42	29.296
597.75	29.022
598.09	28.597
598.42	28.635
598.76	28.799
599.09	29.172
599.42	29.003
599.76	29.516
600.09	28.840
600.42	29.454
600.76	28.529
601.09	29.266
601.42	29.479
601.76	28.610
602.09	29.266
602.42	29.014
602.76	28.607
603.09	29.322
603.42	28.549
603.76	28.644
604.09	28.735
604.42	28.338
604.76	29.070
605.09	28.228
605.42	29.330
605.75	28.009
606.09	28.849
606.42	28.512
606.75	28.442
607.09	28.280
607.42	28.503
607.75	27.527
608.08	28.224
608.42	28.772
608.75	28.906
609.08	28.025
609.41	28.366
609.75	28.290
610.08	28.304
610.41	28.863
610.74	28.248
611.07	28.557
611.41	29.427
611.74	28.520
612.07	28.765
612.40	28.270
612.73	28.869
613.07	27.605
613.40	28.634
613.73	29.036
614.06	27.584
614.39	27.293
614.72	28.595
615.06	26.556
615.39	28.366
615.72	26.890
616.05	27.590
616.38	27.205
616.71	27.475
617.05	27.887
617.38	26.987
617.71	26.409
618.04	26.996
618.37	27.886
618.70	27.878
619.03	26.117
619.36	26.690
619.69	26.096
620.03	27.138
620.36	26.792
620.69	26.624
621.02	26.308
621.35	25.102
621.68	24.776
622.01	26.537
622.34	25.535
622.67	26.547
623.00	26.748
623.33	25.580
623.66	26.022
623.99	26.557
624.32	26.192
624.65	27.300
624.99	25.202
625.32	26.736
625.65	25.969
625.98	26.935
626.31	25.878
626.64	25.795
626.97	25.087
627.30	25.577
627.63	25.173
627.96	23.550
628.29	27.070
628.62	24.565
628.95	23.447
629.28	24.729
629.61	24.880
629.94	24.371
630.26	26.010
630.59	23.377
630.92	23.996
631.25	23.481
631.58	24.197
631.91	24.390
632.24	23.930
632.57	24.111
632.90	24.037
633.23	22.542
633.56	25.420
633.89	25.120
634.22	24.499
634.55	22.168
634.88	21.936
635.20	23.750
635.53	22.739
635.86	23.333
636.19	23.077
636.52	22.195
636.85	22.437
637.18	21.437
637.51	22.722
637.83	23.760
638.16	23.600
638.49	22.697
638.82	21.569
639.15	23.005
639.48	23.128
639.81	23.194
640.13	22.254
640.46	22.881
640.79	22.158
641.12	23.225
641.45	21.689
641.77	22.091
642.10	22.239
642.43	21.855
642.76	20.347
643.09	21.406
643.41	22.010
643.74	21.486
644.07	21.197
644.40	20.066
644.73	21.017
645.05	20.942
645.38	20.598
645.71	21.599
646.04	20.707
646.36	20.660
646.69	21.329
647.02	22.040
647.35	22.852
647.67	20.887
648.00	18.841
648.33	21.525
648.66	22.037
648.98	21.584
649.31	23.773
649.64	20.814
649.96	21.011
650.29	20.915
650.62	19.275
650.94	20.172
651.27	22.438
651.60	22.203
651.92	23.297
652.25	21.608
652.58	20.627
652.90	23.064
653.23	20.883
653.56	21.322
653.88	19.283
654.21	22.184
654.54	21.761
654.86	21.626
655.19	21.429
655.52	26.692
655.84	27.604
656.17	34.254
656.49	45.886
656.82	46.043
657.15	34.955
657.47	25.907
657.80	19.394
658.13	20.426
658.45	29.880
658.78	29.827
659.10	29.070
659.43	28.155
659.75	26.846
660.08	25.862
660.41	21.805
660.73	22.039
661.06	21.769
661.38	18.217
661.71	19.672
662.03	20.296
662.36	19.027
662.68	23.011
663.01	20.763
663.33	17.063
663.66	18.625
663.98	19.326
664.31	18.022
664.63	16.216
664.96	21.882
665.28	19.957
665.61	20.518
665.93	18.630
666.26	20.675
666.58	20.771
666.91	21.973
667.23	18.894
667.56	17.701
667.88	18.224
668.21	19.643
668.53	19.080
668.86	19.664
669.18	16.785
669.50	19.585
669.83	17.661
670.15	18.571
670.48	20.230
670.80	22.757
671.13	18.307
671.45	21.233
671.77	20.259
672.10	18.129
672.42	20.802
672.75	19.107
673.07	21.818
673.39	22.575
673.72	19.361
674.04	20.492
674.37	18.496
674.69	17.490
675.01	20.726
675.34	19.037
675.66	18.301
675.98	18.805
676.31	17.195
676.63	21.995
676.95	14.588
677.28	17.890
677.60	19.853
677.92	21.951
678.25	20.824
678.57	20.774
678.89	18.977
679.22	18.841
679.54	21.429
679.86	19.141
680.18	20.769
680.51	19.231
680.83	18.908
681.15	22.986
681.48	19.639
681.80	22.086
682.12	15.833
682.44	17.907
682.77	21.474
683.09	17.634
683.41	18.372
683.73	20.089
684.06	20.796
684.38	20.513
684.70	19.552
685.02	22.727
685.34	21.722
685.67	20.638
685.99	23.488
686.31	23.621
686.63	21.507
686.96	22.078
687.28	21.557
687.60	22.684
687.92	21.206
688.24	19.000
688.56	20.833
688.89	20.935
689.21	19.058
689.53	18.243
689.85	20.449
690.17	22.198
690.49	21.014
690.82	20.286
691.14	20.048
691.46	22.042
691.78	19.121
692.10	20.807
692.42	20.659
692.74	19.348
693.06	17.079
693.39	19.906
693.71	19.778
694.03	21.591
694.35	22.748
694.67	19.750
694.99	19.588
695.31	16.537
695.63	19.512
695.95	19.084
696.27	15.068
696.59	16.129
696.91	16.760
697.23	19.036
697.56	23.741
697.88	20.998
698.20	22.030
698.52	17.757
698.84	18.421
699.16	17.258
699.48	19.506
699.80	20.155
700.12	19.303
700.44	18.592
700.76	16.573
701.08	19.637
701.40	22.455
701.72	18.154
702.04	16.981
702.36	15.854
702.68	15.854
703.00	15.205
703.32	18.106
703.64	21.687
703.96	18.182
704.28	18.675
704.60	20.427
704.91	15.361
705.23	17.405
705.55	17.241
705.87	20.070
706.19	15.385
706.51	14.789
706.83	18.790
707.15	17.378
707.47	20.937
707.79	19.036
708.11	20.051
708.43	22.589
708.74	18.351
709.06	19.519
709.38	17.579
709.70	16.216
710.02	20.561
710.34	17.667
710.66	17.264
710.98	16.718
711.29	21.753
711.61	15.484
711.93	17.742
712.25	12.937
712.57	11.930
712.89	15.751
713.20	19.504
713.52	18.978
713.84	19.355
714.16	19.417
714.48	16.456
714.80	15.655
715.11	21.512
715.43	17.391
715.75	23.292
716.07	20.482
716.39	16.162
716.70	18.345
717.02	13.333
717.34	21.212
717.66	13.793
717.97	13.889
718.29	21.654
718.61	14.592
718.93	13.566
719.24	18.450
719.56	14.232
719.88	17.164
720.20	15.020
720.51	20.313
720.83	17.121
721.15	11.789
721.46	10.687
721.78	14.343
722.10	12.351
722.42	16.129
722.73	22.008
723.05	21.633
723.37	20.588
723.68	13.600
724.00	11.064
724.32	15.900
724.63	17.695
724.95	16.239
725.27	25.316
725.58	18.107
725.90	16.318
726.22	17.754
726.53	12.157
726.85	20.073
727.16	20.000
727.48	19.540
727.80	17.969
728.11	16.803
728.43	19.922
728.74	15.873
729.06	14.400
729.38	17.391
729.69	18.505
730.01	15.613
730.32	15.498
730.64	15.152
730.96	20.280
731.27	15.050
731.59	18.730
731.90	18.447
732.22	17.628
732.53	16.554
732.85	12.752
733.16	16.172
733.48	18.919
733.80	17.568
734.11	19.595
734.43	19.505
734.74	24.324
735.06	19.308
735.37	21.884
735.69	18.447
736.00	15.182
736.32	16.667
736.63	21.379
736.95	21.575
737.26	16.897
737.58	20.139
737.89	17.869
738.21	16.726
738.52	18.251
738.83	17.959
739.15	20.675
739.46	16.342
739.78	19.718
740.09	20.548
740.41	13.571
740.72	18.085
741.04	14.400
741.35	12.719
741.66	16.889
741.98	12.500
742.29	18.812
742.61	20.976
742.92	20.614
743.23	13.208
743.55	14.865
743.86	12.556
744.18	15.196
744.49	13.198
744.80	16.837
745.12	18.224
745.43	16.114
745.74	13.514
746.06	18.224
746.37	13.303
746.68	13.462
747.00	16.746
747.31	18.269
747.62	22.936
747.94	21.397
748.25	12.844
748.56	17.333
748.88	17.371
749.19	18.095
749.50	11.165
749.82	15.962
750.13	11.250
750.44	18.846
750.75	15.498
751.07	20.641
751.38	17.376
751.69	19.305
752.01	16.797
752.32	16.923
752.63	18.284
752.94	17.200
753.26	17.155
753.57	15.833
753.88	17.814
754.19	20.319
754.51	16.541
754.82	15.385
755.13	13.478
755.44	19.919
755.75	13.200
756.07	15.129
756.38	16.187
756.69	17.406
757.00	19.626
757.31	17.476
757.63	20.679
757.94	24.294
758.25	20.106
758.56	17.663
758.87	23.512
759.18	20.189
759.50	17.845
759.81	18.395
760.12	18.462
760.43	15.774
760.74	18.362
761.05	18.785
761.36	19.484
761.67	19.637
761.99	18.213
762.30	14.964
762.61	18.107
762.92	17.521
763.23	18.852
763.54	21.212
763.85	16.735
764.16	13.008
764.47	15.600
764.78	18.214
765.10	20.984
765.41	19.149
765.72	17.702
766.03	19.802
766.34	20.385
766.65	20.921
766.96	16.901
767.27	15.347
767.58	10.112
767.89	14.198
768.20	15.470
768.51	21.608
768.82	23.077
769.13	23.894
769.44	18.410
769.75	13.248
770.06	12.108
770.37	14.706
770.68	20.874
770.99	15.049
771.30	21.429
771.61	18.776
771.92	18.672
772.23	20.270
772.54	11.050
772.85	11.628
773.16	22.222
773.47	12.426
773.78	15.517
774.09	23.125
774.39	22.360
774.70	12.245
775.01	8.966
775.32	14.286
775.63	15.038
775.94	6.767
776.25	5.600
776.56	3.306
776.87	11.905
777.18	9.910
777.48	14.414
777.79	7.087
778.10	7.339
778.41	7.018
778.72	6.723
779.03	2.817
779.34	16.216
779.65	16.901
779.95	18.543
780.26	13.669
780.57	9.353
780.88	13.380
781.19	12.605
781.50	10.738
781.80	14.620
782.11	11.628
782.42	23.899
782.73	17.647
783.04	9.655
783.34	9.160
783.65	11.409
783.96	13.846
784.27	17.857
784.57	12.057
784.88	-1.923
785.19	19.091
785.50	17.273
785.81	8.571
786.11	9.244
786.42	15.044
786.73	16.038
787.04	5.505
787.34	-3.960
787.65	8.333
787.96	16.529
788.26	16.667
788.57	11.905
788.88	14.634
789.19	11.200
789.49	9.160
789.80	23.485
790.11	10.377
790.41	24.752
790.72	14.894
791.03	9.783
791.33	-4.706
791.64	14.815
791.95	14.130
792.25	5.682
792.56	14.103
792.87	3.846
793.17	-1.282
793.48	11.905
793.79	7.500
794.09	24.038
794.40	8.333
794.70	12.613
795.01	15.625
795.32	13.043
795.62	1.087
795.93	7.547
796.23	19.192
796.54	12.195
796.85	8.333
797.15	1.515
797.46	5.797
797.76	11.842
798.07	7.955
798.37	-1.220
798.68	4.839
798.99	-5.405
799.29	13.253
799.60	-1.282
799.90	-7.692
800.21	3.030
800.51	16.000
800.82	-2.667
801.12	-39.583
801.43	-5.000
801.73	-8.108
802.04	8.571
802.34	0.000
802.65	-2.985
802.95	0.000
803.26	-1.724
803.56	13.846
803.87	11.321
804.17	-3.226
804.48	-4.412
804.78	-4.878
805.09	8.696
805.39	11.765
805.70	-14.894
806.00	0.000
806.30	17.949
806.61	14.474
806.91	6.757
807.22	0.000
807.52	12.500
807.83	-6.780
808.13	-10.606
808.43	-13.333
808.74	-10.345
809.04	-7.937
809.35	2.041
809.65	-6.667
809.95	-12.245
810.26	12.676
810.56	-6.250
810.86	-6.122
811.17	23.077
811.47	-10.638
811.77	-2.083
812.08	15.094
812.38	-3.125
812.69	3.636
812.99	-9.756
813.29	0.000
813.59	0.000
813.90	-10.909
814.20	7.273
814.50	-15.000
814.81	7.273
815.11	-15.789
815.41	34.884
815.72	0.000
816.02	-5.714
816.32	-32.432
816.62	10.417
816.93	-2.222
817.23	-11.111
817.53	-44.444
817.84	-29.730
818.14	-7.317
818.44	22.000
818.74	-6.122
819.04	0.000
819.35	2.778
819.65	4.545
819.95	-122.222
820.25	18.182
820.56	-40.476
820.86	-19.444
821.16	-25.000
821.46	-8.696
821.76	-5.172
822.07	17.391
822.37	0.000
822.67	14.634
822.97	5.405
823.27	-60.000
823.57	27.586
823.88	-38.235
824.18	19.444
824.48	14.286
824.78	-57.143
825.08	-17.857
825.38	-18.519
825.69	12.903
825.99	-14.634
826.29	3.704
826.59	0.000
826.89	0.000
827.19	-39.130
827.49	-22.222
827.79	-47.826
828.09	-58.065
828.39	4.167
828.70	-43.750
829.00	-13.793
829.30	2.703
829.60	-87.500
829.90	-33.333
830.20	9.375
830.50	-18.182
830.80	-129.412
831.10	-36.364
831.40	-47.059
831.70	-19.231
832.00	-30.303
832.30	-2.941
832.60	0.000
832.90	1300.000
833.20	-21.429
833.50	-100.000
833.80	-23.684
834.10	-33.333
834.40	-68.182
834.70	-66.667
835.00	-70.000
835.30	-33.333
835.60	-9.524
835.90	-4.762
836.20	-40.000
836.50	-29.167
836.80	-84.211
837.10	13.514
837.40	13.333
837.70	-26.087
838.00	-12.500
838.30	0.000
838.60	-180.000
838.90	-250.000
839.19	-133.333
839.49	-30.769
839.79	-73.684
840.09	-250.000
840.39	-180.000
840.69	-50.000
840.99	-28.571
841.29	-12.500
841.59	-61.538
841.88	-106.667
842.18	-128.571
842.48	6.667
842.78	-157.143
843.08	-50.000
843.38	-137.500
843.68	-50.000
843.97	42.857
844.27	-111.111
844.57	-118.182
844.87	-53.333
845.17	50.000
845.47	533.333
845.76	-40.000
846.06	-83.333
846.36	-1050.000
846.66	-105.263
846.96	-31.818
847.25	-66.667
847.55	-144.444
847.85	-33.333
848.15	-61.538
848.44	-333.333
848.74	-175.000
849.04	-84.615
849.34	-375.000
849.63	-136.364
849.93	-157.143
850.23	25.000
850.53	-237.500
850.82	-38.889
851.12	-60.000
851.42	-47.059
851.71	-225.000
852.01	-29.412
852.31	-53.846
852.61	800.000
852.90	-23.529
853.20	-6.667
853.50	6.250
853.79	-107.143
854.09	-100.000
854.39	-35.000
854.68	17.500
854.98	-23.810
855.28	-60.000
855.57	-4.167
855.87	-12.500
856.17	-32.000
856.46	-21.875
856.76	-20.000
857.05	-32.000
857.35	-133.333
857.65	-88.235
857.94	-141.667
858.24	-166.667
858.53	-10.000
858.83	-145.455
859.13	-24.000
859.42	-21.429
859.72	-175.000
860.01	12.500
860.31	-175.000
860.60	-50.000
860.90	-383.333
861.20	-166.667
861.49	-33.333
861.79	-56.250
862.08	400.000
862.38	-100.000
862.67	200.000
862.97	375.000
863.26	-154.545
863.56	-90.909
863.85	-5.263
864.15	0.000
864.44	-260.000
864.74	-90.000
865.03	-133.333
865.33	-71.429
865.62	178.571
865.92	-31.579
866.21	-50.000
866.51	-36.364
866.80	-133.333
867.10	-262.500
867.39	0.000
867.69	-73.333
867.98	-30.000
868.27	0.000
868.57	0.000
868.86	850.000
869.16	-300.000
869.45	-328.571
869.75	550.000
870.04	-120.000
870.33	-800.000
870.63	-42.105
870.92	-108.333
871.22	-1600.000
871.51	-142.857
871.80	-177.778
872.10	-425.000
>>>>>End Processed Spectral Data<<<<<
