SpectraSuite Data File
++++++++++++++++++++++++++++++++++++
Date: Tue May 12 17:01:10 PDT 2015
User: schluterlab
Dark Spectrum Present: Yes
Reference Spectrum Present: Yes
Number of Sampled Component Spectra: 1
Spectrometers: USB2E3373
Integration Time (usec): 3000 (USB2E3373)
Spectra Averaged: 3 (USB2E3373)
Boxcar Smoothing: 0 (USB2E3373)
Correct for Electrical Dark: No (USB2E3373)
Strobe/Lamp Enabled: No (USB2E3373)
Correct for Detector Non-linearity: No (USB2E3373)
Correct for Stray Light: No (USB2E3373)
Number of Pixels in Processed Spectrum: 2048
>>>>>Begin Processed Spectral Data<<<<<
178.53	0.000
178.91	-300.000
179.29	-1100.000
179.67	-3300.000
180.04	-140.000
180.42	675.000
180.80	1950.000
181.18	0.000
181.56	-362.500
181.94	0.000
182.31	1000.000
182.69	-3100.000
183.07	642.857
183.45	-3700.000
183.83	-1500.000
184.20	330.000
184.58	342.857
184.96	-230.769
185.34	-241.667
185.72	1750.000
186.09	-900.000
186.47	-3000.000
186.85	1033.333
187.23	580.000
187.61	1900.000
187.98	675.000
188.36	314.286
188.74	333.333
189.12	400.000
189.49	625.000
189.87	0.000
190.25	500.000
190.63	2100.000
191.00	-216.667
191.38	-3800.000
191.76	-875.000
192.14	512.500
192.51	-3000.000
192.89	2050.000
193.27	1200.000
193.65	-666.667
194.02	-780.000
194.40	528.571
194.78	-185.714
195.15	280.000
195.53	-3200.000
195.91	-580.000
196.29	3700.000
196.66	287.500
197.04	675.000
197.42	-1250.000
197.79	625.000
198.17	275.000
198.55	0.000
198.92	471.429
199.30	1100.000
199.68	1800.000
200.05	633.333
200.43	-550.000
200.81	216.667
201.18	3500.000
201.56	250.000
201.94	-725.000
202.31	-287.500
202.69	-580.000
203.07	3100.000
203.44	-516.667
203.82	341.667
204.19	700.000
204.57	-1850.000
204.95	-400.000
205.32	-700.000
205.70	600.000
206.08	650.000
206.45	-866.667
206.83	333.333
207.20	231.579
207.58	300.000
207.96	720.000
208.33	0.000
208.71	571.429
209.08	900.000
209.46	-3800.000
209.84	-725.000
210.21	1000.000
210.59	-480.000
210.96	316.667
211.34	-900.000
211.71	436.364
212.09	1025.000
212.46	1600.000
212.84	-350.000
213.22	544.444
213.59	-4000.000
213.97	370.000
214.34	1100.000
214.72	1066.667
215.09	1100.000
215.47	-3400.000
215.84	-340.000
216.22	-400.000
216.59	0.000
216.97	0.000
217.34	1150.000
217.72	-1000.000
218.09	1333.333
218.47	437.500
218.84	850.000
219.22	1366.667
219.59	1333.333
219.97	471.429
220.34	466.667
220.72	1550.000
221.09	3900.000
221.47	225.000
221.84	1200.000
222.22	380.000
222.59	255.556
222.97	228.571
223.34	231.250
223.72	-2150.000
224.09	1233.333
224.46	338.462
224.84	-850.000
225.21	333.333
225.59	320.000
225.96	1200.000
226.34	-560.000
226.71	-775.000
227.08	-580.000
227.46	0.000
227.83	-633.333
228.21	-1450.000
228.58	375.000
228.95	825.000
229.33	400.000
229.70	1200.000
230.08	376.923
230.45	3300.000
230.82	-975.000
231.20	-900.000
231.57	-1333.333
231.95	560.000
232.32	266.667
232.69	600.000
233.07	291.667
233.44	-1750.000
233.81	266.667
234.19	192.593
234.56	287.500
234.93	205.882
235.31	185.000
235.68	331.250
236.05	196.429
236.43	155.556
236.80	278.571
237.17	186.207
237.55	134.375
237.92	177.500
238.29	169.697
238.67	171.875
239.04	131.707
239.41	91.667
239.79	122.500
240.16	100.000
240.53	90.164
240.91	81.159
241.28	94.915
241.65	72.727
242.02	90.141
242.40	100.000
242.77	71.429
243.14	74.684
243.51	75.758
243.89	79.439
244.26	59.813
244.63	90.099
245.00	80.734
245.38	60.169
245.75	63.636
246.12	74.074
246.49	61.702
246.87	64.754
247.24	58.000
247.61	59.375
247.98	68.027
248.36	63.030
248.73	59.694
249.10	59.524
249.47	56.000
249.84	54.726
250.22	66.486
250.59	59.500
250.96	54.852
251.33	54.884
251.70	54.018
252.08	57.563
252.45	50.199
252.82	52.852
253.19	55.336
253.56	48.462
253.94	50.000
254.31	50.388
254.68	53.310
255.05	52.759
255.42	51.825
255.79	52.117
256.16	54.237
256.54	52.922
256.91	53.922
257.28	53.177
257.65	47.649
258.02	50.737
258.39	49.284
258.76	51.304
259.14	48.286
259.51	51.603
259.88	52.280
260.25	47.802
260.62	50.411
260.99	46.006
261.36	47.911
261.73	46.277
262.10	51.309
262.47	51.750
262.85	49.600
263.22	51.671
263.59	47.570
263.96	48.120
264.33	44.691
264.70	49.877
265.07	48.780
265.44	50.459
265.81	48.113
266.18	51.259
266.55	51.300
266.92	46.980
267.29	46.711
267.66	48.655
268.03	48.206
268.40	44.186
268.77	50.000
269.14	45.553
269.51	48.998
269.88	46.122
270.25	44.492
270.62	49.785
270.99	49.087
271.36	47.561
271.73	50.314
272.10	46.263
272.47	45.040
272.84	43.114
273.21	48.140
273.58	48.381
273.95	45.585
274.32	46.109
274.69	46.850
275.06	46.630
275.43	44.444
275.80	44.151
276.17	44.669
276.54	43.551
276.91	48.881
277.28	44.708
277.65	44.096
278.02	45.588
278.39	45.504
278.76	46.207
279.13	43.238
279.50	46.000
279.87	44.693
280.23	44.567
280.60	45.985
280.97	46.207
281.34	43.069
281.71	43.652
282.08	43.932
282.45	45.777
282.82	45.151
283.19	43.402
283.56	42.810
283.92	42.997
284.29	44.925
284.66	43.193
285.03	44.776
285.40	44.132
285.77	40.895
286.14	43.189
286.51	42.331
286.87	40.665
287.24	39.039
287.61	41.641
287.98	41.343
288.35	38.815
288.72	38.998
289.08	39.940
289.45	39.634
289.82	42.031
290.19	40.996
290.56	38.137
290.93	39.281
291.29	38.674
291.66	37.994
292.03	38.710
292.40	37.398
292.77	37.326
293.13	37.233
293.50	36.842
293.87	34.011
294.24	36.783
294.60	37.416
294.97	36.084
295.34	35.193
295.71	35.742
296.08	35.600
296.44	34.816
296.81	33.499
297.18	33.207
297.55	33.621
297.91	33.498
298.28	33.816
298.65	33.129
299.02	32.328
299.38	34.293
299.75	32.317
300.12	33.486
300.48	33.958
300.85	33.611
301.22	32.558
301.59	31.958
301.95	31.389
302.32	31.548
302.69	32.919
303.05	34.119
303.42	31.166
303.79	31.203
304.15	32.123
304.52	30.444
304.89	31.237
305.25	31.591
305.62	30.597
305.99	29.457
306.35	30.737
306.72	29.969
307.09	29.917
307.45	30.306
307.82	29.321
308.19	29.588
308.55	29.700
308.92	31.207
309.29	30.769
309.65	30.228
310.02	30.223
310.38	29.212
310.75	29.315
311.12	28.736
311.48	30.888
311.85	29.771
312.22	28.844
312.58	29.446
312.95	28.155
313.31	30.243
313.68	28.612
314.05	29.304
314.41	28.305
314.78	29.924
315.14	29.100
315.51	29.801
315.87	28.376
316.24	28.758
316.61	28.469
316.97	27.339
317.34	28.392
317.70	29.587
318.07	30.427
318.43	28.471
318.80	28.722
319.16	27.010
319.53	28.053
319.89	27.867
320.26	29.888
320.62	28.938
320.99	28.122
321.35	28.479
321.72	28.368
322.08	28.994
322.45	29.609
322.81	28.271
323.18	28.064
323.54	27.875
323.91	28.649
324.27	28.117
324.64	29.498
325.00	28.793
325.37	29.089
325.73	27.993
326.10	28.335
326.46	28.406
326.83	27.600
327.19	28.996
327.56	28.115
327.92	27.787
328.29	28.969
328.65	27.997
329.01	27.887
329.38	27.327
329.74	27.583
330.11	28.410
330.47	28.645
330.84	26.488
331.20	27.073
331.56	28.756
331.93	27.203
332.29	26.786
332.66	29.677
333.02	26.460
333.38	27.487
333.75	28.357
334.11	26.510
334.48	28.120
334.84	27.449
335.20	27.203
335.57	25.861
335.93	26.829
336.29	26.202
336.66	28.388
337.02	25.834
337.38	27.429
337.75	26.520
338.11	27.426
338.47	26.757
338.84	26.757
339.20	25.108
339.56	26.409
339.93	26.087
340.29	25.210
340.65	26.069
341.02	26.870
341.38	26.437
341.74	26.412
342.11	26.628
342.47	24.610
342.83	27.153
343.20	26.677
343.56	25.258
343.92	26.342
344.28	25.837
344.65	25.591
345.01	26.111
345.37	25.481
345.73	25.952
346.10	24.940
346.46	25.997
346.82	24.846
347.19	25.966
347.55	24.746
347.91	25.378
348.27	24.710
348.63	25.158
349.00	25.438
349.36	25.603
349.72	25.612
350.08	26.165
350.45	25.819
350.81	25.535
351.17	23.729
351.53	25.404
351.89	24.320
352.26	25.397
352.62	25.038
352.98	25.153
353.34	25.809
353.70	23.318
354.07	24.846
354.43	24.194
354.79	25.209
355.15	24.885
355.51	24.396
355.87	25.678
356.24	25.404
356.60	24.125
356.96	24.337
357.32	24.190
357.68	25.257
358.04	24.088
358.40	23.688
358.77	24.643
359.13	24.324
359.49	23.721
359.85	25.093
360.21	24.591
360.57	25.036
360.93	24.026
361.29	24.170
361.66	24.981
362.02	23.864
362.38	23.160
362.74	24.699
363.10	24.755
363.46	22.652
363.82	23.492
364.18	24.964
364.54	24.106
364.90	23.628
365.26	24.705
365.62	23.550
365.98	23.744
366.35	23.310
366.71	24.289
367.07	22.662
367.43	23.506
367.79	23.604
368.15	23.406
368.51	24.121
368.87	23.302
369.23	23.423
369.59	23.331
369.95	23.776
370.31	23.477
370.67	23.803
371.03	24.580
371.39	23.407
371.75	23.447
372.11	24.677
372.47	22.945
372.83	24.133
373.19	24.674
373.55	23.711
373.91	22.583
374.27	22.487
374.63	23.254
374.99	23.383
375.35	23.454
375.71	22.955
376.07	22.878
376.42	23.146
376.78	22.351
377.14	23.460
377.50	23.221
377.86	22.550
378.22	22.974
378.58	24.213
378.94	22.269
379.30	22.741
379.66	23.480
380.02	24.399
380.38	23.244
380.74	24.279
381.09	23.598
381.45	22.428
381.81	22.577
382.17	22.650
382.53	22.795
382.89	23.418
383.25	22.972
383.61	22.882
383.97	22.316
384.32	22.604
384.68	23.292
385.04	23.623
385.40	22.539
385.76	22.937
386.12	23.067
386.48	22.979
386.83	24.022
387.19	23.204
387.55	22.438
387.91	23.326
388.27	22.963
388.62	23.533
388.98	22.332
389.34	22.011
389.70	22.406
390.06	22.622
390.42	22.640
390.77	23.096
391.13	23.174
391.49	21.839
391.85	23.569
392.20	23.123
392.56	23.297
392.92	22.347
393.28	21.973
393.64	21.388
393.99	21.814
394.35	22.366
394.71	22.256
395.07	21.959
395.42	23.009
395.78	23.381
396.14	23.133
396.50	23.285
396.85	22.561
397.21	22.323
397.57	23.013
397.92	21.722
398.28	21.732
398.64	22.978
399.00	21.753
399.35	22.115
399.71	22.020
400.07	23.345
400.42	22.627
400.78	22.405
401.14	22.255
401.49	22.869
401.85	22.248
402.21	22.613
402.57	22.621
402.92	22.909
403.28	21.659
403.63	22.366
403.99	22.557
404.35	22.685
404.70	22.623
405.06	21.673
405.42	21.843
405.77	21.830
406.13	22.397
406.49	22.456
406.84	21.827
407.20	22.888
407.55	22.831
407.91	23.676
408.27	23.226
408.62	22.413
408.98	21.821
409.34	21.859
409.69	21.655
410.05	21.825
410.40	21.790
410.76	21.122
411.11	22.393
411.47	21.790
411.83	21.617
412.18	21.739
412.54	23.183
412.89	21.652
413.25	23.261
413.60	22.138
413.96	22.142
414.31	22.314
414.67	22.284
415.03	21.903
415.38	22.524
415.74	21.226
416.09	22.236
416.45	23.400
416.80	22.899
417.16	22.151
417.51	22.994
417.87	22.153
418.22	22.296
418.58	22.866
418.93	22.189
419.29	21.380
419.64	22.350
420.00	22.136
420.35	22.242
420.71	22.054
421.06	21.189
421.42	21.474
421.77	22.154
422.12	22.492
422.48	22.188
422.83	22.600
423.19	21.220
423.54	22.052
423.90	22.140
424.25	22.455
424.61	21.474
424.96	21.287
425.31	21.730
425.67	21.493
426.02	21.481
426.38	22.054
426.73	21.400
427.09	22.776
427.44	21.835
427.79	21.898
428.15	22.157
428.50	22.286
428.85	22.751
429.21	22.042
429.56	21.635
429.92	21.581
430.27	21.093
430.62	21.194
430.98	21.707
431.33	21.321
431.68	20.099
432.04	22.038
432.39	21.954
432.74	22.307
433.10	21.927
433.45	21.539
433.80	22.449
434.16	21.440
434.51	22.136
434.86	22.319
435.22	21.286
435.57	21.636
435.92	21.514
436.28	22.293
436.63	22.366
436.98	22.297
437.34	22.489
437.69	21.221
438.04	21.935
438.39	21.658
438.75	21.938
439.10	22.720
439.45	21.877
439.81	22.325
440.16	22.179
440.51	21.678
440.86	22.621
441.22	20.779
441.57	21.785
441.92	20.829
442.27	20.928
442.63	22.104
442.98	21.121
443.33	21.532
443.68	21.227
444.03	21.583
444.39	21.422
444.74	22.774
445.09	21.854
445.44	21.520
445.79	21.004
446.15	22.105
446.50	21.835
446.85	21.464
447.20	20.896
447.55	21.533
447.91	22.003
448.26	21.725
448.61	22.554
448.96	22.168
449.31	21.617
449.66	22.370
450.02	21.286
450.37	21.544
450.72	21.377
451.07	22.513
451.42	21.517
451.77	22.451
452.12	21.894
452.47	22.722
452.83	21.972
453.18	21.682
453.53	21.670
453.88	21.829
454.23	22.255
454.58	20.513
454.93	22.072
455.28	22.215
455.63	21.690
455.98	21.151
456.34	22.492
456.69	21.707
457.04	21.778
457.39	20.286
457.74	22.241
458.09	21.449
458.44	22.563
458.79	21.963
459.14	21.877
459.49	22.254
459.84	21.685
460.19	22.373
460.54	21.766
460.89	21.162
461.24	21.420
461.59	21.939
461.94	21.631
462.29	22.140
462.64	21.859
462.99	22.969
463.34	22.424
463.69	22.505
464.04	21.762
464.39	21.065
464.74	21.219
465.09	21.706
465.44	21.980
465.79	21.285
466.14	21.304
466.49	21.704
466.84	21.795
467.19	22.027
467.54	21.562
467.89	21.479
468.24	20.614
468.59	21.488
468.94	21.920
469.29	22.053
469.64	22.444
469.99	22.558
470.34	21.252
470.68	20.552
471.03	21.614
471.38	21.391
471.73	21.293
472.08	22.831
472.43	21.539
472.78	22.279
473.13	21.151
473.48	21.577
473.83	21.260
474.17	21.884
474.52	21.268
474.87	21.546
475.22	21.188
475.57	20.567
475.92	21.513
476.27	20.022
476.61	21.233
476.96	21.317
477.31	21.285
477.66	20.827
478.01	21.351
478.36	21.421
478.70	20.645
479.05	21.339
479.40	21.429
479.75	21.202
480.10	21.346
480.45	20.962
480.79	20.922
481.14	21.255
481.49	20.677
481.84	21.196
482.19	20.742
482.53	21.607
482.88	20.565
483.23	20.162
483.58	20.691
483.92	21.389
484.27	21.190
484.62	20.883
484.97	19.984
485.31	20.684
485.66	20.348
486.01	20.517
486.36	20.242
486.70	20.105
487.05	20.041
487.40	20.038
487.75	19.917
488.09	19.858
488.44	20.363
488.79	20.653
489.13	20.455
489.48	20.855
489.83	21.101
490.17	20.355
490.52	20.327
490.87	20.517
491.22	20.878
491.56	21.168
491.91	19.892
492.26	20.713
492.60	20.547
492.95	20.163
493.30	21.201
493.64	19.901
493.99	20.572
494.34	20.619
494.68	20.983
495.03	20.880
495.37	20.891
495.72	20.606
496.07	20.800
496.41	20.808
496.76	20.599
497.11	21.080
497.45	20.035
497.80	20.621
498.14	21.267
498.49	21.448
498.84	20.794
499.18	20.338
499.53	20.900
499.87	20.530
500.22	20.175
500.56	20.613
500.91	20.872
501.26	20.487
501.60	21.084
501.95	20.206
502.29	20.489
502.64	20.071
502.98	20.231
503.33	20.401
503.67	19.868
504.02	19.749
504.36	20.588
504.71	20.814
505.06	20.460
505.40	20.356
505.75	20.253
506.09	20.905
506.44	20.254
506.78	20.510
507.13	20.698
507.47	20.378
507.82	21.168
508.16	20.578
508.51	20.870
508.85	20.703
509.19	20.901
509.54	20.459
509.88	21.283
510.23	20.637
510.57	18.919
510.92	20.430
511.26	20.683
511.61	20.827
511.95	20.657
512.30	20.500
512.64	20.249
512.98	20.554
513.33	20.236
513.67	21.181
514.02	20.468
514.36	20.717
514.70	20.747
515.05	20.511
515.39	20.395
515.74	20.940
516.08	20.425
516.42	21.093
516.77	20.267
517.11	20.107
517.46	20.259
517.80	19.934
518.14	20.225
518.49	20.838
518.83	19.286
519.17	20.632
519.52	20.590
519.86	20.763
520.20	20.712
520.55	20.859
520.89	20.402
521.23	21.612
521.58	20.195
521.92	20.292
522.26	19.727
522.61	20.796
522.95	21.381
523.29	20.351
523.64	19.884
523.98	21.185
524.32	20.473
524.66	19.420
525.01	20.000
525.35	20.448
525.69	20.470
526.04	21.178
526.38	20.424
526.72	20.644
527.06	20.284
527.41	21.886
527.75	20.329
528.09	19.988
528.43	20.500
528.78	20.155
529.12	20.710
529.46	20.807
529.80	19.743
530.15	21.744
530.49	20.457
530.83	19.866
531.17	20.418
531.51	20.846
531.86	20.350
532.20	19.407
532.54	20.402
532.88	21.049
533.22	20.293
533.57	21.232
533.91	19.988
534.25	19.792
534.59	20.877
534.93	20.307
535.27	19.408
535.62	20.537
535.96	19.976
536.30	20.902
536.64	19.752
536.98	20.138
537.32	20.375
537.66	20.727
538.01	21.115
538.35	21.085
538.69	20.570
539.03	20.336
539.37	19.842
539.71	20.185
540.05	20.369
540.39	20.755
540.73	20.506
541.07	20.389
541.42	20.274
541.76	21.208
542.10	20.592
542.44	20.636
542.78	19.824
543.12	19.202
543.46	19.862
543.80	20.175
544.14	20.681
544.48	20.925
544.82	20.856
545.16	19.611
545.50	19.975
545.84	20.833
546.18	20.871
546.52	20.066
546.86	21.148
547.20	19.897
547.54	20.393
547.88	20.377
548.22	20.036
548.56	20.566
548.90	20.166
549.24	21.226
549.58	20.039
549.92	20.891
550.26	20.419
550.60	20.359
550.94	20.488
551.28	20.897
551.62	20.207
551.96	20.878
552.30	20.501
552.64	21.165
552.98	19.652
553.32	20.294
553.66	20.000
554.00	20.206
554.34	20.373
554.68	20.901
555.02	20.706
555.36	21.011
555.69	21.008
556.03	21.465
556.37	20.204
556.71	21.056
557.05	20.511
557.39	19.933
557.73	20.081
558.07	20.456
558.41	21.316
558.75	20.862
559.08	21.301
559.42	21.331
559.76	19.743
560.10	19.615
560.44	20.239
560.78	21.292
561.12	21.043
561.45	20.275
561.79	20.724
562.13	19.520
562.47	20.117
562.81	20.364
563.15	20.685
563.48	19.068
563.82	21.647
564.16	20.771
564.50	20.434
564.84	20.851
565.17	20.737
565.51	20.628
565.85	20.975
566.19	20.952
566.52	19.976
566.86	20.490
567.20	20.899
567.54	20.633
567.88	19.979
568.21	19.870
568.55	20.039
568.89	20.529
569.23	20.104
569.56	19.968
569.90	19.224
570.24	20.341
570.57	20.701
570.91	19.782
571.25	19.365
571.59	19.233
571.92	20.048
572.26	19.380
572.60	19.800
572.93	20.012
573.27	19.299
573.61	19.762
573.95	19.995
574.28	19.365
574.62	19.818
574.96	19.417
575.29	19.063
575.63	19.199
575.97	18.720
576.30	18.856
576.64	19.095
576.98	19.201
577.31	19.843
577.65	19.617
577.98	19.280
578.32	19.054
578.66	19.090
578.99	19.236
579.33	19.441
579.67	18.740
580.00	18.918
580.34	19.334
580.67	19.463
581.01	19.399
581.35	19.280
581.68	19.168
582.02	19.473
582.35	19.441
582.69	19.328
583.02	19.603
583.36	18.794
583.70	19.484
584.03	19.935
584.37	19.485
584.70	19.458
585.04	19.296
585.37	19.229
585.71	19.798
586.04	19.896
586.38	19.536
586.72	19.794
587.05	19.403
587.39	19.595
587.72	19.639
588.06	19.990
588.39	19.422
588.73	19.341
589.06	19.025
589.40	19.468
589.73	18.977
590.07	20.007
590.40	19.965
590.73	20.455
591.07	20.152
591.40	19.681
591.74	20.211
592.07	20.133
592.41	20.024
592.74	19.480
593.08	19.564
593.41	19.539
593.75	18.887
594.08	19.864
594.41	19.713
594.75	19.795
595.08	19.650
595.42	19.289
595.75	19.316
596.09	19.812
596.42	19.738
596.75	20.353
597.09	19.604
597.42	20.000
597.75	19.310
598.09	20.107
598.42	19.788
598.76	19.198
599.09	19.492
599.42	19.446
599.76	19.844
600.09	19.254
600.42	19.406
600.76	19.443
601.09	19.641
601.42	19.430
601.76	19.692
602.09	20.162
602.42	19.076
602.76	20.152
603.09	20.023
603.42	20.147
603.76	19.487
604.09	19.616
604.42	20.038
604.76	20.071
605.09	20.000
605.42	19.504
605.75	19.660
606.09	19.931
606.42	18.978
606.75	19.471
607.09	19.660
607.42	20.530
607.75	19.268
608.08	19.659
608.42	20.134
608.75	19.384
609.08	19.094
609.41	19.545
609.75	20.055
610.08	19.739
610.41	19.719
610.74	20.043
611.07	19.782
611.41	19.741
611.74	19.742
612.07	19.605
612.40	19.639
612.73	20.569
613.07	20.781
613.40	20.301
613.73	20.320
614.06	19.500
614.39	20.354
614.72	19.689
615.06	19.832
615.39	19.604
615.72	19.990
616.05	20.392
616.38	19.736
616.71	19.696
617.05	19.934
617.38	19.607
617.71	19.966
618.04	19.966
618.37	19.622
618.70	20.266
619.03	20.330
619.36	20.289
619.69	19.393
620.03	21.070
620.36	20.809
620.69	21.392
621.02	20.245
621.35	19.842
621.68	19.690
622.01	21.107
622.34	19.009
622.67	20.084
623.00	20.899
623.33	19.568
623.66	20.226
623.99	20.000
624.32	20.664
624.65	20.013
624.99	20.757
625.32	20.842
625.65	19.793
625.98	18.898
626.31	20.178
626.64	19.590
626.97	19.434
627.30	20.497
627.63	20.644
627.96	19.014
628.29	20.957
628.62	19.932
628.95	20.833
629.28	21.735
629.61	19.947
629.94	21.003
630.26	20.797
630.59	20.922
630.92	20.000
631.25	20.399
631.58	21.986
631.91	21.123
632.24	19.922
632.57	20.727
632.90	20.807
633.23	21.511
633.56	19.600
633.89	20.900
634.22	21.744
634.55	20.645
634.88	21.577
635.20	20.067
635.53	21.370
635.86	21.700
636.19	20.651
636.52	20.541
636.85	19.202
637.18	21.885
637.51	20.782
637.83	20.366
638.16	21.336
638.49	21.916
638.82	22.535
639.15	20.447
639.48	22.156
639.81	21.612
640.13	20.736
640.46	21.997
640.79	20.676
641.12	20.735
641.45	21.604
641.77	21.136
642.10	22.892
642.43	21.337
642.76	19.460
643.09	21.037
643.41	21.879
643.74	22.590
644.07	20.944
644.40	18.935
644.73	23.874
645.05	22.734
645.38	21.899
645.71	21.851
646.04	21.374
646.36	22.379
646.69	22.080
647.02	22.560
647.35	20.315
647.67	22.204
648.00	22.150
648.33	21.654
648.66	22.424
648.98	21.304
649.31	22.132
649.64	20.055
649.96	21.195
650.29	21.571
650.62	22.239
650.94	23.343
651.27	21.531
651.60	22.222
651.92	21.659
652.25	21.890
652.58	22.270
652.90	21.856
653.23	20.236
653.56	23.591
653.88	20.705
654.21	22.287
654.54	21.816
654.86	22.714
655.19	23.351
655.52	19.421
655.84	17.231
656.17	20.861
656.49	30.185
656.82	35.008
657.15	28.082
657.47	20.614
657.80	15.074
658.13	11.782
658.45	15.851
658.78	19.636
659.10	19.256
659.43	19.912
659.75	20.421
660.08	20.551
660.41	21.234
660.73	23.212
661.06	21.321
661.38	23.680
661.71	23.921
662.03	24.144
662.36	20.952
662.68	21.043
663.01	23.604
663.33	23.019
663.66	22.091
663.98	24.008
664.31	24.067
664.63	23.946
664.96	22.889
665.28	22.599
665.61	20.377
665.93	22.830
666.26	23.925
666.58	26.239
666.91	22.394
667.23	22.892
667.56	21.766
667.88	26.556
668.21	22.336
668.53	22.782
668.86	23.647
669.18	21.792
669.50	22.521
669.83	22.998
670.15	25.572
670.48	21.875
670.80	23.904
671.13	22.112
671.45	24.449
671.77	25.974
672.10	24.237
672.42	23.684
672.75	24.525
673.07	20.668
673.39	21.406
673.72	20.069
674.04	23.835
674.37	24.138
674.69	21.004
675.01	22.015
675.34	21.124
675.66	25.977
675.98	23.866
676.31	22.000
676.63	22.266
676.95	22.421
677.28	24.138
677.60	22.334
677.92	22.619
678.25	22.674
678.57	22.346
678.89	24.774
679.22	22.978
679.54	23.488
679.86	23.386
680.18	23.199
680.51	21.559
680.83	20.777
681.15	22.877
681.48	22.917
681.80	22.242
682.12	22.491
682.44	24.144
682.77	23.310
683.09	21.359
683.41	22.449
683.73	22.835
684.06	22.619
684.38	24.031
684.70	23.561
685.02	20.139
685.34	22.359
685.67	23.312
685.99	21.182
686.31	20.955
686.63	22.602
686.96	23.203
687.28	23.154
687.60	23.379
687.92	21.943
688.24	22.241
688.56	22.954
688.89	17.591
689.21	23.507
689.53	24.704
689.85	21.748
690.17	22.330
690.49	25.202
690.82	22.479
691.14	26.465
691.46	24.230
691.78	24.951
692.10	22.137
692.42	20.690
692.74	21.124
693.06	24.225
693.39	22.727
693.71	23.576
694.03	25.641
694.35	24.699
694.67	24.644
694.99	22.616
695.31	26.126
695.63	23.303
695.95	21.267
696.27	29.646
696.59	26.492
696.91	23.038
697.23	22.398
697.56	22.199
697.88	21.357
698.20	25.094
698.52	22.374
698.84	23.203
699.16	23.241
699.48	24.576
699.80	23.747
700.12	27.021
700.44	25.935
700.76	25.776
701.08	27.154
701.40	22.857
701.72	31.551
702.04	26.287
702.36	27.419
702.68	27.660
703.00	25.313
703.32	26.551
703.64	25.693
703.96	23.958
704.28	24.603
704.60	26.761
704.91	26.331
705.23	25.852
705.55	27.596
705.87	26.032
706.19	29.781
706.51	29.467
706.83	23.304
707.15	25.668
707.47	25.182
707.79	27.126
708.11	25.850
708.43	24.494
708.74	22.624
709.06	26.744
709.38	23.573
709.70	28.610
710.02	24.457
710.34	24.033
710.66	26.389
710.98	28.415
711.29	26.462
711.61	24.791
711.93	25.836
712.25	23.795
712.57	28.617
712.89	26.970
713.20	25.879
713.52	27.414
713.84	25.982
714.16	23.188
714.48	22.190
714.80	26.558
715.11	26.330
715.43	24.860
715.75	26.761
716.07	25.434
716.39	25.429
716.70	22.430
717.02	27.273
717.34	29.856
717.66	28.819
717.97	33.333
718.29	29.225
718.61	29.054
718.93	29.066
719.24	29.866
719.56	30.000
719.88	25.478
720.20	30.645
720.51	25.490
720.83	26.087
721.15	28.912
721.46	26.712
721.78	26.829
722.10	27.083
722.42	31.104
722.73	26.354
723.05	29.123
723.37	29.329
723.68	24.609
724.00	29.167
724.32	30.418
724.63	27.692
724.95	28.627
725.27	28.625
725.58	27.941
725.90	25.352
726.22	28.425
726.53	28.094
726.85	31.922
727.16	28.188
727.48	28.239
727.80	28.417
728.11	29.286
728.43	29.348
728.74	29.720
729.06	26.882
729.38	25.614
729.69	31.667
730.01	29.605
730.32	28.859
730.64	27.907
730.96	26.727
731.27	27.523
731.59	25.287
731.90	24.234
732.22	25.714
732.53	25.356
732.85	31.287
733.16	26.807
733.48	27.900
733.80	29.565
734.11	28.528
734.43	27.485
734.74	26.005
735.06	26.720
735.37	25.773
735.69	25.507
736.00	27.523
736.32	25.455
736.63	25.868
736.95	27.640
737.26	28.354
737.58	28.528
737.89	26.807
738.21	29.139
738.52	30.769
738.83	32.234
739.15	28.571
739.46	28.276
739.78	27.211
740.09	30.321
740.41	32.209
740.72	31.111
741.04	31.119
741.35	28.125
741.66	27.668
741.98	27.468
742.29	30.556
742.61	29.204
742.92	24.576
743.23	30.800
743.55	29.057
743.86	33.725
744.18	30.508
744.49	28.512
744.80	36.866
745.12	33.036
745.43	29.907
745.74	28.000
746.06	27.632
746.37	32.093
746.68	35.398
747.00	30.493
747.31	31.513
747.62	29.098
747.94	30.472
748.25	29.183
748.56	33.475
748.88	30.804
749.19	29.302
749.50	27.397
749.82	30.453
750.13	30.040
750.44	25.333
750.75	28.859
751.07	28.618
751.38	30.033
751.69	27.946
752.01	29.720
752.32	26.578
752.63	31.544
752.94	31.818
753.26	30.469
753.57	27.237
753.88	25.468
754.19	28.881
754.51	29.900
754.82	27.181
755.13	30.405
755.44	33.704
755.75	31.271
756.07	29.110
756.38	26.144
756.69	27.188
757.00	29.970
757.31	29.577
757.63	27.548
757.94	25.266
758.25	25.121
758.56	25.629
758.87	28.822
759.18	27.326
759.50	25.228
759.81	27.300
760.12	28.090
760.43	24.090
760.74	28.608
761.05	27.586
761.36	24.740
761.67	27.224
761.99	28.169
762.30	27.974
762.61	30.208
762.92	28.409
763.23	26.038
763.54	28.462
763.85	25.681
764.16	33.333
764.47	30.743
764.78	28.013
765.10	28.354
765.41	27.273
765.72	25.138
766.03	25.982
766.34	28.920
766.65	30.798
766.96	32.389
767.27	35.514
767.58	33.168
767.89	34.254
768.20	34.146
768.51	28.571
768.82	29.386
769.13	27.451
769.44	31.203
769.75	26.966
770.06	30.252
770.37	31.140
770.68	29.333
770.99	32.627
771.30	30.126
771.61	32.308
771.92	30.534
772.23	27.419
772.54	34.667
772.85	32.673
773.16	34.239
773.47	38.889
773.78	35.149
774.09	34.659
774.39	39.394
774.70	30.000
775.01	33.553
775.32	32.919
775.63	40.411
775.94	44.444
776.25	37.241
776.56	38.168
776.87	43.511
777.18	38.636
777.48	43.307
777.79	47.692
778.10	39.394
778.41	44.030
778.72	39.850
779.03	40.385
779.34	40.541
779.65	36.646
779.95	37.888
780.26	33.929
780.57	47.619
780.88	41.135
781.19	50.000
781.50	38.462
781.80	37.705
782.11	35.979
782.42	35.057
782.73	37.288
783.04	35.484
783.34	32.558
783.65	31.973
783.96	43.871
784.27	37.086
784.57	37.500
784.88	39.130
785.19	40.833
785.50	43.103
785.81	49.612
786.11	40.000
786.42	39.370
786.73	40.541
787.04	44.340
787.34	34.959
787.65	53.788
787.96	38.636
788.26	48.031
788.57	51.095
788.88	36.620
789.19	50.382
789.49	44.595
789.80	43.750
790.11	47.934
790.41	42.593
790.72	45.370
791.03	53.846
791.33	53.535
791.64	55.789
791.95	40.000
792.25	41.667
792.56	50.000
792.87	54.878
793.17	48.864
793.48	61.176
793.79	62.069
794.09	54.545
794.40	49.138
794.70	42.857
795.01	45.385
795.32	41.221
795.62	36.752
795.93	50.420
796.23	45.528
796.54	59.184
796.85	51.136
797.15	64.935
797.46	64.634
797.76	65.000
798.07	69.333
798.37	58.750
798.68	62.500
798.99	68.293
799.29	53.333
799.60	33.721
799.90	60.526
800.21	62.121
800.51	67.606
800.82	68.966
801.12	75.385
801.43	80.000
801.73	58.621
802.04	70.130
802.34	65.753
802.65	78.431
802.95	56.522
803.26	80.645
803.56	75.000
803.87	74.627
804.17	61.905
804.48	60.377
804.78	72.222
805.09	65.152
805.39	63.492
805.70	71.930
806.00	55.714
806.30	62.500
806.61	55.294
806.91	46.667
807.22	53.261
807.52	67.105
807.83	76.316
808.13	78.261
808.43	77.419
808.74	60.274
809.04	89.286
809.35	58.824
809.65	57.576
809.95	100.000
810.26	98.148
810.56	79.688
810.86	85.714
811.17	77.193
811.47	58.696
811.77	68.966
812.08	60.345
812.38	90.476
812.69	100.000
812.99	60.000
813.29	105.714
813.59	125.806
813.90	58.621
814.20	88.525
814.50	68.000
814.81	82.456
815.11	87.037
815.41	92.857
815.72	91.071
816.02	72.000
816.32	97.561
816.62	87.931
816.93	154.545
817.23	117.073
817.53	101.786
817.84	84.444
818.14	90.476
818.44	87.500
818.74	105.660
819.04	79.487
819.35	130.303
819.65	115.385
819.95	101.852
820.25	102.128
820.56	105.405
820.86	107.895
821.16	76.596
821.46	97.368
821.76	90.909
822.07	59.524
822.37	105.263
822.67	90.698
822.97	81.579
823.27	104.348
823.57	103.125
823.88	102.564
824.18	118.182
824.48	178.261
824.78	119.444
825.08	147.826
825.38	134.483
825.69	114.706
825.99	76.596
826.29	72.222
826.59	120.000
826.89	133.333
827.19	100.000
827.49	112.903
827.79	126.923
828.09	92.857
828.39	97.222
828.70	113.514
829.00	157.143
829.30	193.750
829.60	100.000
829.90	122.581
830.20	106.061
830.50	129.730
830.80	120.833
831.10	184.615
831.40	161.905
831.70	154.167
832.00	146.667
832.30	169.565
832.60	141.667
832.90	115.152
833.20	205.000
833.50	115.789
833.80	105.882
834.10	81.579
834.40	205.263
834.70	123.333
835.00	168.000
835.30	108.108
835.60	109.375
835.90	113.514
836.20	176.923
836.50	122.727
836.80	114.634
837.10	130.435
837.40	276.923
837.70	100.000
838.00	116.667
838.30	179.167
838.60	132.000
838.90	320.000
839.19	168.750
839.49	126.667
839.79	124.138
840.09	157.692
840.39	213.333
840.69	184.211
840.99	142.857
841.29	152.174
841.59	165.000
841.88	164.000
842.18	344.444
842.48	100.000
842.78	159.259
843.08	230.769
843.38	186.364
843.68	235.714
843.97	442.857
844.27	156.522
844.57	1500.000
844.87	264.286
845.17	244.444
845.47	119.048
845.76	141.667
846.06	342.857
846.36	182.353
846.66	307.692
846.96	237.500
847.25	215.385
847.55	263.158
847.85	161.111
848.15	600.000
848.44	300.000
848.74	185.714
849.04	195.833
849.34	176.471
849.63	225.000
849.93	237.500
850.23	866.667
850.53	437.500
850.82	372.727
851.12	152.941
851.42	150.000
851.71	250.000
852.01	0.000
852.31	211.765
852.61	310.000
852.90	162.500
853.20	366.667
853.50	-1800.000
853.79	176.000
854.09	150.000
854.39	144.828
854.68	141.379
854.98	195.238
855.28	158.065
855.57	214.286
855.87	177.778
856.17	118.519
856.46	200.000
856.76	135.484
857.05	241.176
857.35	227.273
857.65	238.462
857.94	140.000
858.24	377.778
858.53	271.429
858.83	614.286
859.13	204.348
859.42	333.333
859.72	337.500
860.01	250.000
860.31	600.000
860.60	340.000
860.90	412.500
861.20	261.538
861.49	471.429
861.79	-3300.000
862.08	600.000
862.38	388.889
862.67	292.857
862.97	290.000
863.26	113.333
863.56	750.000
863.85	361.538
864.15	270.588
864.44	216.667
864.74	341.667
865.03	254.545
865.33	350.000
865.62	226.667
865.92	633.333
866.21	925.000
866.51	800.000
866.80	222.222
867.10	1033.333
867.39	3000.000
867.69	700.000
867.98	775.000
868.27	185.714
868.57	246.667
868.86	975.000
869.16	180.952
869.45	2300.000
869.75	-416.667
870.04	700.000
870.33	660.000
870.63	425.000
870.92	211.765
871.22	950.000
871.51	614.286
871.80	358.333
872.10	292.308
>>>>>End Processed Spectral Data<<<<<
