SpectraSuite Data File
++++++++++++++++++++++++++++++++++++
Date: Tue May 12 16:50:16 PDT 2015
User: schluterlab
Dark Spectrum Present: Yes
Reference Spectrum Present: Yes
Number of Sampled Component Spectra: 1
Spectrometers: USB2E3373
Integration Time (usec): 3000 (USB2E3373)
Spectra Averaged: 3 (USB2E3373)
Boxcar Smoothing: 0 (USB2E3373)
Correct for Electrical Dark: No (USB2E3373)
Strobe/Lamp Enabled: No (USB2E3373)
Correct for Detector Non-linearity: No (USB2E3373)
Correct for Stray Light: No (USB2E3373)
Number of Pixels in Processed Spectrum: 2048
>>>>>Begin Processed Spectral Data<<<<<
178.53	0.000
178.91	-216.667
179.29	-725.000
179.67	-3600.000
180.04	-113.333
180.42	800.000
180.80	1700.000
181.18	0.000
181.56	-450.000
181.94	0.000
182.31	1100.000
182.69	-3700.000
183.07	542.857
183.45	-3700.000
183.83	-1650.000
184.20	350.000
184.58	571.429
184.96	-246.154
185.34	-191.667
185.72	1450.000
186.09	-725.000
186.47	-2300.000
186.85	1366.667
187.23	720.000
187.61	2300.000
187.98	487.500
188.36	278.571
188.74	350.000
189.12	391.667
189.49	725.000
189.87	0.000
190.25	600.000
190.63	3100.000
191.00	-283.333
191.38	-3600.000
191.76	-800.000
192.14	575.000
192.51	-2900.000
192.89	1350.000
193.27	1166.667
193.65	-1300.000
194.02	-900.000
194.40	557.143
194.78	-228.571
195.15	273.333
195.53	-3100.000
195.91	-440.000
196.29	4700.000
196.66	300.000
197.04	725.000
197.42	-1300.000
197.79	875.000
198.17	425.000
198.55	0.000
198.92	500.000
199.30	1133.333
199.68	2150.000
200.05	516.667
200.43	-500.000
200.81	150.000
201.18	3300.000
201.56	308.333
201.94	-850.000
202.31	-350.000
202.69	-580.000
203.07	3200.000
203.44	-533.333
203.82	391.667
204.19	700.000
204.57	-1750.000
204.95	-625.000
205.32	-660.000
205.70	633.333
206.08	725.000
206.45	-633.333
206.83	488.889
207.20	178.947
207.58	291.667
207.96	680.000
208.33	0.000
208.71	500.000
209.08	720.000
209.46	-3300.000
209.84	-950.000
210.21	880.000
210.59	-460.000
210.96	408.333
211.34	-750.000
211.71	336.364
212.09	1100.000
212.46	1700.000
212.84	-533.333
213.22	366.667
213.59	-3300.000
213.97	330.000
214.34	975.000
214.72	1000.000
215.09	1033.333
215.47	-3500.000
215.84	-370.000
216.22	-400.000
216.59	0.000
216.97	0.000
217.34	1500.000
217.72	-1550.000
218.09	1066.667
218.47	450.000
218.84	925.000
219.22	1333.333
219.59	1433.333
219.97	528.571
220.34	355.556
220.72	1550.000
221.09	3700.000
221.47	283.333
221.84	1000.000
222.22	370.000
222.59	238.889
222.97	257.143
223.34	250.000
223.72	-1550.000
224.09	1100.000
224.46	346.154
224.84	-825.000
225.21	444.444
225.59	286.667
225.96	1033.333
226.34	-840.000
226.71	-650.000
227.08	-720.000
227.46	0.000
227.83	-716.667
228.21	-2200.000
228.58	366.667
228.95	975.000
229.33	400.000
229.70	975.000
230.08	323.077
230.45	3600.000
230.82	-1000.000
231.20	-966.667
231.57	-1033.333
231.95	440.000
232.32	283.333
232.69	433.333
233.07	333.333
233.44	-1850.000
233.81	280.000
234.19	151.852
234.56	237.500
234.93	294.118
235.31	225.000
235.68	306.250
236.05	192.857
236.43	174.074
236.80	350.000
237.17	193.103
237.55	143.750
237.92	165.000
238.29	154.545
238.67	168.750
239.04	139.024
239.41	118.750
239.79	135.000
240.16	120.833
240.53	98.361
240.91	92.754
241.28	103.390
241.65	103.030
242.02	111.268
242.40	97.143
242.77	78.022
243.14	82.278
243.51	98.990
243.89	76.636
244.26	75.701
244.63	86.139
245.00	81.651
245.38	66.102
245.75	74.242
246.12	76.296
246.49	68.085
246.87	71.311
247.24	80.667
247.61	68.125
247.98	73.469
248.36	72.727
248.73	66.327
249.10	69.643
249.47	67.500
249.84	64.179
250.22	74.054
250.59	66.000
250.96	58.650
251.33	68.837
251.70	66.518
252.08	59.244
252.45	60.558
252.82	60.837
253.19	62.055
253.56	60.385
253.94	58.333
254.31	66.279
254.68	60.976
255.05	64.138
255.42	60.584
255.79	64.169
256.16	61.356
256.54	62.987
256.91	60.458
257.28	60.201
257.65	54.859
258.02	55.162
258.39	55.301
258.76	59.420
259.14	56.857
259.51	65.015
259.88	63.222
260.25	54.121
260.62	55.890
260.99	57.576
261.36	55.710
261.73	55.319
262.10	57.330
262.47	56.000
262.85	57.867
263.22	54.756
263.59	56.777
263.96	57.393
264.33	55.062
264.70	58.722
265.07	54.390
265.44	55.046
265.81	56.368
266.18	56.064
266.55	54.610
266.92	55.257
267.29	54.167
267.66	58.296
268.03	51.794
268.40	53.911
268.77	59.251
269.14	53.579
269.51	56.570
269.88	55.918
270.25	53.996
270.62	54.292
270.99	55.375
271.36	52.236
271.73	55.346
272.10	52.525
272.47	51.984
272.84	52.096
273.21	52.273
273.58	53.846
273.95	53.593
274.32	53.891
274.69	54.528
275.06	52.641
275.43	52.299
275.80	55.472
276.17	51.103
276.54	52.710
276.91	54.291
277.28	52.737
277.65	54.613
278.02	52.206
278.39	51.259
278.76	51.897
279.13	52.135
279.50	51.455
279.87	52.328
280.23	50.645
280.60	52.372
280.97	51.379
281.34	50.660
281.71	53.217
282.08	52.821
282.45	48.649
282.82	51.505
283.19	51.669
283.56	50.248
283.92	51.466
284.29	49.418
284.66	49.580
285.03	50.746
285.40	49.421
285.77	49.228
286.14	50.310
286.51	48.926
286.87	48.418
287.24	44.444
287.61	48.784
287.98	47.761
288.35	48.593
288.72	46.737
289.08	46.396
289.45	47.256
289.82	47.500
290.19	46.852
290.56	48.617
290.93	45.612
291.29	47.376
291.66	45.763
292.03	45.582
292.40	42.954
292.77	43.593
293.13	45.792
293.50	43.860
293.87	43.225
294.24	44.196
294.60	42.934
294.97	43.916
295.34	43.028
295.71	42.050
296.08	44.800
296.44	42.694
296.81	41.811
297.18	40.177
297.55	41.749
297.91	41.010
298.28	42.754
298.65	41.595
299.02	39.566
299.38	39.808
299.75	39.268
300.12	40.596
300.48	41.686
300.85	43.147
301.22	40.465
301.59	39.976
301.95	41.190
302.32	41.211
302.69	40.158
303.05	42.985
303.42	39.013
303.79	40.520
304.15	41.034
304.52	39.958
304.89	39.339
305.25	41.602
305.62	41.471
305.99	40.326
306.35	41.263
306.72	41.519
307.09	41.925
307.45	41.288
307.82	41.152
308.19	42.474
308.55	40.700
308.92	40.137
309.29	42.801
309.65	42.319
310.02	44.118
310.38	42.074
310.75	41.466
311.12	42.720
311.48	43.050
311.85	43.130
312.22	44.413
312.58	44.898
312.95	43.495
313.31	45.225
313.68	44.090
314.05	45.696
314.41	45.438
314.78	47.159
315.14	47.678
315.51	47.682
315.87	46.989
316.24	48.459
316.61	48.612
316.97	48.257
317.34	49.865
317.70	50.658
318.07	51.423
318.43	50.791
318.80	50.263
319.16	51.136
319.53	51.327
319.89	51.523
320.26	54.469
320.62	53.480
320.99	54.719
321.35	54.174
321.72	55.123
322.08	55.863
322.45	56.131
322.81	56.267
323.18	56.750
323.54	56.882
323.91	58.205
324.27	57.560
324.64	59.083
325.00	59.914
325.37	59.022
325.73	60.540
326.10	60.812
326.46	60.281
326.83	60.960
327.19	62.169
327.56	62.780
327.92	63.689
328.29	63.502
328.65	64.897
329.01	65.612
329.38	65.313
329.74	61.657
330.11	65.856
330.47	66.070
330.84	63.762
331.20	64.636
331.56	65.889
331.93	65.783
332.29	64.286
332.66	64.796
333.02	65.808
333.38	67.627
333.75	65.805
334.11	65.604
334.48	64.957
334.84	64.274
335.20	65.441
335.57	64.316
335.93	63.751
336.29	63.765
336.66	65.780
337.02	65.441
337.38	64.574
337.75	64.611
338.11	63.713
338.47	64.268
338.84	63.251
339.20	63.896
339.56	64.256
339.93	64.381
340.29	63.782
340.65	63.286
341.02	65.004
341.38	62.890
341.74	64.950
342.11	63.940
342.47	64.725
342.83	65.135
343.20	63.056
343.56	62.113
343.92	64.244
344.28	61.722
344.65	64.874
345.01	62.302
345.37	64.423
345.73	63.651
346.10	63.028
346.46	63.397
346.82	62.346
347.19	63.292
347.55	63.856
347.91	62.009
348.27	61.967
348.63	63.687
349.00	60.853
349.36	63.580
349.72	62.615
350.08	63.199
350.45	62.986
350.81	62.156
351.17	60.940
351.53	60.893
351.89	61.383
352.26	61.678
352.62	62.594
352.98	61.196
353.34	62.558
353.70	60.856
354.07	62.231
354.43	62.903
354.79	60.592
355.15	62.940
355.51	61.480
355.87	61.069
356.24	63.664
356.60	61.187
356.96	61.789
357.32	60.588
357.68	60.793
358.04	61.930
358.40	60.570
358.77	63.336
359.13	59.685
359.49	60.934
359.85	61.206
360.21	59.955
360.57	61.314
360.93	61.255
361.29	61.616
361.66	62.043
362.02	61.080
362.38	61.977
362.74	60.368
363.10	60.238
363.46	60.704
363.82	61.150
364.18	60.882
364.54	61.946
364.90	61.780
365.26	61.277
365.62	61.533
365.98	61.046
366.35	60.414
366.71	61.693
367.07	59.454
367.43	59.704
367.79	58.710
368.15	60.651
368.51	61.406
368.87	61.073
369.23	61.538
369.59	61.430
369.95	61.329
370.31	60.233
370.67	60.444
371.03	60.714
371.39	61.496
371.75	61.479
372.11	61.115
372.47	60.411
372.83	59.891
373.19	60.932
373.55	60.481
373.91	59.461
374.27	58.995
374.63	59.525
374.99	60.377
375.35	60.349
375.71	60.488
376.07	60.544
376.42	59.207
376.78	61.079
377.14	60.419
377.50	59.051
377.86	60.730
378.22	60.938
378.58	61.743
378.94	59.988
379.30	60.218
379.66	60.987
380.02	60.469
380.38	59.543
380.74	61.073
381.09	60.864
381.45	59.249
381.81	59.338
382.17	59.890
382.53	59.448
382.89	60.083
383.25	60.332
383.61	58.674
383.97	59.508
384.32	60.036
384.68	60.487
385.04	60.785
385.40	59.371
385.76	60.035
386.12	59.988
386.48	61.337
386.83	61.491
387.19	58.834
387.55	59.069
387.91	60.912
388.27	60.738
388.62	60.505
388.98	58.776
389.34	58.418
389.70	60.142
390.06	60.427
390.42	58.976
390.77	59.337
391.13	58.902
391.49	58.560
391.85	59.323
392.20	59.714
392.56	59.020
392.92	58.675
393.28	58.520
393.64	59.404
393.99	57.854
394.35	58.799
394.71	58.263
395.07	60.645
395.42	58.665
395.78	60.025
396.14	59.277
396.50	60.529
396.85	59.512
397.21	60.469
397.57	58.577
397.92	59.157
398.28	59.570
398.64	59.337
399.00	57.990
399.35	57.917
399.71	58.775
400.07	59.018
400.42	58.627
400.78	58.358
401.14	58.074
401.49	58.007
401.85	58.633
402.21	58.055
402.57	58.528
402.92	59.394
403.28	58.294
403.63	58.270
403.99	58.082
404.35	59.730
404.70	60.366
405.06	56.990
405.42	58.707
405.77	59.151
406.13	57.592
406.49	57.931
406.84	57.022
407.20	59.189
407.55	57.600
407.91	58.902
408.27	58.399
408.62	59.018
408.98	57.422
409.34	57.335
409.69	57.374
410.05	57.722
410.40	57.538
410.76	57.069
411.11	57.938
411.47	58.333
411.83	57.059
412.18	57.186
412.54	58.018
412.89	57.935
413.25	58.438
413.60	57.126
413.96	57.092
414.31	58.146
414.67	59.528
415.03	58.876
415.38	58.044
415.74	58.181
416.09	57.964
416.45	58.112
416.80	58.499
417.16	57.607
417.51	58.599
417.87	57.572
418.22	57.412
418.58	57.898
418.93	57.406
419.29	57.486
419.64	59.176
420.00	59.785
420.35	58.479
420.71	57.118
421.06	58.858
421.42	57.283
421.77	57.968
422.12	57.718
422.48	57.884
422.83	59.542
423.19	58.045
423.54	56.610
423.90	59.343
424.25	58.723
424.61	59.373
424.96	57.764
425.31	58.840
425.67	60.325
426.02	59.338
426.38	57.643
426.73	59.167
427.09	58.660
427.44	57.963
427.79	60.034
428.15	59.753
428.50	59.029
428.85	59.494
429.21	60.238
429.56	59.123
429.92	59.175
430.27	57.765
430.62	58.443
430.98	58.383
431.33	58.367
431.68	57.630
432.04	59.183
432.39	60.648
432.74	60.070
433.10	59.413
433.45	60.482
433.80	60.452
434.16	58.907
434.51	60.526
434.86	60.806
435.22	60.076
435.57	60.403
435.92	61.924
436.28	60.311
436.63	60.184
436.98	62.387
437.34	60.502
437.69	59.686
438.04	61.398
438.39	61.238
438.75	60.857
439.10	61.900
439.45	59.864
439.81	62.580
440.16	61.310
440.51	60.811
440.86	61.538
441.22	60.823
441.57	61.050
441.92	60.069
442.27	60.979
442.63	61.535
442.98	60.453
443.33	61.168
443.68	61.771
444.03	61.122
444.39	62.571
444.74	61.128
445.09	60.558
445.44	61.158
445.79	61.452
446.15	62.579
446.50	61.814
446.85	62.898
447.20	60.846
447.55	62.806
447.91	61.961
448.26	61.768
448.61	63.074
448.96	62.800
449.31	63.256
449.66	61.517
450.02	62.993
450.37	63.576
450.72	63.140
451.07	62.013
451.42	62.656
451.77	61.856
452.12	62.961
452.47	63.852
452.83	65.239
453.18	62.222
453.53	63.647
453.88	63.886
454.23	64.091
454.58	63.811
454.93	62.109
455.28	63.097
455.63	63.593
455.98	62.944
456.34	64.498
456.69	63.476
457.04	64.499
457.39	63.543
457.74	63.457
458.09	63.223
458.44	63.417
458.79	61.485
459.14	62.902
459.49	62.854
459.84	63.370
460.19	64.011
460.54	63.476
460.89	63.699
461.24	63.058
461.59	63.662
461.94	63.948
462.29	63.844
462.64	65.578
462.99	64.683
463.34	63.966
463.69	63.884
464.04	64.134
464.39	63.080
464.74	63.306
465.09	63.900
465.44	62.133
465.79	63.255
466.14	62.533
466.49	62.995
466.84	63.211
467.19	62.800
467.54	62.703
467.89	63.908
468.24	63.868
468.59	64.286
468.94	63.889
469.29	63.042
469.64	63.859
469.99	64.075
470.34	63.504
470.68	64.345
471.03	63.776
471.38	63.311
471.73	64.402
472.08	66.601
472.43	66.046
472.78	64.661
473.13	64.143
473.48	64.609
473.83	64.134
474.17	63.465
474.52	64.218
474.87	63.729
475.22	63.963
475.57	62.015
475.92	63.924
476.27	63.112
476.61	63.324
476.96	62.748
477.31	64.010
477.66	63.983
478.01	63.125
478.36	62.822
478.70	62.878
479.05	63.964
479.40	63.145
479.75	64.548
480.10	61.955
480.45	62.745
480.79	63.410
481.14	62.482
481.49	63.220
481.84	61.917
482.19	62.096
482.53	61.221
482.88	63.620
483.23	62.607
483.58	63.555
483.92	64.808
484.27	61.986
484.62	63.582
484.97	60.966
485.31	60.586
485.66	59.884
486.01	58.259
486.36	57.480
486.70	57.143
487.05	58.173
487.40	58.737
487.75	59.595
488.09	59.517
488.44	60.612
488.79	61.541
489.13	62.486
489.48	62.365
489.83	61.927
490.17	60.941
490.52	62.661
490.87	62.586
491.22	64.140
491.56	63.241
491.91	62.142
492.26	62.049
492.60	63.326
492.95	61.758
493.30	61.965
493.64	62.848
493.99	62.030
494.34	61.632
494.68	62.771
495.03	62.551
495.37	61.504
495.72	62.704
496.07	62.489
496.41	61.729
496.76	61.081
497.11	62.082
497.45	63.086
497.80	62.558
498.14	62.043
498.49	62.813
498.84	62.710
499.18	62.340
499.53	63.206
499.87	62.758
500.22	62.275
500.56	61.885
500.91	62.338
501.26	62.977
501.60	62.158
501.95	61.649
502.29	60.533
502.64	60.035
502.98	61.005
503.33	61.069
503.67	61.766
504.02	61.935
504.36	62.127
504.71	61.447
505.06	61.286
505.40	61.488
505.75	62.582
506.09	61.503
506.44	62.500
506.78	61.720
507.13	62.046
507.47	60.893
507.82	62.676
508.16	64.184
508.51	62.222
508.85	61.206
509.19	61.429
509.54	62.012
509.88	61.760
510.23	60.882
510.57	60.956
510.92	61.938
511.26	61.446
511.61	60.660
511.95	61.075
512.30	62.850
512.64	61.838
512.98	61.148
513.33	61.783
513.67	62.610
514.02	62.597
514.36	62.098
514.70	62.987
515.05	62.334
515.39	63.158
515.74	62.821
516.08	61.166
516.42	63.770
516.77	62.187
517.11	62.560
517.46	62.554
517.80	61.879
518.14	62.930
518.49	62.845
518.83	61.374
519.17	61.675
519.52	63.353
519.86	61.471
520.20	61.863
520.55	61.391
520.89	61.724
521.23	63.026
521.58	63.569
521.92	62.682
522.26	62.204
522.61	63.993
522.95	63.423
523.29	63.216
523.64	60.983
523.98	62.089
524.32	61.534
524.66	62.609
525.01	62.249
525.35	61.756
525.69	62.974
526.04	60.976
526.38	61.919
526.72	61.277
527.06	60.615
527.41	62.696
527.75	62.021
528.09	61.288
528.43	62.111
528.78	62.493
529.12	63.877
529.46	61.309
529.80	60.981
530.15	61.049
530.49	60.830
530.83	61.731
531.17	61.685
531.51	61.925
531.86	59.843
532.20	60.630
532.54	60.075
532.88	60.775
533.22	60.999
533.57	61.867
533.91	59.499
534.25	59.665
534.59	61.111
534.93	59.329
535.27	57.427
535.62	60.443
535.96	59.043
536.30	60.329
536.64	59.441
536.98	59.849
537.32	59.562
537.66	58.673
538.01	59.443
538.35	59.264
538.69	58.313
539.03	59.204
539.37	58.677
539.71	60.123
540.05	59.262
540.39	60.377
540.73	58.734
541.07	58.971
541.42	58.644
541.76	57.768
542.10	58.200
542.44	59.165
542.78	58.527
543.12	58.589
543.46	56.767
543.80	58.459
544.14	57.957
544.48	57.603
544.82	58.349
545.16	57.863
545.50	56.484
545.84	60.417
546.18	58.843
546.52	58.164
546.86	57.511
547.20	58.463
547.54	56.871
547.88	56.509
548.22	58.106
548.56	55.451
548.90	56.050
549.24	57.612
549.58	56.765
549.92	59.136
550.26	58.215
550.60	58.084
550.94	57.734
551.28	59.448
551.62	58.690
551.96	58.784
552.30	56.493
552.64	56.958
552.98	56.894
553.32	55.634
553.66	55.570
554.00	57.014
554.34	58.123
554.68	57.796
555.02	56.687
555.36	55.984
555.69	55.825
556.03	55.605
556.37	55.641
556.71	57.106
557.05	55.701
557.39	56.200
557.73	55.323
558.07	56.606
558.41	55.860
558.75	56.635
559.08	58.399
559.42	58.840
559.76	58.517
560.10	55.471
560.44	55.806
560.78	55.307
561.12	55.753
561.45	55.757
561.79	54.869
562.13	54.075
562.47	56.003
562.81	56.604
563.15	54.880
563.48	53.106
563.82	55.958
564.16	56.468
564.50	54.310
564.84	54.711
565.17	53.951
565.51	54.495
565.85	55.830
566.19	54.167
566.52	53.670
566.86	54.291
567.20	54.101
567.54	53.548
567.88	53.052
568.21	51.473
568.55	52.237
568.89	50.821
569.23	50.777
569.56	50.040
569.90	48.904
570.24	48.279
570.57	48.215
570.91	48.268
571.25	48.250
571.59	47.885
571.92	46.878
572.26	46.523
572.60	46.404
572.93	47.872
573.27	47.329
573.61	46.914
573.95	46.140
574.28	46.728
574.62	46.274
574.96	45.976
575.29	45.234
575.63	45.677
575.97	45.156
576.30	45.001
576.64	45.853
576.98	45.345
577.31	46.159
577.65	45.356
577.98	44.487
578.32	44.584
578.66	44.518
578.99	44.430
579.33	44.429
579.67	44.542
580.00	44.508
580.34	45.038
580.67	44.362
581.01	45.622
581.35	44.444
581.68	43.743
582.02	43.381
582.35	43.801
582.69	44.001
583.02	44.550
583.36	44.948
583.70	45.054
584.03	45.737
584.37	45.028
584.70	45.185
585.04	44.563
585.37	44.274
585.71	44.607
586.04	44.314
586.38	44.745
586.72	44.762
587.05	44.545
587.39	44.728
587.72	44.669
588.06	44.624
588.39	44.729
588.73	45.355
589.06	44.996
589.40	46.260
589.73	46.182
590.07	46.603
590.40	46.620
590.73	46.970
591.07	46.603
591.40	45.988
591.74	46.307
592.07	45.549
592.41	46.443
592.74	44.892
593.08	44.368
593.41	44.165
593.75	43.982
594.08	43.825
594.41	44.607
594.75	44.932
595.08	44.719
595.42	45.128
595.75	44.554
596.09	44.908
596.42	44.574
596.75	46.114
597.09	46.348
597.42	46.490
597.75	45.801
598.09	45.220
598.42	45.859
598.76	44.333
599.09	44.428
599.42	43.668
599.76	43.623
600.09	43.017
600.42	44.026
600.76	43.576
601.09	43.355
601.42	43.330
601.76	44.468
602.09	44.113
602.42	43.660
602.76	44.250
603.09	44.457
603.42	44.330
603.76	43.818
604.09	44.083
604.42	43.879
604.76	44.251
605.09	44.286
605.42	44.819
605.75	42.835
606.09	44.223
606.42	44.006
606.75	43.568
607.09	43.229
607.42	44.436
607.75	43.631
608.08	43.136
608.42	43.582
608.75	44.074
609.08	44.567
609.41	45.318
609.75	44.734
610.08	44.335
610.41	44.225
610.74	44.286
611.07	44.247
611.41	45.505
611.74	45.268
612.07	44.557
612.40	44.688
612.73	45.582
613.07	44.399
613.40	44.862
613.73	44.184
614.06	43.850
614.39	44.697
614.72	43.948
615.06	43.620
615.39	44.703
615.72	43.320
616.05	44.400
616.38	43.582
616.71	44.221
617.05	44.152
617.38	44.270
617.71	44.263
618.04	43.354
618.37	44.580
618.70	45.497
619.03	45.055
619.36	45.666
619.69	44.657
620.03	47.489
620.36	45.793
620.69	47.637
621.02	45.584
621.35	46.920
621.68	47.419
622.01	47.528
622.34	46.031
622.67	46.138
623.00	46.698
623.33	45.547
623.66	46.108
623.99	46.301
624.32	45.528
624.65	45.951
624.99	47.262
625.32	45.157
625.65	44.276
625.98	45.188
626.31	47.700
626.64	45.938
626.97	45.448
627.30	46.429
627.63	46.232
627.96	45.775
628.29	47.360
628.62	47.305
628.95	48.404
629.28	48.116
629.61	48.682
629.94	47.277
630.26	47.227
630.59	47.695
630.92	46.996
631.25	48.232
631.58	48.987
631.91	47.574
632.24	48.397
632.57	46.562
632.90	50.518
633.23	49.528
633.56	48.577
633.89	50.589
634.22	48.547
634.55	50.860
634.88	49.836
635.20	49.664
635.53	52.033
635.86	51.007
636.19	48.709
636.52	48.324
636.85	48.652
637.18	47.129
637.51	47.374
637.83	49.085
638.16	50.410
638.49	51.497
638.82	49.648
639.15	48.766
639.48	51.066
639.81	48.962
640.13	50.429
640.46	50.442
640.79	51.105
641.12	51.181
641.45	50.841
641.77	51.651
642.10	51.272
642.43	51.067
642.76	50.426
643.09	52.305
643.41	50.631
643.74	52.086
644.07	52.065
644.40	50.592
644.73	51.201
645.05	53.195
645.38	50.536
645.71	51.290
646.04	54.351
646.36	52.426
646.69	51.520
647.02	52.960
647.35	51.496
647.67	52.998
648.00	52.769
648.33	50.677
648.66	50.152
648.98	51.159
649.31	47.638
649.64	48.409
649.96	48.506
650.29	51.286
650.62	49.337
650.94	51.506
651.27	53.748
651.60	51.956
651.92	49.923
652.25	50.394
652.58	47.092
652.90	51.796
653.23	49.926
653.56	49.110
653.88	47.871
654.21	47.947
654.54	47.584
654.86	47.788
655.19	48.021
655.52	40.716
655.84	32.672
656.17	37.681
656.49	53.445
656.82	61.241
657.15	49.309
657.47	37.284
657.80	27.856
658.13	22.267
658.45	30.263
658.78	36.401
659.10	37.289
659.43	38.340
659.75	39.220
660.08	41.541
660.41	44.555
660.73	48.808
661.06	50.300
661.38	50.085
661.71	50.719
662.03	50.760
662.36	48.571
662.68	51.397
663.01	53.153
663.33	53.396
663.66	51.874
663.98	50.198
664.31	52.425
664.63	51.916
664.96	52.158
665.28	50.659
665.61	48.679
665.93	52.453
666.26	52.336
666.58	52.294
666.91	48.649
667.23	49.598
667.56	55.236
667.88	50.830
668.21	50.615
668.53	51.411
668.86	50.100
669.18	51.731
669.50	52.066
669.83	53.593
670.15	49.896
670.48	45.508
670.80	51.394
671.13	50.000
671.45	53.707
671.77	50.093
672.10	51.167
672.42	47.368
672.75	46.519
673.07	48.172
673.39	44.409
673.72	48.962
674.04	47.849
674.37	47.913
674.69	50.372
675.01	46.082
675.34	47.093
675.66	49.414
675.98	48.521
676.31	50.000
676.63	50.696
676.95	49.206
677.28	50.507
677.60	53.119
677.92	47.817
678.25	49.031
678.57	47.672
678.89	49.367
679.22	49.265
679.54	47.865
679.86	45.724
680.18	47.979
680.51	45.274
680.83	44.764
681.15	47.314
681.48	46.528
681.80	46.585
682.12	48.270
682.44	45.405
682.77	47.153
683.09	46.019
683.41	47.347
683.73	46.654
684.06	47.817
684.38	50.194
684.70	48.201
685.02	46.875
685.34	46.655
685.67	45.981
685.99	44.171
686.31	42.219
686.63	44.390
686.96	44.608
687.28	45.134
687.60	44.539
687.92	44.724
688.24	47.069
688.56	45.552
688.89	45.698
689.21	46.050
689.53	49.605
689.85	46.341
690.17	47.767
690.49	46.573
690.82	49.370
691.14	47.879
691.46	48.049
691.78	45.419
692.10	46.756
692.42	45.917
692.74	45.736
693.06	44.380
693.39	45.652
693.71	46.169
694.03	48.521
694.35	46.586
694.67	45.621
694.99	47.228
695.31	50.676
695.63	49.095
695.95	50.000
696.27	47.566
696.59	46.539
696.91	46.835
697.23	47.511
697.56	44.191
697.88	44.910
698.20	47.358
698.52	43.191
698.84	48.665
699.16	46.908
699.48	46.398
699.80	47.930
700.12	52.425
700.44	45.327
700.76	50.119
701.08	49.608
701.40	48.052
701.72	54.011
702.04	52.846
702.36	51.613
702.68	53.989
703.00	46.867
703.32	50.372
703.64	46.096
703.96	48.698
704.28	53.175
704.60	53.803
704.91	51.261
705.23	52.841
705.55	49.852
705.87	50.159
706.19	53.918
706.51	54.859
706.83	51.917
707.15	51.337
707.47	48.910
707.79	50.115
708.11	44.671
708.43	44.045
708.74	46.154
709.06	43.256
709.38	50.620
709.70	49.046
710.02	45.652
710.34	50.552
710.66	45.278
710.98	47.814
711.29	49.861
711.61	50.418
711.93	48.632
712.25	47.590
712.57	50.482
712.89	52.727
713.20	53.674
713.52	52.336
713.84	51.360
714.16	47.536
714.48	45.245
714.80	47.154
715.11	45.745
715.43	48.603
715.75	47.324
716.07	44.798
716.39	46.571
716.70	45.483
717.02	54.209
717.34	55.755
717.66	53.472
717.97	57.197
718.29	55.282
718.61	44.932
718.93	50.519
719.24	51.678
719.56	50.000
719.88	45.541
720.20	49.677
720.51	50.654
720.83	50.167
721.15	49.660
721.46	56.507
721.78	52.962
722.10	50.694
722.42	48.495
722.73	50.181
723.05	50.877
723.37	52.650
723.68	50.391
724.00	53.788
724.32	53.612
724.63	52.308
724.95	54.118
725.27	50.558
725.58	50.735
725.90	44.718
726.22	49.658
726.53	48.829
726.85	56.026
727.16	51.342
727.48	46.179
727.80	51.799
728.11	54.643
728.43	48.551
728.74	51.748
729.06	44.444
729.38	50.877
729.69	51.667
730.01	52.632
730.32	50.336
730.64	49.834
730.96	47.147
731.27	40.061
731.59	42.529
731.90	41.783
732.22	44.286
732.53	41.595
732.85	48.246
733.16	45.783
733.48	46.395
733.80	47.536
734.11	44.172
734.43	42.982
734.74	43.700
735.06	43.915
735.37	43.299
735.69	45.797
736.00	47.401
736.32	43.636
736.63	41.325
736.95	46.273
737.26	46.951
737.58	46.319
737.89	44.880
738.21	46.026
738.52	47.826
738.83	51.648
739.15	46.690
739.46	51.379
739.78	43.537
740.09	46.647
740.41	42.945
740.72	44.762
741.04	51.049
741.35	49.609
741.66	52.174
741.98	55.794
742.29	56.019
742.61	50.442
742.92	48.729
743.23	51.200
743.55	46.792
743.86	46.275
744.18	48.729
744.49	51.240
744.80	52.535
745.12	51.339
745.43	57.477
745.74	56.889
746.06	46.491
746.37	54.884
746.68	52.655
747.00	54.260
747.31	50.420
747.62	47.131
747.94	51.502
748.25	49.416
748.56	52.966
748.88	50.893
749.19	55.349
749.50	52.055
749.82	51.852
750.13	52.174
750.44	44.000
750.75	50.000
751.07	47.039
751.38	44.554
751.69	48.485
752.01	46.154
752.32	41.528
752.63	44.966
752.94	43.706
753.26	53.125
753.57	45.525
753.88	46.442
754.19	50.181
754.51	43.522
754.82	45.973
755.13	46.284
755.44	50.000
755.75	47.423
756.07	48.973
756.38	43.137
756.69	41.875
757.00	44.807
757.31	44.789
757.63	43.251
757.94	43.617
758.25	39.372
758.56	39.359
758.87	44.361
759.18	43.605
759.50	44.377
759.81	46.291
760.12	41.854
760.43	41.737
760.74	41.519
761.05	43.767
761.36	40.885
761.67	45.822
761.99	43.380
762.30	47.267
762.61	43.750
762.92	48.106
763.23	43.774
763.54	43.462
763.85	45.914
764.16	43.750
764.47	44.257
764.78	42.345
765.10	40.549
765.41	41.761
765.72	39.779
766.03	41.390
766.34	45.296
766.65	48.669
766.96	46.559
767.27	53.738
767.58	51.485
767.89	58.011
768.20	60.976
768.51	50.510
768.82	50.000
769.13	47.843
769.44	48.872
769.75	46.816
770.06	48.739
770.37	43.860
770.68	46.222
770.99	47.034
771.30	46.444
771.61	50.385
771.92	47.328
772.23	48.387
772.54	41.778
772.85	49.010
773.16	55.435
773.47	46.667
773.78	51.980
774.09	52.273
774.39	56.970
774.70	52.353
775.01	52.632
775.32	56.522
775.63	60.959
775.94	59.877
776.25	53.793
776.56	58.779
776.87	62.595
777.18	64.394
777.48	72.441
777.79	61.538
778.10	59.848
778.41	63.433
778.72	55.639
779.03	55.128
779.34	63.514
779.65	52.174
779.95	62.112
780.26	54.167
780.57	61.905
780.88	63.121
781.19	66.667
781.50	57.396
781.80	56.284
782.11	47.619
782.42	55.747
782.73	50.282
783.04	56.129
783.34	51.938
783.65	58.503
783.96	54.839
784.27	52.318
784.57	51.974
784.88	57.246
785.19	64.167
785.50	62.069
785.81	67.442
786.11	61.481
786.42	62.205
786.73	70.270
787.04	67.925
787.34	62.602
787.65	63.636
787.96	60.606
788.26	65.354
788.57	60.584
788.88	60.563
789.19	58.779
789.49	55.405
789.80	58.594
790.11	59.504
790.41	75.000
790.72	64.815
791.03	50.000
791.33	76.768
791.64	64.211
791.95	75.789
792.25	68.750
792.56	60.000
792.87	73.171
793.17	71.591
793.48	63.529
793.79	79.310
794.09	69.318
794.40	58.621
794.70	64.286
795.01	55.385
795.32	48.092
795.62	54.701
795.93	57.143
796.23	61.789
796.54	65.306
796.85	69.318
797.15	98.701
797.46	95.122
797.76	81.250
798.07	81.333
798.37	80.000
798.68	81.250
798.99	76.829
799.29	78.667
799.60	58.140
799.90	77.632
800.21	84.848
800.51	83.099
800.82	91.379
801.12	84.615
801.43	92.000
801.73	79.310
802.04	83.117
802.34	86.301
802.65	117.647
802.95	104.348
803.26	90.323
803.56	103.333
803.87	88.060
804.17	79.365
804.48	90.566
804.78	86.111
805.09	84.848
805.39	84.127
805.70	85.965
806.00	74.286
806.30	81.250
806.61	76.471
806.91	75.556
807.22	67.391
807.52	78.947
807.83	92.105
808.13	91.304
808.43	93.548
808.74	75.342
809.04	96.429
809.35	92.647
809.65	81.818
809.95	88.235
810.26	100.000
810.56	93.750
810.86	91.837
811.17	100.000
811.47	104.348
811.77	84.483
812.08	93.103
812.38	104.762
812.69	102.381
812.99	100.000
813.29	145.714
813.59	154.839
813.90	101.724
814.20	100.000
814.50	100.000
814.81	78.947
815.11	109.259
815.41	89.286
815.72	96.429
816.02	110.000
816.32	114.634
816.62	98.276
816.93	154.545
817.23	121.951
817.53	110.714
817.84	97.778
818.14	109.524
818.44	122.917
818.74	105.660
819.04	97.436
819.35	130.303
819.65	123.077
819.95	116.667
820.25	129.787
820.56	135.135
820.86	107.895
821.16	76.596
821.46	123.684
821.76	90.909
822.07	100.000
822.37	123.684
822.67	132.558
822.97	110.526
823.27	119.565
823.57	121.875
823.88	138.462
824.18	130.303
824.48	186.957
824.78	138.889
825.08	173.913
825.38	144.828
825.69	108.824
825.99	114.894
826.29	97.222
826.59	114.286
826.89	143.333
827.19	122.857
827.49	129.032
827.79	188.462
828.09	102.381
828.39	130.556
828.70	91.892
829.00	175.000
829.30	218.750
829.60	119.444
829.90	145.161
830.20	93.939
830.50	143.243
830.80	162.500
831.10	184.615
831.40	223.810
831.70	191.667
832.00	106.667
832.30	178.261
832.60	183.333
832.90	154.545
833.20	210.000
833.50	121.053
833.80	126.471
834.10	118.421
834.40	173.684
834.70	133.333
835.00	172.000
835.30	100.000
835.60	150.000
835.90	154.054
836.20	157.692
836.50	168.182
836.80	102.439
837.10	173.913
837.40	261.538
837.70	173.684
838.00	163.333
838.30	166.667
838.60	180.000
838.90	320.000
839.19	225.000
839.49	163.333
839.79	137.931
840.09	196.154
840.39	240.000
840.69	200.000
840.99	119.048
841.29	204.348
841.59	230.000
841.88	192.000
842.18	400.000
842.48	160.714
842.78	166.667
843.08	246.154
843.38	218.182
843.68	271.429
843.97	557.143
844.27	169.565
844.57	1850.000
844.87	250.000
845.17	194.444
845.47	171.429
845.76	191.667
846.06	514.286
846.36	211.765
846.66	300.000
846.96	331.250
847.25	223.077
847.55	189.474
847.85	188.889
848.15	520.000
848.44	372.727
848.74	180.952
849.04	179.167
849.34	205.882
849.63	268.750
849.93	256.250
850.23	1100.000
850.53	487.500
850.82	300.000
851.12	170.588
851.42	179.167
851.71	225.000
852.01	0.000
852.31	223.529
852.61	460.000
852.90	175.000
853.20	422.222
853.50	-2300.000
853.79	172.000
854.09	184.375
854.39	158.621
854.68	141.379
854.98	219.048
855.28	132.258
855.57	300.000
855.87	205.556
856.17	129.630
856.46	231.579
856.76	138.710
857.05	252.941
857.35	336.364
857.65	292.308
857.94	125.000
858.24	477.778
858.53	264.286
858.83	614.286
859.13	195.652
859.42	244.444
859.72	450.000
860.01	425.000
860.31	825.000
860.60	430.000
860.90	450.000
861.20	315.385
861.49	471.429
861.79	-4100.000
862.08	557.143
862.38	411.111
862.67	235.714
862.97	310.000
863.26	140.000
863.56	925.000
863.85	330.769
864.15	300.000
864.44	205.556
864.74	391.667
865.03	309.091
865.33	450.000
865.62	300.000
865.92	550.000
866.21	775.000
866.51	680.000
866.80	238.889
867.10	1100.000
867.39	3500.000
867.69	780.000
867.98	1150.000
868.27	152.381
868.57	280.000
868.86	1150.000
869.16	200.000
869.45	3500.000
869.75	-483.333
870.04	675.000
870.33	640.000
870.63	487.500
870.92	241.176
871.22	750.000
871.51	514.286
871.80	383.333
872.10	338.462
>>>>>End Processed Spectral Data<<<<<
