SpectraSuite Data File
++++++++++++++++++++++++++++++++++++
Date: Tue May 12 17:08:18 PDT 2015
User: schluterlab
Dark Spectrum Present: Yes
Reference Spectrum Present: Yes
Number of Sampled Component Spectra: 1
Spectrometers: USB2E3373
Integration Time (usec): 3000 (USB2E3373)
Spectra Averaged: 3 (USB2E3373)
Boxcar Smoothing: 0 (USB2E3373)
Correct for Electrical Dark: No (USB2E3373)
Strobe/Lamp Enabled: No (USB2E3373)
Correct for Detector Non-linearity: No (USB2E3373)
Correct for Stray Light: No (USB2E3373)
Number of Pixels in Processed Spectrum: 2048
>>>>>Begin Processed Spectral Data<<<<<
178.53	0.000
178.91	-208.333
179.29	-625.000
179.67	-3600.000
180.04	-133.333
180.42	650.000
180.80	1700.000
181.18	0.000
181.56	-300.000
181.94	0.000
182.31	1066.667
182.69	-3300.000
183.07	642.857
183.45	-3800.000
183.83	-1750.000
184.20	370.000
184.58	571.429
184.96	-246.154
185.34	-208.333
185.72	1750.000
186.09	-700.000
186.47	-2800.000
186.85	966.667
187.23	460.000
187.61	1600.000
187.98	362.500
188.36	285.714
188.74	250.000
189.12	308.333
189.49	850.000
189.87	0.000
190.25	562.500
190.63	2900.000
191.00	-191.667
191.38	-2700.000
191.76	-700.000
192.14	500.000
192.51	-3100.000
192.89	1700.000
193.27	933.333
193.65	-1166.667
194.02	-720.000
194.40	514.286
194.78	-235.714
195.15	253.333
195.53	-2900.000
195.91	-540.000
196.29	3400.000
196.66	281.250
197.04	875.000
197.42	-1400.000
197.79	525.000
198.17	275.000
198.55	0.000
198.92	385.714
199.30	1000.000
199.68	1600.000
200.05	550.000
200.43	-316.667
200.81	200.000
201.18	3900.000
201.56	300.000
201.94	-775.000
202.31	-350.000
202.69	-440.000
203.07	3100.000
203.44	-450.000
203.82	341.667
204.19	500.000
204.57	-950.000
204.95	-750.000
205.32	-640.000
205.70	433.333
206.08	750.000
206.45	-833.333
206.83	322.222
207.20	147.368
207.58	275.000
207.96	360.000
208.33	0.000
208.71	500.000
209.08	800.000
209.46	-4000.000
209.84	-825.000
210.21	860.000
210.59	-600.000
210.96	350.000
211.34	-1125.000
211.71	354.545
212.09	850.000
212.46	1800.000
212.84	-350.000
213.22	300.000
213.59	-2600.000
213.97	360.000
214.34	500.000
214.72	866.667
215.09	1033.333
215.47	-2300.000
215.84	-330.000
216.22	-425.000
216.59	0.000
216.97	0.000
217.34	1000.000
217.72	-1050.000
218.09	1266.667
218.47	475.000
218.84	1225.000
219.22	866.667
219.59	833.333
219.97	442.857
220.34	411.111
220.72	1650.000
221.09	3300.000
221.47	233.333
221.84	933.333
222.22	350.000
222.59	222.222
222.97	235.714
223.34	243.750
223.72	-1100.000
224.09	1266.667
224.46	300.000
224.84	-600.000
225.21	544.444
225.59	286.667
225.96	866.667
226.34	-680.000
226.71	-600.000
227.08	-540.000
227.46	0.000
227.83	-550.000
228.21	-1500.000
228.58	416.667
228.95	1125.000
229.33	255.556
229.70	1075.000
230.08	323.077
230.45	3100.000
230.82	-675.000
231.20	-533.333
231.57	-1166.667
231.95	520.000
232.32	258.333
232.69	500.000
233.07	300.000
233.44	-1300.000
233.81	240.000
234.19	148.148
234.56	187.500
234.93	217.647
235.31	195.000
235.68	206.250
236.05	153.571
236.43	103.704
236.80	200.000
237.17	124.138
237.55	81.250
237.92	102.500
238.29	96.970
238.67	112.500
239.04	95.122
239.41	60.417
239.79	55.000
240.16	79.167
240.53	42.623
240.91	44.928
241.28	61.017
241.65	48.485
242.02	73.239
242.40	42.857
242.77	45.055
243.14	41.772
243.51	38.384
243.89	36.449
244.26	35.514
244.63	33.663
245.00	32.110
245.38	28.814
245.75	28.030
246.12	32.593
246.49	28.369
246.87	23.770
247.24	26.000
247.61	33.750
247.98	31.293
248.36	16.970
248.73	26.531
249.10	17.857
249.47	22.500
249.84	24.378
250.22	25.946
250.59	20.500
250.96	21.097
251.33	18.140
251.70	20.536
252.08	16.807
252.45	18.327
252.82	18.631
253.19	11.858
253.56	17.692
253.94	18.841
254.31	14.341
254.68	17.770
255.05	17.241
255.42	14.964
255.79	17.264
256.16	17.288
256.54	15.584
256.91	14.379
257.28	15.719
257.65	11.599
258.02	13.274
258.39	17.192
258.76	15.652
259.14	14.000
259.51	12.245
259.88	13.982
260.25	12.363
260.62	14.521
260.99	13.223
261.36	16.156
261.73	13.298
262.10	15.969
262.47	10.750
262.85	11.467
263.22	13.625
263.59	15.345
263.96	13.283
264.33	9.383
264.70	14.251
265.07	12.439
265.44	13.303
265.81	12.500
266.18	15.103
266.55	11.111
266.92	9.843
267.29	12.281
267.66	9.641
268.03	9.865
268.40	11.628
268.77	10.132
269.14	8.894
269.51	9.800
269.88	12.653
270.25	9.287
270.62	11.159
270.99	9.736
271.36	10.772
271.73	9.644
272.10	10.909
272.47	10.317
272.84	10.180
273.21	9.091
273.58	10.526
273.95	8.830
274.32	11.868
274.69	11.417
275.06	13.297
275.43	9.579
275.80	10.000
276.17	10.110
276.54	11.028
276.91	11.194
277.28	10.584
277.65	11.624
278.02	9.559
278.39	10.971
278.76	11.379
279.13	9.253
279.50	10.000
279.87	10.242
280.23	7.366
280.60	9.672
280.97	9.483
281.34	8.911
281.71	10.957
282.08	12.308
282.45	10.473
282.82	9.030
283.19	12.719
283.56	10.413
283.92	8.795
284.29	10.815
284.66	10.924
285.03	8.955
285.40	9.917
285.77	9.722
286.14	9.288
286.51	9.969
286.87	7.753
287.24	7.357
287.61	8.359
287.98	9.403
288.35	9.481
288.72	8.194
289.08	8.108
289.45	8.994
289.82	9.375
290.19	10.102
290.56	9.607
290.93	8.777
291.29	10.635
291.66	9.322
292.03	8.415
292.40	7.453
292.77	9.471
293.13	10.128
293.50	8.097
293.87	7.588
294.24	10.350
294.60	10.363
294.97	9.371
295.34	8.765
295.71	12.484
296.08	8.933
296.44	9.403
296.81	7.692
297.18	8.365
297.55	10.468
297.91	8.374
298.28	11.111
298.65	7.730
299.02	8.565
299.38	8.393
299.75	9.390
300.12	9.174
300.48	10.539
300.85	9.893
301.22	10.233
301.59	8.137
301.95	7.818
302.32	7.916
302.69	10.407
303.05	10.101
303.42	10.650
303.79	9.859
304.15	8.141
304.52	9.302
304.89	9.488
305.25	9.455
305.62	10.021
305.99	10.217
306.35	8.947
306.72	9.573
307.09	10.041
307.45	9.820
307.82	9.568
308.19	9.897
308.55	9.000
308.92	10.697
309.29	11.637
309.65	10.505
310.02	11.156
310.38	11.167
310.75	10.415
311.12	10.728
311.48	12.838
311.85	12.309
312.22	10.793
312.58	11.273
312.95	11.456
313.31	11.891
313.68	11.163
314.05	12.363
314.41	11.639
314.78	11.269
315.14	11.848
315.51	13.434
315.87	12.226
316.24	12.232
316.61	12.713
316.97	11.651
317.34	11.770
317.70	13.257
318.07	14.413
318.43	13.533
318.80	13.398
319.16	13.986
319.53	14.336
319.89	13.351
320.26	14.898
320.62	13.919
320.99	13.918
321.35	14.193
321.72	15.655
322.08	14.774
322.45	15.259
322.81	14.273
323.18	16.163
323.54	15.767
323.91	15.141
324.27	14.943
324.64	14.706
325.00	16.034
325.37	16.779
325.73	15.346
326.10	17.399
326.46	16.020
326.83	15.360
327.19	15.582
327.56	16.294
327.92	16.148
328.29	17.430
328.65	17.808
329.01	17.879
329.38	17.428
329.74	17.165
330.11	16.768
330.47	18.073
330.84	16.480
331.20	17.259
331.56	18.998
331.93	17.451
332.29	16.156
332.66	18.112
333.02	16.409
333.38	18.237
333.75	17.932
334.11	18.121
334.48	17.607
334.84	17.399
335.20	17.793
335.57	17.045
335.93	17.494
336.29	17.496
336.66	18.439
337.02	17.280
337.38	16.509
337.75	17.821
338.11	17.553
338.47	17.358
338.84	16.850
339.20	17.316
339.56	17.998
339.93	16.639
340.29	16.555
340.65	17.603
341.02	17.940
341.38	16.502
341.74	16.611
342.11	16.277
342.47	16.899
342.83	16.981
343.20	16.896
343.56	16.521
343.92	16.185
344.28	16.906
344.65	17.767
345.01	16.270
345.37	16.026
345.73	16.508
346.10	16.892
346.46	16.826
346.82	15.741
347.19	15.765
347.55	15.144
347.91	16.692
348.27	14.717
348.63	16.456
349.00	16.527
349.36	16.187
349.72	16.820
350.08	17.003
350.45	16.222
350.81	16.055
351.17	15.871
351.53	14.704
351.89	15.307
352.26	15.344
352.62	14.630
352.98	15.721
353.34	16.795
353.70	15.138
354.07	15.385
354.43	14.823
354.79	15.034
355.15	15.926
355.51	14.653
355.87	16.566
356.24	16.089
356.60	15.221
356.96	15.011
357.32	15.373
357.68	15.639
358.04	16.261
358.40	15.667
358.77	15.702
359.13	15.240
359.49	14.826
359.85	15.264
360.21	15.230
360.57	15.474
360.93	15.079
361.29	14.502
361.66	15.362
362.02	13.991
362.38	15.079
362.74	15.145
363.10	14.306
363.46	14.365
363.82	14.937
364.18	15.220
364.54	14.378
364.90	14.726
365.26	14.990
365.62	14.227
365.98	13.421
366.35	14.000
366.71	14.365
367.07	14.539
367.43	14.439
367.79	14.362
368.15	13.501
368.51	13.370
368.87	13.995
369.23	14.137
369.59	14.767
369.95	13.706
370.31	13.415
370.67	14.087
371.03	13.796
371.39	14.612
371.75	13.119
372.11	13.868
372.47	15.342
372.83	14.344
373.19	14.531
373.55	13.746
373.91	13.122
374.27	13.955
374.63	13.559
374.99	13.814
375.35	13.642
375.71	14.050
376.07	14.655
376.42	12.916
376.78	13.744
377.14	13.434
377.50	13.109
377.86	13.261
378.22	13.711
378.58	13.438
378.94	13.579
379.30	12.674
379.66	13.666
380.02	14.076
380.38	12.881
380.74	14.187
381.09	13.259
381.45	13.064
381.81	12.293
382.17	13.065
382.53	12.717
382.89	12.951
383.25	12.611
383.61	13.545
383.97	12.418
384.32	12.598
384.68	13.666
385.04	12.954
385.40	13.167
385.76	12.873
386.12	13.482
386.48	12.644
386.83	11.797
387.19	12.898
387.55	13.192
387.91	12.702
388.27	12.433
388.62	13.087
388.98	12.362
389.34	12.612
389.70	12.087
390.06	11.646
390.42	12.770
390.77	11.916
391.13	12.734
391.49	12.523
391.85	12.677
392.20	11.979
392.56	13.023
392.92	11.847
393.28	11.883
393.64	11.869
393.99	12.033
394.35	12.596
394.71	11.821
395.07	12.165
395.42	12.002
395.78	13.263
396.14	13.072
396.50	12.034
396.85	11.768
397.21	12.214
397.57	12.433
397.92	11.323
398.28	11.252
398.64	12.740
399.00	11.705
399.35	11.057
399.71	11.755
400.07	12.215
400.42	12.060
400.78	12.199
401.14	10.981
401.49	12.154
401.85	11.703
402.21	11.248
402.57	11.311
402.92	12.000
403.28	11.217
403.63	11.006
403.99	11.460
404.35	12.661
404.70	11.872
405.06	10.724
405.42	11.370
405.77	11.466
406.13	12.148
406.49	11.256
406.84	11.788
407.20	12.158
407.55	11.508
407.91	11.934
408.27	11.765
408.62	10.940
408.98	12.241
409.34	11.748
409.69	11.512
410.05	10.972
410.40	11.249
410.76	10.876
411.11	10.960
411.47	11.728
411.83	11.131
412.18	10.870
412.54	11.351
412.89	10.737
413.25	11.574
413.60	10.748
413.96	10.772
414.31	11.393
414.67	11.484
415.03	10.089
415.38	11.672
415.74	10.929
416.09	11.118
416.45	12.023
416.80	12.765
417.16	11.394
417.51	11.656
417.87	10.701
418.22	10.996
418.58	10.955
418.93	11.184
419.29	10.105
419.64	11.387
420.00	11.874
420.35	11.092
420.71	11.027
421.06	10.771
421.42	10.420
421.77	11.105
422.12	10.474
422.48	10.632
422.83	11.719
423.19	10.583
423.54	11.081
423.90	10.929
424.25	11.007
424.61	11.724
424.96	10.559
425.31	11.549
425.67	10.718
426.02	11.497
426.38	10.152
426.73	10.931
427.09	10.854
427.44	10.298
427.79	10.292
428.15	11.903
428.50	12.000
428.85	11.346
429.21	10.967
429.56	10.668
429.92	10.890
430.27	10.547
430.62	10.964
430.98	11.128
431.33	10.383
431.68	9.679
432.04	10.295
432.39	11.526
432.74	11.358
433.10	10.853
433.45	10.684
433.80	12.631
434.16	11.140
434.51	10.888
434.86	11.105
435.22	10.265
435.57	10.788
435.92	11.497
436.28	11.866
436.63	11.021
436.98	10.923
437.34	11.016
437.69	10.918
438.04	10.914
438.39	11.267
438.75	10.969
439.10	10.308
439.45	11.306
439.81	11.567
440.16	11.007
440.51	10.867
440.86	11.168
441.22	10.985
441.57	11.706
441.92	9.970
442.27	10.567
442.63	11.026
442.98	10.237
443.33	10.712
443.68	10.815
444.03	10.509
444.39	10.593
444.74	10.559
445.09	10.953
445.44	10.999
445.79	11.014
446.15	11.263
446.50	10.918
446.85	10.956
447.20	10.896
447.55	10.875
447.91	11.348
448.26	11.289
448.61	11.332
448.96	11.057
449.31	10.671
449.66	10.797
450.02	10.481
450.37	11.383
450.72	11.680
451.07	11.169
451.42	11.915
451.77	11.054
452.12	11.061
452.47	11.179
452.83	10.648
453.18	10.991
453.53	11.190
453.88	11.829
454.23	11.505
454.58	11.597
454.93	10.607
455.28	11.750
455.63	10.461
455.98	11.280
456.34	11.550
456.69	11.280
457.04	10.442
457.39	11.543
457.74	11.824
458.09	10.837
458.44	11.281
458.79	11.247
459.14	10.802
459.49	11.325
459.84	11.522
460.19	11.243
460.54	11.282
460.89	11.514
461.24	10.538
461.59	11.451
461.94	11.170
462.29	10.984
462.64	11.872
462.99	11.388
463.34	11.860
463.69	12.039
464.04	11.054
464.39	11.048
464.74	10.961
465.09	10.505
465.44	11.589
465.79	10.016
466.14	10.599
466.49	10.852
466.84	11.483
467.19	11.716
467.54	10.811
467.89	11.913
468.24	11.233
468.59	10.714
468.94	10.507
469.29	11.423
469.64	11.576
469.99	11.825
470.34	11.954
470.68	11.034
471.03	11.341
471.38	11.391
471.73	11.300
472.08	11.676
472.43	11.484
472.78	11.588
473.13	11.014
473.48	11.308
473.83	10.777
474.17	11.368
474.52	11.908
474.87	10.517
475.22	11.936
475.57	10.860
475.92	10.935
476.27	10.555
476.61	10.295
476.96	11.442
477.31	10.591
477.66	11.809
478.01	10.779
478.36	11.329
478.70	10.174
479.05	10.251
479.40	10.565
479.75	11.072
480.10	10.697
480.45	10.784
480.79	10.783
481.14	10.509
481.49	10.704
481.84	10.686
482.19	10.917
482.53	10.716
482.88	10.573
483.23	10.690
483.58	10.682
483.92	11.609
484.27	10.274
484.62	10.951
484.97	10.284
485.31	9.592
485.66	9.383
486.01	9.040
486.36	8.886
486.70	8.729
487.05	9.015
487.40	9.473
487.75	9.414
488.09	9.261
488.44	9.496
488.79	9.406
489.13	9.966
489.48	10.348
489.83	10.175
490.17	10.446
490.52	10.078
490.87	10.388
491.22	10.727
491.56	11.287
491.91	10.394
492.26	10.869
492.60	11.207
492.95	10.467
493.30	10.692
493.64	10.872
493.99	11.360
494.34	10.309
494.68	10.049
495.03	11.001
495.37	10.896
495.72	11.329
496.07	10.018
496.41	10.947
496.76	10.384
497.11	10.497
497.45	10.522
497.80	10.426
498.14	10.310
498.49	10.771
498.84	10.514
499.18	10.558
499.53	10.887
499.87	10.288
500.22	10.180
500.56	11.049
500.91	10.993
501.26	10.243
501.60	10.109
501.95	9.588
502.29	10.800
502.64	10.498
502.98	9.960
503.33	9.933
503.67	10.905
504.02	10.434
504.36	9.955
504.71	10.596
505.06	10.324
505.40	10.388
505.75	10.103
506.09	10.779
506.44	10.808
506.78	11.342
507.13	10.616
507.47	10.626
507.82	11.241
508.16	10.975
508.51	10.386
508.85	10.636
509.19	10.377
509.54	10.937
509.88	11.338
510.23	10.000
510.57	10.328
510.92	11.289
511.26	11.195
511.61	10.290
511.95	11.100
512.30	10.750
512.64	10.125
512.98	10.456
513.33	10.707
513.67	10.823
514.02	10.597
514.36	10.748
514.70	10.453
515.05	10.655
515.39	10.526
515.74	10.990
516.08	11.057
516.42	11.257
516.77	10.667
517.11	11.040
517.46	11.422
517.80	10.923
518.14	11.042
518.49	10.915
518.83	9.670
519.17	11.647
519.52	10.978
519.86	10.082
520.20	11.945
520.55	10.627
520.89	10.920
521.23	10.572
521.58	11.188
521.92	11.195
522.26	10.604
522.61	11.765
522.95	11.471
523.29	11.287
523.64	10.694
523.98	11.033
524.32	11.649
524.66	10.667
525.01	10.888
525.35	11.786
525.69	11.559
526.04	11.779
526.38	11.242
526.72	10.979
527.06	11.118
527.41	11.366
527.75	11.564
528.09	11.379
528.43	11.836
528.78	11.389
529.12	11.138
529.46	11.163
529.80	10.806
530.15	11.844
530.49	10.469
530.83	10.908
531.17	11.009
531.51	10.668
531.86	11.413
532.20	11.125
532.54	10.860
532.88	11.305
533.22	11.152
533.57	10.677
533.91	10.373
534.25	9.867
534.59	10.994
534.93	10.808
535.27	10.359
535.62	10.152
535.96	10.875
536.30	11.456
536.64	10.870
536.98	10.510
537.32	11.938
537.66	10.714
538.01	11.084
538.35	10.979
538.69	10.437
539.03	10.448
539.37	10.558
539.71	11.296
540.05	10.769
540.39	10.692
540.73	11.203
541.07	9.598
541.42	9.888
541.76	11.282
542.10	10.851
542.44	11.534
542.78	10.824
543.12	10.552
543.46	9.774
543.80	11.028
544.14	10.960
544.48	11.192
544.82	10.887
545.16	10.808
545.50	10.203
545.84	11.174
546.18	11.704
546.52	10.951
546.86	11.283
547.20	10.788
547.54	10.956
547.88	11.496
548.22	10.747
548.56	10.607
548.90	11.329
549.24	11.181
549.58	10.631
549.92	10.675
550.26	10.548
550.60	11.510
550.94	11.465
551.28	10.690
551.62	11.034
551.96	10.473
552.30	9.888
552.64	10.809
552.98	9.923
553.32	10.179
553.66	10.814
554.00	11.454
554.34	11.252
554.68	10.685
555.02	11.134
555.36	10.572
555.69	10.995
556.03	10.764
556.37	11.090
556.71	11.343
557.05	9.371
557.39	11.200
557.73	11.186
558.07	10.999
558.41	10.692
558.75	11.833
559.08	11.151
559.42	11.238
559.76	11.404
560.10	10.736
560.44	11.214
560.78	11.253
561.12	10.998
561.45	9.887
561.79	10.549
562.13	10.044
562.47	9.734
562.81	10.410
563.15	10.795
563.48	10.621
563.82	10.543
564.16	10.199
564.50	10.307
564.84	10.274
565.17	10.101
565.51	11.330
565.85	10.241
566.19	9.643
566.52	9.868
566.86	10.683
567.20	10.730
567.54	9.279
567.88	10.016
568.21	9.236
568.55	9.728
568.89	9.900
569.23	8.758
569.56	9.145
569.90	8.839
570.24	8.859
570.57	8.825
570.91	8.144
571.25	7.859
571.59	7.896
571.92	8.100
572.26	7.385
572.60	7.553
572.93	8.309
573.27	7.611
573.61	7.553
573.95	7.545
574.28	7.683
574.62	7.639
574.96	7.165
575.29	7.267
575.63	7.468
575.97	7.473
576.30	7.239
576.64	7.687
576.98	7.360
577.31	7.368
577.65	7.455
577.98	6.985
578.32	6.777
578.66	6.921
578.99	7.552
579.33	7.623
579.67	7.201
580.00	6.902
580.34	7.175
580.67	7.204
581.01	7.483
581.35	6.877
581.68	7.071
582.02	7.119
582.35	6.659
582.69	7.122
583.02	7.082
583.36	7.193
583.70	7.309
584.03	7.755
584.37	7.345
584.70	7.639
585.04	7.399
585.37	7.236
585.71	7.730
586.04	7.461
586.38	7.422
586.72	7.465
587.05	7.823
587.39	7.611
587.72	7.612
588.06	7.524
588.39	7.267
588.73	7.818
589.06	7.412
589.40	7.731
589.73	7.768
590.07	7.927
590.40	8.362
590.73	8.814
591.07	8.805
591.40	8.303
591.74	8.360
592.07	7.987
592.41	8.233
592.74	7.909
593.08	7.324
593.41	7.870
593.75	7.643
594.08	7.792
594.41	8.081
594.75	7.911
595.08	7.956
595.42	8.361
595.75	7.733
596.09	7.994
596.42	8.012
596.75	8.814
597.09	8.667
597.42	8.286
597.75	8.357
598.09	8.043
598.42	8.242
598.76	7.980
599.09	8.275
599.42	7.820
599.76	8.005
600.09	8.203
600.42	7.631
600.76	7.512
601.09	7.801
601.42	7.779
601.76	7.662
602.09	8.168
602.42	8.096
602.76	7.894
603.09	7.768
603.42	8.330
603.76	8.315
604.09	7.600
604.42	7.834
604.76	7.744
605.09	8.531
605.42	8.777
605.75	8.093
606.09	8.148
606.42	7.967
606.75	7.967
607.09	7.856
607.42	7.875
607.75	8.718
608.08	8.489
608.42	8.221
608.75	8.558
609.08	8.007
609.41	8.455
609.75	8.745
610.08	8.498
610.41	8.608
610.74	8.701
611.07	9.004
611.41	9.082
611.74	8.461
612.07	8.815
612.40	8.967
612.73	9.536
613.07	9.630
613.40	9.023
613.73	8.637
614.06	8.400
614.39	9.192
614.72	8.237
615.06	8.358
615.39	8.465
615.72	8.712
616.05	9.191
616.38	8.929
616.71	8.736
617.05	9.390
617.38	8.876
617.71	9.336
618.04	8.974
618.37	9.005
618.70	8.487
619.03	9.158
619.36	9.925
619.69	10.554
620.03	11.024
620.36	9.505
620.69	10.153
621.02	10.122
621.35	9.742
621.68	9.956
622.01	11.144
622.34	9.832
622.67	10.042
623.00	9.871
623.33	10.729
623.66	10.313
623.99	10.959
624.32	10.095
624.65	9.612
624.99	10.142
625.32	10.087
625.65	9.034
625.98	10.042
626.31	10.386
626.64	9.795
626.97	9.870
627.30	10.404
627.63	10.204
627.96	10.172
628.29	10.644
628.62	11.121
628.95	11.082
629.28	11.569
629.61	10.281
629.94	10.372
630.26	11.525
630.59	11.613
630.92	11.480
631.25	13.237
631.58	11.475
631.91	11.703
632.24	11.079
632.57	11.297
632.90	11.594
633.23	13.641
633.56	12.013
633.89	12.540
634.22	12.809
634.55	12.366
634.88	12.924
635.20	13.565
635.53	10.918
635.86	12.975
636.19	11.897
636.52	12.324
636.85	10.680
637.18	12.676
637.51	12.179
637.83	12.700
638.16	12.544
638.49	14.371
638.82	14.319
639.15	11.868
639.48	13.507
639.81	11.966
640.13	12.883
640.46	14.412
640.79	13.004
641.12	13.517
641.45	14.489
641.77	14.399
642.10	13.119
642.43	15.505
642.76	12.500
643.09	13.689
643.41	12.903
643.74	14.532
644.07	14.749
644.40	14.645
644.73	13.664
645.05	16.048
645.38	13.936
645.71	15.175
646.04	14.809
646.36	14.710
646.69	15.040
647.02	14.240
647.35	13.543
647.67	15.397
648.00	13.029
648.33	14.436
648.66	13.030
648.98	13.043
649.31	12.551
649.64	12.863
649.96	12.802
650.29	13.571
650.62	13.844
650.94	15.211
651.27	15.949
651.60	14.241
651.92	13.825
652.25	14.488
652.58	13.475
652.90	14.072
653.23	13.737
653.56	13.798
653.88	12.922
654.21	12.610
654.54	13.031
654.86	12.242
655.19	14.116
655.52	9.966
655.84	5.790
656.17	6.136
656.49	8.707
656.82	9.802
657.15	8.034
657.47	5.921
657.80	4.634
658.13	3.588
658.45	5.046
658.78	6.235
659.10	6.680
659.43	6.974
659.75	7.318
660.08	8.521
660.41	10.345
660.73	12.547
661.06	13.363
661.38	15.162
661.71	16.727
662.03	15.779
662.36	17.143
662.68	14.525
663.01	17.297
663.33	17.358
663.66	13.807
663.98	15.675
664.31	17.164
664.63	16.475
664.96	18.574
665.28	14.124
665.61	15.283
665.93	15.849
666.26	13.645
666.58	16.697
666.91	15.251
667.23	17.269
667.56	16.427
667.88	16.390
668.21	15.164
668.53	16.734
668.86	18.838
669.18	15.275
669.50	14.669
669.83	18.070
670.15	16.840
670.48	14.844
670.80	17.131
671.13	15.339
671.45	18.236
671.77	17.625
672.10	15.978
672.42	14.309
672.75	14.873
673.07	14.308
673.39	12.939
673.72	12.976
674.04	16.667
674.37	13.612
674.69	14.312
675.01	13.060
675.34	14.922
675.66	16.211
675.98	15.976
676.31	14.600
676.63	16.302
676.95	15.079
677.28	15.010
677.60	14.889
677.92	12.698
678.25	15.116
678.57	16.946
678.89	17.902
679.22	17.096
679.54	14.235
679.86	14.485
680.18	13.181
680.51	12.438
680.83	12.838
681.15	15.251
681.48	15.799
681.80	15.236
682.12	14.879
682.44	13.694
682.77	15.125
683.09	16.505
683.41	15.510
683.73	17.520
684.06	13.690
684.38	16.279
684.70	14.748
685.02	13.194
685.34	13.908
685.67	13.826
685.99	13.300
686.31	13.251
686.63	13.659
686.96	13.889
687.28	11.913
687.60	13.993
687.92	13.903
688.24	14.483
688.56	14.591
688.89	13.958
689.21	15.607
689.53	15.810
689.85	13.821
690.17	15.534
690.49	16.532
690.82	15.126
691.14	14.949
691.46	15.400
691.78	16.374
692.10	14.695
692.42	12.704
692.74	15.891
693.06	15.504
693.39	15.415
693.71	14.735
694.03	16.765
694.35	17.269
694.67	14.664
694.99	15.299
695.31	17.568
695.63	17.647
695.95	13.348
696.27	18.142
696.59	16.945
696.91	16.709
697.23	16.742
697.56	13.693
697.88	14.371
698.20	14.340
698.52	12.257
698.84	16.427
699.16	16.844
699.48	16.314
699.80	18.083
700.12	18.476
700.44	15.421
700.76	16.468
701.08	15.927
701.40	17.662
701.72	21.390
702.04	18.428
702.36	18.011
702.68	19.149
703.00	14.035
703.32	19.355
703.64	16.877
703.96	15.365
704.28	19.312
704.60	19.155
704.91	17.927
705.23	18.750
705.55	21.068
705.87	19.365
706.19	22.257
706.51	25.705
706.83	20.059
707.15	19.251
707.47	18.160
707.79	16.782
708.11	13.379
708.43	14.607
708.74	14.706
709.06	17.209
709.38	18.362
709.70	17.439
710.02	17.935
710.34	19.613
710.66	20.000
710.98	19.399
711.29	15.042
711.61	19.499
711.93	17.021
712.25	20.181
712.57	20.257
712.89	19.394
713.20	21.086
713.52	16.822
713.84	20.544
714.16	16.232
714.48	14.697
714.80	15.718
715.11	15.426
715.43	16.760
715.75	19.155
716.07	15.607
716.39	17.143
716.70	16.822
717.02	22.559
717.34	19.424
717.66	22.222
717.97	24.242
718.29	21.479
718.61	17.905
718.93	21.453
719.24	20.134
719.56	17.586
719.88	17.834
720.20	19.032
720.51	19.281
720.83	20.067
721.15	21.429
721.46	19.521
721.78	19.164
722.10	20.833
722.42	22.408
722.73	22.383
723.05	21.404
723.37	23.322
723.68	18.750
724.00	23.106
724.32	23.194
724.63	20.000
724.95	23.529
725.27	22.305
725.58	20.221
725.90	17.958
726.22	19.521
726.53	20.736
726.85	23.127
727.16	24.161
727.48	16.944
727.80	21.583
728.11	19.643
728.43	19.928
728.74	23.077
729.06	18.996
729.38	20.000
729.69	22.333
730.01	19.079
730.32	21.812
730.64	22.591
730.96	22.523
731.27	13.456
731.59	12.931
731.90	15.599
732.22	18.000
732.53	15.954
732.85	17.251
733.16	17.771
733.48	17.868
733.80	19.710
734.11	17.791
734.43	15.205
734.74	16.622
735.06	17.725
735.37	13.660
735.69	14.783
736.00	19.266
736.32	13.636
736.63	10.726
736.95	13.665
737.26	15.244
737.58	15.951
737.89	17.169
738.21	19.868
738.52	18.395
738.83	19.414
739.15	21.254
739.46	18.621
739.78	20.068
740.09	17.493
740.41	20.552
740.72	21.270
741.04	22.727
741.35	19.141
741.66	20.158
741.98	25.751
742.29	21.296
742.61	24.779
742.92	18.220
743.23	20.800
743.55	18.868
743.86	18.431
744.18	22.034
744.49	25.620
744.80	19.355
745.12	25.893
745.43	23.364
745.74	22.222
746.06	17.544
746.37	20.465
746.68	23.451
747.00	25.561
747.31	25.210
747.62	20.082
747.94	18.026
748.25	19.455
748.56	20.763
748.88	26.339
749.19	26.512
749.50	18.265
749.82	19.753
750.13	22.530
750.44	20.333
750.75	17.450
751.07	18.092
751.38	16.832
751.69	15.488
752.01	19.580
752.32	19.269
752.63	21.812
752.94	24.126
753.26	21.094
753.57	19.844
753.88	22.472
754.19	21.661
754.51	18.937
754.82	16.443
755.13	19.595
755.44	22.593
755.75	23.368
756.07	19.863
756.38	14.706
756.69	18.438
757.00	21.662
757.31	16.901
757.63	14.325
757.94	15.160
758.25	17.150
758.56	14.188
758.87	15.789
759.18	15.988
759.50	15.805
759.81	16.914
760.12	18.539
760.43	15.126
760.74	18.734
761.05	16.180
761.36	15.885
761.67	15.633
761.99	16.338
762.30	17.363
762.61	18.750
762.92	19.697
763.23	21.509
763.54	20.000
763.85	12.840
764.16	21.528
764.47	17.568
764.78	16.612
765.10	17.073
765.41	12.216
765.72	16.298
766.03	13.293
766.34	13.240
766.65	19.011
766.96	22.672
767.27	27.570
767.58	24.257
767.89	28.729
768.20	27.439
768.51	21.429
768.82	19.737
769.13	22.745
769.44	22.180
769.75	20.974
770.06	25.210
770.37	16.667
770.68	18.667
770.99	23.729
771.30	19.247
771.61	24.615
771.92	20.229
772.23	20.565
772.54	23.556
772.85	22.772
773.16	20.652
773.47	23.889
773.78	23.267
774.09	27.841
774.39	30.303
774.70	27.647
775.01	22.368
775.32	26.708
775.63	28.082
775.94	40.741
776.25	26.897
776.56	26.718
776.87	38.168
777.18	34.848
777.48	33.071
777.79	30.769
778.10	35.606
778.41	32.090
778.72	30.075
779.03	25.641
779.34	32.432
779.65	27.329
779.95	26.087
780.26	28.571
780.57	33.333
780.88	37.589
781.19	36.667
781.50	25.444
781.80	27.322
782.11	24.339
782.42	28.736
782.73	28.814
783.04	29.032
783.34	25.581
783.65	29.932
783.96	30.323
784.27	29.139
784.57	24.342
784.88	39.855
785.19	27.500
785.50	40.517
785.81	39.535
786.11	33.333
786.42	38.583
786.73	37.838
787.04	34.906
787.34	31.707
787.65	39.394
787.96	38.636
788.26	30.709
788.57	33.577
788.88	32.394
789.19	33.588
789.49	37.838
789.80	31.250
790.11	41.322
790.41	28.704
790.72	36.111
791.03	36.538
791.33	40.404
791.64	45.263
791.95	38.947
792.25	33.333
792.56	48.000
792.87	39.024
793.17	30.682
793.48	45.882
793.79	56.322
794.09	39.773
794.40	52.586
794.70	26.984
795.01	33.846
795.32	32.061
795.62	29.915
795.93	38.655
796.23	43.089
796.54	39.796
796.85	43.182
797.15	57.143
797.46	62.195
797.76	47.500
798.07	42.667
798.37	61.250
798.68	47.500
798.99	53.659
799.29	58.667
799.60	39.535
799.90	51.316
800.21	56.061
800.51	49.296
800.82	51.724
801.12	56.923
801.43	60.000
801.73	46.552
802.04	53.247
802.34	54.795
802.65	54.902
802.95	50.000
803.26	64.516
803.56	75.000
803.87	55.224
804.17	68.254
804.48	54.717
804.78	65.278
805.09	60.606
805.39	61.905
805.70	71.930
806.00	47.143
806.30	45.312
806.61	50.588
806.91	53.333
807.22	44.565
807.52	30.263
807.83	61.842
808.13	71.014
808.43	74.194
808.74	45.205
809.04	57.143
809.35	51.471
809.65	62.121
809.95	72.549
810.26	74.074
810.56	75.000
810.86	59.184
811.17	78.947
811.47	73.913
811.77	63.793
812.08	77.586
812.38	61.905
812.69	78.571
812.99	64.444
813.29	97.143
813.59	87.097
813.90	44.828
814.20	72.131
814.50	50.000
814.81	54.386
815.11	66.667
815.41	57.143
815.72	64.286
816.02	74.000
816.32	70.732
816.62	75.862
816.93	115.152
817.23	92.683
817.53	78.571
817.84	68.889
818.14	83.333
818.44	89.583
818.74	77.358
819.04	102.564
819.35	118.182
819.65	92.308
819.95	100.000
820.25	89.362
820.56	83.784
820.86	121.053
821.16	48.936
821.46	68.421
821.76	74.545
822.07	71.429
822.37	60.526
822.67	97.674
822.97	68.421
823.27	80.435
823.57	87.500
823.88	102.564
824.18	115.152
824.48	143.478
824.78	83.333
825.08	121.739
825.38	144.828
825.69	105.882
825.99	80.851
826.29	80.556
826.59	80.000
826.89	143.333
827.19	65.714
827.49	112.903
827.79	176.923
828.09	100.000
828.39	86.111
828.70	89.189
829.00	128.571
829.30	143.750
829.60	94.444
829.90	87.097
830.20	93.939
830.50	124.324
830.80	166.667
831.10	161.538
831.40	142.857
831.70	187.500
832.00	116.667
832.30	160.870
832.60	137.500
832.90	145.455
833.20	230.000
833.50	86.842
833.80	102.941
834.10	102.632
834.40	136.842
834.70	96.667
835.00	152.000
835.30	108.108
835.60	125.000
835.90	113.514
836.20	138.462
836.50	104.545
836.80	82.927
837.10	82.609
837.40	315.385
837.70	100.000
838.00	143.333
838.30	175.000
838.60	152.000
838.90	230.000
839.19	150.000
839.49	143.333
839.79	106.897
840.09	150.000
840.39	206.667
840.69	173.684
840.99	114.286
841.29	165.217
841.59	170.000
841.88	156.000
842.18	244.444
842.48	178.571
842.78	114.815
843.08	176.923
843.38	177.273
843.68	242.857
843.97	400.000
844.27	143.478
844.57	1000.000
844.87	242.857
845.17	200.000
845.47	119.048
845.76	179.167
846.06	514.286
846.36	217.647
846.66	238.462
846.96	250.000
847.25	276.923
847.55	163.158
847.85	138.889
848.15	460.000
848.44	363.636
848.74	123.810
849.04	125.000
849.34	176.471
849.63	243.750
849.93	256.250
850.23	1033.333
850.53	375.000
850.82	327.273
851.12	152.941
851.42	183.333
851.71	206.250
852.01	0.000
852.31	235.294
852.61	400.000
852.90	158.333
853.20	322.222
853.50	-1400.000
853.79	136.000
854.09	125.000
854.39	103.448
854.68	117.241
854.98	166.667
855.28	154.839
855.57	235.714
855.87	172.222
856.17	133.333
856.46	189.474
856.76	145.161
857.05	247.059
857.35	290.909
857.65	230.769
857.94	170.000
858.24	422.222
858.53	278.571
858.83	628.571
859.13	169.565
859.42	244.444
859.72	325.000
860.01	258.333
860.31	750.000
860.60	380.000
860.90	487.500
861.20	269.231
861.49	342.857
861.79	-3200.000
862.08	442.857
862.38	355.556
862.67	185.714
862.97	330.000
863.26	140.000
863.56	875.000
863.85	300.000
864.15	217.647
864.44	183.333
864.74	233.333
865.03	309.091
865.33	375.000
865.62	226.667
865.92	516.667
866.21	825.000
866.51	660.000
866.80	222.222
867.10	900.000
867.39	3600.000
867.69	580.000
867.98	750.000
868.27	195.238
868.57	226.667
868.86	975.000
869.16	204.762
869.45	3400.000
869.75	-516.667
870.04	775.000
870.33	720.000
870.63	362.500
870.92	182.353
871.22	850.000
871.51	557.143
871.80	258.333
872.10	253.846
>>>>>End Processed Spectral Data<<<<<
