SpectraSuite Data File
++++++++++++++++++++++++++++++++++++
Date: Tue May 12 16:52:38 PDT 2015
User: schluterlab
Dark Spectrum Present: Yes
Reference Spectrum Present: Yes
Number of Sampled Component Spectra: 1
Spectrometers: USB2E3373
Integration Time (usec): 3000 (USB2E3373)
Spectra Averaged: 3 (USB2E3373)
Boxcar Smoothing: 0 (USB2E3373)
Correct for Electrical Dark: No (USB2E3373)
Strobe/Lamp Enabled: No (USB2E3373)
Correct for Detector Non-linearity: No (USB2E3373)
Correct for Stray Light: No (USB2E3373)
Number of Pixels in Processed Spectrum: 2048
>>>>>Begin Processed Spectral Data<<<<<
178.53	0.000
178.91	-291.667
179.29	-725.000
179.67	-4700.000
180.04	-113.333
180.42	975.000
180.80	1250.000
181.18	0.000
181.56	-362.500
181.94	0.000
182.31	966.667
182.69	-3100.000
183.07	614.286
183.45	-2700.000
183.83	-1600.000
184.20	360.000
184.58	457.143
184.96	-153.846
185.34	-150.000
185.72	1850.000
186.09	-1000.000
186.47	-2900.000
186.85	933.333
187.23	460.000
187.61	1300.000
187.98	475.000
188.36	271.429
188.74	333.333
189.12	375.000
189.49	950.000
189.87	0.000
190.25	512.500
190.63	2900.000
191.00	-183.333
191.38	-3300.000
191.76	-650.000
192.14	500.000
192.51	-3500.000
192.89	1400.000
193.27	1066.667
193.65	-1000.000
194.02	-900.000
194.40	585.714
194.78	-178.571
195.15	200.000
195.53	-2700.000
195.91	-600.000
196.29	3800.000
196.66	268.750
197.04	675.000
197.42	-1500.000
197.79	575.000
198.17	375.000
198.55	0.000
198.92	542.857
199.30	966.667
199.68	1500.000
200.05	600.000
200.43	-500.000
200.81	161.111
201.18	3500.000
201.56	191.667
201.94	-725.000
202.31	-250.000
202.69	-440.000
203.07	3000.000
203.44	-533.333
203.82	383.333
204.19	620.000
204.57	-1200.000
204.95	-800.000
205.32	-600.000
205.70	600.000
206.08	700.000
206.45	-866.667
206.83	300.000
207.20	215.789
207.58	241.667
207.96	700.000
208.33	0.000
208.71	671.429
209.08	880.000
209.46	-2700.000
209.84	-750.000
210.21	960.000
210.59	-640.000
210.96	225.000
211.34	-675.000
211.71	400.000
212.09	925.000
212.46	1650.000
212.84	-533.333
213.22	311.111
213.59	-2000.000
213.97	330.000
214.34	675.000
214.72	1233.333
215.09	800.000
215.47	-2400.000
215.84	-250.000
216.22	-325.000
216.59	0.000
216.97	0.000
217.34	1150.000
217.72	-1550.000
218.09	1233.333
218.47	450.000
218.84	700.000
219.22	1333.333
219.59	933.333
219.97	657.143
220.34	433.333
220.72	1700.000
221.09	3500.000
221.47	250.000
221.84	1233.333
222.22	250.000
222.59	244.444
222.97	200.000
223.34	218.750
223.72	-1350.000
224.09	1133.333
224.46	284.615
224.84	-825.000
225.21	388.889
225.59	300.000
225.96	1266.667
226.34	-500.000
226.71	-750.000
227.08	-700.000
227.46	0.000
227.83	-616.667
228.21	-1800.000
228.58	350.000
228.95	875.000
229.33	477.778
229.70	950.000
230.08	323.077
230.45	2700.000
230.82	-925.000
231.20	-866.667
231.57	-1100.000
231.95	560.000
232.32	283.333
232.69	650.000
233.07	216.667
233.44	-1500.000
233.81	213.333
234.19	162.963
234.56	250.000
234.93	223.529
235.31	195.000
235.68	243.750
236.05	139.286
236.43	155.556
236.80	264.286
237.17	127.586
237.55	156.250
237.92	145.000
238.29	145.455
238.67	131.250
239.04	117.073
239.41	79.167
239.79	95.000
240.16	79.167
240.53	70.492
240.91	75.362
241.28	94.915
241.65	72.727
242.02	95.775
242.40	77.143
242.77	68.132
243.14	64.557
243.51	64.646
243.89	57.944
244.26	64.486
244.63	67.327
245.00	64.220
245.38	48.305
245.75	54.545
246.12	57.778
246.49	53.901
246.87	59.836
247.24	54.667
247.61	53.750
247.98	55.782
248.36	55.152
248.73	53.061
249.10	48.214
249.47	55.000
249.84	49.254
250.22	52.973
250.59	47.500
250.96	45.992
251.33	46.047
251.70	49.554
252.08	48.319
252.45	44.223
252.82	42.205
253.19	43.478
253.56	37.308
253.94	41.304
254.31	46.124
254.68	45.296
255.05	45.517
255.42	44.161
255.79	43.322
256.16	44.746
256.54	43.506
256.91	46.405
257.28	40.468
257.65	40.125
258.02	41.593
258.39	41.834
258.76	43.768
259.14	35.714
259.51	42.566
259.88	41.337
260.25	39.835
260.62	39.452
260.99	35.813
261.36	40.947
261.73	42.553
262.10	39.791
262.47	38.500
262.85	38.933
263.22	41.388
263.59	39.898
263.96	39.599
264.33	38.519
264.70	39.066
265.07	39.512
265.44	38.303
265.81	41.038
266.18	39.588
266.55	40.662
266.92	36.465
267.29	36.184
267.66	40.807
268.03	39.013
268.40	37.632
268.77	41.189
269.14	35.358
269.51	38.085
269.88	37.347
270.25	33.045
270.62	36.052
270.99	37.931
271.36	38.415
271.73	36.897
272.10	36.162
272.47	36.111
272.84	36.327
273.21	37.603
273.58	38.259
273.95	37.372
274.32	40.272
274.69	37.205
275.06	36.066
275.43	37.739
275.80	35.660
276.17	36.765
276.54	35.888
276.91	38.806
277.28	34.672
277.65	34.686
278.02	35.846
278.39	34.532
278.76	33.966
279.13	35.765
279.50	33.273
279.87	32.030
280.23	36.096
280.60	35.036
280.97	36.552
281.34	34.158
281.71	33.739
282.08	35.214
282.45	32.770
282.82	36.957
283.19	34.022
283.56	32.893
283.92	34.202
284.29	34.609
284.66	34.454
285.03	35.323
285.40	34.215
285.77	34.877
286.14	37.926
286.51	34.816
286.87	31.646
287.24	32.733
287.61	33.435
287.98	35.970
288.35	33.037
288.72	33.991
289.08	34.835
289.45	33.841
289.82	34.375
290.19	33.236
290.56	36.245
290.93	34.101
291.29	33.978
291.66	33.051
292.03	33.941
292.40	33.333
292.77	33.705
293.13	34.094
293.50	33.603
293.87	33.604
294.24	34.266
294.60	33.917
294.97	36.084
295.34	34.263
295.71	33.509
296.08	35.067
296.44	35.197
296.81	32.630
297.18	35.234
297.55	33.498
297.91	34.729
298.28	33.816
298.65	33.742
299.02	33.655
299.38	34.053
299.75	34.878
300.12	33.257
300.48	35.597
300.85	34.803
301.22	34.070
301.59	35.495
301.95	33.722
302.32	34.808
302.69	35.294
303.05	37.262
303.42	35.538
303.79	36.836
304.15	33.333
304.52	34.144
304.89	35.821
305.25	36.485
305.62	35.821
305.99	34.891
306.35	35.895
306.72	35.276
307.09	35.611
307.45	35.797
307.82	35.082
308.19	36.804
308.55	35.600
308.92	35.623
309.29	36.095
309.65	36.769
310.02	36.207
310.38	36.191
310.75	37.223
311.12	35.536
311.48	37.934
311.85	36.927
312.22	36.199
312.58	36.540
312.95	37.476
313.31	36.704
313.68	36.492
314.05	37.637
314.41	37.151
314.78	38.068
315.14	38.104
315.51	37.938
315.87	35.949
316.24	38.842
316.61	36.437
316.97	37.431
317.34	38.455
317.70	37.928
318.07	39.502
318.43	37.873
318.80	38.616
319.16	38.199
319.53	39.469
319.89	37.903
320.26	41.155
320.62	38.919
320.99	40.324
321.35	39.796
321.72	40.038
322.08	39.797
322.45	40.145
322.81	41.629
323.18	40.764
323.54	40.679
323.91	41.614
324.27	40.760
324.64	40.484
325.00	41.466
325.37	41.147
325.73	40.894
326.10	42.088
326.46	41.701
326.83	41.200
327.19	41.285
327.56	42.812
327.92	42.213
328.29	42.553
328.65	42.038
329.01	42.002
329.38	42.386
329.74	41.247
330.11	41.790
330.47	42.199
330.84	41.242
331.20	40.525
331.56	42.228
331.93	41.403
332.29	39.626
332.66	42.602
333.02	41.065
333.38	41.536
333.75	41.451
334.11	40.604
334.48	42.051
334.84	41.216
335.20	40.547
335.57	40.806
335.93	40.118
336.29	40.133
336.66	42.110
337.02	39.778
337.38	38.951
337.75	40.372
338.11	40.675
338.47	39.881
338.84	40.051
339.20	40.087
339.56	39.950
339.93	39.465
340.29	38.067
340.65	40.235
341.02	40.145
341.38	39.327
341.74	38.787
342.11	39.399
342.47	39.130
342.83	40.443
343.20	38.319
343.56	37.808
343.92	39.719
344.28	38.437
344.65	38.957
345.01	38.651
345.37	37.420
345.73	38.016
346.10	38.247
346.46	38.357
346.82	36.728
347.19	38.099
347.55	37.237
347.91	36.858
348.27	37.103
348.63	38.212
349.00	38.081
349.36	38.677
349.72	37.768
350.08	38.432
350.45	38.919
350.81	37.385
351.17	37.057
351.53	37.259
351.89	37.374
352.26	37.264
352.62	36.878
352.98	36.580
353.34	37.750
353.70	35.856
354.07	37.231
354.43	36.713
354.79	36.295
355.15	37.213
355.51	36.858
355.87	36.898
356.24	35.720
356.60	36.149
356.96	36.922
357.32	37.905
357.68	36.123
358.04	36.854
358.40	37.556
358.77	36.364
359.13	36.261
359.49	36.397
359.85	36.188
360.21	36.701
360.57	37.153
360.93	36.652
361.29	36.941
361.66	36.987
362.02	35.014
362.38	36.508
362.74	37.580
363.10	35.764
363.46	35.497
363.82	36.957
364.18	35.704
364.54	36.624
364.90	36.747
365.26	35.808
365.62	36.050
365.98	34.618
366.35	35.103
366.71	36.294
367.07	35.563
367.43	34.385
367.79	34.641
368.15	35.482
368.51	36.251
368.87	34.443
369.23	34.997
369.59	34.727
369.95	35.455
370.31	35.181
370.67	36.017
371.03	35.504
371.39	35.319
371.75	35.171
372.11	35.554
372.47	36.575
372.83	34.670
373.19	36.052
373.55	34.364
373.91	34.254
374.27	34.127
374.63	34.780
374.99	34.299
375.35	35.215
375.71	35.752
376.07	35.477
376.42	33.312
376.78	35.260
377.14	34.928
377.50	35.144
377.86	35.042
378.22	34.004
378.58	36.138
378.94	34.581
379.30	34.748
379.66	34.076
380.02	34.956
380.38	33.607
380.74	34.429
381.09	33.411
381.45	33.353
381.81	33.452
382.17	33.822
382.53	33.293
382.89	33.471
383.25	33.452
383.61	33.026
383.97	32.993
384.32	33.936
384.68	34.878
385.04	32.943
385.40	33.986
385.76	32.943
386.12	33.828
386.48	33.374
386.83	33.557
387.19	33.392
387.55	32.214
387.91	32.621
388.27	33.076
388.62	32.336
388.98	33.003
389.34	32.600
389.70	33.019
390.06	32.012
390.42	32.943
390.77	33.538
391.13	32.649
391.49	31.397
391.85	33.600
392.20	32.598
392.56	32.318
392.92	31.668
393.28	32.175
393.64	31.250
393.99	32.009
394.35	30.547
394.71	31.182
395.07	31.326
395.42	31.323
395.78	32.079
396.14	32.108
396.50	31.227
396.85	31.280
397.21	30.445
397.57	31.978
397.92	29.694
398.28	30.447
398.64	31.472
399.00	30.732
399.35	29.737
399.71	30.795
400.07	30.137
400.42	30.149
400.78	31.026
401.14	29.830
401.49	29.608
401.85	29.954
402.21	29.525
402.57	30.162
402.92	29.818
403.28	28.282
403.63	28.723
403.99	29.976
404.35	29.894
404.70	29.415
405.06	27.737
405.42	28.187
405.77	28.611
406.13	27.874
406.49	29.107
406.84	27.975
407.20	28.196
407.55	29.169
407.91	28.207
408.27	28.320
408.62	29.154
408.98	29.154
409.34	28.229
409.69	28.936
410.05	28.026
410.40	27.562
410.76	27.247
411.11	27.844
411.47	27.654
411.83	27.827
412.18	29.106
412.54	28.228
412.89	27.611
413.25	27.993
413.60	28.680
413.96	27.588
414.31	27.096
414.67	28.305
415.03	28.736
415.38	28.833
415.74	28.238
416.09	28.482
416.45	28.895
416.80	29.314
417.16	28.135
417.51	28.025
417.87	27.847
418.22	28.007
418.58	28.917
418.93	28.495
419.29	27.973
419.64	28.225
420.00	28.640
420.35	28.513
420.71	28.238
421.06	26.663
421.42	27.922
421.77	28.928
422.12	28.390
422.48	28.711
422.83	28.850
423.19	28.132
423.54	27.976
423.90	28.256
424.25	29.169
424.61	28.265
424.96	29.023
425.31	29.064
425.67	29.012
426.02	29.052
426.38	29.347
426.73	28.745
427.09	28.944
427.44	29.375
427.79	29.274
428.15	30.230
428.50	30.000
428.85	29.394
429.21	29.930
429.56	29.711
429.92	30.134
430.27	29.366
430.62	28.732
430.98	29.641
431.33	29.486
431.68	28.840
432.04	29.488
432.39	29.638
432.74	31.206
433.10	29.790
433.45	30.672
433.80	30.998
434.16	30.951
434.51	31.011
434.86	30.648
435.22	30.308
435.57	30.765
435.92	32.214
436.28	31.394
436.63	30.686
436.98	30.912
437.34	31.963
437.69	30.963
438.04	31.290
438.39	31.232
438.75	32.071
439.10	30.383
439.45	31.091
439.81	31.579
440.16	31.921
440.51	31.588
440.86	31.909
441.22	31.277
441.57	32.178
441.92	31.540
442.27	30.670
442.63	31.148
442.98	31.412
443.33	32.030
443.68	32.696
444.03	31.574
444.39	32.439
444.74	32.039
445.09	32.596
445.44	32.891
445.79	32.066
446.15	32.421
446.50	33.966
446.85	32.669
447.20	32.488
447.55	33.333
447.91	33.671
448.26	32.428
448.61	32.228
448.96	32.190
449.31	33.608
449.66	34.109
450.02	31.821
450.37	33.370
450.72	33.774
451.07	33.566
451.42	34.025
451.77	32.875
452.12	33.239
452.47	33.536
452.83	33.183
453.18	34.174
453.53	33.393
453.88	34.514
454.23	34.515
454.58	33.159
454.93	33.415
455.28	34.272
455.63	33.806
455.98	33.446
456.34	33.678
456.69	34.817
457.04	33.473
457.39	34.229
457.74	34.291
458.09	33.464
458.44	34.173
458.79	33.634
459.14	33.224
459.49	33.522
459.84	34.076
460.19	33.390
460.54	33.447
460.89	34.062
461.24	34.765
461.59	34.127
461.94	34.102
462.29	34.153
462.64	35.427
462.99	34.357
463.34	34.413
463.69	34.604
464.04	35.521
464.39	34.230
464.74	34.174
465.09	34.127
465.44	34.820
465.79	34.023
466.14	33.492
466.49	33.966
466.84	33.724
467.19	35.267
467.54	33.754
467.89	33.627
468.24	34.627
468.59	34.643
468.94	34.481
469.29	34.514
469.64	35.113
469.99	34.640
470.34	34.978
470.68	35.172
471.03	35.223
471.38	34.834
471.73	34.683
472.08	36.073
472.43	34.761
472.78	35.147
473.13	34.731
473.48	35.208
473.83	33.981
474.17	35.076
474.52	34.953
474.87	34.224
475.22	34.609
475.57	33.578
475.92	33.572
476.27	33.297
476.61	33.458
476.96	33.751
477.31	35.219
477.66	34.729
478.01	34.038
478.36	33.831
478.70	34.839
479.05	34.519
479.40	34.325
479.75	34.558
480.10	35.286
480.45	33.800
480.79	33.687
481.14	34.284
481.49	33.257
481.84	34.301
482.19	33.668
482.53	34.783
482.88	34.140
483.23	34.235
483.58	34.066
483.92	34.735
484.27	32.320
484.62	34.295
484.97	34.320
485.31	33.031
485.66	32.393
486.01	31.064
486.36	30.868
486.70	30.988
487.05	31.025
487.40	31.933
487.75	32.002
488.09	32.159
488.44	32.728
488.79	33.287
489.13	33.445
489.48	33.040
489.83	33.403
490.17	32.989
490.52	34.065
490.87	33.534
491.22	34.530
491.56	34.300
491.91	34.050
492.26	34.477
492.60	34.396
492.95	34.481
493.30	34.531
493.64	34.277
493.99	34.615
494.34	34.155
494.68	34.396
495.03	34.710
495.37	33.904
495.72	35.198
496.07	34.636
496.41	33.102
496.76	34.234
497.11	33.976
497.45	34.064
497.80	33.642
498.14	35.090
498.49	34.494
498.84	36.449
499.18	33.958
499.53	34.084
499.87	33.917
500.22	34.362
500.56	34.448
500.91	34.555
501.26	34.635
501.60	33.925
501.95	34.185
502.29	33.556
502.64	33.083
502.98	33.526
503.33	34.031
503.67	34.216
504.02	33.901
504.36	34.118
504.71	35.005
505.06	34.303
505.40	34.488
505.75	34.191
506.09	35.091
506.44	34.352
506.78	34.735
507.13	34.464
507.47	34.158
507.82	34.647
508.16	35.865
508.51	33.575
508.85	34.188
509.19	35.340
509.54	34.521
509.88	34.610
510.23	33.431
510.57	34.363
510.92	35.215
511.26	34.689
511.61	34.269
511.95	35.192
512.30	34.150
512.64	34.112
512.98	35.366
513.33	34.836
513.67	35.008
514.02	34.857
514.36	34.683
514.70	34.827
515.05	34.417
515.39	35.362
515.74	35.812
516.08	34.913
516.42	36.557
516.77	36.053
517.11	36.373
517.46	35.453
517.80	34.844
518.14	35.380
518.49	35.006
518.83	34.725
519.17	34.443
519.52	36.592
519.86	34.659
520.20	35.726
520.55	34.935
520.89	35.172
521.23	35.164
521.58	34.538
521.92	35.335
522.26	34.242
522.61	36.601
522.95	37.057
523.29	35.439
523.64	35.087
523.98	35.681
524.32	35.063
524.66	35.594
525.01	35.740
525.35	35.298
525.69	36.002
526.04	36.050
526.38	34.667
526.72	35.621
527.06	35.009
527.41	35.852
527.75	35.301
528.09	35.641
528.43	35.692
528.78	35.301
529.12	36.424
529.46	34.775
529.80	34.521
530.15	35.180
530.49	34.477
530.83	35.344
531.17	34.133
531.51	35.316
531.86	34.239
532.20	34.611
532.54	35.028
532.88	35.540
533.22	34.247
533.57	34.411
533.91	33.916
534.25	34.564
534.59	33.860
534.93	34.016
535.27	32.840
535.62	34.014
535.96	33.629
536.30	34.491
536.64	33.789
536.98	34.613
537.32	34.500
537.66	33.227
538.01	34.489
538.35	34.560
538.69	33.434
539.03	33.706
539.37	33.010
539.71	33.457
540.05	33.600
540.39	34.151
540.73	33.861
541.07	34.003
541.42	33.831
541.76	33.662
542.10	33.107
542.44	34.352
542.78	33.606
543.12	33.067
543.46	33.897
543.80	32.832
544.14	33.684
544.48	33.820
544.82	33.884
545.16	33.030
545.50	32.760
545.84	34.785
546.18	35.241
546.52	34.951
546.86	34.365
547.20	33.333
547.54	34.009
547.88	32.543
548.22	33.212
548.56	33.176
548.90	32.325
549.24	34.176
549.58	33.634
549.92	33.399
550.26	35.024
550.60	33.067
550.94	33.039
551.28	35.103
551.62	35.379
551.96	34.122
552.30	32.235
552.64	34.239
552.98	33.247
553.32	33.291
553.66	33.941
554.00	33.462
554.34	33.822
554.68	34.745
555.02	33.809
555.36	34.043
555.69	34.555
556.03	33.949
556.37	34.608
556.71	33.963
557.05	34.142
557.39	33.867
557.73	34.704
558.07	34.004
558.41	33.927
558.75	33.789
559.08	34.882
559.42	34.359
559.76	33.856
560.10	33.448
560.44	34.240
560.78	34.079
561.12	33.185
561.45	33.104
561.79	32.834
562.13	32.975
562.47	33.420
562.81	34.092
563.15	32.256
563.48	31.988
563.82	33.874
564.16	33.458
564.50	32.731
564.84	33.678
565.17	32.086
565.51	33.805
565.85	33.930
566.19	32.976
566.52	32.070
566.86	32.633
567.20	33.146
567.54	32.314
567.88	33.073
568.21	31.203
568.55	31.177
568.89	31.387
569.23	30.932
569.56	31.070
569.90	29.824
570.24	29.608
570.57	29.169
570.91	29.579
571.25	28.648
571.59	28.539
571.92	28.283
572.26	27.736
572.60	28.325
572.93	28.522
573.27	28.662
573.61	28.262
573.95	27.938
574.28	28.139
574.62	27.434
574.96	27.260
575.29	27.394
575.63	26.855
575.97	27.507
576.30	27.284
576.64	27.998
576.98	27.537
577.31	27.436
577.65	27.322
577.98	27.343
578.32	26.563
578.66	26.944
578.99	27.103
579.33	27.876
579.67	27.417
580.00	26.920
580.34	26.978
580.67	27.405
581.01	27.891
581.35	27.072
581.68	26.582
582.02	26.892
582.35	26.535
582.69	27.268
583.02	27.162
583.36	27.631
583.70	27.277
584.03	28.138
584.37	28.420
584.70	27.917
585.04	27.647
585.37	28.133
585.71	27.888
586.04	27.696
586.38	27.747
586.72	28.211
587.05	27.792
587.39	28.167
587.72	28.104
588.06	28.135
588.39	28.199
588.73	27.922
589.06	28.947
589.40	28.795
589.73	28.909
590.07	28.861
590.40	29.930
590.73	30.151
591.07	29.677
591.40	29.940
591.74	30.235
592.07	29.659
592.41	29.257
592.74	28.964
593.08	28.743
593.41	28.695
593.75	28.258
594.08	28.426
594.41	28.283
594.75	28.493
595.08	29.081
595.42	28.901
595.75	28.529
596.09	29.406
596.42	28.696
596.75	30.008
597.09	29.633
597.42	28.898
597.75	29.087
598.09	29.134
598.42	29.213
598.76	29.337
599.09	29.680
599.42	28.651
599.76	28.426
600.09	27.864
600.42	29.006
600.76	28.314
601.09	28.616
601.42	28.793
601.76	27.963
602.09	29.139
602.42	27.874
602.76	28.691
603.09	29.374
603.42	28.771
603.76	28.814
604.09	28.628
604.42	29.040
604.76	29.672
605.09	28.857
605.42	29.622
605.75	29.728
606.09	28.653
606.42	28.936
606.75	28.760
607.09	28.227
607.42	29.450
607.75	28.304
608.08	29.529
608.42	29.111
608.75	29.097
609.08	28.993
609.41	29.500
609.75	29.991
610.08	29.272
610.41	29.600
610.74	29.481
611.07	29.650
611.41	29.657
611.74	29.685
612.07	29.721
612.40	29.776
612.73	29.506
613.07	30.309
613.40	29.524
613.73	30.354
614.06	29.100
614.39	29.697
614.72	29.483
615.06	29.228
615.39	29.604
615.72	28.025
616.05	29.784
616.38	29.477
616.71	29.571
617.05	30.038
617.38	29.551
617.71	31.046
618.04	29.781
618.37	30.239
618.70	30.139
619.03	30.098
619.36	30.465
619.69	31.201
620.03	32.290
620.36	30.122
620.69	31.737
621.02	30.978
621.35	31.375
621.68	30.310
622.01	32.472
622.34	32.119
622.67	31.742
623.00	30.769
623.33	30.567
623.66	30.406
623.99	31.233
624.32	30.352
624.65	30.810
624.99	31.508
625.32	30.461
625.65	29.724
625.98	30.404
626.31	31.009
626.64	30.979
626.97	31.217
627.30	32.143
627.63	31.947
627.96	31.768
628.29	32.508
628.62	31.908
628.95	32.447
629.28	34.356
629.61	33.040
629.94	33.362
630.26	33.709
630.59	32.535
630.92	32.735
631.25	32.910
631.58	34.619
631.91	33.587
632.24	33.236
632.57	32.417
632.90	34.679
633.23	32.739
633.56	33.825
633.89	34.620
634.22	33.584
634.55	34.301
634.88	35.816
635.20	34.305
635.53	34.495
635.86	33.893
636.19	32.997
636.52	32.432
636.85	34.196
637.18	33.153
637.51	33.520
637.83	33.410
638.16	34.349
638.49	32.814
638.82	35.681
639.15	31.845
639.48	36.256
639.81	36.264
640.13	34.724
640.46	35.398
640.79	37.191
641.12	34.514
641.45	35.058
641.77	34.346
642.10	36.546
642.43	36.700
642.76	36.080
643.09	35.447
643.41	36.045
643.74	34.532
644.07	36.136
644.40	36.538
644.73	38.438
645.05	36.256
645.38	36.753
645.71	37.026
646.04	39.084
646.36	36.933
646.69	36.800
647.02	38.080
647.35	36.850
647.67	38.736
648.00	36.645
648.33	36.090
648.66	36.970
648.98	35.362
649.31	33.603
649.64	32.780
649.96	33.428
650.29	34.000
650.62	37.408
650.94	36.596
651.27	39.394
651.60	35.681
651.92	34.716
652.25	37.795
652.58	35.035
652.90	35.928
653.23	34.564
653.56	33.976
653.88	34.655
654.21	34.164
654.54	34.114
654.86	35.546
655.19	33.245
655.52	29.813
655.84	22.881
656.17	26.496
656.49	37.984
656.82	42.986
657.15	34.216
657.47	25.407
657.80	18.868
658.13	15.192
658.45	20.562
658.78	25.218
659.10	25.324
659.43	26.065
659.75	26.337
660.08	28.947
660.41	30.036
660.73	33.626
661.06	33.483
661.38	38.160
661.71	36.871
662.03	39.544
662.36	34.857
662.68	35.754
663.01	38.378
663.33	37.547
663.66	37.870
663.98	41.468
664.31	40.112
664.63	36.207
664.96	40.713
665.28	36.535
665.61	36.226
665.93	36.792
666.26	38.131
666.58	38.716
666.91	37.452
667.23	37.149
667.56	36.550
667.88	37.137
668.21	37.910
668.53	39.113
668.86	35.872
669.18	37.475
669.50	35.950
669.83	37.372
670.15	39.709
670.48	34.961
670.80	37.052
671.13	37.251
671.45	38.477
671.77	34.323
672.10	35.009
672.42	33.717
672.75	36.234
673.07	34.817
673.39	35.144
673.72	35.640
674.04	34.946
674.37	36.298
674.69	37.175
675.01	35.634
675.34	37.209
675.66	34.766
675.98	37.278
676.31	35.000
676.63	34.592
676.95	35.516
677.28	37.525
677.60	36.419
677.92	34.127
678.25	34.884
678.57	36.313
678.89	36.528
679.22	33.272
679.54	35.409
679.86	34.904
680.18	34.622
680.51	32.007
680.83	32.264
681.15	34.662
681.48	34.722
681.80	36.427
682.12	34.948
682.44	30.991
682.77	35.587
683.09	34.757
683.41	37.143
683.73	35.827
684.06	34.127
684.38	35.659
684.70	34.353
685.02	32.986
685.34	34.507
685.67	34.405
685.99	34.483
686.31	31.125
686.63	31.382
686.96	33.497
687.28	33.725
687.60	34.983
687.92	31.826
688.24	34.310
688.56	34.875
688.89	34.799
689.21	33.333
689.53	37.352
689.85	33.943
690.17	33.010
690.49	34.677
690.82	36.765
691.14	37.172
691.46	35.524
691.78	37.427
692.10	32.061
692.42	35.935
692.74	33.915
693.06	35.465
693.39	34.783
693.71	34.185
694.03	35.503
694.35	37.751
694.67	32.587
694.99	38.803
695.31	35.586
695.63	35.747
695.95	38.462
696.27	36.062
696.59	38.186
696.91	36.709
697.23	35.973
697.56	34.647
697.88	31.936
698.20	33.396
698.52	30.934
698.84	35.934
699.16	36.674
699.48	34.746
699.80	38.998
700.12	34.873
700.44	36.215
700.76	36.038
701.08	38.381
701.40	33.506
701.72	41.711
702.04	38.211
702.36	36.828
702.68	37.766
703.00	36.341
703.32	36.476
703.64	35.768
703.96	33.333
704.28	38.095
704.60	39.718
704.91	37.255
705.23	36.364
705.55	38.872
705.87	41.270
706.19	37.618
706.51	40.439
706.83	37.463
707.15	39.572
707.47	35.351
707.79	37.011
708.11	34.694
708.43	33.483
708.74	30.769
709.06	35.581
709.38	35.484
709.70	32.698
710.02	36.957
710.34	35.359
710.66	38.333
710.98	33.333
711.29	37.604
711.61	35.933
711.93	36.474
712.25	36.145
712.57	38.585
712.89	39.697
713.20	38.978
713.52	38.941
713.84	37.764
714.16	34.493
714.48	34.006
714.80	36.043
715.11	30.319
715.43	30.168
715.75	37.183
716.07	37.572
716.39	35.429
716.70	35.826
717.02	40.404
717.34	39.568
717.66	40.625
717.97	45.455
718.29	42.606
718.61	33.784
718.93	40.484
719.24	37.919
719.56	34.828
719.88	38.854
720.20	42.581
720.51	37.908
720.83	38.127
721.15	37.415
721.46	36.644
721.78	42.509
722.10	37.847
722.42	41.137
722.73	39.711
723.05	40.000
723.37	42.756
723.68	35.938
724.00	37.879
724.32	42.205
724.63	40.000
724.95	40.784
725.27	40.892
725.58	37.868
725.90	35.915
726.22	33.562
726.53	40.803
726.85	42.345
727.16	36.242
727.48	33.223
727.80	41.007
728.11	37.500
728.43	37.319
728.74	36.364
729.06	35.125
729.38	37.193
729.69	38.667
730.01	38.487
730.32	41.946
730.64	41.860
730.96	36.036
731.27	29.052
731.59	35.920
731.90	31.476
732.22	33.714
732.53	33.618
732.85	35.673
733.16	34.337
733.48	35.737
733.80	33.333
734.11	38.650
734.43	35.673
734.74	31.903
735.06	36.508
735.37	35.567
735.69	35.072
736.00	38.532
736.32	33.636
736.63	31.230
736.95	33.230
737.26	35.366
737.58	38.037
737.89	37.651
738.21	38.079
738.52	37.793
738.83	39.560
739.15	41.463
739.46	34.483
739.78	32.993
740.09	35.860
740.41	35.276
740.72	39.048
741.04	37.413
741.35	37.891
741.66	35.968
741.98	42.060
742.29	35.185
742.61	44.248
742.92	38.983
743.23	40.400
743.55	35.849
743.86	38.824
744.18	41.949
744.49	41.322
744.80	40.553
745.12	42.857
745.43	45.794
745.74	39.556
746.06	41.228
746.37	40.930
746.68	44.690
747.00	44.395
747.31	40.336
747.62	34.016
747.94	39.914
748.25	36.187
748.56	43.644
748.88	42.857
749.19	35.814
749.50	40.183
749.82	42.387
750.13	39.526
750.44	33.333
750.75	38.255
751.07	35.197
751.38	35.644
751.69	37.710
752.01	35.664
752.32	33.555
752.63	36.577
752.94	36.014
753.26	35.547
753.57	36.576
753.88	35.955
754.19	37.906
754.51	34.219
754.82	34.564
755.13	33.784
755.44	35.556
755.75	39.519
756.07	37.671
756.38	33.007
756.69	33.438
757.00	35.608
757.31	34.648
757.63	33.609
757.94	33.511
758.25	28.986
758.56	31.121
758.87	31.830
759.18	33.140
759.50	32.827
759.81	33.531
760.12	35.674
760.43	35.294
760.74	32.405
761.05	34.748
761.36	28.385
761.67	29.380
761.99	34.366
762.30	34.727
762.61	34.722
762.92	35.985
763.23	34.340
763.54	33.077
763.85	36.187
764.16	38.194
764.47	35.135
764.78	31.922
765.10	34.146
765.41	29.830
765.72	30.387
766.03	28.399
766.34	34.495
766.65	33.840
766.96	35.628
767.27	42.056
767.58	38.119
767.89	46.409
768.20	42.073
768.51	40.306
768.82	41.667
769.13	37.647
769.44	36.466
769.75	32.959
770.06	36.975
770.37	35.965
770.68	33.778
770.99	41.949
771.30	33.473
771.61	35.385
771.92	35.878
772.23	35.081
772.54	40.444
772.85	38.614
773.16	40.217
773.47	39.444
773.78	45.050
774.09	46.023
774.39	48.485
774.70	41.176
775.01	40.789
775.32	42.857
775.63	41.096
775.94	50.000
776.25	51.724
776.56	49.618
776.87	45.038
777.18	53.030
777.48	57.480
777.79	50.000
778.10	53.788
778.41	52.239
778.72	42.105
779.03	41.667
779.34	52.027
779.65	49.068
779.95	42.236
780.26	44.048
780.57	48.299
780.88	44.681
781.19	54.167
781.50	43.787
781.80	48.634
782.11	43.386
782.42	41.379
782.73	42.373
783.04	34.839
783.34	42.636
783.65	41.497
783.96	46.452
784.27	44.371
784.57	43.421
784.88	44.928
785.19	50.000
785.50	53.448
785.81	54.264
786.11	43.704
786.42	49.606
786.73	58.559
787.04	47.170
787.34	44.715
787.65	49.242
787.96	50.000
788.26	46.457
788.57	57.664
788.88	51.408
789.19	43.511
789.49	44.595
789.80	51.563
790.11	45.455
790.41	50.926
790.72	47.222
791.03	55.769
791.33	59.596
791.64	57.895
791.95	55.789
792.25	53.125
792.56	59.000
792.87	62.195
793.17	50.000
793.48	64.706
793.79	68.966
794.09	56.818
794.40	60.345
794.70	48.413
795.01	49.231
795.32	48.092
795.62	40.171
795.93	53.782
796.23	53.659
796.54	66.327
796.85	51.136
797.15	77.922
797.46	75.610
797.76	53.750
798.07	70.667
798.37	62.500
798.68	72.500
798.99	70.732
799.29	65.333
799.60	53.488
799.90	68.421
800.21	63.636
800.51	53.521
800.82	81.034
801.12	86.154
801.43	81.333
801.73	75.862
802.04	58.442
802.34	49.315
802.65	113.725
802.95	82.609
803.26	90.323
803.56	96.667
803.87	79.104
804.17	85.714
804.48	88.679
804.78	61.111
805.09	80.303
805.39	82.540
805.70	61.404
806.00	62.857
806.30	68.750
806.61	56.471
806.91	52.222
807.22	59.783
807.52	63.158
807.83	93.421
808.13	81.159
808.43	80.645
808.74	78.082
809.04	94.643
809.35	85.294
809.65	84.848
809.95	101.961
810.26	88.889
810.56	93.750
810.86	91.837
811.17	92.982
811.47	93.478
811.77	81.034
812.08	55.172
812.38	97.619
812.69	107.143
812.99	111.111
813.29	82.857
813.59	145.161
813.90	82.759
814.20	85.246
814.50	88.000
814.81	75.439
815.11	85.185
815.41	80.357
815.72	100.000
816.02	100.000
816.32	124.390
816.62	89.655
816.93	112.121
817.23	100.000
817.53	96.429
817.84	100.000
818.14	83.333
818.44	81.250
818.74	83.019
819.04	97.436
819.35	130.303
819.65	90.385
819.95	98.148
820.25	100.000
820.56	118.919
820.86	113.158
821.16	74.468
821.46	128.947
821.76	89.091
822.07	83.333
822.37	110.526
822.67	113.953
822.97	100.000
823.27	110.870
823.57	84.375
823.88	135.897
824.18	100.000
824.48	173.913
824.78	133.333
825.08	186.957
825.38	141.379
825.69	120.588
825.99	104.255
826.29	113.889
826.59	100.000
826.89	186.667
827.19	91.429
827.49	129.032
827.79	153.846
828.09	100.000
828.39	86.111
828.70	108.108
829.00	125.000
829.30	175.000
829.60	113.889
829.90	158.065
830.20	100.000
830.50	137.838
830.80	166.667
831.10	161.538
831.40	185.714
831.70	216.667
832.00	136.667
832.30	178.261
832.60	150.000
832.90	139.394
833.20	235.000
833.50	110.526
833.80	105.882
834.10	100.000
834.40	152.632
834.70	93.333
835.00	160.000
835.30	97.297
835.60	143.750
835.90	121.622
836.20	142.308
836.50	104.545
836.80	109.756
837.10	147.826
837.40	238.462
837.70	115.789
838.00	133.333
838.30	154.167
838.60	152.000
838.90	350.000
839.19	200.000
839.49	113.333
839.79	117.241
840.09	134.615
840.39	266.667
840.69	221.053
840.99	119.048
841.29	165.217
841.59	175.000
841.88	176.000
842.18	311.111
842.48	146.429
842.78	155.556
843.08	246.154
843.38	200.000
843.68	221.429
843.97	414.286
844.27	139.130
844.57	1500.000
844.87	242.857
845.17	233.333
845.47	138.095
845.76	162.500
846.06	414.286
846.36	247.059
846.66	338.462
846.96	287.500
847.25	253.846
847.55	178.947
847.85	166.667
848.15	820.000
848.44	227.273
848.74	185.714
849.04	170.833
849.34	170.588
849.63	225.000
849.93	275.000
850.23	833.333
850.53	362.500
850.82	290.909
851.12	241.176
851.42	212.500
851.71	337.500
852.01	0.000
852.31	176.471
852.61	370.000
852.90	154.167
853.20	311.111
853.50	-2000.000
853.79	180.000
854.09	159.375
854.39	117.241
854.68	168.966
854.98	190.476
855.28	141.935
855.57	221.429
855.87	211.111
856.17	148.148
856.46	178.947
856.76	145.161
857.05	211.765
857.35	309.091
857.65	284.615
857.94	170.000
858.24	277.778
858.53	350.000
858.83	485.714
859.13	243.478
859.42	277.778
859.72	350.000
860.01	275.000
860.31	850.000
860.60	320.000
860.90	400.000
861.20	269.231
861.49	471.429
861.79	-3500.000
862.08	442.857
862.38	400.000
862.67	192.857
862.97	320.000
863.26	130.000
863.56	875.000
863.85	330.769
864.15	235.294
864.44	277.778
864.74	291.667
865.03	281.818
865.33	262.500
865.62	273.333
865.92	516.667
866.21	900.000
866.51	520.000
866.80	166.667
867.10	766.667
867.39	3500.000
867.69	800.000
867.98	825.000
868.27	223.810
868.57	246.667
868.86	775.000
869.16	176.190
869.45	3300.000
869.75	-583.333
870.04	475.000
870.33	580.000
870.63	337.500
870.92	217.647
871.22	750.000
871.51	500.000
871.80	408.333
872.10	338.462
>>>>>End Processed Spectral Data<<<<<
