SpectraSuite Data File
++++++++++++++++++++++++++++++++++++
Date: Tue May 12 16:25:49 PDT 2015
User: schluterlab
Dark Spectrum Present: Yes
Reference Spectrum Present: Yes
Number of Sampled Component Spectra: 1
Spectrometers: USB2E3373
Integration Time (usec): 3000 (USB2E3373)
Spectra Averaged: 3 (USB2E3373)
Boxcar Smoothing: 0 (USB2E3373)
Correct for Electrical Dark: No (USB2E3373)
Strobe/Lamp Enabled: No (USB2E3373)
Correct for Detector Non-linearity: No (USB2E3373)
Correct for Stray Light: No (USB2E3373)
Number of Pixels in Processed Spectrum: 2048
>>>>>Begin Processed Spectral Data<<<<<
178.53	0.000
178.91	-200.000
179.29	-775.000
179.67	-4700.000
180.04	-120.000
180.42	550.000
180.80	1700.000
181.18	0.000
181.56	-312.500
181.94	0.000
182.31	866.667
182.69	-2900.000
183.07	528.571
183.45	-3200.000
183.83	-1300.000
184.20	340.000
184.58	514.286
184.96	-230.769
185.34	-250.000
185.72	1650.000
186.09	-800.000
186.47	-2300.000
186.85	866.667
187.23	680.000
187.61	1700.000
187.98	487.500
188.36	264.286
188.74	258.333
189.12	350.000
189.49	875.000
189.87	0.000
190.25	462.500
190.63	2600.000
191.00	-158.333
191.38	-4300.000
191.76	-875.000
192.14	650.000
192.51	-2800.000
192.89	1900.000
193.27	1200.000
193.65	-933.333
194.02	-780.000
194.40	514.286
194.78	-207.143
195.15	313.333
195.53	-3200.000
195.91	-440.000
196.29	4300.000
196.66	256.250
197.04	875.000
197.42	-1250.000
197.79	825.000
198.17	341.667
198.55	0.000
198.92	528.571
199.30	1300.000
199.68	1600.000
200.05	650.000
200.43	-283.333
200.81	222.222
201.18	3200.000
201.56	325.000
201.94	-875.000
202.31	-375.000
202.69	-620.000
203.07	3300.000
203.44	-583.333
203.82	283.333
204.19	760.000
204.57	-1300.000
204.95	-575.000
205.32	-780.000
205.70	583.333
206.08	775.000
206.45	-666.667
206.83	477.778
207.20	194.737
207.58	341.667
207.96	660.000
208.33	0.000
208.71	400.000
209.08	640.000
209.46	-2700.000
209.84	-700.000
210.21	980.000
210.59	-500.000
210.96	291.667
211.34	-975.000
211.71	372.727
212.09	800.000
212.46	1600.000
212.84	-433.333
213.22	422.222
213.59	-3100.000
213.97	360.000
214.34	800.000
214.72	1100.000
215.09	1100.000
215.47	-3900.000
215.84	-290.000
216.22	-387.500
216.59	0.000
216.97	0.000
217.34	1400.000
217.72	-1750.000
218.09	1533.333
218.47	487.500
218.84	725.000
219.22	1166.667
219.59	1000.000
219.97	571.429
220.34	266.667
220.72	1500.000
221.09	2700.000
221.47	250.000
221.84	1466.667
222.22	350.000
222.59	233.333
222.97	235.714
223.34	193.750
223.72	-1600.000
224.09	1266.667
224.46	238.462
224.84	-850.000
225.21	322.222
225.59	246.667
225.96	1200.000
226.34	-800.000
226.71	-675.000
227.08	-540.000
227.46	0.000
227.83	-550.000
228.21	-1650.000
228.58	308.333
228.95	900.000
229.33	311.111
229.70	1050.000
230.08	330.769
230.45	4500.000
230.82	-1150.000
231.20	-666.667
231.57	-1100.000
231.95	580.000
232.32	275.000
232.69	683.333
233.07	308.333
233.44	-1800.000
233.81	226.667
234.19	166.667
234.56	287.500
234.93	217.647
235.31	170.000
235.68	256.250
236.05	171.429
236.43	166.667
236.80	250.000
237.17	151.724
237.55	137.500
237.92	112.500
238.29	139.394
238.67	137.500
239.04	117.073
239.41	102.083
239.79	112.500
240.16	85.417
240.53	81.967
240.91	76.812
241.28	83.051
241.65	80.303
242.02	85.915
242.40	92.857
242.77	52.747
243.14	55.696
243.51	70.707
243.89	62.617
244.26	62.617
244.63	55.446
245.00	60.550
245.38	53.390
245.75	61.364
246.12	57.037
246.49	46.099
246.87	50.000
247.24	53.333
247.61	57.500
247.98	55.102
248.36	49.091
248.73	50.000
249.10	48.810
249.47	53.000
249.84	47.761
250.22	51.892
250.59	46.500
250.96	46.835
251.33	47.442
251.70	45.982
252.08	47.899
252.45	43.426
252.82	43.726
253.19	39.921
253.56	40.769
253.94	41.667
254.31	43.798
254.68	40.767
255.05	44.483
255.42	43.066
255.79	41.694
256.16	44.746
256.54	43.831
256.91	44.444
257.28	44.147
257.65	36.050
258.02	41.298
258.39	42.407
258.76	40.000
259.14	40.857
259.51	42.566
259.88	42.553
260.25	39.286
260.62	39.726
260.99	38.017
261.36	40.111
261.73	39.096
262.10	42.408
262.47	35.500
262.85	37.867
263.22	40.103
263.59	37.852
263.96	41.103
264.33	35.556
264.70	40.786
265.07	36.585
265.44	41.284
265.81	40.802
266.18	40.275
266.55	37.825
266.92	37.360
267.29	38.816
267.66	38.117
268.03	38.565
268.40	36.364
268.77	37.665
269.14	39.696
269.51	40.312
269.88	38.980
270.25	36.501
270.62	38.197
270.99	38.945
271.36	38.415
271.73	35.849
272.10	36.364
272.47	37.103
272.84	36.128
273.21	36.364
273.58	40.688
273.95	35.113
274.32	36.381
274.69	39.567
275.06	36.248
275.43	37.165
275.80	35.472
276.17	35.662
276.54	39.065
276.91	39.179
277.28	34.489
277.65	37.269
278.02	38.235
278.39	36.331
278.76	38.448
279.13	33.986
279.50	37.636
279.87	34.264
280.23	36.280
280.60	34.124
280.97	36.552
281.34	35.314
281.71	35.826
282.08	34.359
282.45	34.966
282.82	35.953
283.19	33.545
283.56	35.207
283.92	36.482
284.29	35.275
284.66	35.798
285.03	34.163
285.40	33.058
285.77	32.253
286.14	34.985
286.51	33.742
286.87	32.753
287.24	32.132
287.61	33.435
287.98	36.269
288.35	33.185
288.72	32.929
289.08	33.183
289.45	33.689
289.82	32.500
290.19	31.332
290.56	32.751
290.93	31.655
291.29	31.354
291.66	30.650
292.03	31.417
292.40	31.301
292.77	29.805
293.13	29.815
293.50	31.174
293.87	29.675
294.24	29.930
294.60	30.148
294.97	29.510
295.34	30.146
295.71	27.858
296.08	30.000
296.44	29.098
296.81	27.171
297.18	25.856
297.55	27.217
297.91	25.123
298.28	27.778
298.65	27.730
299.02	25.573
299.38	28.537
299.75	26.220
300.12	26.835
300.48	26.815
300.85	26.222
301.22	26.860
301.59	25.118
301.95	26.021
302.32	25.844
302.69	26.131
303.05	27.609
303.42	25.224
303.79	27.302
304.15	25.853
304.52	25.264
304.89	26.439
305.25	26.140
305.62	24.840
305.99	24.674
306.35	25.053
306.72	25.182
307.09	24.327
307.45	24.393
307.82	25.926
308.19	25.258
308.55	24.500
308.92	25.908
309.29	25.641
309.65	23.984
310.02	25.761
310.38	26.321
310.75	24.204
311.12	24.042
311.48	27.317
311.85	25.954
312.22	25.406
312.58	25.170
312.95	25.340
313.31	26.404
313.68	26.923
314.05	26.465
314.41	25.140
314.78	25.379
315.14	27.393
315.51	27.152
315.87	26.095
316.24	26.984
316.61	26.589
316.97	26.697
317.34	28.482
317.70	26.427
318.07	28.648
318.43	27.680
318.80	29.072
319.16	28.671
319.53	28.053
319.89	28.853
320.26	31.378
320.62	29.853
320.99	29.266
321.35	30.427
321.72	31.309
322.08	31.394
322.45	32.425
322.81	31.839
323.18	32.416
323.54	33.798
323.91	32.366
324.27	32.184
324.64	33.478
325.00	33.707
325.37	33.390
325.73	34.739
326.10	34.548
326.46	34.517
326.83	34.720
327.19	37.108
327.56	36.821
327.92	37.787
328.29	36.579
328.65	38.099
329.01	37.126
329.38	37.902
329.74	38.258
330.11	38.662
330.47	38.363
330.84	36.842
331.20	39.086
331.56	39.378
331.93	39.093
332.29	39.541
332.66	40.561
333.02	38.660
333.38	42.321
333.75	40.450
334.11	39.765
334.48	40.598
334.84	40.203
335.20	41.403
335.57	39.547
335.93	39.613
336.29	39.635
336.66	41.424
337.02	40.462
337.38	39.037
337.75	40.456
338.11	42.110
338.47	40.051
338.84	40.813
339.20	41.039
339.56	40.875
339.93	39.967
340.29	39.832
340.65	39.899
341.02	41.754
341.38	39.984
341.74	42.193
342.11	41.820
342.47	41.099
342.83	41.838
343.20	41.067
343.56	39.555
343.92	41.784
344.28	40.191
344.65	41.972
345.01	41.429
345.37	41.426
345.73	40.238
346.10	41.355
346.46	41.707
346.82	41.667
347.19	41.113
347.55	41.140
347.91	40.710
348.27	40.356
348.63	41.614
349.00	41.660
349.36	41.401
349.72	41.896
350.08	41.460
350.45	40.442
350.81	42.278
351.17	41.063
351.53	42.340
351.89	42.502
352.26	41.723
352.62	42.459
352.98	41.488
353.34	42.835
353.70	41.590
354.07	42.769
354.43	42.166
354.79	43.052
355.15	42.496
355.51	43.051
355.87	42.846
356.24	42.494
356.60	42.237
356.96	42.608
357.32	41.598
357.68	42.731
358.04	42.553
358.40	42.879
358.77	43.050
359.13	43.093
359.49	42.772
359.85	42.815
360.21	43.091
360.57	42.482
360.93	43.218
361.29	43.146
361.66	43.475
362.02	42.472
362.38	42.929
362.74	43.312
363.10	44.180
363.46	42.956
363.82	44.250
364.18	44.595
364.54	43.991
364.90	44.110
365.26	44.344
365.62	43.025
365.98	43.221
366.35	42.621
366.71	45.316
367.07	43.754
367.43	45.131
367.79	44.082
368.15	44.573
368.51	44.866
368.87	44.090
369.23	45.253
369.59	44.572
369.95	45.315
370.31	45.038
370.67	43.858
371.03	46.709
371.39	44.668
371.75	45.080
372.11	44.460
372.47	45.000
372.83	45.207
373.19	47.567
373.55	45.567
373.91	44.475
374.27	44.643
374.63	45.559
374.99	44.744
375.35	45.901
375.71	45.976
376.07	45.557
376.42	44.182
376.78	45.793
377.14	46.265
377.50	45.381
377.86	45.035
378.22	45.216
378.58	46.005
378.94	47.013
379.30	46.574
379.66	45.936
380.02	47.742
380.38	45.843
380.74	46.367
381.09	45.911
381.45	46.012
381.81	46.572
382.17	45.971
382.53	46.071
382.89	46.659
383.25	45.826
383.61	45.706
383.97	45.771
384.32	46.896
384.68	48.307
385.04	47.304
385.40	46.856
385.76	45.465
386.12	47.495
386.48	46.565
386.83	46.455
387.19	46.584
387.55	46.820
387.91	47.171
388.27	47.174
388.62	47.300
388.98	46.356
389.34	46.579
389.70	46.580
390.06	46.890
390.42	46.700
390.77	46.990
391.13	47.978
391.49	47.308
391.85	47.446
392.20	47.855
392.56	47.252
392.92	46.378
393.28	46.749
393.64	46.330
393.99	45.702
394.35	46.498
394.71	47.165
395.07	47.263
395.42	47.424
395.78	46.946
396.14	48.253
396.50	47.473
396.85	45.915
397.21	46.691
397.57	47.221
397.92	46.505
398.28	47.490
398.64	48.575
399.00	46.553
399.35	46.538
399.71	47.903
400.07	47.146
400.42	48.119
400.78	47.566
401.14	47.270
401.49	46.313
401.85	47.451
402.21	46.807
402.57	47.995
402.92	48.000
403.28	46.360
403.63	47.499
403.99	47.346
404.35	46.600
404.70	48.139
405.06	45.817
405.42	47.576
405.77	47.464
406.13	45.716
406.49	46.390
406.84	46.193
407.20	46.804
407.55	46.462
407.91	48.245
408.27	46.513
408.62	46.718
408.98	47.901
409.34	46.055
409.69	45.302
410.05	47.406
410.40	46.231
410.76	47.796
411.11	47.986
411.47	46.852
411.83	45.636
412.18	46.316
412.54	46.667
412.89	45.959
413.25	47.434
413.60	47.138
413.96	47.516
414.31	46.930
414.67	47.796
415.03	45.913
415.38	47.003
415.74	47.252
416.09	47.158
416.45	47.641
416.80	49.262
417.16	46.722
417.51	46.369
417.87	46.746
418.22	46.841
418.58	48.408
418.93	47.472
419.29	46.211
419.64	47.305
420.00	47.494
420.35	45.935
420.71	46.908
421.06	46.557
421.42	48.647
421.77	48.084
422.12	46.803
422.48	46.841
422.83	48.047
423.19	46.868
423.54	46.956
423.90	48.528
424.25	47.441
424.61	47.185
424.96	47.374
425.31	47.893
425.67	47.643
426.02	47.672
426.38	46.966
426.73	48.583
427.09	48.102
427.44	46.820
427.79	47.742
428.15	48.674
428.50	48.629
428.85	48.207
429.21	47.218
429.56	47.507
429.92	47.887
430.27	47.508
430.62	47.186
430.98	48.154
431.33	48.438
431.68	46.765
432.04	46.767
432.39	47.750
432.74	48.653
433.10	48.007
433.45	48.880
433.80	48.869
434.16	47.714
434.51	48.865
434.86	48.557
435.22	48.730
435.57	48.251
435.92	49.573
436.28	49.597
436.63	48.784
436.98	49.775
437.34	47.888
437.69	47.536
438.04	48.441
438.39	48.570
438.75	48.831
439.10	49.056
439.45	48.785
439.81	49.219
440.16	48.982
440.51	48.986
440.86	50.028
441.22	48.323
441.57	49.501
441.92	48.766
442.27	47.629
442.63	48.831
442.98	48.168
443.33	49.116
443.68	48.390
444.03	48.162
444.39	47.693
444.74	48.706
445.09	48.025
445.44	49.097
445.79	48.051
446.15	48.421
446.50	49.262
446.85	49.104
447.20	48.806
447.55	49.048
447.91	49.920
448.26	49.095
448.61	48.977
448.96	49.020
449.31	48.625
449.66	50.332
450.02	48.730
450.37	50.028
450.72	48.926
451.07	48.633
451.42	50.207
451.77	49.255
452.12	48.951
452.47	49.757
452.83	49.183
453.18	48.889
453.53	49.082
453.88	49.486
454.23	48.983
454.58	49.184
454.93	48.743
455.28	49.327
455.63	49.350
455.98	47.490
456.34	50.091
456.69	49.573
457.04	49.165
457.39	49.029
457.74	48.705
458.09	48.231
458.44	48.905
458.79	49.125
459.14	47.791
459.49	48.584
459.84	48.207
460.19	47.514
460.54	49.003
460.89	49.627
461.24	47.995
461.59	48.413
461.94	48.227
462.29	47.883
462.64	49.058
462.99	48.433
463.34	49.708
463.69	48.881
464.04	49.108
464.39	47.853
464.74	47.245
465.09	47.940
465.44	47.933
465.79	48.557
466.14	47.165
466.49	48.454
466.84	47.269
467.19	47.745
467.54	46.607
467.89	48.474
468.24	47.192
468.59	47.202
468.94	48.913
469.29	48.626
469.64	47.653
469.99	48.072
470.34	48.703
470.68	48.621
471.03	48.099
471.38	48.543
471.73	47.485
472.08	48.532
472.43	49.100
472.78	48.848
473.13	47.309
473.48	48.472
473.83	47.585
474.17	47.903
474.52	47.334
474.87	47.300
475.22	48.258
475.57	47.272
475.92	46.500
476.27	46.300
476.61	46.917
476.96	47.179
477.31	47.969
477.66	48.202
478.01	47.447
478.36	47.580
478.70	46.402
479.05	47.646
479.40	47.173
479.75	47.170
480.10	46.902
480.45	46.499
480.79	46.359
481.14	46.695
481.49	47.210
481.84	46.658
482.19	46.550
482.53	46.157
482.88	46.595
483.23	46.234
483.58	46.679
483.92	47.075
484.27	46.533
484.62	46.180
484.97	44.994
485.31	44.995
485.66	44.544
486.01	44.327
486.36	43.996
486.70	43.416
487.05	43.797
487.40	43.637
487.75	44.061
488.09	43.523
488.44	44.073
488.79	44.846
489.13	45.875
489.48	46.225
489.83	44.996
490.17	44.880
490.52	45.823
490.87	46.121
491.22	46.011
491.56	45.894
491.91	45.206
492.26	45.612
492.60	45.239
492.95	45.401
493.30	46.224
493.64	45.553
493.99	44.857
494.34	44.688
494.68	45.640
495.03	45.352
495.37	45.385
495.72	45.781
496.07	45.148
496.41	44.744
496.76	44.196
497.11	45.544
497.45	44.147
497.80	46.108
498.14	45.169
498.49	45.868
498.84	46.075
499.18	44.698
499.53	45.338
499.87	45.373
500.22	44.956
500.56	45.357
500.91	45.315
501.26	45.567
501.60	46.084
501.95	45.027
502.29	45.778
502.64	43.582
502.98	44.909
503.33	44.944
503.67	45.607
504.02	44.469
504.36	44.299
504.71	44.986
505.06	44.908
505.40	43.940
505.75	44.294
506.09	45.264
506.44	45.865
506.78	45.274
507.13	45.952
507.47	45.706
507.82	45.693
508.16	46.154
508.51	45.942
508.85	44.444
509.19	45.521
509.54	46.631
509.88	45.052
510.23	45.098
510.57	44.836
510.92	45.654
511.26	45.382
511.61	44.215
511.95	44.998
512.30	44.700
512.64	46.002
512.98	46.028
513.33	45.697
513.67	45.883
514.02	45.091
514.36	45.379
514.70	45.547
515.05	44.859
515.39	46.436
515.74	46.364
516.08	45.806
516.42	48.197
516.77	45.173
517.11	46.240
517.46	46.606
517.80	45.057
518.14	47.775
518.49	45.865
518.83	45.495
519.17	46.755
519.52	45.603
519.86	44.959
520.20	46.630
520.55	45.676
520.89	46.724
521.23	46.671
521.58	47.160
521.92	47.230
522.26	47.275
522.61	48.485
522.95	47.267
523.29	46.959
523.64	46.069
523.98	46.596
524.32	46.309
524.66	47.536
525.01	47.160
525.35	46.258
525.69	47.502
526.04	47.591
526.38	47.204
526.72	46.122
527.06	46.127
527.41	46.614
527.75	47.474
528.09	45.816
528.43	47.285
528.78	48.241
529.12	47.863
529.46	46.698
529.80	46.787
530.15	46.553
530.49	46.992
530.83	47.532
531.17	47.663
531.51	47.639
531.86	46.316
532.20	47.528
532.54	47.583
532.88	47.533
533.22	47.532
533.57	47.346
533.91	46.678
534.25	46.567
534.59	47.778
534.93	46.587
535.27	45.931
535.62	46.499
535.96	46.690
536.30	47.532
536.64	47.081
536.98	46.759
537.32	46.750
537.66	47.003
538.01	48.050
538.35	47.661
538.69	45.752
539.03	47.326
539.37	46.723
539.71	47.716
540.05	46.215
540.39	47.044
540.73	47.342
541.07	47.553
541.42	47.699
541.76	47.041
542.10	46.178
542.44	47.444
542.78	47.074
543.12	46.380
543.46	47.807
543.80	47.807
544.14	48.545
544.48	47.202
544.82	46.177
545.16	46.205
545.50	48.064
545.84	47.917
546.18	48.765
546.52	47.803
546.86	47.453
547.20	46.899
547.54	48.195
547.88	47.141
548.22	47.055
548.56	46.199
548.90	48.399
549.24	47.252
549.58	46.263
549.92	47.937
550.26	47.262
550.60	48.836
550.94	48.440
551.28	47.793
551.62	48.828
551.96	47.230
552.30	47.132
552.64	48.867
552.98	47.874
553.32	46.159
553.66	47.492
554.00	47.040
554.34	50.466
554.68	48.925
555.02	49.016
555.36	48.005
555.69	47.971
556.03	47.898
556.37	48.375
556.71	48.696
557.05	47.969
557.39	48.067
557.73	48.585
558.07	48.558
558.41	48.526
558.75	47.743
559.08	48.320
559.42	49.893
559.76	49.109
560.10	48.245
560.44	48.441
560.78	48.274
561.12	49.269
561.45	47.059
561.79	47.066
562.13	47.315
562.47	47.826
562.81	47.885
563.15	48.675
563.48	47.578
563.82	48.596
564.16	48.507
564.50	47.860
564.84	48.754
565.17	47.296
565.51	49.015
565.85	47.872
566.19	47.619
566.52	48.436
566.86	47.636
567.20	47.865
567.54	48.526
567.88	48.200
568.21	45.482
568.55	47.519
568.89	47.308
569.23	46.160
569.56	47.085
569.90	44.844
570.24	45.383
570.57	45.522
570.91	45.273
571.25	45.047
571.59	44.162
571.92	43.730
572.26	44.501
572.60	43.516
572.93	44.365
573.27	44.400
573.61	44.099
573.95	44.721
574.28	44.741
574.62	44.085
574.96	42.925
575.29	43.559
575.63	43.062
575.97	42.941
576.30	43.710
576.64	43.882
576.98	42.721
577.31	43.763
577.65	43.878
577.98	43.352
578.32	43.045
578.66	43.060
578.99	43.445
579.33	43.460
579.67	43.249
580.00	42.720
580.34	43.608
580.67	42.662
581.01	44.679
581.35	43.868
581.68	43.092
582.02	43.014
582.35	43.684
582.69	44.193
583.02	43.462
583.36	44.252
583.70	44.524
584.03	44.817
584.37	44.094
584.70	44.464
585.04	44.635
585.37	43.778
585.71	45.011
586.04	44.291
586.38	44.075
586.72	43.604
587.05	44.390
587.39	44.046
587.72	44.352
588.06	44.897
588.39	44.626
588.73	44.892
589.06	45.025
589.40	45.790
589.73	45.034
590.07	45.539
590.40	45.575
590.73	47.191
591.07	46.793
591.40	46.507
591.74	45.942
592.07	46.464
592.41	45.204
592.74	45.258
593.08	44.792
593.41	44.853
593.75	45.359
594.08	45.642
594.41	45.357
594.75	45.342
595.08	45.850
595.42	44.997
595.75	44.587
596.09	45.916
596.42	45.266
596.75	47.115
597.09	46.430
597.42	46.122
597.75	46.531
598.09	45.343
598.42	46.593
598.76	45.721
599.09	45.421
599.42	45.536
599.76	45.455
600.09	45.288
600.42	45.615
600.76	45.445
601.09	45.150
601.42	45.019
601.76	46.079
602.09	45.695
602.42	44.954
602.76	46.148
603.09	46.569
603.42	46.018
603.76	45.372
604.09	45.747
604.42	46.139
604.76	46.187
605.09	46.245
605.42	46.607
605.75	46.388
606.09	46.634
606.42	46.223
606.75	46.755
607.09	45.440
607.42	45.560
607.75	45.502
608.08	46.141
608.42	46.854
608.75	46.470
609.08	46.898
609.41	47.455
609.75	48.306
610.08	47.122
610.41	46.904
610.74	47.186
611.07	46.976
611.41	47.173
611.74	47.897
612.07	47.303
612.40	46.345
612.73	48.527
613.07	47.694
613.40	48.070
613.73	47.928
614.06	46.950
614.39	49.091
614.72	47.012
615.06	45.994
615.39	47.030
615.72	46.225
616.05	47.815
616.38	47.894
616.71	48.074
617.05	47.886
617.38	47.191
617.71	50.112
618.04	48.682
618.37	48.360
618.70	48.383
619.03	49.267
619.36	49.874
619.69	48.879
620.03	49.967
620.36	49.069
620.69	50.383
621.02	50.340
621.35	49.355
621.68	50.147
622.01	51.439
622.34	50.546
622.67	50.211
623.00	50.442
623.33	49.123
623.66	50.100
623.99	50.137
624.32	49.864
624.65	48.058
624.99	51.048
625.32	51.236
625.65	48.759
625.98	50.488
626.31	50.742
626.64	49.962
626.97	50.115
627.30	51.475
627.63	51.884
627.96	51.095
628.29	50.578
628.62	51.155
628.95	51.507
629.28	51.183
629.61	51.494
629.94	52.982
630.26	51.993
630.59	52.926
630.92	53.094
631.25	51.587
631.58	54.098
631.91	53.378
632.24	52.089
632.57	51.670
632.90	54.244
633.23	55.299
633.56	52.792
633.89	54.770
634.22	54.575
634.55	55.376
634.88	56.407
635.20	55.942
635.53	56.214
635.86	54.586
636.19	56.004
636.52	52.865
636.85	52.535
637.18	53.413
637.51	54.637
637.83	55.034
638.16	53.810
638.49	53.533
638.82	54.577
639.15	54.524
639.48	54.384
639.81	54.701
640.13	55.828
640.46	55.752
640.79	57.867
641.12	57.087
641.45	55.498
641.77	54.690
642.10	55.823
642.43	58.464
642.76	56.108
643.09	57.205
643.41	54.558
643.74	56.115
644.07	57.670
644.40	56.805
644.73	57.808
645.05	58.247
645.38	59.418
645.71	59.332
646.04	57.252
646.36	58.529
646.69	59.200
647.02	59.360
647.35	56.378
647.67	56.726
648.00	61.075
648.33	55.489
648.66	58.788
648.98	56.232
649.31	54.926
649.64	56.985
649.96	55.334
650.29	55.286
650.62	57.143
650.94	58.735
651.27	59.330
651.60	57.903
651.92	56.375
652.25	59.055
652.58	56.454
652.90	58.683
653.23	57.164
653.56	56.677
653.88	57.856
654.21	57.331
654.54	55.198
654.86	56.785
655.19	55.409
655.52	49.744
655.84	42.779
656.17	49.885
656.49	71.020
656.82	81.889
657.15	66.395
657.47	50.221
657.80	36.666
658.13	28.679
658.45	38.594
658.78	46.675
659.10	46.880
659.43	47.554
659.75	49.562
660.08	51.629
660.41	55.354
660.73	59.724
661.06	59.459
661.38	62.010
661.71	60.791
662.03	61.217
662.36	61.524
662.68	61.080
663.01	60.180
663.33	58.113
663.66	60.947
663.98	61.905
664.31	61.754
664.63	60.153
664.96	62.852
665.28	57.250
665.61	60.189
665.93	61.132
666.26	59.626
666.58	59.450
666.91	61.004
667.23	61.044
667.56	62.423
667.88	63.900
668.21	61.270
668.53	60.081
668.86	60.721
669.18	58.248
669.50	58.678
669.83	61.396
670.15	60.083
670.48	58.789
670.80	60.956
671.13	60.359
671.45	63.126
671.77	59.740
672.10	58.707
672.42	56.414
672.75	59.335
673.07	56.757
673.39	57.508
673.72	58.997
674.04	58.602
674.37	58.984
674.69	59.851
675.01	57.649
675.34	60.659
675.66	60.156
675.98	63.511
676.31	62.200
676.63	57.853
676.95	61.310
677.28	59.026
677.60	59.155
677.92	58.929
678.25	59.690
678.57	57.728
678.89	63.653
679.22	57.721
679.54	59.786
679.86	58.988
680.18	57.645
680.51	57.711
680.83	55.574
681.15	58.232
681.48	58.854
681.80	57.268
682.12	57.785
682.44	56.036
682.77	58.897
683.09	61.165
683.41	57.959
683.73	59.646
684.06	59.722
684.38	58.915
684.70	58.273
685.02	56.944
685.34	58.979
685.67	57.074
685.99	58.128
686.31	55.778
686.63	59.512
686.96	56.209
687.28	55.537
687.60	58.362
687.92	57.119
688.24	58.966
688.56	58.007
688.89	57.935
689.21	57.996
689.53	61.462
689.85	58.740
690.17	59.806
690.49	62.903
690.82	57.563
691.14	59.798
691.46	60.986
691.78	58.090
692.10	59.542
692.42	55.535
692.74	59.302
693.06	57.752
693.39	58.300
693.71	56.778
694.03	59.172
694.35	60.843
694.67	58.859
694.99	61.641
695.31	60.586
695.63	60.181
695.95	60.407
696.27	61.947
696.59	63.723
696.91	62.025
697.23	60.860
697.56	56.639
697.88	59.681
698.20	59.245
698.52	57.393
698.84	59.548
699.16	60.341
699.48	58.475
699.80	60.784
700.12	61.201
700.44	59.579
700.76	57.995
701.08	63.185
701.40	61.299
701.72	66.043
702.04	61.518
702.36	62.097
702.68	60.372
703.00	59.398
703.32	60.050
703.64	62.217
703.96	58.594
704.28	65.079
704.60	61.690
704.91	64.706
705.23	61.364
705.55	58.754
705.87	65.079
706.19	69.592
706.51	69.279
706.83	62.537
707.15	64.171
707.47	60.533
707.79	59.540
708.11	61.905
708.43	64.494
708.74	57.919
709.06	58.372
709.38	60.794
709.70	62.943
710.02	58.152
710.34	62.983
710.66	61.389
710.98	61.749
711.29	62.396
711.61	61.560
711.93	66.565
712.25	64.157
712.57	69.775
712.89	64.848
713.20	61.342
713.52	62.305
713.84	61.934
714.16	59.130
714.48	59.078
714.80	59.350
715.11	58.511
715.43	62.011
715.75	61.127
716.07	65.029
716.39	64.857
716.70	60.748
717.02	68.687
717.34	66.187
717.66	66.319
717.97	68.182
718.29	63.380
718.61	59.122
718.93	68.858
719.24	67.114
719.56	61.724
719.88	62.102
720.20	63.871
720.51	62.092
720.83	61.538
721.15	62.585
721.46	59.932
721.78	61.672
722.10	67.708
722.42	62.876
722.73	65.343
723.05	69.825
723.37	63.251
723.68	66.016
724.00	66.667
724.32	66.160
724.63	67.692
724.95	65.098
725.27	66.171
725.58	62.132
725.90	62.676
726.22	64.041
726.53	61.538
726.85	61.238
727.16	67.114
727.48	60.465
727.80	66.187
728.11	65.000
728.43	64.493
728.74	66.084
729.06	62.366
729.38	61.404
729.69	61.667
730.01	61.184
730.32	64.094
730.64	62.791
730.96	57.958
731.27	56.881
731.59	58.908
731.90	60.446
732.22	63.143
732.53	57.835
732.85	59.649
733.16	58.434
733.48	59.561
733.80	62.899
734.11	65.337
734.43	55.556
734.74	58.713
735.06	59.524
735.37	54.639
735.69	59.710
736.00	62.385
736.32	56.061
736.63	57.729
736.95	62.422
737.26	58.537
737.58	63.804
737.89	58.735
738.21	63.576
738.52	60.870
738.83	66.667
739.15	59.233
739.46	59.310
739.78	64.626
740.09	59.184
740.41	61.656
740.72	62.857
741.04	62.587
741.35	66.016
741.66	61.660
741.98	69.099
742.29	68.056
742.61	68.584
742.92	64.831
743.23	62.800
743.55	60.377
743.86	57.647
744.18	62.712
744.49	64.050
744.80	64.516
745.12	64.732
745.43	71.028
745.74	66.222
746.06	65.351
746.37	72.558
746.68	71.239
747.00	69.058
747.31	62.185
747.62	63.934
747.94	72.961
748.25	63.035
748.56	65.678
748.88	61.161
749.19	69.767
749.50	66.667
749.82	68.724
750.13	63.241
750.44	58.333
750.75	58.054
751.07	62.500
751.38	58.086
751.69	59.933
752.01	60.140
752.32	60.133
752.63	62.416
752.94	63.287
753.26	64.063
753.57	63.424
753.88	57.678
754.19	62.455
754.51	61.462
754.82	56.040
755.13	63.514
755.44	62.593
755.75	64.605
756.07	59.932
756.38	61.438
756.69	57.813
757.00	59.050
757.31	58.310
757.63	54.545
757.94	57.447
758.25	55.556
758.56	52.632
758.87	58.396
759.18	65.116
759.50	64.742
759.81	58.754
760.12	58.989
760.43	58.263
760.74	57.215
761.05	56.764
761.36	59.115
761.67	54.717
761.99	57.465
762.30	60.772
762.61	59.375
762.92	60.606
763.23	64.151
763.54	60.385
763.85	59.144
764.16	59.028
764.47	56.757
764.78	57.003
765.10	56.707
765.41	54.830
765.72	54.972
766.03	58.610
766.34	63.066
766.65	65.399
766.96	59.919
767.27	67.290
767.58	63.861
767.89	73.481
768.20	72.561
768.51	68.367
768.82	69.737
769.13	58.824
769.44	55.263
769.75	55.431
770.06	58.824
770.37	62.281
770.68	61.333
770.99	70.339
771.30	67.782
771.61	61.538
771.92	61.069
772.23	58.871
772.54	64.889
772.85	68.812
773.16	63.043
773.47	62.222
773.78	60.891
774.09	69.886
774.39	77.576
774.70	68.235
775.01	70.395
775.32	63.354
775.63	73.288
775.94	70.370
776.25	79.310
776.56	80.153
776.87	78.626
777.18	78.030
777.48	78.740
777.79	72.308
778.10	79.545
778.41	74.627
778.72	76.692
779.03	70.513
779.34	67.568
779.65	68.944
779.95	68.323
780.26	72.024
780.57	75.510
780.88	74.468
781.19	82.500
781.50	71.598
781.80	63.388
782.11	64.550
782.42	55.172
782.73	64.407
783.04	61.290
783.34	82.946
783.65	61.905
783.96	70.968
784.27	71.523
784.57	64.474
784.88	65.217
785.19	76.667
785.50	80.172
785.81	80.620
786.11	67.407
786.42	68.504
786.73	76.577
787.04	79.245
787.34	65.041
787.65	78.788
787.96	69.697
788.26	80.315
788.57	67.153
788.88	73.239
789.19	70.992
789.49	67.568
789.80	76.562
790.11	70.248
790.41	74.074
790.72	75.926
791.03	74.038
791.33	77.778
791.64	75.789
791.95	82.105
792.25	79.167
792.56	80.000
792.87	74.390
793.17	90.909
793.48	89.412
793.79	93.103
794.09	77.273
794.40	81.034
794.70	78.571
795.01	64.615
795.32	67.176
795.62	76.068
795.93	73.950
796.23	72.358
796.54	88.776
796.85	101.136
797.15	101.299
797.46	95.122
797.76	76.250
798.07	90.667
798.37	91.250
798.68	95.000
798.99	92.683
799.29	93.333
799.60	74.419
799.90	80.263
800.21	93.939
800.51	92.958
800.82	101.724
801.12	92.308
801.43	88.000
801.73	112.069
802.04	92.208
802.34	89.041
802.65	127.451
802.95	117.391
803.26	114.516
803.56	110.000
803.87	111.940
804.17	98.413
804.48	98.113
804.78	87.500
805.09	106.061
805.39	100.000
805.70	108.772
806.00	82.857
806.30	112.500
806.61	83.529
806.91	86.667
807.22	67.391
807.52	73.684
807.83	107.895
808.13	88.406
808.43	117.742
808.74	90.411
809.04	137.500
809.35	100.000
809.65	103.030
809.95	109.804
810.26	124.074
810.56	121.875
810.86	95.918
811.17	110.526
811.47	95.652
811.77	105.172
812.08	84.483
812.38	126.190
812.69	126.190
812.99	108.889
813.29	125.714
813.59	145.161
813.90	81.034
814.20	98.361
814.50	100.000
814.81	92.982
815.11	114.815
815.41	119.643
815.72	107.143
816.02	116.000
816.32	107.317
816.62	94.828
816.93	187.879
817.23	141.463
817.53	100.000
817.84	93.333
818.14	142.857
818.44	102.083
818.74	115.094
819.04	143.590
819.35	139.394
819.65	113.462
819.95	144.444
820.25	127.660
820.56	129.730
820.86	144.737
821.16	117.021
821.46	165.789
821.76	114.545
822.07	114.286
822.37	128.947
822.67	132.558
822.97	92.105
823.27	121.739
823.57	134.375
823.88	146.154
824.18	151.515
824.48	165.217
824.78	113.889
825.08	160.870
825.38	175.862
825.69	152.941
825.99	91.489
826.29	88.889
826.59	134.286
826.89	183.333
827.19	120.000
827.49	138.710
827.79	173.077
828.09	126.190
828.39	125.000
828.70	113.514
829.00	157.143
829.30	212.500
829.60	108.333
829.90	151.613
830.20	112.121
830.50	154.054
830.80	208.333
831.10	153.846
831.40	171.429
831.70	204.167
832.00	143.333
832.30	208.696
832.60	170.833
832.90	178.788
833.20	230.000
833.50	123.684
833.80	129.412
834.10	115.789
834.40	221.053
834.70	136.667
835.00	200.000
835.30	110.811
835.60	168.750
835.90	116.216
836.20	173.077
836.50	186.364
836.80	97.561
837.10	160.870
837.40	392.308
837.70	163.158
838.00	163.333
838.30	179.167
838.60	200.000
838.90	330.000
839.19	231.250
839.49	136.667
839.79	148.276
840.09	173.077
840.39	246.667
840.69	231.579
840.99	138.095
841.29	169.565
841.59	235.000
841.88	172.000
842.18	311.111
842.48	182.143
842.78	144.444
843.08	223.077
843.38	195.455
843.68	271.429
843.97	471.429
844.27	152.174
844.57	1650.000
844.87	285.714
845.17	277.778
845.47	157.143
845.76	162.500
846.06	571.429
846.36	205.882
846.66	323.077
846.96	231.250
847.25	276.923
847.55	178.947
847.85	183.333
848.15	600.000
848.44	372.727
848.74	176.190
849.04	166.667
849.34	176.471
849.63	212.500
849.93	243.750
850.23	1033.333
850.53	400.000
850.82	281.818
851.12	229.412
851.42	154.167
851.71	325.000
852.01	0.000
852.31	223.529
852.61	370.000
852.90	179.167
853.20	366.667
853.50	-2900.000
853.79	188.000
854.09	134.375
854.39	172.414
854.68	172.414
854.98	266.667
855.28	151.613
855.57	314.286
855.87	188.889
856.17	159.259
856.46	226.316
856.76	151.613
857.05	270.588
857.35	272.727
857.65	261.538
857.94	195.000
858.24	344.444
858.53	357.143
858.83	700.000
859.13	221.739
859.42	366.667
859.72	362.500
860.01	241.667
860.31	925.000
860.60	440.000
860.90	475.000
861.20	323.077
861.49	528.571
861.79	-2900.000
862.08	614.286
862.38	444.444
862.67	200.000
862.97	370.000
863.26	156.667
863.56	725.000
863.85	315.385
864.15	282.353
864.44	261.111
864.74	383.333
865.03	309.091
865.33	412.500
865.62	266.667
865.92	666.667
866.21	925.000
866.51	700.000
866.80	222.222
867.10	1066.667
867.39	3400.000
867.69	680.000
867.98	675.000
868.27	152.381
868.57	280.000
868.86	900.000
869.16	190.476
869.45	3400.000
869.75	-383.333
870.04	975.000
870.33	640.000
870.63	462.500
870.92	182.353
871.22	925.000
871.51	400.000
871.80	366.667
872.10	300.000
>>>>>End Processed Spectral Data<<<<<
