SpectraSuite Data File
++++++++++++++++++++++++++++++++++++
Date: Tue May 12 15:11:22 PDT 2015
User: schluterlab
Dark Spectrum Present: Yes
Reference Spectrum Present: Yes
Number of Sampled Component Spectra: 1
Spectrometers: USB2E3373
Integration Time (usec): 3000 (USB2E3373)
Spectra Averaged: 3 (USB2E3373)
Boxcar Smoothing: 0 (USB2E3373)
Correct for Electrical Dark: No (USB2E3373)
Strobe/Lamp Enabled: No (USB2E3373)
Correct for Detector Non-linearity: No (USB2E3373)
Correct for Stray Light: No (USB2E3373)
Number of Pixels in Processed Spectrum: 2048
>>>>>Begin Processed Spectral Data<<<<<
178.53	0.000
178.91	-91.667
179.29	-300.000
179.67	-2200.000
180.04	-66.667
180.42	500.000
180.80	1350.000
181.18	0.000
181.56	-150.000
181.94	0.000
182.31	933.333
182.69	-1800.000
183.07	428.571
183.45	-2000.000
183.83	-1150.000
184.20	270.000
184.58	314.286
184.96	-184.615
185.34	-116.667
185.72	1100.000
186.09	-550.000
186.47	-2000.000
186.85	733.333
187.23	360.000
187.61	1200.000
187.98	300.000
188.36	178.571
188.74	300.000
189.12	183.333
189.49	500.000
189.87	0.000
190.25	375.000
190.63	1800.000
191.00	-166.667
191.38	-2200.000
191.76	-625.000
192.14	450.000
192.51	-1200.000
192.89	1100.000
193.27	266.667
193.65	-866.667
194.02	-640.000
194.40	471.429
194.78	-100.000
195.15	186.667
195.53	-800.000
195.91	-340.000
196.29	2300.000
196.66	181.250
197.04	375.000
197.42	-1250.000
197.79	425.000
198.17	183.333
198.55	0.000
198.92	385.714
199.30	733.333
199.68	1100.000
200.05	483.333
200.43	-366.667
200.81	155.556
201.18	2000.000
201.56	250.000
201.94	-625.000
202.31	-137.500
202.69	-320.000
203.07	1500.000
203.44	-166.667
203.82	183.333
204.19	480.000
204.57	-1250.000
204.95	-525.000
205.32	-360.000
205.70	483.333
206.08	500.000
206.45	-233.333
206.83	244.444
207.20	194.737
207.58	200.000
207.96	640.000
208.33	0.000
208.71	285.714
209.08	540.000
209.46	-1900.000
209.84	-575.000
210.21	520.000
210.59	-300.000
210.96	250.000
211.34	-800.000
211.71	200.000
212.09	550.000
212.46	1350.000
212.84	-183.333
213.22	322.222
213.59	-1800.000
213.97	230.000
214.34	625.000
214.72	733.333
215.09	700.000
215.47	-2600.000
215.84	-220.000
216.22	-300.000
216.59	0.000
216.97	0.000
217.34	800.000
217.72	-1150.000
218.09	800.000
218.47	462.500
218.84	475.000
219.22	700.000
219.59	633.333
219.97	285.714
220.34	266.667
220.72	600.000
221.09	2200.000
221.47	191.667
221.84	933.333
222.22	250.000
222.59	211.111
222.97	78.571
223.34	137.500
223.72	-1250.000
224.09	966.667
224.46	200.000
224.84	-550.000
225.21	355.556
225.59	260.000
225.96	933.333
226.34	-540.000
226.71	-525.000
227.08	-100.000
227.46	0.000
227.83	-450.000
228.21	-1150.000
228.58	233.333
228.95	625.000
229.33	177.778
229.70	625.000
230.08	192.308
230.45	2600.000
230.82	-775.000
231.20	-800.000
231.57	-466.667
231.95	480.000
232.32	241.667
232.69	366.667
233.07	233.333
233.44	-1150.000
233.81	180.000
234.19	129.630
234.56	156.250
234.93	194.118
235.31	165.000
235.68	143.750
236.05	146.429
236.43	151.852
236.80	242.857
237.17	113.793
237.55	112.500
237.92	112.500
238.29	96.970
238.67	96.875
239.04	85.366
239.41	58.333
239.79	85.000
240.16	70.833
240.53	55.738
240.91	62.319
241.28	72.881
241.65	66.667
242.02	64.789
242.40	47.143
242.77	54.945
243.14	59.494
243.51	60.606
243.89	51.402
244.26	50.467
244.63	50.495
245.00	59.633
245.38	42.373
245.75	50.000
246.12	51.852
246.49	51.773
246.87	35.246
247.24	49.333
247.61	46.875
247.98	45.578
248.36	40.606
248.73	43.878
249.10	41.667
249.47	44.500
249.84	39.801
250.22	41.622
250.59	44.500
250.96	41.350
251.33	42.326
251.70	38.839
252.08	37.815
252.45	36.255
252.82	36.882
253.19	36.364
253.56	34.615
253.94	37.681
254.31	40.310
254.68	36.934
255.05	42.759
255.42	38.321
255.79	39.739
256.16	38.305
256.54	38.312
256.91	39.216
257.28	36.789
257.65	32.915
258.02	34.808
258.39	35.244
258.76	40.870
259.14	35.429
259.51	39.067
259.88	35.258
260.25	35.989
260.62	37.808
260.99	35.537
261.36	34.262
261.73	37.234
262.10	35.602
262.47	33.250
262.85	36.800
263.22	37.789
263.59	38.619
263.96	36.591
264.33	34.568
264.70	36.364
265.07	34.146
265.44	38.991
265.81	36.085
266.18	37.529
266.55	37.589
266.92	35.570
267.29	36.184
267.66	36.771
268.03	36.996
268.40	36.152
268.77	37.665
269.14	33.839
269.51	33.630
269.88	35.510
270.25	32.829
270.62	34.335
270.99	36.105
271.36	37.195
271.73	34.801
272.10	36.970
272.47	34.127
272.84	33.333
273.21	32.025
273.58	36.235
273.95	34.908
274.32	36.576
274.69	36.811
275.06	33.333
275.43	34.291
275.80	32.453
276.17	33.088
276.54	33.645
276.91	33.209
277.28	32.299
277.65	34.133
278.02	35.478
278.39	33.273
278.76	36.897
279.13	32.384
279.50	35.091
279.87	32.030
280.23	33.517
280.60	31.569
280.97	30.862
281.34	30.858
281.71	32.696
282.08	33.333
282.45	33.615
282.82	32.441
283.19	31.955
283.56	33.554
283.92	32.899
284.29	32.612
284.66	33.613
285.03	33.997
285.40	32.893
285.77	30.401
286.14	33.746
286.51	32.209
286.87	32.278
287.24	29.429
287.61	32.219
287.98	31.642
288.35	31.407
288.72	31.411
289.08	30.480
289.45	32.165
289.82	32.344
290.19	31.040
290.56	33.333
290.93	29.928
291.29	30.387
291.66	31.356
292.03	29.734
292.40	29.946
292.77	32.312
293.13	32.382
293.50	30.364
293.87	27.642
294.24	28.671
294.60	31.494
294.97	32.448
295.34	29.216
295.71	30.092
296.08	31.600
296.44	29.352
296.81	30.149
297.18	28.517
297.55	30.665
297.91	26.970
298.28	29.106
298.65	28.589
299.02	29.916
299.38	29.856
299.75	28.537
300.12	29.358
300.48	30.562
300.85	28.725
301.22	29.070
301.59	27.948
301.95	29.055
302.32	29.220
302.69	28.054
303.05	29.966
303.42	28.139
303.79	29.577
304.15	28.273
304.52	27.907
304.89	30.171
305.25	28.921
305.62	29.318
305.99	28.478
306.35	28.842
306.72	29.553
307.09	28.261
307.45	28.828
307.82	30.247
308.19	28.969
308.55	29.000
308.92	29.342
309.29	30.375
309.65	29.931
310.02	31.542
310.38	29.611
310.75	30.569
311.12	30.268
311.48	31.757
311.85	30.534
312.22	32.378
312.58	31.876
312.95	30.485
313.31	32.022
313.68	32.176
314.05	32.784
314.41	31.378
314.78	32.386
315.14	33.555
315.51	33.586
315.87	31.843
316.24	33.240
316.61	32.945
316.97	34.128
317.34	34.591
317.70	33.889
318.07	34.342
318.43	35.501
318.80	34.588
319.16	35.490
319.53	34.336
319.89	35.842
320.26	35.102
320.62	36.447
320.99	35.844
321.35	36.178
321.72	38.140
322.08	38.227
322.45	38.329
322.81	39.616
323.18	39.520
323.54	39.373
323.91	40.345
324.27	40.495
324.64	39.100
325.00	40.000
325.37	40.135
325.73	40.556
326.10	41.591
326.46	41.371
326.83	41.440
327.19	42.811
327.56	44.569
327.92	44.754
328.29	44.272
328.65	45.291
329.01	43.456
329.38	43.824
329.74	44.406
330.11	43.440
330.47	44.928
330.84	43.917
331.20	43.824
331.56	45.596
331.93	45.338
332.29	43.537
332.66	44.643
333.02	43.127
333.38	45.288
333.75	45.288
334.11	42.617
334.48	45.299
334.84	42.483
335.20	44.654
335.57	42.149
335.93	43.818
336.29	43.118
336.66	45.540
337.02	44.996
337.38	43.766
337.75	44.257
338.11	43.629
338.47	41.744
338.84	42.252
339.20	43.117
339.56	43.146
339.93	41.472
340.29	42.521
340.65	43.168
341.02	44.328
341.38	43.268
341.74	42.608
342.11	42.404
342.47	42.986
342.83	44.791
343.20	43.977
343.56	42.971
343.92	42.857
344.28	43.860
344.65	43.847
345.01	42.619
345.37	41.747
345.73	43.651
346.10	42.709
346.46	42.903
346.82	41.898
347.19	42.890
347.55	42.467
347.91	41.692
348.27	42.758
348.63	42.089
349.00	41.584
349.36	42.724
349.72	42.355
350.08	42.624
350.45	42.574
350.81	41.820
351.17	41.602
351.53	41.570
351.89	41.103
352.26	41.270
352.62	42.911
352.98	41.948
353.34	42.065
353.70	41.131
354.07	42.923
354.43	42.320
354.79	41.610
355.15	42.343
355.51	41.616
355.87	42.696
356.24	40.724
356.60	41.020
356.96	40.713
357.32	40.844
357.68	43.245
358.04	42.857
358.40	41.379
358.77	41.848
359.13	41.667
359.49	42.402
359.85	42.219
360.21	41.233
360.57	42.044
360.93	41.053
361.29	41.270
361.66	41.685
362.02	39.347
362.38	42.136
362.74	42.534
363.10	41.234
363.46	41.436
363.82	41.795
364.18	42.176
364.54	41.702
364.90	42.704
365.26	42.748
365.62	42.887
365.98	42.120
366.35	41.241
366.71	42.609
367.07	41.706
367.43	41.236
367.79	42.154
368.15	42.130
368.51	43.074
368.87	42.120
369.23	42.689
369.59	41.470
369.95	42.448
370.31	41.547
370.67	42.679
371.03	41.597
371.39	43.213
371.75	41.940
372.11	42.420
372.47	43.219
372.83	42.216
373.19	42.152
373.55	42.680
373.91	41.782
374.27	41.468
374.63	42.034
374.99	42.925
375.35	43.212
375.71	41.755
376.07	41.711
376.42	42.583
376.78	43.674
377.14	43.250
377.50	43.009
377.86	43.113
378.22	42.596
378.58	44.431
378.94	43.452
379.30	42.268
379.66	43.889
380.02	44.106
380.38	43.911
380.74	43.137
381.09	42.932
381.45	42.659
381.81	43.735
382.17	42.308
382.53	43.131
382.89	42.756
383.25	42.925
383.61	42.478
383.97	42.951
384.32	44.665
384.68	44.801
385.04	44.021
385.40	44.543
385.76	42.481
386.12	44.651
386.48	43.708
386.83	44.438
387.19	44.346
387.55	43.816
387.91	44.284
388.27	43.962
388.62	44.308
388.98	44.898
389.34	43.189
389.70	44.399
390.06	44.146
390.42	43.924
390.77	44.963
391.13	44.719
391.49	44.283
391.85	45.477
392.20	44.577
392.56	43.728
392.92	44.862
393.28	44.451
393.64	44.266
393.99	44.398
394.35	44.968
394.71	42.461
395.07	44.586
395.42	44.496
395.78	45.219
396.14	45.241
396.50	44.886
396.85	44.146
397.21	44.404
397.57	44.172
397.92	44.830
398.28	44.512
398.64	46.073
399.00	44.361
399.35	44.337
399.71	44.150
400.07	44.007
400.42	45.313
400.78	43.871
401.14	45.390
401.49	44.355
401.85	45.597
402.21	45.460
402.57	44.345
402.92	46.121
403.28	44.928
403.63	43.673
403.99	44.391
404.35	44.725
404.70	45.954
405.06	44.301
405.42	45.422
405.77	44.873
406.13	43.492
406.49	44.173
406.84	43.542
407.20	44.292
407.55	44.985
407.91	46.522
408.27	45.725
408.62	45.594
408.98	44.530
409.34	43.425
409.69	44.306
410.05	45.379
410.40	44.229
410.76	44.877
411.11	44.135
411.47	45.000
411.83	43.175
412.18	44.807
412.54	43.904
412.89	43.658
413.25	45.268
413.60	45.269
413.96	44.883
414.31	45.159
414.67	45.562
415.03	45.722
415.38	44.606
415.74	45.483
416.09	44.535
416.45	45.507
416.80	46.825
417.16	44.812
417.51	45.287
417.87	44.994
418.22	43.864
418.58	46.815
418.93	45.687
419.29	44.609
419.64	44.397
420.00	45.883
420.35	45.180
420.71	45.158
421.06	44.673
421.42	44.329
421.77	46.474
422.12	45.094
422.48	45.146
422.83	44.866
423.19	44.600
423.54	44.816
423.90	45.583
424.25	46.725
424.61	44.341
424.96	45.680
425.31	44.882
425.67	45.398
426.02	44.588
426.38	44.924
426.73	46.385
427.09	45.552
427.44	45.470
427.79	46.369
428.15	46.906
428.50	45.829
428.85	45.503
429.21	46.407
429.56	45.862
429.92	46.395
430.27	46.783
430.62	44.542
430.98	45.259
431.33	45.766
431.68	44.049
432.04	45.732
432.39	46.707
432.74	47.307
433.10	46.235
433.45	46.295
433.80	47.766
434.16	46.243
434.51	46.491
434.86	46.434
435.22	47.164
435.57	46.177
435.92	47.752
436.28	47.350
436.63	47.434
436.98	47.579
437.34	46.975
437.69	46.753
438.04	47.043
438.39	47.227
438.75	46.381
439.10	46.465
439.45	45.902
439.81	48.236
440.16	46.946
440.51	46.734
440.86	48.205
441.22	46.753
441.57	48.819
441.92	47.187
442.27	46.031
442.63	47.459
442.98	46.228
443.33	47.616
443.68	48.189
444.03	46.795
444.39	47.787
444.74	47.516
445.09	48.289
445.44	48.140
445.79	47.368
446.15	48.211
446.50	48.576
446.85	47.012
447.20	48.010
447.55	48.940
447.91	49.334
448.26	47.923
448.61	48.093
448.96	48.802
449.31	48.845
449.66	49.391
450.02	48.028
450.37	47.918
450.72	48.209
451.07	48.284
451.42	48.370
451.77	48.740
452.12	48.951
452.47	49.149
452.83	49.465
453.18	49.670
453.53	49.260
453.88	49.486
454.23	48.925
454.58	48.252
454.93	49.356
455.28	49.143
455.63	48.582
455.98	49.915
456.34	49.362
456.69	49.146
457.04	49.582
457.39	49.714
457.74	49.043
458.09	49.635
458.44	49.124
458.79	48.382
459.14	49.154
459.49	50.227
459.84	51.033
460.19	49.322
460.54	48.604
460.89	50.640
461.24	48.855
461.59	49.433
461.94	49.291
462.29	49.828
462.64	50.377
462.99	49.264
463.34	50.356
463.69	49.667
464.04	50.144
464.39	49.800
464.74	49.062
465.09	49.216
465.44	49.402
465.79	49.047
466.14	48.384
466.49	50.515
466.84	48.328
467.19	49.619
467.54	49.129
467.89	49.002
468.24	50.087
468.59	48.393
468.94	50.302
469.29	48.259
469.64	50.096
469.99	49.229
470.34	48.071
470.68	48.414
471.03	49.566
471.38	49.338
471.73	49.379
472.08	51.011
472.43	49.472
472.78	49.488
473.13	49.249
473.48	49.450
473.83	48.233
474.17	50.274
474.52	48.934
474.87	49.744
475.22	49.743
475.57	49.370
475.92	48.441
476.27	49.238
476.61	47.507
476.96	48.328
477.31	49.923
477.66	49.490
478.01	48.994
478.36	49.279
478.70	49.529
479.05	48.640
479.40	49.355
479.75	49.503
480.10	49.322
480.45	49.206
480.79	49.078
481.14	48.978
481.49	48.811
481.84	48.549
482.19	49.651
482.53	49.275
482.88	48.566
483.23	48.128
483.58	49.372
483.92	49.406
484.27	48.545
484.62	49.660
484.97	48.578
485.31	48.901
485.66	48.181
486.01	47.842
486.36	46.450
486.70	46.194
487.05	46.254
487.40	46.605
487.75	47.510
488.09	46.193
488.44	47.291
488.79	48.455
489.13	48.264
489.48	49.021
489.83	48.707
490.17	47.358
490.52	49.096
490.87	48.319
491.22	49.645
491.56	48.880
491.91	48.163
492.26	48.953
492.60	49.203
492.95	48.527
493.30	48.453
493.64	48.922
493.99	48.256
494.34	48.588
494.68	47.986
495.03	48.675
495.37	48.582
495.72	49.324
496.07	48.518
496.41	47.394
496.76	48.290
497.11	48.586
497.45	48.181
497.80	47.915
498.14	48.405
498.49	49.118
498.84	49.720
499.18	47.349
499.53	48.186
499.87	48.652
500.22	48.871
500.56	48.514
500.91	48.748
501.26	48.094
501.60	48.361
501.95	48.297
502.29	48.267
502.64	47.022
502.98	47.443
503.33	48.686
503.67	47.594
504.02	47.604
504.36	48.507
504.71	48.534
505.06	48.193
505.40	47.730
505.75	47.708
506.09	48.203
506.44	48.167
506.78	48.960
507.13	47.891
507.47	47.356
507.82	49.197
508.16	49.339
508.51	47.440
508.85	47.958
509.19	48.850
509.54	47.900
509.88	48.483
510.23	47.696
510.57	47.008
510.92	48.901
511.26	48.594
511.61	47.464
511.95	48.233
512.30	47.400
512.64	48.754
512.98	48.180
513.33	46.977
513.67	48.058
514.02	47.169
514.36	46.469
514.70	47.840
515.05	47.682
515.39	48.410
515.74	48.496
516.08	47.985
516.42	48.361
516.77	48.053
517.11	47.467
517.46	46.983
517.80	47.679
518.14	47.718
518.49	47.850
518.83	46.813
519.17	47.476
519.52	48.826
519.86	47.684
520.20	49.370
520.55	47.032
520.89	47.586
521.23	48.540
521.58	47.504
521.92	47.055
522.26	47.571
522.61	47.415
522.95	48.769
523.29	48.304
523.64	46.301
523.98	48.005
524.32	47.405
524.66	47.188
525.01	47.751
525.35	47.083
525.69	47.682
526.04	48.007
526.38	46.969
526.72	47.315
527.06	46.481
527.41	48.489
527.75	47.048
528.09	46.538
528.43	47.224
528.78	46.810
529.12	48.645
529.46	46.523
529.80	46.145
530.15	46.906
530.49	46.149
530.83	46.679
531.17	47.048
531.51	46.107
531.86	45.954
532.20	45.797
532.54	47.269
532.88	46.846
533.22	46.374
533.57	46.919
533.91	46.737
534.25	45.759
534.59	47.193
534.93	45.222
535.27	45.304
535.62	45.799
535.96	46.690
536.30	46.496
536.64	46.584
536.98	45.500
537.32	46.625
537.66	47.003
538.01	45.511
538.35	46.288
538.69	46.177
539.03	45.460
539.37	45.449
539.71	45.309
540.05	45.108
540.39	46.415
540.73	46.139
541.07	45.546
541.42	46.580
541.76	45.684
542.10	44.636
542.44	45.574
542.78	45.752
543.12	45.031
543.46	46.115
543.80	46.053
544.14	44.582
544.48	45.499
544.82	44.465
545.16	44.384
545.50	44.929
545.84	44.508
546.18	45.774
546.52	44.066
546.86	44.423
547.20	45.026
547.54	43.445
547.88	44.769
548.22	45.841
548.56	43.194
548.90	43.357
549.24	43.904
549.58	44.008
549.92	45.187
550.26	45.639
550.60	44.245
550.94	46.404
551.28	44.552
551.62	46.828
551.96	43.716
552.30	43.639
552.64	45.566
552.98	45.168
553.32	43.214
553.66	45.081
554.00	43.308
554.34	45.206
554.68	44.220
555.02	43.924
555.36	43.285
555.69	44.437
556.03	44.459
556.37	43.722
556.71	43.416
557.05	43.578
557.39	45.067
557.73	44.070
558.07	44.333
558.41	44.483
558.75	43.639
559.08	44.889
559.42	46.242
559.76	44.975
560.10	42.395
560.44	43.663
560.78	44.437
561.12	43.802
561.45	43.992
561.79	42.447
562.13	41.693
562.47	42.635
562.81	43.266
563.15	43.439
563.48	40.559
563.82	43.668
564.16	43.781
564.50	42.315
564.84	42.979
565.17	42.543
565.51	42.980
565.85	43.553
566.19	41.726
566.52	42.659
566.86	43.257
567.20	42.921
567.54	42.740
567.88	41.575
568.21	41.038
568.55	41.780
568.89	41.058
569.23	41.070
569.56	42.013
569.90	40.460
570.24	40.818
570.57	39.682
570.91	39.657
571.25	39.591
571.59	39.509
571.92	38.994
572.26	39.353
572.60	39.211
572.93	39.649
573.27	39.604
573.61	39.036
573.95	39.442
574.28	39.651
574.62	38.775
574.96	38.404
575.29	38.873
575.63	38.539
575.97	38.169
576.30	39.104
576.64	38.336
576.98	38.449
577.31	38.858
577.65	38.546
577.98	38.407
578.32	38.408
578.66	38.472
578.99	38.431
579.33	38.160
579.67	37.757
580.00	38.363
580.34	38.176
580.67	37.875
581.01	38.644
581.35	38.621
581.68	38.210
582.02	37.929
582.35	37.979
582.69	37.907
583.02	37.870
583.36	37.714
583.70	38.275
584.03	38.230
584.37	37.885
584.70	38.094
585.04	38.449
585.37	38.278
585.71	38.989
586.04	37.373
586.38	38.161
586.72	37.992
587.05	38.523
587.39	37.826
587.72	37.960
588.06	38.366
588.39	37.692
588.73	37.592
589.06	38.197
589.40	38.185
589.73	38.151
590.07	39.259
590.40	39.094
590.73	38.891
591.07	38.786
591.40	37.924
591.74	37.825
592.07	38.394
592.41	38.169
592.74	38.045
593.08	37.923
593.41	37.133
593.75	37.745
594.08	38.066
594.41	37.211
594.75	37.637
595.08	37.860
595.42	38.249
595.75	37.545
596.09	37.782
596.42	37.873
596.75	38.101
597.09	38.465
597.42	37.102
597.75	37.160
598.09	37.669
598.42	37.903
598.76	38.011
599.09	38.396
599.42	37.474
599.76	37.687
600.09	36.441
600.42	37.949
600.76	37.458
601.09	38.005
601.42	36.924
601.76	36.412
602.09	37.528
602.42	36.710
602.76	36.129
603.09	37.330
603.42	37.248
603.76	36.659
604.09	36.772
604.42	37.589
604.76	37.179
605.09	37.020
605.42	37.464
605.75	36.794
606.09	36.305
606.42	36.640
606.75	36.766
607.09	36.518
607.42	37.083
607.75	37.221
608.08	36.231
608.42	37.164
608.75	36.500
609.08	36.296
609.41	37.636
609.75	38.004
610.08	37.005
610.41	36.320
610.74	36.407
611.07	36.062
611.41	37.118
611.74	35.946
612.07	36.561
612.40	35.770
612.73	37.444
613.07	37.304
613.40	36.792
613.73	37.344
614.06	35.900
614.39	36.869
614.72	36.565
615.06	36.795
615.39	36.535
615.72	35.528
616.05	36.916
616.38	36.733
616.71	35.757
617.05	36.354
617.38	36.742
617.71	37.345
618.04	36.063
618.37	36.187
618.70	36.374
619.03	36.508
619.36	36.809
619.69	36.741
620.03	37.443
620.36	37.508
620.69	36.782
621.02	37.296
621.35	36.390
621.68	36.799
622.01	38.081
622.34	36.198
622.67	38.132
623.00	36.419
623.33	36.100
623.66	35.529
623.99	36.986
624.32	36.382
624.65	36.076
624.99	36.173
625.32	36.339
625.65	35.517
625.98	35.286
626.31	37.240
626.64	35.687
626.97	35.042
627.30	36.879
627.63	36.813
627.96	36.307
628.29	36.634
628.62	35.073
628.95	37.057
629.28	36.459
629.61	36.380
629.94	37.857
630.26	37.088
630.59	38.209
630.92	37.758
631.25	36.899
631.58	37.223
631.91	35.775
632.24	35.763
632.57	35.855
632.90	37.992
633.23	38.090
633.56	38.040
633.89	37.406
634.22	37.998
634.55	36.559
634.88	37.788
635.20	35.987
635.53	37.398
635.86	37.472
636.19	36.139
636.52	35.243
636.85	37.109
637.18	37.703
637.51	36.425
637.83	36.041
638.16	39.273
638.49	37.485
638.82	37.911
639.15	37.250
639.48	36.848
639.81	35.043
640.13	38.405
640.46	36.410
640.79	37.581
641.12	37.008
641.45	35.834
641.77	36.724
642.10	35.877
642.43	36.842
642.76	35.937
643.09	36.023
643.41	37.307
643.74	37.266
644.07	35.398
644.40	35.059
644.73	38.739
645.05	38.336
645.38	35.222
645.71	38.392
646.04	38.931
646.36	37.872
646.69	37.600
647.02	37.760
647.35	34.488
647.67	36.791
648.00	37.622
648.33	37.594
648.66	37.879
648.98	36.232
649.31	34.953
649.64	34.855
649.96	34.708
650.29	34.286
650.62	39.175
650.94	37.801
651.27	38.437
651.60	35.681
651.92	34.869
652.25	37.165
652.58	35.887
652.90	37.126
653.23	34.564
653.56	35.163
653.88	35.683
654.21	35.777
654.54	34.993
654.86	34.366
655.19	34.960
655.52	32.027
655.84	28.233
656.17	33.099
656.49	47.471
656.82	55.020
657.15	44.201
657.47	33.008
657.80	23.935
658.13	18.933
658.45	25.650
658.78	30.780
659.10	31.661
659.43	32.218
659.75	34.093
660.08	36.404
660.41	35.390
660.73	37.265
661.06	36.336
661.38	35.945
661.71	35.252
662.03	34.411
662.36	34.667
662.68	35.009
663.01	35.856
663.33	34.151
663.66	36.292
663.98	34.722
664.31	35.634
664.63	34.100
664.96	38.649
665.28	34.087
665.61	36.792
665.93	35.094
666.26	35.514
666.58	37.064
666.91	35.714
667.23	34.739
667.56	36.756
667.88	36.100
668.21	33.197
668.53	36.694
668.86	38.477
669.18	37.882
669.50	35.950
669.83	36.961
670.15	32.432
670.48	31.641
670.80	35.857
671.13	35.060
671.45	36.473
671.77	34.508
672.10	33.752
672.42	35.362
672.75	35.127
673.07	34.340
673.39	35.304
673.72	34.775
674.04	33.333
674.37	34.483
674.69	33.643
675.01	32.649
675.34	35.078
675.66	35.742
675.98	34.122
676.31	34.000
676.63	36.978
676.95	33.929
677.28	35.294
677.60	35.211
677.92	32.937
678.25	36.240
678.57	35.754
678.89	34.539
679.22	33.640
679.54	33.096
679.86	33.159
680.18	33.919
680.51	32.338
680.83	32.432
681.15	34.315
681.48	34.201
681.80	32.399
682.12	32.872
682.44	33.333
682.77	33.274
683.09	33.010
683.41	35.510
683.73	33.858
684.06	35.119
684.38	33.721
684.70	30.755
685.02	32.465
685.34	34.155
685.67	33.601
685.99	30.870
686.31	33.128
686.63	32.033
686.96	33.987
687.28	31.544
687.60	30.375
687.92	31.993
688.24	33.966
688.56	32.562
688.89	32.887
689.21	33.333
689.53	34.387
689.85	28.862
690.17	33.398
690.49	33.669
690.82	34.664
691.14	32.323
691.46	32.238
691.78	32.943
692.10	32.252
692.42	31.942
692.74	35.078
693.06	31.977
693.39	32.016
693.71	32.220
694.03	35.108
694.35	35.542
694.67	33.401
694.99	35.033
695.31	33.333
695.63	32.805
695.95	33.484
696.27	33.628
696.59	33.413
696.91	33.165
697.23	34.163
697.56	29.461
697.88	31.138
698.20	31.509
698.52	35.019
698.84	32.238
699.16	33.262
699.48	33.051
699.80	33.987
700.12	35.335
700.44	33.411
700.76	34.368
701.08	34.204
701.40	34.545
701.72	36.898
702.04	35.501
702.36	32.527
702.68	33.245
703.00	32.080
703.32	34.243
703.64	32.746
703.96	32.552
704.28	32.011
704.60	33.521
704.91	33.613
705.23	34.091
705.55	35.312
705.87	33.016
706.19	36.050
706.51	32.602
706.83	34.513
707.15	35.027
707.47	33.898
707.79	32.644
708.11	30.839
708.43	33.258
708.74	31.222
709.06	33.256
709.38	34.988
709.70	33.515
710.02	30.707
710.34	37.017
710.66	35.278
710.98	31.967
711.29	30.919
711.61	34.819
711.93	31.915
712.25	32.530
712.57	35.048
712.89	36.364
713.20	36.422
713.52	33.333
713.84	34.441
714.16	31.014
714.48	30.548
714.80	32.791
715.11	31.383
715.43	31.844
715.75	30.704
716.07	33.237
716.39	34.000
716.70	30.218
717.02	36.364
717.34	38.489
717.66	36.458
717.97	40.909
718.29	34.507
718.61	34.797
718.93	30.450
719.24	36.913
719.56	32.414
719.88	30.892
720.20	32.581
720.51	31.699
720.83	29.431
721.15	33.333
721.46	36.644
721.78	35.540
722.10	37.847
722.42	37.793
722.73	35.740
723.05	35.439
723.37	34.629
723.68	39.453
724.00	32.955
724.32	34.601
724.63	34.615
724.95	32.941
725.27	31.970
725.58	33.088
725.90	32.042
726.22	34.932
726.53	34.448
726.85	34.853
727.16	34.899
727.48	34.219
727.80	34.892
728.11	35.357
728.43	32.609
728.74	31.119
729.06	30.824
729.38	36.842
729.69	35.667
730.01	35.526
730.32	34.564
730.64	31.229
730.96	34.835
731.27	30.275
731.59	32.471
731.90	28.969
732.22	33.429
732.53	32.764
732.85	33.918
733.16	34.036
733.48	30.721
733.80	32.754
734.11	34.356
734.43	29.240
734.74	31.367
735.06	32.011
735.37	30.670
735.69	32.174
736.00	34.862
736.32	30.303
736.63	30.599
736.95	33.230
737.26	32.622
737.58	32.822
737.89	32.530
738.21	29.470
738.52	33.110
738.83	39.560
739.15	34.843
739.46	32.069
739.78	34.014
740.09	32.945
740.41	33.436
740.72	33.651
741.04	32.168
741.35	37.891
741.66	35.573
741.98	30.043
742.29	37.037
742.61	30.973
742.92	34.746
743.23	33.600
743.55	30.189
743.86	36.471
744.18	35.169
744.49	34.298
744.80	39.171
745.12	38.393
745.43	35.981
745.74	36.444
746.06	36.842
746.37	40.465
746.68	45.133
747.00	34.978
747.31	34.874
747.62	32.377
747.94	33.906
748.25	33.852
748.56	33.898
748.88	37.500
749.19	33.023
749.50	29.680
749.82	37.449
750.13	35.573
750.44	33.000
750.75	35.235
751.07	34.211
751.38	29.043
751.69	28.620
752.01	30.420
752.32	32.890
752.63	31.879
752.94	36.713
753.26	35.547
753.57	38.132
753.88	32.584
754.19	28.881
754.51	32.890
754.82	29.195
755.13	32.095
755.44	32.963
755.75	35.395
756.07	29.795
756.38	31.046
756.69	29.688
757.00	32.938
757.31	32.394
757.63	29.477
757.94	30.319
758.25	31.401
758.56	30.206
758.87	36.090
759.18	31.686
759.50	32.827
759.81	32.938
760.12	29.775
760.43	30.252
760.74	32.405
761.05	30.239
761.36	29.427
761.67	33.693
761.99	32.394
762.30	31.190
762.61	31.597
762.92	31.818
763.23	32.453
763.54	33.846
763.85	28.405
764.16	34.722
764.47	32.095
764.78	29.316
765.10	30.183
765.41	28.409
765.72	29.006
766.03	28.701
766.34	32.056
766.65	36.122
766.96	30.364
767.27	34.579
767.58	37.129
767.89	33.702
768.20	40.854
768.51	38.776
768.82	35.088
769.13	31.373
769.44	31.579
769.75	31.086
770.06	36.134
770.37	30.702
770.68	32.444
770.99	36.864
771.30	34.728
771.61	34.231
771.92	27.481
772.23	30.645
772.54	32.889
772.85	35.644
773.16	35.870
773.47	38.889
773.78	31.683
774.09	34.091
774.39	36.970
774.70	31.765
775.01	32.895
775.32	34.783
775.63	39.041
775.94	48.148
776.25	41.379
776.56	39.695
776.87	40.458
777.18	43.939
777.48	53.543
777.79	43.077
778.10	40.152
778.41	44.776
778.72	28.571
779.03	36.538
779.34	39.189
779.65	39.130
779.95	41.615
780.26	32.738
780.57	52.381
780.88	39.007
781.19	43.333
781.50	42.604
781.80	38.798
782.11	35.979
782.42	33.333
782.73	41.808
783.04	35.484
783.34	33.333
783.65	34.694
783.96	38.065
784.27	37.086
784.57	38.816
784.88	34.783
785.19	35.833
785.50	37.931
785.81	45.736
786.11	42.222
786.42	38.583
786.73	40.541
787.04	44.340
787.34	24.390
787.65	39.394
787.96	41.667
788.26	53.543
788.57	44.526
788.88	35.915
789.19	42.748
789.49	47.297
789.80	35.938
790.11	45.455
790.41	47.222
790.72	40.741
791.03	39.423
791.33	45.455
791.64	51.579
791.95	49.474
792.25	42.708
792.56	40.000
792.87	42.683
793.17	45.455
793.48	48.235
793.79	45.977
794.09	46.591
794.40	51.724
794.70	42.063
795.01	36.154
795.32	39.695
795.62	35.043
795.93	36.975
796.23	37.398
796.54	43.878
796.85	53.409
797.15	67.532
797.46	43.902
797.76	43.750
798.07	52.000
798.37	52.500
798.68	55.000
798.99	50.000
799.29	44.000
799.60	48.837
799.90	46.053
800.21	57.576
800.51	59.155
800.82	58.621
801.12	56.923
801.43	69.333
801.73	53.448
802.04	61.039
802.34	46.575
802.65	60.784
802.95	39.130
803.26	74.194
803.56	85.000
803.87	56.716
804.17	50.794
804.48	49.057
804.78	56.944
805.09	54.545
805.39	66.667
805.70	68.421
806.00	42.857
806.30	56.250
806.61	55.294
806.91	55.556
807.22	33.696
807.52	50.000
807.83	57.895
808.13	56.522
808.43	58.065
808.74	47.945
809.04	48.214
809.35	60.294
809.65	63.636
809.95	84.314
810.26	68.519
810.56	70.313
810.86	75.510
811.17	64.912
811.47	54.348
811.77	50.000
812.08	68.966
812.38	52.381
812.69	73.810
812.99	55.556
813.29	80.000
813.59	119.355
813.90	58.621
814.20	70.492
814.50	60.000
814.81	52.632
815.11	59.259
815.41	57.143
815.72	75.000
816.02	84.000
816.32	80.488
816.62	62.069
816.93	96.970
817.23	102.439
817.53	64.286
817.84	60.000
818.14	66.667
818.44	58.333
818.74	83.019
819.04	58.974
819.35	103.030
819.65	82.692
819.95	90.741
820.25	78.723
820.56	91.892
820.86	68.421
821.16	55.319
821.46	102.632
821.76	72.727
822.07	73.810
822.37	76.316
822.67	81.395
822.97	65.789
823.27	73.913
823.57	71.875
823.88	82.051
824.18	51.515
824.48	117.391
824.78	72.222
825.08	117.391
825.38	117.241
825.69	85.294
825.99	51.064
826.29	47.222
826.59	94.286
826.89	96.667
827.19	85.714
827.49	106.452
827.79	169.231
828.09	71.429
828.39	69.444
828.70	56.757
829.00	100.000
829.30	131.250
829.60	97.222
829.90	109.677
830.20	84.848
830.50	72.973
830.80	133.333
831.10	123.077
831.40	95.238
831.70	158.333
832.00	73.333
832.30	126.087
832.60	129.167
832.90	100.000
833.20	160.000
833.50	92.105
833.80	79.412
834.10	55.263
834.40	94.737
834.70	73.333
835.00	116.000
835.30	78.378
835.60	96.875
835.90	89.189
836.20	111.538
836.50	122.727
836.80	82.927
837.10	113.043
837.40	215.385
837.70	157.895
838.00	123.333
838.30	100.000
838.60	116.000
838.90	240.000
839.19	206.250
839.49	103.333
839.79	96.552
840.09	88.462
840.39	126.667
840.69	173.684
840.99	76.190
841.29	126.087
841.59	125.000
841.88	104.000
842.18	166.667
842.48	114.286
842.78	125.926
843.08	153.846
843.38	150.000
843.68	142.857
843.97	357.143
844.27	95.652
844.57	950.000
844.87	235.714
845.17	127.778
845.47	66.667
845.76	129.167
846.06	228.571
846.36	141.176
846.66	138.462
846.96	156.250
847.25	153.846
847.55	142.105
847.85	166.667
848.15	240.000
848.44	172.727
848.74	76.190
849.04	141.667
849.34	105.882
849.63	137.500
849.93	200.000
850.23	633.333
850.53	312.500
850.82	200.000
851.12	164.706
851.42	116.667
851.71	187.500
852.01	0.000
852.31	117.647
852.61	340.000
852.90	112.500
853.20	277.778
853.50	-1600.000
853.79	104.000
854.09	103.125
854.39	103.448
854.68	103.448
854.98	152.381
855.28	87.097
855.57	135.714
855.87	150.000
856.17	92.593
856.46	178.947
856.76	83.871
857.05	152.941
857.35	163.636
857.65	138.462
857.94	95.000
858.24	277.778
858.53	185.714
858.83	414.286
859.13	156.522
859.42	166.667
859.72	187.500
860.01	225.000
860.31	500.000
860.60	220.000
860.90	287.500
861.20	84.615
861.49	142.857
861.79	-1500.000
862.08	371.429
862.38	177.778
862.67	107.143
862.97	280.000
863.26	160.000
863.56	475.000
863.85	223.077
864.15	200.000
864.44	122.222
864.74	258.333
865.03	190.909
865.33	187.500
865.62	140.000
865.92	433.333
866.21	725.000
866.51	500.000
866.80	172.222
867.10	700.000
867.39	2500.000
867.69	580.000
867.98	625.000
868.27	100.000
868.57	133.333
868.86	725.000
869.16	109.524
869.45	1900.000
869.75	-416.667
870.04	350.000
870.33	420.000
870.63	237.500
870.92	129.412
871.22	550.000
871.51	342.857
871.80	233.333
872.10	284.615
>>>>>End Processed Spectral Data<<<<<
