SpectraSuite Data File
++++++++++++++++++++++++++++++++++++
Date: Tue May 12 16:55:21 PDT 2015
User: schluterlab
Dark Spectrum Present: Yes
Reference Spectrum Present: Yes
Number of Sampled Component Spectra: 1
Spectrometers: USB2E3373
Integration Time (usec): 3000 (USB2E3373)
Spectra Averaged: 3 (USB2E3373)
Boxcar Smoothing: 0 (USB2E3373)
Correct for Electrical Dark: No (USB2E3373)
Strobe/Lamp Enabled: No (USB2E3373)
Correct for Detector Non-linearity: No (USB2E3373)
Correct for Stray Light: No (USB2E3373)
Number of Pixels in Processed Spectrum: 2048
>>>>>Begin Processed Spectral Data<<<<<
178.53	0.000
178.91	-191.667
179.29	-525.000
179.67	-3900.000
180.04	-146.667
180.42	525.000
180.80	1850.000
181.18	0.000
181.56	-312.500
181.94	0.000
182.31	1100.000
182.69	-2500.000
183.07	514.286
183.45	-3400.000
183.83	-1750.000
184.20	390.000
184.58	557.143
184.96	-192.308
185.34	-325.000
185.72	1450.000
186.09	-650.000
186.47	-3400.000
186.85	1133.333
187.23	620.000
187.61	1800.000
187.98	450.000
188.36	207.143
188.74	291.667
189.12	366.667
189.49	950.000
189.87	0.000
190.25	562.500
190.63	2000.000
191.00	-200.000
191.38	-3900.000
191.76	-650.000
192.14	437.500
192.51	-2500.000
192.89	1550.000
193.27	966.667
193.65	-1100.000
194.02	-620.000
194.40	557.143
194.78	-121.429
195.15	246.667
195.53	-3500.000
195.91	-520.000
196.29	4300.000
196.66	275.000
197.04	750.000
197.42	-1000.000
197.79	625.000
198.17	333.333
198.55	0.000
198.92	457.143
199.30	1366.667
199.68	1900.000
200.05	683.333
200.43	-400.000
200.81	211.111
201.18	3300.000
201.56	250.000
201.94	-825.000
202.31	-337.500
202.69	-460.000
203.07	2900.000
203.44	-500.000
203.82	316.667
204.19	720.000
204.57	-1700.000
204.95	-625.000
205.32	-480.000
205.70	666.667
206.08	725.000
206.45	-700.000
206.83	322.222
207.20	194.737
207.58	308.333
207.96	660.000
208.33	0.000
208.71	542.857
209.08	680.000
209.46	-3200.000
209.84	-700.000
210.21	1000.000
210.59	-560.000
210.96	316.667
211.34	-775.000
211.71	481.818
212.09	1000.000
212.46	1800.000
212.84	-366.667
213.22	422.222
213.59	-3500.000
213.97	360.000
214.34	925.000
214.72	1333.333
215.09	1066.667
215.47	-3000.000
215.84	-340.000
216.22	-287.500
216.59	0.000
216.97	0.000
217.34	1750.000
217.72	-1000.000
218.09	1133.333
218.47	425.000
218.84	825.000
219.22	1333.333
219.59	866.667
219.97	528.571
220.34	455.556
220.72	1300.000
221.09	2700.000
221.47	291.667
221.84	1266.667
222.22	300.000
222.59	211.111
222.97	178.571
223.34	175.000
223.72	-1050.000
224.09	1233.333
224.46	338.462
224.84	-700.000
225.21	366.667
225.59	246.667
225.96	1166.667
226.34	-620.000
226.71	-550.000
227.08	-580.000
227.46	0.000
227.83	-533.333
228.21	-1900.000
228.58	308.333
228.95	1050.000
229.33	433.333
229.70	825.000
230.08	276.923
230.45	3600.000
230.82	-750.000
231.20	-1233.333
231.57	-1200.000
231.95	560.000
232.32	258.333
232.69	600.000
233.07	300.000
233.44	-1800.000
233.81	320.000
234.19	151.852
234.56	256.250
234.93	194.118
235.31	200.000
235.68	256.250
236.05	182.143
236.43	181.481
236.80	285.714
237.17	196.552
237.55	178.125
237.92	127.500
238.29	154.545
238.67	153.125
239.04	124.390
239.41	118.750
239.79	125.000
240.16	122.917
240.53	114.754
240.91	105.797
241.28	123.729
241.65	93.939
242.02	109.859
242.40	107.143
242.77	90.110
243.14	94.937
243.51	91.919
243.89	95.327
244.26	83.178
244.63	88.119
245.00	86.239
245.38	81.356
245.75	83.333
246.12	93.333
246.49	68.794
246.87	77.869
247.24	79.333
247.61	71.250
247.98	78.912
248.36	76.970
248.73	73.469
249.10	79.762
249.47	74.000
249.84	71.642
250.22	79.459
250.59	67.000
250.96	71.730
251.33	75.349
251.70	72.321
252.08	70.588
252.45	70.120
252.82	65.399
253.19	61.265
253.56	66.923
253.94	64.855
254.31	70.543
254.68	68.293
255.05	68.621
255.42	66.423
255.79	68.404
256.16	69.831
256.54	69.156
256.91	65.359
257.28	67.224
257.65	63.323
258.02	65.192
258.39	62.464
258.76	63.768
259.14	63.429
259.51	61.808
259.88	70.517
260.25	58.516
260.62	60.822
260.99	59.780
261.36	62.674
261.73	65.957
262.10	63.613
262.47	61.750
262.85	62.400
263.22	66.581
263.59	61.381
263.96	64.160
264.33	60.741
264.70	66.093
265.07	61.463
265.44	63.073
265.81	61.085
266.18	64.302
266.55	62.648
266.92	59.284
267.29	61.842
267.66	61.659
268.03	61.211
268.40	62.579
268.77	62.555
269.14	57.050
269.51	60.356
269.88	59.592
270.25	59.179
270.62	60.300
270.99	58.012
271.36	58.333
271.73	61.635
272.10	58.384
272.47	58.532
272.84	58.683
273.21	57.851
273.58	61.336
273.95	59.343
274.32	59.922
274.69	60.630
275.06	59.563
275.43	57.280
275.80	58.679
276.17	57.537
276.54	57.196
276.91	60.634
277.28	56.934
277.65	58.487
278.02	55.331
278.39	57.194
278.76	57.241
279.13	57.473
279.50	55.818
279.87	56.238
280.23	56.354
280.60	58.394
280.97	57.586
281.34	56.601
281.71	56.696
282.08	56.923
282.45	54.054
282.82	55.853
283.19	54.054
283.56	55.868
283.92	55.537
284.29	54.742
284.66	53.782
285.03	56.053
285.40	54.545
285.77	51.852
286.14	54.334
286.51	54.448
286.87	51.424
287.24	51.952
287.61	53.040
287.98	51.045
288.35	53.481
288.72	52.959
289.08	52.853
289.45	53.049
289.82	50.937
290.19	51.977
290.56	52.547
290.93	50.935
291.29	49.309
291.66	50.847
292.03	50.912
292.40	48.103
292.77	50.000
293.13	50.214
293.50	47.233
293.87	48.238
294.24	50.210
294.60	46.703
294.97	48.112
295.34	47.676
295.71	48.752
296.08	48.400
296.44	48.666
296.81	48.635
297.18	47.529
297.55	48.399
297.91	45.690
298.28	44.807
298.65	46.626
299.02	45.235
299.38	46.163
299.75	45.854
300.12	46.330
300.48	48.009
300.85	48.153
301.22	46.047
301.59	47.524
301.95	44.574
302.32	44.936
302.69	46.380
303.05	47.924
303.42	45.291
303.79	46.479
304.15	44.774
304.52	43.552
304.89	45.522
305.25	46.830
305.62	45.629
305.99	44.565
306.35	44.737
306.72	45.578
307.09	44.928
307.45	46.568
307.82	45.062
308.19	45.670
308.55	45.800
308.92	43.867
309.29	45.957
309.65	46.184
310.02	47.160
310.38	46.859
310.75	44.937
311.12	45.785
311.48	45.849
311.85	46.088
312.22	46.227
312.58	45.967
312.95	48.738
313.31	46.161
313.68	46.154
314.05	47.619
314.41	46.276
314.78	48.674
315.14	49.005
315.51	49.007
315.87	47.172
316.24	47.246
316.61	47.628
316.97	45.780
317.34	48.068
317.70	49.605
318.07	49.466
318.43	48.858
318.80	48.862
319.16	49.038
319.53	48.142
319.89	47.849
320.26	49.534
320.62	49.359
320.99	49.666
321.35	50.278
321.72	51.613
322.08	50.416
322.45	48.955
322.81	51.967
323.18	50.178
323.54	52.091
323.91	51.405
324.27	51.547
324.64	49.221
325.00	51.638
325.37	51.686
325.73	51.771
326.10	51.864
326.46	52.436
326.83	52.320
327.19	52.450
327.56	51.038
327.92	53.279
328.29	52.537
328.65	53.339
329.01	52.695
329.38	52.200
329.74	51.921
330.11	53.171
330.47	53.026
330.84	52.286
331.20	53.299
331.56	52.850
331.93	54.234
332.29	52.041
332.66	54.082
333.02	51.890
333.38	53.927
333.75	51.877
334.11	52.181
334.48	54.786
334.84	51.267
335.20	51.497
335.57	52.729
335.93	52.145
336.29	50.829
336.66	53.173
337.02	51.925
337.38	51.677
337.75	49.831
338.11	51.224
338.47	50.212
338.84	51.566
339.20	50.736
339.56	50.378
339.93	50.167
340.29	49.160
340.65	49.874
341.02	51.247
341.38	50.164
341.74	51.744
342.11	49.917
342.47	50.369
342.83	51.682
343.20	50.525
343.56	50.755
343.92	49.876
344.28	50.080
344.65	50.611
345.01	50.000
345.37	48.958
345.73	49.444
346.10	50.279
346.46	49.522
346.82	49.151
347.19	48.764
347.55	49.961
347.91	48.414
348.27	48.412
348.63	49.763
349.00	48.819
349.36	49.494
349.72	48.930
350.08	49.068
350.45	49.505
350.81	48.471
351.17	48.459
351.53	48.576
351.89	46.620
352.26	47.543
352.62	47.964
352.98	48.773
353.34	48.151
353.70	48.930
354.07	47.538
354.43	48.541
354.79	47.532
355.15	48.469
355.51	46.903
355.87	47.666
356.24	49.500
356.60	48.097
356.96	47.839
357.32	47.249
357.68	45.962
358.04	46.657
358.40	47.001
358.77	47.708
359.13	48.123
359.49	47.146
359.85	47.357
360.21	46.137
360.57	46.496
360.93	45.671
361.29	47.547
361.66	48.546
362.02	46.449
362.38	47.186
362.74	46.497
363.10	46.774
363.46	46.754
363.82	45.582
364.18	47.226
364.54	47.711
364.90	46.921
365.26	47.467
365.62	45.718
365.98	45.492
366.35	46.138
366.71	46.079
367.07	46.075
367.43	46.743
367.79	44.814
368.15	44.505
368.51	44.797
368.87	45.041
369.23	45.946
369.59	44.976
369.95	44.825
370.31	45.311
370.67	44.761
371.03	44.958
371.39	46.053
371.75	44.801
372.11	45.683
372.47	45.000
372.83	43.780
373.19	44.620
373.55	45.773
373.91	44.682
374.27	43.783
374.63	45.288
374.99	44.744
375.35	45.565
375.71	45.317
376.07	44.430
376.42	42.967
376.78	45.344
377.14	45.675
377.50	43.883
377.86	43.306
378.22	43.388
378.58	44.249
378.94	44.116
379.30	44.027
379.66	44.311
380.02	44.399
380.38	42.155
380.74	44.406
381.09	44.042
381.45	43.642
381.81	43.262
382.17	43.895
382.53	42.831
382.89	42.756
383.25	43.162
383.61	42.882
383.97	42.651
384.32	42.797
384.68	43.434
385.04	42.087
385.40	42.883
385.76	42.774
386.12	43.537
386.48	42.553
386.83	41.932
387.19	41.696
387.55	42.108
387.91	42.898
388.27	41.820
388.62	42.782
388.98	41.050
389.34	41.344
389.70	40.920
390.06	42.012
390.42	41.579
390.77	42.445
391.13	42.185
391.49	41.077
391.85	41.231
392.20	42.074
392.56	41.637
392.92	40.764
393.28	41.087
393.64	39.908
393.99	40.842
394.35	40.436
394.71	40.470
395.07	39.781
395.42	41.569
395.78	41.456
396.14	40.904
396.50	40.674
396.85	40.122
397.21	40.794
397.57	39.868
397.92	39.919
398.28	39.493
398.64	40.663
399.00	39.391
399.35	39.077
399.71	39.349
400.07	39.897
400.42	39.761
400.78	39.179
401.14	38.638
401.49	38.825
401.85	38.934
402.21	38.781
402.57	41.412
402.92	39.576
403.28	38.723
403.63	39.376
403.99	39.505
404.35	39.683
404.70	39.752
405.06	38.742
405.42	39.437
405.77	38.920
406.13	38.666
406.49	38.033
406.84	37.902
407.20	39.098
407.55	38.154
407.91	39.056
408.27	39.175
408.62	38.380
408.98	38.202
409.34	38.165
409.69	37.772
410.05	37.746
410.40	37.456
410.76	37.321
411.11	37.559
411.47	37.593
411.83	36.907
412.18	38.225
412.54	37.357
412.89	36.283
413.25	38.027
413.60	37.442
413.96	37.582
414.31	36.836
414.67	39.541
415.03	37.803
415.38	38.360
415.74	37.587
416.09	37.227
416.45	38.332
416.80	38.294
417.16	38.320
417.51	37.771
417.87	37.735
418.22	37.363
418.58	37.962
418.93	36.883
419.29	36.291
419.64	37.250
420.00	37.470
420.35	37.631
420.71	37.165
421.06	36.669
421.42	36.730
421.77	36.924
422.12	37.266
422.48	36.672
422.83	37.946
423.19	37.527
423.54	37.850
423.90	38.222
424.25	37.865
424.61	38.247
424.96	38.453
425.31	38.259
425.67	39.169
426.02	37.633
426.38	37.048
426.73	37.189
427.09	38.078
427.44	37.873
427.79	37.736
428.15	38.598
428.50	39.371
428.85	37.684
429.21	38.088
429.56	37.238
429.92	37.941
430.27	37.204
430.62	37.053
430.98	37.226
431.33	37.954
431.68	36.494
432.04	36.782
432.39	38.749
432.74	38.349
433.10	38.594
433.45	37.909
433.80	38.831
434.16	37.415
434.51	38.390
434.86	37.942
435.22	37.871
435.57	38.708
435.92	38.816
436.28	39.055
436.63	38.142
436.98	39.865
437.34	39.783
437.69	36.674
438.04	38.548
438.39	38.646
438.75	37.973
439.10	38.424
439.45	38.383
439.81	38.635
440.16	38.030
440.51	37.218
440.86	38.405
441.22	38.474
441.57	39.003
441.92	37.957
442.27	37.732
442.63	37.856
442.98	38.254
443.33	39.047
443.68	37.425
444.03	38.172
444.39	39.030
444.74	38.716
445.09	39.336
445.44	38.417
445.79	39.133
446.15	38.632
446.50	38.660
446.85	39.392
447.20	38.358
447.55	38.554
447.91	40.064
448.26	38.339
448.61	38.474
448.96	39.107
449.31	39.164
449.66	39.258
450.02	38.412
450.37	38.701
450.72	39.394
451.07	39.267
451.42	38.708
451.77	39.175
452.12	39.195
452.47	37.971
452.83	39.099
453.18	40.300
453.53	39.432
453.88	39.371
454.23	39.977
454.58	38.520
454.93	38.994
455.28	39.841
455.63	38.475
455.98	38.861
456.34	39.271
456.69	39.939
457.04	38.604
457.39	38.343
457.74	39.133
458.09	38.125
458.44	39.869
458.79	39.310
459.14	38.243
459.49	39.241
459.84	39.783
460.19	37.853
460.54	39.145
460.89	38.486
461.24	38.373
461.59	38.719
461.94	38.475
462.29	39.531
462.64	39.384
462.99	38.004
463.34	39.339
463.69	39.201
464.04	38.918
464.39	38.065
464.74	39.273
465.09	38.073
465.44	37.922
465.79	38.541
466.14	36.884
466.49	39.284
466.84	38.406
467.19	37.141
467.54	37.477
467.89	38.791
468.24	38.506
468.59	38.393
468.94	39.191
469.29	38.974
469.64	38.457
469.99	39.267
470.34	38.520
470.68	38.069
471.03	39.293
471.38	37.815
471.73	38.406
472.08	39.465
472.43	38.547
472.78	38.796
473.13	37.484
473.48	38.814
473.83	37.515
474.17	39.149
474.52	38.033
474.87	36.612
475.22	38.607
475.57	38.720
475.92	37.098
476.27	36.997
476.61	38.552
476.96	38.349
477.31	37.172
477.66	38.486
478.01	37.287
478.36	37.590
478.70	37.270
479.05	38.494
479.40	37.103
479.75	38.431
480.10	38.045
480.45	37.395
480.79	36.682
481.14	37.280
481.49	37.283
481.84	36.588
482.19	37.031
482.53	36.935
482.88	37.545
483.23	36.806
483.58	37.567
483.92	38.300
484.27	35.959
484.62	36.672
484.97	35.995
485.31	35.752
485.66	35.793
486.01	35.528
486.36	35.513
486.70	34.966
487.05	35.005
487.40	35.161
487.75	35.970
488.09	36.477
488.44	36.520
488.79	36.446
489.13	36.805
489.48	35.837
489.83	36.864
490.17	35.384
490.52	37.080
490.87	35.905
491.22	37.101
491.56	36.495
491.91	36.694
492.26	36.748
492.60	37.130
492.95	36.067
493.30	35.623
493.64	36.568
493.99	36.404
494.34	35.903
494.68	35.857
495.03	36.147
495.37	36.470
495.72	36.270
496.07	36.074
496.41	36.229
496.76	36.302
497.11	36.332
497.45	35.730
497.80	36.654
498.14	36.477
498.49	36.444
498.84	36.308
499.18	35.375
499.53	36.472
499.87	35.984
500.22	36.849
500.56	36.537
500.91	37.059
501.26	36.243
501.60	36.339
501.95	35.753
502.29	36.356
502.64	35.951
502.98	35.438
503.33	35.278
503.67	35.673
504.02	35.065
504.36	36.471
504.71	36.235
505.06	35.523
505.40	35.938
505.75	35.173
506.09	36.304
506.44	35.526
506.78	36.342
507.13	35.822
507.47	36.196
507.82	36.886
508.16	36.747
508.51	35.556
508.85	35.802
509.19	35.928
509.54	35.840
509.88	36.002
510.23	35.637
510.57	34.266
510.92	36.014
511.26	35.894
511.61	36.484
511.95	35.640
512.30	35.550
512.64	34.424
512.98	35.520
513.33	35.963
513.67	35.215
514.02	36.260
514.36	35.462
514.70	34.880
515.05	34.683
515.39	35.088
515.74	36.304
516.08	36.220
516.42	36.612
516.77	35.307
517.11	35.360
517.46	35.022
517.80	34.626
518.14	35.775
518.49	34.840
518.83	35.000
519.17	36.051
519.52	35.281
519.86	35.531
520.20	35.726
520.55	34.935
520.89	35.402
521.23	35.923
521.58	35.112
521.92	34.519
522.26	34.953
522.61	35.235
522.95	35.676
523.29	36.491
523.64	34.624
523.98	34.918
524.32	35.006
524.66	34.957
525.01	34.260
525.35	35.298
525.69	35.701
526.04	35.812
526.38	34.962
526.72	33.890
527.06	35.009
527.41	35.611
527.75	34.997
528.09	34.798
528.43	34.899
528.78	35.182
529.12	36.002
529.46	35.359
529.80	34.696
530.15	34.885
530.49	34.116
530.83	34.674
531.17	34.133
531.51	34.457
531.86	34.481
532.20	34.796
532.54	34.401
532.88	35.478
533.22	34.552
533.57	34.472
533.91	33.858
534.25	33.641
534.59	34.269
534.93	33.845
535.27	33.295
535.62	33.197
535.96	33.924
536.30	34.613
536.64	32.981
536.98	34.298
537.32	33.188
537.66	34.821
538.01	34.180
538.35	34.435
538.69	33.738
539.03	33.209
539.37	33.313
539.71	34.630
540.05	32.985
540.39	33.836
540.73	34.177
541.07	33.438
541.42	34.017
541.76	33.909
542.10	33.785
542.44	33.229
542.78	34.047
543.12	34.172
543.46	32.519
543.80	33.772
544.14	34.241
544.48	33.333
544.82	34.128
545.16	32.362
545.50	33.251
545.84	33.207
546.18	34.590
546.52	34.492
546.86	33.591
547.20	32.817
547.54	33.249
547.88	33.273
548.22	32.605
548.56	32.764
548.90	32.859
549.24	33.607
549.58	32.861
549.92	33.792
550.26	33.807
550.60	32.735
550.94	34.532
551.28	33.448
551.62	34.069
551.96	32.635
552.30	32.367
552.64	33.722
552.98	32.732
553.32	32.074
553.66	34.072
554.00	33.140
554.34	33.356
554.68	33.535
555.02	33.673
555.36	31.316
555.69	32.657
556.03	33.631
556.37	32.505
556.71	33.442
557.05	31.455
557.39	33.333
557.73	33.423
558.07	33.602
558.41	33.448
558.75	33.926
559.08	33.810
559.42	32.928
559.76	33.001
560.10	32.416
560.44	32.780
560.78	33.440
561.12	31.914
561.45	32.854
561.79	32.335
562.13	32.660
562.47	33.809
562.81	33.051
563.15	32.708
563.48	30.621
563.82	32.626
564.16	32.711
564.50	31.887
564.84	32.462
565.17	32.442
565.51	33.128
565.85	32.572
566.19	32.024
566.52	32.070
566.86	32.574
567.20	32.865
567.54	31.168
567.88	32.655
568.21	31.802
568.55	32.004
568.89	32.892
569.23	31.104
569.56	32.348
569.90	31.297
570.24	31.312
570.57	31.213
570.91	30.827
571.25	30.101
571.59	30.062
571.92	30.059
572.26	30.404
572.60	30.269
572.93	30.995
573.27	30.729
573.61	29.940
573.95	30.329
574.28	30.490
574.62	29.879
574.96	30.289
575.29	29.749
575.63	29.517
575.97	29.698
576.30	29.461
576.64	30.455
576.98	29.812
577.31	30.347
577.65	29.675
577.98	29.998
578.32	29.585
578.66	30.035
578.99	29.956
579.33	29.770
579.67	29.841
580.00	29.649
580.34	29.414
580.67	29.732
581.01	30.437
581.35	29.875
581.68	29.711
582.02	29.360
582.35	29.630
582.69	29.636
583.02	29.700
583.36	29.551
583.70	29.975
584.03	30.599
584.37	29.884
584.70	30.207
585.04	30.288
585.37	29.711
585.71	29.843
586.04	30.047
586.38	30.069
586.72	30.193
587.05	30.237
587.39	29.886
587.72	30.471
588.06	29.476
588.39	29.683
588.73	30.400
589.06	30.201
589.40	30.798
589.73	30.383
590.07	31.194
590.40	30.976
590.73	31.656
591.07	30.664
591.40	30.818
591.74	30.804
592.07	30.532
592.41	30.536
592.74	30.245
593.08	30.176
593.41	29.623
593.75	29.546
594.08	30.089
594.41	30.075
594.75	29.932
595.08	30.521
595.42	30.810
595.75	30.306
596.09	30.726
596.42	30.772
596.75	31.050
597.09	30.706
597.42	30.122
597.75	30.588
598.09	29.914
598.42	29.702
598.76	30.378
599.09	30.489
599.42	30.138
599.76	30.597
600.09	30.068
600.42	30.180
600.76	29.572
601.09	30.135
601.42	29.849
601.76	29.610
602.09	30.353
602.42	29.649
602.76	30.095
603.09	30.279
603.42	30.679
603.76	29.935
604.09	29.569
604.42	29.002
604.76	30.462
605.09	30.408
605.42	30.028
605.75	29.096
606.09	30.145
606.42	29.538
606.75	29.965
607.09	29.609
607.42	29.932
607.75	30.016
608.08	29.285
608.42	30.621
608.75	29.782
609.08	30.400
609.41	30.500
609.75	30.586
610.08	29.946
610.41	29.864
610.74	30.130
611.07	29.786
611.41	30.352
611.74	29.541
612.07	30.058
612.40	29.873
612.73	30.354
613.07	30.867
613.40	30.827
613.73	30.854
614.06	30.050
614.39	30.606
614.72	30.236
615.06	30.020
615.39	30.149
615.72	29.138
616.05	29.985
616.38	30.137
616.71	30.005
617.05	29.819
617.38	30.899
617.71	30.709
618.04	30.174
618.37	30.684
618.70	29.446
619.03	30.586
619.36	30.842
619.69	30.145
620.03	31.442
620.36	30.829
620.69	30.651
621.02	30.910
621.35	30.587
621.68	30.973
622.01	31.882
622.34	30.590
622.67	30.969
623.00	31.314
623.33	30.837
623.66	30.472
623.99	30.411
624.32	31.233
624.65	30.744
624.99	30.764
625.32	31.597
625.65	29.586
625.98	29.986
626.31	30.786
626.64	29.841
626.97	30.451
627.30	30.745
627.63	32.104
627.96	29.186
628.29	30.528
628.62	30.368
628.95	31.294
629.28	31.727
629.61	32.074
629.94	30.769
630.26	31.023
630.59	33.422
630.92	31.749
631.25	31.369
631.58	32.498
631.91	31.304
632.24	31.195
632.57	29.371
632.90	32.298
633.23	31.165
633.56	30.242
633.89	31.618
634.22	32.185
634.55	32.258
634.88	31.325
635.20	32.735
635.53	33.449
635.86	32.774
636.19	31.201
636.52	31.243
636.85	32.362
637.18	32.286
637.51	30.279
637.83	30.549
638.16	32.943
638.49	31.257
638.82	33.099
639.15	30.317
639.48	33.294
639.81	34.066
640.13	32.761
640.46	31.985
640.79	31.860
641.12	32.546
641.45	31.307
641.77	33.289
642.10	32.129
642.43	32.575
642.76	32.386
643.09	31.844
643.41	32.539
643.74	32.662
644.07	32.891
644.40	32.249
644.73	34.234
645.05	34.324
645.38	34.150
645.71	33.384
646.04	34.198
646.36	34.116
646.69	31.840
647.02	32.640
647.35	31.496
647.67	32.577
648.00	33.062
648.33	32.782
648.66	33.939
648.98	32.609
649.31	33.603
649.64	32.227
649.96	31.863
650.29	30.429
650.62	32.253
650.94	32.380
651.27	33.014
651.60	32.081
651.92	34.101
652.25	34.016
652.58	31.489
652.90	32.635
653.23	30.724
653.56	32.047
653.88	31.424
654.21	30.792
654.54	32.943
654.86	32.153
655.19	32.322
655.52	29.642
655.84	25.969
656.17	30.977
656.49	44.119
656.82	49.902
657.15	39.611
657.47	29.174
657.80	21.889
658.13	17.499
658.45	23.777
658.78	29.018
659.10	29.239
659.43	29.252
659.75	30.762
660.08	31.140
660.41	32.123
660.73	33.501
661.06	32.282
661.38	33.901
661.71	34.892
662.03	33.460
662.36	31.810
662.68	31.471
663.01	33.514
663.33	31.132
663.66	33.333
663.98	30.754
664.31	33.209
664.63	33.333
664.96	35.272
665.28	31.638
665.61	32.264
665.93	34.717
666.26	32.897
666.58	33.761
666.91	32.046
667.23	31.928
667.56	35.729
667.88	37.967
668.21	31.967
668.53	33.266
668.86	36.072
669.18	33.401
669.50	31.405
669.83	32.854
670.15	31.809
670.48	30.859
670.80	32.271
671.13	31.873
671.45	34.669
671.77	34.879
672.10	32.496
672.42	31.743
672.75	33.703
673.07	31.002
673.39	32.268
673.72	33.045
674.04	32.616
674.37	32.486
674.69	30.669
675.01	30.970
675.34	31.395
675.66	33.008
675.98	35.108
676.31	32.200
676.63	32.207
676.95	34.524
677.28	33.266
677.60	34.004
677.92	30.357
678.25	33.333
678.57	33.706
678.89	33.816
679.22	34.375
679.54	32.206
679.86	33.857
680.18	30.228
680.51	31.343
680.83	28.547
681.15	35.009
681.48	30.382
681.80	32.399
682.12	33.564
682.44	31.892
682.77	31.139
683.09	31.262
683.41	35.102
683.73	33.661
684.06	34.127
684.38	33.527
684.70	31.475
685.02	30.035
685.34	31.690
685.67	32.154
685.99	32.020
686.31	29.276
686.63	30.732
686.96	34.150
687.28	31.544
687.60	32.423
687.92	32.831
688.24	32.759
688.56	32.562
688.89	30.975
689.21	32.177
689.53	33.794
689.85	31.504
690.17	31.262
690.49	34.879
690.82	31.092
691.14	32.929
691.46	33.265
691.78	34.503
692.10	31.489
692.42	31.942
692.74	33.915
693.06	33.333
693.39	30.435
693.71	32.809
694.03	32.742
694.35	35.743
694.67	33.605
694.99	34.146
695.31	34.910
695.63	34.615
695.95	33.710
696.27	35.841
696.59	32.220
696.91	30.633
697.23	32.353
697.56	30.083
697.88	31.138
698.20	32.453
698.52	29.767
698.84	31.828
699.16	33.262
699.48	34.958
699.80	35.948
700.12	36.028
700.44	29.439
700.76	33.652
701.08	36.292
701.40	33.506
701.72	37.968
702.04	34.688
702.36	35.484
702.68	34.309
703.00	32.832
703.32	33.747
703.64	32.997
703.96	35.417
704.28	32.011
704.60	36.338
704.91	35.854
705.23	35.511
705.55	34.718
705.87	36.825
706.19	38.245
706.51	37.931
706.83	36.283
707.15	35.561
707.47	33.172
707.79	33.333
708.11	33.107
708.43	34.382
708.74	32.353
709.06	35.349
709.38	33.747
709.70	32.153
710.02	32.880
710.34	36.740
710.66	39.167
710.98	35.792
711.29	32.869
711.61	36.212
711.93	35.258
712.25	35.241
712.57	36.013
712.89	36.970
713.20	37.061
713.52	35.202
713.84	38.369
714.16	33.333
714.48	34.006
714.80	35.230
715.11	33.777
715.43	32.123
715.75	38.873
716.07	34.682
716.39	35.429
716.70	33.333
717.02	35.690
717.34	38.489
717.66	37.847
717.97	44.697
718.29	40.141
718.61	34.459
718.93	37.716
719.24	39.262
719.56	34.483
719.88	33.758
720.20	32.581
720.51	31.699
720.83	35.452
721.15	41.156
721.46	33.904
721.78	35.192
722.10	37.847
722.42	38.462
722.73	35.379
723.05	41.053
723.37	39.576
723.68	37.109
724.00	36.742
724.32	41.065
724.63	41.154
724.95	41.176
725.27	36.803
725.58	40.074
725.90	34.507
726.22	34.932
726.53	38.796
726.85	37.459
727.16	37.248
727.48	35.216
727.80	37.050
728.11	35.357
728.43	39.855
728.74	37.413
729.06	34.409
729.38	39.649
729.69	37.333
730.01	38.158
730.32	37.584
730.64	39.203
730.96	38.739
731.27	35.168
731.59	33.046
731.90	32.869
732.22	32.857
732.53	34.473
732.85	34.795
733.16	34.036
733.48	35.110
733.80	38.841
734.11	38.344
734.43	28.947
734.74	35.121
735.06	36.243
735.37	33.505
735.69	36.522
736.00	40.367
736.32	35.152
736.63	32.492
736.95	35.404
737.26	34.756
737.58	36.810
737.89	33.434
738.21	36.755
738.52	38.462
738.83	40.293
739.15	38.676
739.46	33.103
739.78	35.034
740.09	36.443
740.41	35.276
740.72	37.778
741.04	36.014
741.35	37.500
741.66	36.759
741.98	38.627
742.29	37.037
742.61	37.611
742.92	38.983
743.23	39.200
743.55	35.094
743.86	36.471
744.18	36.864
744.49	38.430
744.80	41.475
745.12	41.518
745.43	40.187
745.74	41.778
746.06	34.211
746.37	40.000
746.68	38.938
747.00	42.152
747.31	40.336
747.62	36.066
747.94	43.348
748.25	37.354
748.56	41.102
748.88	38.839
749.19	41.860
749.50	40.183
749.82	39.095
750.13	37.549
750.44	35.333
750.75	38.591
751.07	38.487
751.38	36.634
751.69	36.027
752.01	34.266
752.32	33.223
752.63	38.591
752.94	29.720
753.26	34.766
753.57	35.409
753.88	38.577
754.19	37.184
754.51	38.538
754.82	36.242
755.13	33.108
755.44	38.889
755.75	40.893
756.07	39.726
756.38	34.314
756.69	35.938
757.00	39.466
757.31	35.211
757.63	32.231
757.94	35.106
758.25	32.126
758.56	33.181
758.87	33.333
759.18	36.628
759.50	33.739
759.81	34.125
760.12	32.022
760.43	35.294
760.74	33.924
761.05	33.156
761.36	31.510
761.67	34.232
761.99	35.493
762.30	36.334
762.61	34.375
762.92	36.364
763.23	33.208
763.54	36.538
763.85	36.965
764.16	36.111
764.47	32.770
764.78	37.134
765.10	34.451
765.41	32.670
765.72	35.083
766.03	32.628
766.34	34.146
766.65	39.924
766.96	40.891
767.27	41.121
767.58	44.059
767.89	46.409
768.20	44.512
768.51	40.306
768.82	38.158
769.13	37.255
769.44	36.090
769.75	32.210
770.06	39.916
770.37	36.404
770.68	36.889
770.99	39.831
771.30	42.259
771.61	40.385
771.92	36.641
772.23	33.468
772.54	38.667
772.85	44.554
773.16	43.478
773.47	41.667
773.78	41.089
774.09	45.455
774.39	48.485
774.70	39.412
775.01	44.737
775.32	37.888
775.63	50.685
775.94	48.148
776.25	46.897
776.56	46.565
776.87	51.908
777.18	55.303
777.48	56.693
777.79	51.538
778.10	54.545
778.41	56.716
778.72	40.602
779.03	38.462
779.34	45.270
779.65	45.342
779.95	45.342
780.26	38.095
780.57	55.102
780.88	47.518
781.19	55.833
781.50	46.154
781.80	48.087
782.11	37.037
782.42	37.931
782.73	42.938
783.04	40.645
783.34	47.287
783.65	51.701
783.96	50.323
784.27	37.748
784.57	44.079
784.88	45.652
785.19	51.667
785.50	52.586
785.81	57.364
786.11	52.593
786.42	47.244
786.73	55.856
787.04	58.491
787.34	43.089
787.65	56.818
787.96	53.788
788.26	53.543
788.57	51.825
788.88	56.338
789.19	48.092
789.49	49.324
789.80	49.219
790.11	52.893
790.41	59.259
790.72	46.296
791.03	58.654
791.33	61.616
791.64	67.368
791.95	62.105
792.25	50.000
792.56	54.000
792.87	58.537
793.17	61.364
793.48	54.118
793.79	58.621
794.09	61.364
794.40	56.034
794.70	49.206
795.01	51.538
795.32	50.382
795.62	52.991
795.93	54.622
796.23	54.472
796.54	55.102
796.85	54.545
797.15	75.325
797.46	78.049
797.76	56.250
798.07	72.000
798.37	67.500
798.68	85.000
798.99	78.049
799.29	66.667
799.60	60.465
799.90	67.105
800.21	66.667
800.51	70.423
800.82	72.414
801.12	84.615
801.43	82.667
801.73	75.862
802.04	68.831
802.34	65.753
802.65	82.353
802.95	73.913
803.26	90.323
803.56	86.667
803.87	70.149
804.17	79.365
804.48	81.132
804.78	61.111
805.09	75.758
805.39	74.603
805.70	73.684
806.00	67.143
806.30	70.312
806.61	67.059
806.91	58.889
807.22	55.435
807.52	65.789
807.83	82.895
808.13	73.913
808.43	72.581
808.74	68.493
809.04	71.429
809.35	66.176
809.65	89.394
809.95	98.039
810.26	107.407
810.56	82.813
810.86	97.959
811.17	84.211
811.47	78.261
811.77	81.034
812.08	67.241
812.38	88.095
812.69	88.095
812.99	68.889
813.29	97.143
813.59	145.161
813.90	86.207
814.20	78.689
814.50	70.000
814.81	64.912
815.11	92.593
815.41	96.429
815.72	110.714
816.02	90.000
816.32	102.439
816.62	68.966
816.93	118.182
817.23	90.244
817.53	87.500
817.84	108.889
818.14	83.333
818.44	110.417
818.74	98.113
819.04	110.256
819.35	118.182
819.65	100.000
819.95	96.296
820.25	102.128
820.56	110.811
820.86	121.053
821.16	74.468
821.46	100.000
821.76	94.545
822.07	100.000
822.37	92.105
822.67	120.930
822.97	73.684
823.27	113.043
823.57	125.000
823.88	115.385
824.18	115.152
824.48	117.391
824.78	105.556
825.08	156.522
825.38	148.276
825.69	97.059
825.99	72.340
826.29	100.000
826.59	125.714
826.89	103.333
827.19	97.143
827.49	106.452
827.79	157.692
828.09	104.762
828.39	102.778
828.70	86.486
829.00	157.143
829.30	250.000
829.60	125.000
829.90	125.806
830.20	145.455
830.50	116.216
830.80	158.333
831.10	138.462
831.40	157.143
831.70	137.500
832.00	120.000
832.30	156.522
832.60	191.667
832.90	127.273
833.20	185.000
833.50	134.211
833.80	126.471
834.10	84.211
834.40	126.316
834.70	113.333
835.00	168.000
835.30	118.919
835.60	134.375
835.90	127.027
836.20	142.308
836.50	168.182
836.80	102.439
837.10	147.826
837.40	338.462
837.70	173.684
838.00	143.333
838.30	170.833
838.60	160.000
838.90	310.000
839.19	212.500
839.49	146.667
839.79	120.690
840.09	165.385
840.39	153.333
840.69	231.579
840.99	157.143
841.29	165.217
841.59	180.000
841.88	160.000
842.18	344.444
842.48	125.000
842.78	185.185
843.08	176.923
843.38	150.000
843.68	292.857
843.97	485.714
844.27	134.783
844.57	1650.000
844.87	271.429
845.17	227.778
845.47	128.571
845.76	154.167
846.06	442.857
846.36	194.118
846.66	161.538
846.96	206.250
847.25	200.000
847.55	173.684
847.85	177.778
848.15	540.000
848.44	300.000
848.74	190.476
849.04	179.167
849.34	200.000
849.63	237.500
849.93	250.000
850.23	966.667
850.53	375.000
850.82	336.364
851.12	223.529
851.42	204.167
851.71	212.500
852.01	0.000
852.31	200.000
852.61	270.000
852.90	150.000
853.20	333.333
853.50	-2700.000
853.79	164.000
854.09	143.750
854.39	134.483
854.68	137.931
854.98	214.286
855.28	135.484
855.57	235.714
855.87	188.889
856.17	122.222
856.46	184.211
856.76	129.032
857.05	223.529
857.35	263.636
857.65	284.615
857.94	190.000
858.24	422.222
858.53	250.000
858.83	671.429
859.13	173.913
859.42	344.444
859.72	362.500
860.01	341.667
860.31	925.000
860.60	330.000
860.90	387.500
861.20	307.692
861.49	385.714
861.79	-3100.000
862.08	414.286
862.38	311.111
862.67	185.714
862.97	370.000
863.26	176.667
863.56	900.000
863.85	207.692
864.15	182.353
864.44	222.222
864.74	375.000
865.03	281.818
865.33	412.500
865.62	206.667
865.92	483.333
866.21	750.000
866.51	540.000
866.80	205.556
867.10	900.000
867.39	3600.000
867.69	740.000
867.98	825.000
868.27	195.238
868.57	253.333
868.86	825.000
869.16	161.905
869.45	3400.000
869.75	-350.000
870.04	875.000
870.33	660.000
870.63	375.000
870.92	170.588
871.22	750.000
871.51	328.571
871.80	375.000
872.10	315.385
>>>>>End Processed Spectral Data<<<<<
