SpectraSuite Data File
++++++++++++++++++++++++++++++++++++
Date: Tue May 12 16:38:01 PDT 2015
User: schluterlab
Dark Spectrum Present: Yes
Reference Spectrum Present: Yes
Number of Sampled Component Spectra: 1
Spectrometers: USB2E3373
Integration Time (usec): 3000 (USB2E3373)
Spectra Averaged: 3 (USB2E3373)
Boxcar Smoothing: 0 (USB2E3373)
Correct for Electrical Dark: No (USB2E3373)
Strobe/Lamp Enabled: No (USB2E3373)
Correct for Detector Non-linearity: No (USB2E3373)
Correct for Stray Light: No (USB2E3373)
Number of Pixels in Processed Spectrum: 2048
>>>>>Begin Processed Spectral Data<<<<<
178.53	0.000
178.91	-233.333
179.29	-750.000
179.67	-3300.000
180.04	-66.667
180.42	650.000
180.80	1400.000
181.18	0.000
181.56	-212.500
181.94	0.000
182.31	1266.667
182.69	-2500.000
183.07	642.857
183.45	-3400.000
183.83	-1900.000
184.20	400.000
184.58	385.714
184.96	-192.308
185.34	-141.667
185.72	1150.000
186.09	-600.000
186.47	-3000.000
186.85	866.667
187.23	660.000
187.61	1400.000
187.98	412.500
188.36	242.857
188.74	283.333
189.12	333.333
189.49	825.000
189.87	0.000
190.25	450.000
190.63	2300.000
191.00	-200.000
191.38	-3400.000
191.76	-625.000
192.14	462.500
192.51	-2800.000
192.89	1650.000
193.27	833.333
193.65	-1000.000
194.02	-640.000
194.40	385.714
194.78	-171.429
195.15	260.000
195.53	-2200.000
195.91	-700.000
196.29	3400.000
196.66	262.500
197.04	775.000
197.42	-1150.000
197.79	600.000
198.17	358.333
198.55	0.000
198.92	385.714
199.30	966.667
199.68	1950.000
200.05	616.667
200.43	-400.000
200.81	188.889
201.18	3600.000
201.56	191.667
201.94	-525.000
202.31	-250.000
202.69	-620.000
203.07	2200.000
203.44	-366.667
203.82	250.000
204.19	580.000
204.57	-1350.000
204.95	-600.000
205.32	-800.000
205.70	416.667
206.08	600.000
206.45	-700.000
206.83	366.667
207.20	152.632
207.58	300.000
207.96	680.000
208.33	0.000
208.71	514.286
209.08	640.000
209.46	-2400.000
209.84	-675.000
210.21	840.000
210.59	-500.000
210.96	250.000
211.34	-925.000
211.71	381.818
212.09	850.000
212.46	1300.000
212.84	-300.000
213.22	477.778
213.59	-2400.000
213.97	250.000
214.34	1025.000
214.72	1100.000
215.09	933.333
215.47	-2100.000
215.84	-310.000
216.22	-325.000
216.59	0.000
216.97	0.000
217.34	1350.000
217.72	-1500.000
218.09	1166.667
218.47	500.000
218.84	800.000
219.22	1133.333
219.59	766.667
219.97	542.857
220.34	433.333
220.72	1350.000
221.09	3900.000
221.47	216.667
221.84	766.667
222.22	400.000
222.59	233.333
222.97	214.286
223.34	212.500
223.72	-1250.000
224.09	1266.667
224.46	269.231
224.84	-975.000
225.21	300.000
225.59	300.000
225.96	1266.667
226.34	-640.000
226.71	-625.000
227.08	-400.000
227.46	0.000
227.83	-583.333
228.21	-1350.000
228.58	341.667
228.95	725.000
229.33	277.778
229.70	1300.000
230.08	346.154
230.45	3200.000
230.82	-875.000
231.20	-500.000
231.57	-666.667
231.95	580.000
232.32	300.000
232.69	416.667
233.07	275.000
233.44	-1800.000
233.81	213.333
234.19	155.556
234.56	206.250
234.93	223.529
235.31	210.000
235.68	262.500
236.05	178.571
236.43	129.630
236.80	200.000
237.17	120.690
237.55	143.750
237.92	117.500
238.29	148.485
238.67	115.625
239.04	119.512
239.41	70.833
239.79	92.500
240.16	83.333
240.53	75.410
240.91	85.507
241.28	86.441
241.65	72.727
242.02	76.056
242.40	75.714
242.77	71.429
243.14	67.089
243.51	66.667
243.89	57.009
244.26	57.009
244.63	57.426
245.00	60.550
245.38	42.373
245.75	47.727
246.12	54.815
246.49	42.553
246.87	44.262
247.24	56.000
247.61	46.250
247.98	46.259
248.36	41.212
248.73	47.959
249.10	41.071
249.47	41.000
249.84	43.284
250.22	50.811
250.59	46.000
250.96	40.084
251.33	40.000
251.70	41.964
252.08	41.597
252.45	41.036
252.82	39.924
253.19	37.945
253.56	39.231
253.94	39.855
254.31	37.984
254.68	39.721
255.05	38.621
255.42	39.051
255.79	37.785
256.16	39.661
256.54	39.935
256.91	37.582
257.28	33.779
257.65	32.602
258.02	35.103
258.39	39.542
258.76	35.942
259.14	35.429
259.51	36.443
259.88	36.170
260.25	35.714
260.62	36.438
260.99	33.058
261.36	34.540
261.73	34.043
262.10	33.770
262.47	33.000
262.85	34.400
263.22	33.933
263.59	35.038
263.96	36.591
264.33	35.062
264.70	35.627
265.07	33.415
265.44	32.569
265.81	33.962
266.18	36.156
266.55	32.624
266.92	30.201
267.29	32.675
267.66	31.390
268.03	34.753
268.40	32.770
268.77	31.718
269.14	32.104
269.51	33.408
269.88	33.061
270.25	29.590
270.62	34.120
270.99	32.454
271.36	34.350
271.73	33.962
272.10	30.909
272.47	31.349
272.84	31.138
273.21	30.992
273.58	32.794
273.95	33.881
274.32	30.739
274.69	34.449
275.06	34.426
275.43	30.651
275.80	32.453
276.17	32.537
276.54	30.654
276.91	32.836
277.28	29.380
277.65	31.181
278.02	31.985
278.39	30.036
278.76	30.862
279.13	32.206
279.50	29.818
279.87	31.099
280.23	30.387
280.60	30.657
280.97	31.897
281.34	30.693
281.71	31.478
282.08	30.940
282.45	29.054
282.82	30.268
283.19	29.889
283.56	29.256
283.92	31.759
284.29	29.950
284.66	28.739
285.03	29.187
285.40	28.430
285.77	28.704
286.14	30.495
286.51	30.675
286.87	27.373
287.24	28.979
287.61	27.812
287.98	28.507
288.35	29.481
288.72	26.555
289.08	27.177
289.45	28.354
289.82	26.250
290.19	28.697
290.56	27.511
290.93	26.906
291.29	26.796
291.66	26.412
292.03	26.788
292.40	25.610
292.77	25.487
293.13	27.247
293.50	25.776
293.87	24.661
294.24	24.476
294.60	25.976
294.97	25.315
295.34	25.631
295.71	26.807
296.08	25.067
296.44	25.032
296.81	23.697
297.18	24.335
297.55	24.877
297.91	23.276
298.28	22.947
298.65	23.190
299.02	22.678
299.38	23.381
299.75	22.317
300.12	23.280
300.48	24.239
300.85	24.791
301.22	24.186
301.59	22.052
301.95	22.170
302.32	22.701
302.69	22.624
303.05	23.457
303.42	21.188
303.79	23.185
304.15	22.992
304.52	21.670
304.89	22.708
305.25	22.358
305.62	22.921
305.99	22.391
306.35	21.474
306.72	22.685
307.09	22.878
307.45	22.386
307.82	21.296
308.19	21.649
308.55	22.000
308.92	21.688
309.29	23.866
309.65	22.299
310.02	21.602
310.38	22.832
310.75	21.311
311.12	21.073
311.48	23.552
311.85	22.710
312.22	22.254
312.58	22.935
312.95	22.427
313.31	22.285
313.68	21.857
314.05	22.894
314.41	23.277
314.78	22.254
315.14	23.412
315.51	22.706
315.87	22.719
316.24	22.876
316.61	23.456
316.97	23.578
317.34	23.450
317.70	24.056
318.07	24.377
318.43	23.814
318.80	24.869
319.16	24.650
319.53	23.540
319.89	24.104
320.26	25.233
320.62	24.634
320.99	26.025
321.35	26.160
321.72	26.565
322.08	25.946
322.45	26.703
322.81	25.801
323.18	25.133
323.54	27.178
323.91	27.017
324.27	26.260
324.64	25.865
325.00	27.328
325.37	27.234
325.73	27.487
326.10	29.246
326.46	29.397
326.83	28.480
327.19	28.916
327.56	27.716
327.92	29.590
328.29	29.133
328.65	29.281
329.01	28.486
329.38	28.596
329.74	28.181
330.11	30.148
330.47	30.435
330.84	29.594
331.20	30.541
331.56	31.174
331.93	29.598
332.29	29.337
332.66	29.762
333.02	29.467
333.38	30.279
333.75	30.442
334.11	29.195
334.48	31.624
334.84	30.236
335.20	30.026
335.57	30.227
335.93	30.614
336.29	30.348
336.66	31.132
337.02	29.769
337.38	29.579
337.75	31.081
338.11	31.646
338.47	32.091
338.84	30.991
339.20	29.784
339.56	30.193
339.93	30.100
340.29	30.588
340.65	30.427
341.02	29.606
341.38	30.952
341.74	30.897
342.11	29.716
342.47	30.763
342.83	32.322
343.20	30.962
343.56	29.865
343.92	30.388
344.28	30.622
344.65	30.399
345.01	30.000
345.37	30.208
345.73	29.762
346.10	29.721
346.46	31.659
346.82	30.015
347.19	30.448
347.55	30.835
347.91	30.136
348.27	29.280
348.63	31.725
349.00	29.551
349.36	30.739
349.72	30.352
350.08	30.280
350.45	31.150
350.81	30.505
351.17	30.123
351.53	30.254
351.89	30.536
352.26	29.403
352.62	31.297
352.98	30.368
353.34	31.356
353.70	30.046
354.07	30.231
354.43	30.261
354.79	30.904
355.15	30.322
355.51	31.193
355.87	30.196
356.24	31.948
356.60	30.137
356.96	30.781
357.32	31.123
357.68	31.204
358.04	30.927
358.40	30.885
358.77	30.954
359.13	30.330
359.49	30.022
359.85	30.603
360.21	30.684
360.57	31.314
360.93	31.890
361.29	30.231
361.66	30.425
362.02	30.540
362.38	31.313
362.74	30.998
363.10	32.048
363.46	30.180
363.82	30.435
364.18	30.797
364.54	31.474
364.90	30.388
365.26	31.159
365.62	31.077
365.98	29.732
366.35	30.207
366.71	30.812
367.07	30.444
367.43	30.087
367.79	30.053
368.15	29.512
368.51	30.737
368.87	30.027
369.23	31.324
369.59	29.939
369.95	30.210
370.31	30.253
370.67	30.049
371.03	31.232
371.39	31.371
371.75	31.124
372.11	29.504
372.47	31.986
372.83	31.611
373.19	31.117
373.55	30.722
373.91	30.387
374.27	30.622
374.63	30.305
374.99	30.863
375.35	31.452
375.71	30.607
376.07	30.570
376.42	29.476
376.78	30.700
377.14	31.258
377.50	30.400
377.86	30.557
378.22	31.079
378.58	32.022
378.94	30.718
379.30	30.139
379.66	31.066
380.02	31.437
380.38	29.450
380.74	31.257
381.09	30.841
381.45	30.462
381.81	30.319
382.17	30.281
382.53	29.574
382.89	30.574
383.25	30.847
383.61	30.259
383.97	29.934
384.32	31.103
384.68	31.729
385.04	29.719
385.40	30.249
385.76	29.549
386.12	30.241
386.48	30.274
386.83	30.073
387.19	30.212
387.55	30.094
387.91	30.716
388.27	30.101
388.62	30.458
388.98	29.563
389.34	29.804
389.70	29.481
390.06	30.305
390.42	29.180
390.77	30.160
391.13	30.477
391.49	30.974
391.85	29.969
392.20	30.155
392.56	30.705
392.92	28.972
393.28	29.989
393.64	29.472
393.99	29.757
394.35	30.194
394.71	29.493
395.07	29.927
395.42	29.859
395.78	30.783
396.14	30.723
396.50	29.844
396.85	29.024
397.21	29.362
397.57	29.767
397.92	28.885
398.28	29.730
398.64	29.959
399.00	28.915
399.35	29.200
399.71	29.415
400.07	30.422
400.42	29.194
400.78	29.443
401.14	29.595
401.49	29.032
401.85	29.258
402.21	29.525
402.57	30.341
402.92	29.697
403.28	28.520
403.63	29.959
403.99	29.554
404.35	29.719
404.70	30.124
405.06	28.411
405.42	29.384
405.77	28.170
406.13	29.121
406.49	28.539
406.84	28.652
407.20	28.824
407.55	28.862
407.91	29.675
408.27	29.290
408.62	29.332
408.98	28.031
409.34	28.054
409.69	30.118
410.05	28.444
410.40	28.445
410.76	28.449
411.11	28.969
411.47	28.765
411.83	28.354
412.18	28.200
412.54	28.649
412.89	28.260
413.25	28.506
413.60	29.439
413.96	28.306
414.31	28.453
414.67	29.361
415.03	29.183
415.38	29.338
415.74	28.617
416.09	29.294
416.45	30.381
416.80	29.378
417.16	28.962
417.51	29.363
417.87	29.287
418.22	29.283
418.58	30.000
418.93	28.614
419.29	28.897
419.64	29.861
420.00	29.714
420.35	29.152
420.71	29.405
421.06	29.135
421.42	29.361
421.77	29.706
422.12	29.989
422.48	28.659
422.83	29.408
423.19	29.914
423.54	29.786
423.90	29.898
424.25	30.105
424.61	30.296
424.96	29.249
425.31	29.830
425.67	31.033
426.02	30.679
426.38	29.463
426.73	30.654
427.09	31.495
427.44	29.600
427.79	31.103
428.15	31.762
428.50	30.114
428.85	31.570
429.21	29.714
429.56	30.508
429.92	31.228
430.27	30.866
430.62	29.711
430.98	31.337
431.33	30.948
431.68	29.975
432.04	30.523
432.39	31.668
432.74	31.440
433.10	31.506
433.45	31.419
433.80	32.543
434.16	32.055
434.51	32.095
434.86	32.009
435.22	31.442
435.57	31.832
435.92	32.385
436.28	32.258
436.63	31.767
436.98	32.376
437.34	32.249
437.69	31.467
438.04	32.151
438.39	32.458
438.75	33.073
439.10	32.272
439.45	32.222
439.81	33.719
440.16	32.471
440.51	31.700
440.86	32.593
441.22	33.117
441.57	31.864
441.92	31.737
442.27	32.320
442.63	31.555
442.98	32.435
443.33	32.137
443.68	32.093
444.03	32.469
444.39	32.768
444.74	32.816
445.09	32.438
445.44	32.944
445.79	32.749
446.15	32.105
446.50	32.648
446.85	32.968
447.20	32.736
447.55	33.442
447.91	33.831
448.26	33.972
448.61	33.002
448.96	33.878
449.31	34.048
449.66	33.610
450.02	33.766
450.37	34.037
450.72	34.215
451.07	34.148
451.42	34.084
451.77	34.479
452.12	34.317
452.47	34.690
452.83	34.535
453.18	34.234
453.53	34.695
453.88	34.457
454.23	34.399
454.58	33.217
454.93	34.703
455.28	34.700
455.63	34.220
455.98	33.897
456.34	35.198
456.69	34.512
457.04	34.308
457.39	34.171
457.74	35.755
458.09	33.408
458.44	34.009
458.79	34.854
459.14	34.315
459.49	34.768
459.84	35.380
460.19	34.463
460.54	35.385
460.89	34.968
461.24	34.192
461.59	35.941
461.94	34.752
462.29	35.584
462.64	36.118
462.99	34.741
463.34	34.867
463.69	36.479
464.04	35.809
464.39	34.860
464.74	33.822
465.09	34.707
465.44	34.548
465.79	34.404
466.14	34.075
466.49	34.292
466.84	34.950
467.19	35.559
467.54	35.315
467.89	35.211
468.24	35.669
468.59	35.000
468.94	34.662
469.29	35.370
469.64	36.463
469.99	35.861
470.34	36.180
470.68	35.241
471.03	35.624
471.38	36.225
471.73	35.924
472.08	36.464
472.43	35.630
472.78	35.595
473.13	35.670
473.48	36.247
473.83	35.689
474.17	36.535
474.52	36.848
474.87	34.451
475.22	35.465
475.57	35.729
475.92	35.360
476.27	34.875
476.61	35.657
476.96	36.050
477.31	35.784
477.66	36.125
478.01	35.224
478.36	35.891
478.70	34.938
479.05	36.297
479.40	35.367
479.75	36.594
480.10	35.770
480.45	36.134
480.79	34.977
481.14	36.377
481.49	35.087
481.84	35.444
482.19	35.459
482.53	34.739
482.88	35.125
483.23	36.130
483.58	36.131
483.92	37.066
484.27	34.974
484.62	35.908
484.97	34.164
485.31	34.322
485.66	33.553
486.01	32.868
486.36	32.453
486.70	32.024
487.05	32.365
487.40	32.977
487.75	34.077
488.09	33.750
488.44	33.811
488.79	34.849
489.13	35.498
489.48	36.276
489.83	35.655
490.17	35.590
490.52	35.357
490.87	35.905
491.22	36.215
491.56	35.749
491.91	35.170
492.26	36.258
492.60	36.674
492.95	36.112
493.30	36.442
493.64	36.478
493.99	36.225
494.34	35.724
494.68	35.989
495.03	36.956
495.37	36.290
495.72	36.224
496.07	36.523
496.41	36.490
496.76	35.796
497.11	35.947
497.45	36.519
497.80	37.442
498.14	36.338
498.49	36.908
498.84	37.477
499.18	36.243
499.53	36.977
499.87	36.343
500.22	37.540
500.56	37.326
500.91	37.755
501.26	37.115
501.60	36.157
501.95	36.559
502.29	36.178
502.64	35.862
502.98	35.794
503.33	36.169
503.67	36.071
504.02	35.199
504.36	36.380
504.71	37.748
505.06	37.072
505.40	36.500
505.75	37.231
506.09	37.424
506.44	36.278
506.78	36.673
507.13	36.888
507.47	37.215
507.82	37.762
508.16	37.629
508.51	37.005
508.85	37.037
509.19	37.641
509.54	38.135
509.88	37.494
510.23	36.520
510.57	36.293
510.92	37.762
511.26	37.299
511.61	36.977
511.95	37.033
512.30	38.300
512.64	37.435
512.98	37.519
513.33	38.064
513.67	37.960
514.02	35.896
514.36	37.591
514.70	38.400
515.05	38.625
515.39	38.542
515.74	38.054
516.08	37.636
516.42	38.907
516.77	38.773
517.11	37.067
517.46	38.147
517.80	37.684
518.14	37.972
518.49	38.203
518.83	36.429
519.17	37.659
519.52	38.012
519.86	39.292
520.20	38.575
520.55	38.101
520.89	38.448
521.23	39.019
521.58	37.694
521.92	39.359
522.26	39.277
522.61	39.275
522.95	39.279
523.29	37.544
523.64	37.630
523.98	38.732
524.32	37.889
524.66	38.493
525.01	38.284
525.35	37.655
525.69	38.531
526.04	39.084
526.38	37.669
526.72	37.530
527.06	38.143
527.41	39.178
527.75	38.405
528.09	39.013
528.43	38.560
528.78	38.462
529.12	38.712
529.46	38.866
529.80	38.668
530.15	38.892
530.49	37.786
530.83	39.427
531.17	38.622
531.51	39.362
531.86	38.406
532.20	38.813
532.54	36.786
532.88	38.788
533.22	38.635
533.57	38.011
533.91	37.063
534.25	38.084
534.59	38.129
534.93	37.600
535.27	36.596
535.62	37.048
535.96	36.761
536.30	38.574
536.64	38.944
536.98	37.885
537.32	37.750
537.66	37.755
538.01	36.966
538.35	38.677
538.69	37.379
539.03	38.060
539.37	38.410
539.71	38.642
540.05	38.154
540.39	38.553
540.73	39.367
541.07	36.888
541.42	37.376
541.76	37.485
542.10	37.546
542.44	39.651
542.78	37.760
543.12	37.791
543.46	37.970
543.80	38.095
544.14	37.152
544.48	37.713
544.82	37.859
545.16	37.280
545.50	38.722
545.84	38.321
546.18	38.622
546.52	39.082
546.86	37.975
547.20	38.307
547.54	38.505
547.88	37.226
548.22	38.069
548.56	37.242
548.90	36.892
549.24	37.903
549.58	38.015
549.92	38.507
550.26	38.607
550.60	37.924
550.94	39.484
551.28	38.138
551.62	39.241
551.96	38.446
552.30	37.508
552.64	39.029
552.98	38.080
553.32	38.860
553.66	38.111
554.00	38.481
554.34	39.281
554.68	38.710
555.02	39.104
555.36	37.699
555.69	38.809
556.03	38.025
556.37	37.604
556.71	39.570
557.05	37.090
557.39	38.200
557.73	38.612
558.07	38.833
558.41	38.520
558.75	38.304
559.08	39.671
559.42	38.153
559.76	39.701
560.10	39.642
560.44	38.354
560.78	38.939
561.12	38.144
561.45	37.985
561.79	37.890
562.13	37.081
562.47	38.222
562.81	36.760
563.15	38.138
563.48	36.708
563.82	38.802
564.16	39.241
564.50	36.709
564.84	37.508
565.17	37.671
565.51	38.978
565.85	39.358
566.19	37.321
566.52	37.846
566.86	38.062
567.20	37.247
567.54	37.009
567.88	38.080
568.21	35.247
568.55	36.527
568.89	35.630
569.23	35.289
569.56	35.224
569.90	34.315
570.24	34.787
570.57	33.777
570.91	33.448
571.25	33.482
571.59	32.685
571.92	32.804
572.26	32.642
572.60	31.824
572.93	33.122
573.27	32.625
573.61	32.296
573.95	31.997
574.28	32.186
574.62	32.138
574.96	31.465
575.29	31.424
575.63	31.543
575.97	31.840
576.30	31.713
576.64	31.817
576.98	31.368
577.31	32.385
577.65	32.028
577.98	31.460
578.32	30.993
578.66	30.696
578.99	31.487
579.33	31.800
579.67	31.895
580.00	31.094
580.34	31.314
580.67	31.700
581.01	31.731
581.35	31.703
581.68	30.904
582.02	30.794
582.35	30.801
582.69	30.890
583.02	31.094
583.36	31.555
583.70	32.534
584.03	32.637
584.37	32.913
584.70	32.147
585.04	31.240
585.37	31.109
585.71	32.135
586.04	31.653
586.38	31.769
586.72	32.484
587.05	32.424
587.39	32.187
587.72	32.423
588.06	32.307
588.39	32.062
588.73	32.226
589.06	33.003
589.40	33.740
589.73	33.759
590.07	33.493
590.40	34.286
590.73	35.145
591.07	34.535
591.40	34.212
591.74	35.065
592.07	34.151
592.41	34.213
592.74	32.918
593.08	33.789
593.41	33.034
593.75	32.679
594.08	32.584
594.41	33.138
594.75	33.562
595.08	33.025
595.42	32.883
595.75	33.004
596.09	33.507
596.42	33.540
596.75	34.575
597.09	34.750
597.42	34.204
597.75	33.793
598.09	33.730
598.42	33.619
598.76	34.079
599.09	34.388
599.42	33.495
599.76	33.141
600.09	33.356
600.42	33.736
600.76	32.665
601.09	33.690
601.42	33.228
601.76	33.548
602.09	33.297
602.42	33.420
602.76	33.890
603.09	33.446
603.42	33.761
603.76	34.237
604.09	33.261
604.42	33.597
604.76	34.413
605.09	34.245
605.42	34.092
605.75	34.741
606.09	34.047
606.42	33.183
606.75	34.162
607.09	33.715
607.42	34.190
607.75	33.877
608.08	33.834
608.42	33.851
608.75	33.462
609.08	34.272
609.41	34.818
609.75	35.165
610.08	34.263
610.41	33.729
610.74	34.329
611.07	34.879
611.41	34.523
611.74	34.656
612.07	35.405
612.40	34.942
612.73	35.996
613.07	35.682
613.40	35.088
613.73	35.846
614.06	35.400
614.39	35.758
614.72	34.907
615.06	34.669
615.39	34.307
615.72	34.076
616.05	35.359
616.38	35.160
616.71	36.462
617.05	35.750
617.38	35.618
617.71	35.658
618.04	35.838
618.37	35.520
618.70	35.855
619.03	35.897
619.36	37.186
619.69	36.741
620.03	37.312
620.36	36.609
620.69	37.676
621.02	37.160
621.35	37.536
621.68	37.316
622.01	38.229
622.34	38.165
622.67	37.992
623.00	36.896
623.33	37.314
623.66	37.259
623.99	38.836
624.32	37.195
624.65	36.735
624.99	37.390
625.32	38.811
625.65	37.034
625.98	37.378
626.31	39.169
626.64	37.965
626.97	39.327
627.30	39.053
627.63	39.168
627.96	38.967
628.29	39.934
628.62	39.008
628.95	40.869
629.28	40.578
629.61	38.752
629.94	38.289
630.26	40.641
630.59	40.957
630.92	40.538
631.25	39.982
631.58	40.984
631.91	40.247
632.24	39.650
632.57	39.882
632.90	42.961
633.23	42.707
633.56	41.096
633.89	43.623
634.22	42.949
634.55	41.935
634.88	42.169
635.20	42.265
635.53	44.019
635.86	43.065
636.19	42.649
636.52	40.216
636.85	41.100
637.18	41.170
637.51	41.564
637.83	42.220
638.16	44.314
638.49	45.150
638.82	42.723
639.15	42.773
639.48	43.483
639.81	43.468
640.13	43.558
640.46	44.753
640.79	43.823
641.12	44.357
641.45	45.408
641.77	44.650
642.10	44.311
642.43	45.661
642.76	43.750
643.09	44.380
643.41	44.039
643.74	44.604
644.07	45.870
644.40	44.970
644.73	48.048
645.05	44.725
645.38	45.329
645.71	46.586
646.04	46.870
646.36	48.044
646.69	45.920
647.02	46.880
647.35	44.724
647.67	46.353
648.00	47.720
648.33	44.662
648.66	44.848
648.98	42.899
649.31	42.105
649.64	42.324
649.96	42.105
650.29	43.714
650.62	44.772
650.94	46.536
651.27	47.687
651.60	46.635
651.92	44.240
652.25	48.031
652.58	41.986
652.90	45.808
653.23	45.938
653.56	45.252
653.88	42.731
654.21	42.375
654.54	41.288
654.86	42.183
655.19	44.459
655.52	35.349
655.84	27.882
656.17	31.902
656.49	45.604
656.82	51.396
657.15	41.266
657.47	31.286
657.80	22.891
658.13	18.280
658.45	24.588
658.78	30.206
659.10	31.294
659.43	31.871
659.75	33.173
660.08	34.649
660.41	38.294
660.73	44.542
661.06	43.544
661.38	45.315
661.71	45.683
662.03	47.529
662.36	46.095
662.68	46.555
663.01	45.946
663.33	46.981
663.66	46.548
663.98	49.802
664.31	47.761
664.63	46.552
664.96	48.593
665.28	44.821
665.61	46.226
665.93	46.981
666.26	44.673
666.58	49.541
666.91	46.718
667.23	48.795
667.56	47.639
667.88	51.867
668.21	49.180
668.53	46.774
668.86	49.900
669.18	48.880
669.50	48.554
669.83	48.665
670.15	48.441
670.48	43.164
670.80	47.610
671.13	44.622
671.45	47.896
671.77	45.455
672.10	45.242
672.42	44.901
672.75	44.620
673.07	43.243
673.39	43.770
673.72	45.675
674.04	43.907
674.37	43.557
674.69	44.424
675.01	42.724
675.34	43.217
675.66	44.727
675.98	47.140
676.31	47.400
676.63	46.322
676.95	47.222
677.28	44.828
677.60	45.875
677.92	45.437
678.25	46.124
678.57	46.555
678.89	47.378
679.22	44.853
679.54	44.306
679.86	43.630
680.18	44.288
680.51	41.625
680.83	43.581
681.15	44.541
681.48	46.354
681.80	43.433
682.12	44.118
682.44	42.342
682.77	42.527
683.09	46.214
683.41	45.102
683.73	43.898
684.06	44.643
684.38	47.481
684.70	44.604
685.02	42.535
685.34	44.014
685.67	44.212
685.99	41.215
686.31	42.527
686.63	41.463
686.96	44.935
687.28	40.772
687.60	39.590
687.92	44.054
688.24	42.241
688.56	41.815
688.89	43.595
689.21	44.316
689.53	44.269
689.85	41.260
690.17	44.078
690.49	44.556
690.82	44.748
691.14	44.848
691.46	43.943
691.78	45.419
692.10	43.893
692.42	41.742
692.74	44.380
693.06	43.023
693.39	42.688
693.71	45.580
694.03	45.759
694.35	46.787
694.67	41.955
694.99	45.898
695.31	46.847
695.63	45.475
695.95	43.665
696.27	46.460
696.59	44.391
696.91	48.354
697.23	45.928
697.56	42.116
697.88	41.317
698.20	41.887
698.52	39.300
698.84	43.326
699.16	45.203
699.48	43.432
699.80	47.495
700.12	49.885
700.44	45.561
700.76	46.778
701.08	46.997
701.40	45.974
701.72	50.535
702.04	48.509
702.36	50.269
702.68	48.936
703.00	41.604
703.32	47.395
703.64	47.103
703.96	47.917
704.28	49.206
704.60	50.423
704.91	46.779
705.23	50.284
705.55	48.368
705.87	49.206
706.19	54.232
706.51	53.605
706.83	51.917
707.15	50.535
707.47	46.973
707.79	43.908
708.11	42.404
708.43	45.618
708.74	42.308
709.06	42.093
709.38	43.672
709.70	43.597
710.02	45.652
710.34	48.066
710.66	47.778
710.98	48.907
711.29	47.632
711.61	50.139
711.93	47.720
712.25	47.289
712.57	51.447
712.89	48.788
713.20	50.160
713.52	48.287
713.84	48.036
714.16	40.580
714.48	42.939
714.80	45.257
715.11	43.883
715.43	43.575
715.75	44.225
716.07	50.000
716.39	47.143
716.70	47.664
717.02	49.832
717.34	51.079
717.66	51.736
717.97	50.379
718.29	53.169
718.61	45.946
718.93	51.903
719.24	52.685
719.56	48.621
719.88	45.860
720.20	49.032
720.51	46.078
720.83	47.826
721.15	44.558
721.46	48.288
721.78	52.613
722.10	52.431
722.42	50.167
722.73	44.404
723.05	48.772
723.37	54.064
723.68	48.828
724.00	52.652
724.32	53.232
724.63	50.769
724.95	49.412
725.27	49.442
725.58	51.471
725.90	47.535
726.22	46.918
726.53	44.482
726.85	52.117
727.16	50.000
727.48	48.837
727.80	50.000
728.11	52.143
728.43	47.101
728.74	49.301
729.06	44.086
729.38	50.877
729.69	48.667
730.01	48.684
730.32	46.980
730.64	50.831
730.96	46.547
731.27	41.896
731.59	41.667
731.90	41.783
732.22	44.286
732.53	43.020
732.85	46.491
733.16	44.880
733.48	44.828
733.80	43.188
734.11	48.160
734.43	40.643
734.74	45.576
735.06	44.709
735.37	40.464
735.69	41.449
736.00	46.483
736.32	41.818
736.63	43.218
736.95	45.342
737.26	44.512
737.58	42.638
737.89	45.181
738.21	46.689
738.52	45.485
738.83	50.183
739.15	47.387
739.46	44.483
739.78	47.279
740.09	40.816
740.41	45.092
740.72	45.714
741.04	50.350
741.35	49.219
741.66	46.245
741.98	50.215
742.29	56.019
742.61	50.442
742.92	53.814
743.23	49.200
743.55	47.170
743.86	46.275
744.18	55.508
744.49	50.826
744.80	55.300
745.12	52.232
745.43	53.738
745.74	52.444
746.06	49.123
746.37	56.744
746.68	56.637
747.00	52.915
747.31	50.000
747.62	47.131
747.94	54.077
748.25	43.191
748.56	55.932
748.88	54.464
749.19	51.628
749.50	51.142
749.82	51.852
750.13	48.617
750.44	47.667
750.75	48.322
751.07	43.421
751.38	46.205
751.69	44.781
752.01	48.252
752.32	44.850
752.63	47.651
752.94	46.503
753.26	50.391
753.57	50.584
753.88	48.689
754.19	49.819
754.51	45.847
754.82	43.624
755.13	43.243
755.44	45.185
755.75	46.735
756.07	48.973
756.38	44.118
756.69	44.375
757.00	46.588
757.31	44.225
757.63	39.945
757.94	43.085
758.25	44.203
758.56	40.046
758.87	42.356
759.18	48.837
759.50	41.033
759.81	47.478
760.12	40.449
760.43	43.978
760.74	41.772
761.05	43.767
761.36	40.625
761.67	43.127
761.99	40.563
762.30	41.801
762.61	45.486
762.92	46.212
763.23	46.792
763.54	47.308
763.85	45.914
764.16	42.014
764.47	41.892
764.78	45.928
765.10	40.244
765.41	38.636
765.72	41.160
766.03	41.994
766.34	44.948
766.65	46.768
766.96	47.368
767.27	53.271
767.58	48.515
767.89	57.459
768.20	60.366
768.51	49.490
768.82	51.316
769.13	46.667
769.44	46.241
769.75	41.573
770.06	49.160
770.37	42.544
770.68	44.444
770.99	49.153
771.30	47.699
771.61	49.615
771.92	51.145
772.23	43.548
772.54	49.333
772.85	55.941
773.16	51.630
773.47	50.556
773.78	55.446
774.09	55.114
774.39	56.970
774.70	51.765
775.01	51.974
775.32	60.248
775.63	59.589
775.94	60.494
776.25	56.552
776.56	61.832
776.87	61.832
777.18	59.091
777.48	60.630
777.79	64.615
778.10	62.879
778.41	58.209
778.72	60.902
779.03	51.923
779.34	56.081
779.65	55.280
779.95	54.658
780.26	54.167
780.57	60.544
780.88	65.248
781.19	63.333
781.50	49.704
781.80	52.459
782.11	52.381
782.42	52.874
782.73	52.542
783.04	48.387
783.34	57.364
783.65	59.184
783.96	56.774
784.27	51.656
784.57	49.342
784.88	57.246
785.19	65.000
785.50	60.345
785.81	62.791
786.11	55.556
786.42	59.843
786.73	74.775
787.04	61.321
787.34	49.593
787.65	63.636
787.96	58.333
788.26	74.016
788.57	64.234
788.88	55.634
789.19	55.725
789.49	52.703
789.80	62.500
790.11	57.025
790.41	58.333
790.72	65.741
791.03	63.462
791.33	76.768
791.64	56.842
791.95	61.053
792.25	53.125
792.56	66.000
792.87	84.146
793.17	67.045
793.48	81.176
793.79	60.920
794.09	81.818
794.40	64.655
794.70	65.873
795.01	53.077
795.32	58.015
795.62	55.556
795.93	64.706
796.23	56.098
796.54	65.306
796.85	61.364
797.15	80.519
797.46	80.488
797.76	73.750
798.07	85.333
798.37	82.500
798.68	76.250
798.99	79.268
799.29	80.000
799.60	54.651
799.90	69.737
800.21	74.242
800.51	92.958
800.82	77.586
801.12	98.462
801.43	85.333
801.73	72.414
802.04	83.117
802.34	82.192
802.65	107.843
802.95	115.217
803.26	104.839
803.56	103.333
803.87	89.552
804.17	79.365
804.48	83.019
804.78	62.500
805.09	78.788
805.39	85.714
805.70	77.193
806.00	70.000
806.30	64.062
806.61	75.294
806.91	62.222
807.22	68.478
807.52	59.211
807.83	93.421
808.13	86.957
808.43	100.000
808.74	80.822
809.04	100.000
809.35	111.765
809.65	89.394
809.95	100.000
810.26	98.148
810.56	106.250
810.86	79.592
811.17	96.491
811.47	82.609
811.77	75.862
812.08	82.759
812.38	88.095
812.69	119.048
812.99	106.667
813.29	122.857
813.59	138.710
813.90	68.966
814.20	85.246
814.50	92.000
814.81	75.439
815.11	98.148
815.41	80.357
815.72	110.714
816.02	110.000
816.32	104.878
816.62	105.172
816.93	133.333
817.23	100.000
817.53	83.929
817.84	88.889
818.14	92.857
818.44	75.000
818.74	109.434
819.04	100.000
819.35	106.061
819.65	107.692
819.95	105.556
820.25	119.149
820.56	132.432
820.86	105.263
821.16	78.723
821.46	123.684
821.76	81.818
822.07	100.000
822.37	97.368
822.67	109.302
822.97	84.211
823.27	113.043
823.57	153.125
823.88	112.821
824.18	157.576
824.48	147.826
824.78	150.000
825.08	160.870
825.38	127.586
825.69	135.294
825.99	87.234
826.29	86.111
826.59	102.857
826.89	140.000
827.19	111.429
827.49	141.935
827.79	161.538
828.09	104.762
828.39	133.333
828.70	102.703
829.00	135.714
829.30	268.750
829.60	122.222
829.90	167.742
830.20	118.182
830.50	148.649
830.80	154.167
831.10	180.769
831.40	147.619
831.70	187.500
832.00	143.333
832.30	178.261
832.60	200.000
832.90	175.758
833.20	200.000
833.50	113.158
833.80	108.824
834.10	102.632
834.40	147.368
834.70	126.667
835.00	188.000
835.30	91.892
835.60	128.125
835.90	129.730
836.20	111.538
836.50	136.364
836.80	109.756
837.10	169.565
837.40	315.385
837.70	194.737
838.00	146.667
838.30	191.667
838.60	148.000
838.90	340.000
839.19	187.500
839.49	146.667
839.79	137.931
840.09	161.538
840.39	233.333
840.69	194.737
840.99	133.333
841.29	152.174
841.59	215.000
841.88	172.000
842.18	333.333
842.48	160.714
842.78	177.778
843.08	176.923
843.38	190.909
843.68	228.571
843.97	442.857
844.27	169.565
844.57	1000.000
844.87	307.143
845.17	250.000
845.47	142.857
845.76	208.333
846.06	500.000
846.36	229.412
846.66	269.231
846.96	262.500
847.25	176.923
847.55	205.263
847.85	177.778
848.15	620.000
848.44	336.364
848.74	185.714
849.04	166.667
849.34	205.882
849.63	243.750
849.93	243.750
850.23	1033.333
850.53	462.500
850.82	236.364
851.12	205.882
851.42	170.833
851.71	250.000
852.01	0.000
852.31	229.412
852.61	370.000
852.90	141.667
853.20	477.778
853.50	-2600.000
853.79	112.000
854.09	140.625
854.39	127.586
854.68	189.655
854.98	276.190
855.28	106.452
855.57	221.429
855.87	211.111
856.17	129.630
856.46	184.211
856.76	119.355
857.05	258.824
857.35	336.364
857.65	223.077
857.94	180.000
858.24	366.667
858.53	235.714
858.83	628.571
859.13	178.261
859.42	300.000
859.72	350.000
860.01	266.667
860.31	675.000
860.60	370.000
860.90	400.000
861.20	269.231
861.49	457.143
861.79	-3500.000
862.08	414.286
862.38	355.556
862.67	228.571
862.97	320.000
863.26	146.667
863.56	1100.000
863.85	269.231
864.15	270.588
864.44	200.000
864.74	258.333
865.03	300.000
865.33	412.500
865.62	240.000
865.92	533.333
866.21	850.000
866.51	700.000
866.80	250.000
867.10	1366.667
867.39	3600.000
867.69	760.000
867.98	875.000
868.27	242.857
868.57	246.667
868.86	650.000
869.16	195.238
869.45	3500.000
869.75	-450.000
870.04	525.000
870.33	560.000
870.63	437.500
870.92	241.176
871.22	700.000
871.51	457.143
871.80	316.667
872.10	230.769
>>>>>End Processed Spectral Data<<<<<
