SpectraSuite Data File
++++++++++++++++++++++++++++++++++++
Date: Tue May 12 16:47:45 PDT 2015
User: schluterlab
Dark Spectrum Present: Yes
Reference Spectrum Present: Yes
Number of Sampled Component Spectra: 1
Spectrometers: USB2E3373
Integration Time (usec): 3000 (USB2E3373)
Spectra Averaged: 3 (USB2E3373)
Boxcar Smoothing: 0 (USB2E3373)
Correct for Electrical Dark: No (USB2E3373)
Strobe/Lamp Enabled: No (USB2E3373)
Correct for Detector Non-linearity: No (USB2E3373)
Correct for Stray Light: No (USB2E3373)
Number of Pixels in Processed Spectrum: 2048
>>>>>Begin Processed Spectral Data<<<<<
178.53	0.000
178.91	-200.000
179.29	-825.000
179.67	-3300.000
180.04	-80.000
180.42	725.000
180.80	1750.000
181.18	0.000
181.56	-400.000
181.94	0.000
182.31	833.333
182.69	-2800.000
183.07	485.714
183.45	-4000.000
183.83	-1500.000
184.20	350.000
184.58	542.857
184.96	-230.769
185.34	-241.667
185.72	1750.000
186.09	-600.000
186.47	-4100.000
186.85	1066.667
187.23	700.000
187.61	1450.000
187.98	525.000
188.36	214.286
188.74	350.000
189.12	316.667
189.49	775.000
189.87	0.000
190.25	475.000
190.63	2600.000
191.00	-200.000
191.38	-3400.000
191.76	-775.000
192.14	637.500
192.51	-2300.000
192.89	1800.000
193.27	900.000
193.65	-1000.000
194.02	-580.000
194.40	485.714
194.78	-157.143
195.15	280.000
195.53	-4300.000
195.91	-660.000
196.29	3900.000
196.66	268.750
197.04	750.000
197.42	-1700.000
197.79	675.000
198.17	383.333
198.55	0.000
198.92	471.429
199.30	1066.667
199.68	2450.000
200.05	766.667
200.43	-683.333
200.81	266.667
201.18	3500.000
201.56	333.333
201.94	-800.000
202.31	-362.500
202.69	-320.000
203.07	2900.000
203.44	-433.333
203.82	333.333
204.19	640.000
204.57	-1050.000
204.95	-900.000
205.32	-520.000
205.70	533.333
206.08	825.000
206.45	-800.000
206.83	411.111
207.20	205.263
207.58	308.333
207.96	440.000
208.33	0.000
208.71	628.571
209.08	640.000
209.46	-2100.000
209.84	-725.000
210.21	760.000
210.59	-520.000
210.96	400.000
211.34	-875.000
211.71	318.182
212.09	975.000
212.46	1900.000
212.84	-483.333
213.22	388.889
213.59	-2200.000
213.97	390.000
214.34	1125.000
214.72	966.667
215.09	1100.000
215.47	-2400.000
215.84	-470.000
216.22	-500.000
216.59	0.000
216.97	0.000
217.34	1550.000
217.72	-1550.000
218.09	1400.000
218.47	575.000
218.84	725.000
219.22	1033.333
219.59	800.000
219.97	542.857
220.34	433.333
220.72	1500.000
221.09	4200.000
221.47	225.000
221.84	900.000
222.22	330.000
222.59	205.556
222.97	228.571
223.34	287.500
223.72	-1700.000
224.09	1333.333
224.46	284.615
224.84	-875.000
225.21	466.667
225.59	326.667
225.96	966.667
226.34	-780.000
226.71	-650.000
227.08	-640.000
227.46	0.000
227.83	-600.000
228.21	-1750.000
228.58	408.333
228.95	800.000
229.33	411.111
229.70	1075.000
230.08	323.077
230.45	3200.000
230.82	-1000.000
231.20	-833.333
231.57	-1000.000
231.95	560.000
232.32	316.667
232.69	666.667
233.07	208.333
233.44	-1650.000
233.81	253.333
234.19	129.630
234.56	200.000
234.93	223.529
235.31	165.000
235.68	300.000
236.05	175.000
236.43	148.148
236.80	285.714
237.17	151.724
237.55	143.750
237.92	102.500
238.29	121.212
238.67	125.000
239.04	117.073
239.41	75.000
239.79	100.000
240.16	95.833
240.53	73.770
240.91	71.014
241.28	69.492
241.65	72.727
242.02	64.789
242.40	67.143
242.77	58.242
243.14	55.696
243.51	60.606
243.89	58.879
244.26	54.206
244.63	51.485
245.00	44.954
245.38	49.153
245.75	56.818
246.12	51.852
246.49	42.553
246.87	41.803
247.24	44.667
247.61	46.875
247.98	39.456
248.36	41.818
248.73	40.816
249.10	34.524
249.47	40.500
249.84	38.308
250.22	34.054
250.59	33.500
250.96	39.241
251.33	33.488
251.70	37.500
252.08	35.714
252.45	35.857
252.82	36.502
253.19	32.016
253.56	31.923
253.94	32.246
254.31	34.884
254.68	33.449
255.05	33.793
255.42	29.562
255.79	37.134
256.16	32.542
256.54	34.091
256.91	30.719
257.28	32.107
257.65	29.154
258.02	32.743
258.39	34.670
258.76	31.594
259.14	30.000
259.51	30.904
259.88	32.219
260.25	29.121
260.62	28.493
260.99	27.548
261.36	31.755
261.73	31.383
262.10	34.031
262.47	30.500
262.85	29.067
263.22	30.077
263.59	27.877
263.96	30.326
264.33	27.160
264.70	30.713
265.07	29.024
265.44	27.294
265.81	29.245
266.18	28.604
266.55	27.896
266.92	26.398
267.29	29.825
267.66	26.906
268.03	29.372
268.40	28.330
268.77	29.295
269.14	26.030
269.51	27.840
269.88	28.776
270.25	25.702
270.62	27.682
270.99	28.195
271.36	30.285
271.73	26.415
272.10	26.263
272.47	26.984
272.84	25.349
273.21	27.273
273.58	27.733
273.95	27.310
274.32	27.237
274.69	28.346
275.06	26.594
275.43	25.862
275.80	28.491
276.17	28.309
276.54	27.850
276.91	27.612
277.28	26.095
277.65	23.616
278.02	28.309
278.39	24.640
278.76	27.414
279.13	24.199
279.50	26.364
279.87	23.464
280.23	25.967
280.60	25.547
280.97	24.138
281.34	23.102
281.71	26.435
282.08	25.983
282.45	24.831
282.82	25.753
283.19	26.232
283.56	24.298
283.92	25.407
284.29	24.459
284.66	25.042
285.03	25.539
285.40	27.107
285.77	23.302
286.14	23.065
286.51	23.313
286.87	23.101
287.24	21.772
287.61	25.836
287.98	24.328
288.35	23.852
288.72	22.914
289.08	24.024
289.45	25.610
289.82	21.094
290.19	22.548
290.56	24.017
290.93	22.878
291.29	24.033
291.66	22.316
292.03	23.422
292.40	24.526
292.77	22.284
293.13	23.823
293.50	22.402
293.87	21.680
294.24	22.098
294.60	21.803
294.97	23.217
295.34	24.303
295.71	24.442
296.08	23.067
296.44	23.507
296.81	21.588
297.18	21.293
297.55	23.522
297.91	22.414
298.28	23.068
298.65	22.209
299.02	22.678
299.38	21.823
299.75	21.951
300.12	22.592
300.48	23.536
300.85	23.480
301.22	22.326
301.59	21.580
301.95	23.337
302.32	23.632
302.69	23.982
303.05	23.345
303.42	21.861
303.79	23.294
304.15	22.332
304.52	23.362
304.89	23.348
305.25	22.803
305.62	23.774
305.99	22.609
306.35	22.947
306.72	23.725
307.09	22.567
307.45	23.865
307.82	23.765
308.19	24.227
308.55	23.300
308.92	24.436
309.29	25.049
309.65	25.074
310.02	25.456
310.38	25.623
310.75	24.012
311.12	24.330
311.48	25.869
311.85	26.240
312.22	26.552
312.58	25.753
312.95	26.699
313.31	25.562
313.68	25.704
314.05	27.015
314.41	27.281
314.78	27.462
315.14	28.341
315.51	28.004
315.87	27.372
316.24	28.758
316.61	28.469
316.97	27.064
317.34	29.021
317.70	28.270
318.07	29.270
318.43	30.228
318.80	29.247
319.16	31.031
319.53	29.823
319.89	29.749
320.26	32.216
320.62	31.319
320.99	30.791
321.35	31.354
321.72	32.068
322.08	32.595
322.45	32.698
322.81	33.669
323.18	33.126
323.54	34.582
323.91	34.995
324.27	35.190
324.64	35.467
325.00	35.603
325.37	36.594
325.73	36.003
326.10	37.862
326.46	36.994
326.83	37.200
327.19	40.241
327.56	38.578
327.92	39.918
328.29	40.753
328.65	38.870
329.01	39.093
329.38	41.371
329.74	39.880
330.11	41.529
330.47	40.153
330.84	40.380
331.20	41.963
331.56	42.228
331.93	42.087
332.29	41.156
332.66	43.027
333.02	40.722
333.38	43.194
333.75	42.202
334.11	42.953
334.48	42.393
334.84	42.314
335.20	43.713
335.57	41.562
335.93	42.473
336.29	41.294
336.66	44.168
337.02	41.916
337.38	42.906
337.75	42.905
338.11	42.616
338.47	43.438
338.84	43.353
339.20	43.723
339.56	43.902
339.93	44.649
340.29	43.109
340.65	44.761
341.02	43.524
341.38	44.171
341.74	44.020
342.11	43.155
342.47	43.314
342.83	43.724
343.20	44.220
343.56	43.368
343.92	43.683
344.28	43.700
344.65	44.336
345.01	43.730
345.37	44.151
345.73	43.651
346.10	43.347
346.46	44.737
346.82	43.133
347.19	43.663
347.55	43.326
347.91	43.958
348.27	42.990
348.63	43.750
349.00	42.803
349.36	44.903
349.72	45.183
350.08	45.031
350.45	43.336
350.81	44.572
351.17	42.681
351.53	43.880
351.89	44.444
352.26	44.822
352.62	43.665
352.98	43.788
353.34	44.915
353.70	44.495
354.07	45.615
354.43	45.161
354.79	43.888
355.15	45.253
355.51	44.789
355.87	44.804
356.24	44.573
356.60	45.282
356.96	45.413
357.32	44.235
357.68	45.448
358.04	46.049
358.40	46.402
358.77	46.206
359.13	45.721
359.49	44.552
359.85	44.602
360.21	44.799
360.57	46.350
360.93	45.815
361.29	45.382
361.66	46.010
362.02	44.744
362.38	46.465
362.74	45.931
363.10	46.143
363.46	44.820
363.82	46.353
364.18	47.582
364.54	46.996
364.90	46.252
365.26	47.259
365.62	47.030
365.98	46.318
366.35	45.862
366.71	46.842
367.07	47.372
367.43	46.340
367.79	46.144
368.15	47.151
368.51	48.105
368.87	47.622
369.23	47.817
369.59	48.213
369.95	48.531
370.31	47.707
370.67	46.704
371.03	48.459
371.39	49.654
371.75	48.360
372.11	48.131
372.47	48.014
372.83	49.150
373.19	49.829
373.55	48.454
373.91	48.895
374.27	49.603
374.63	47.864
374.99	48.922
375.35	49.664
375.71	50.066
376.07	48.541
376.42	49.616
376.78	49.775
377.14	48.820
377.50	49.625
377.86	50.032
378.22	48.751
378.58	50.303
378.94	50.996
379.30	50.334
379.66	49.669
380.02	50.205
380.38	49.122
380.74	50.980
381.09	49.299
381.45	49.827
381.81	50.591
382.17	50.733
382.53	49.430
382.89	50.384
383.25	50.385
383.61	50.202
383.97	50.930
384.32	49.910
384.68	51.872
385.04	51.231
385.40	51.246
385.76	51.551
386.12	52.257
386.48	51.733
386.83	51.956
387.19	52.297
387.55	52.356
387.91	52.136
388.27	52.052
388.62	51.585
388.98	51.720
389.34	50.982
389.70	52.476
390.06	52.012
390.42	51.388
390.77	52.396
391.13	51.841
391.49	53.479
391.85	53.169
392.20	52.265
392.56	51.912
392.92	51.769
393.28	51.345
393.64	51.950
393.99	52.045
394.35	52.913
394.71	50.844
395.07	51.886
395.42	52.986
395.78	52.560
396.14	53.253
396.50	52.828
396.85	52.988
397.21	52.948
397.57	52.839
397.92	52.744
398.28	53.447
398.64	53.519
399.00	52.004
399.35	52.120
399.71	53.035
400.07	52.283
400.42	53.433
400.78	53.138
401.14	54.140
401.49	53.283
401.85	53.244
402.21	53.486
402.57	54.578
402.92	54.242
403.28	52.864
403.63	54.032
403.99	52.533
404.35	53.341
404.70	54.814
405.06	53.397
405.42	53.321
405.77	53.528
406.13	52.928
406.49	52.416
406.84	53.807
407.20	54.224
407.55	53.600
407.91	53.669
408.27	54.639
408.62	54.583
408.98	54.406
409.34	53.653
409.69	53.703
410.05	53.906
410.40	53.887
410.76	54.379
411.11	54.088
411.47	53.333
411.83	53.368
412.18	53.804
412.54	53.093
412.89	53.864
413.25	54.675
413.60	55.257
413.96	54.698
414.31	54.014
414.67	56.300
415.03	55.811
415.38	54.890
415.74	55.464
416.09	55.028
416.45	55.915
416.80	56.511
417.16	53.724
417.51	54.904
417.87	54.005
418.22	54.678
418.58	54.268
418.93	56.098
419.29	55.638
419.64	54.088
420.00	56.146
420.35	55.401
420.71	55.834
421.06	54.562
421.42	55.268
421.77	55.913
422.12	56.119
422.48	54.237
422.83	55.078
423.19	55.400
423.54	55.019
423.90	56.795
424.25	56.412
424.61	55.543
424.96	56.070
425.31	56.048
425.67	56.678
426.02	57.543
426.38	55.776
426.73	57.374
427.09	56.762
427.44	56.894
427.79	56.947
428.15	58.633
428.50	57.314
428.85	56.673
429.21	56.726
429.56	57.727
429.92	55.793
430.27	56.604
430.62	55.458
430.98	56.986
431.33	55.847
431.68	55.012
432.04	56.234
432.39	57.025
432.74	58.080
433.10	56.755
433.45	58.185
433.80	58.577
434.16	57.383
434.51	57.843
434.86	57.485
435.22	58.455
435.57	58.506
435.92	57.314
436.28	58.813
436.63	58.293
436.98	58.390
437.34	58.733
437.69	57.391
438.04	58.011
438.39	57.735
438.75	57.071
439.10	57.420
439.45	57.377
439.81	58.820
440.16	57.953
440.51	57.883
440.86	59.202
441.22	57.305
441.57	58.478
441.92	57.749
442.27	57.629
442.63	58.333
442.98	58.567
443.33	58.007
443.68	57.495
444.03	57.540
444.39	57.957
444.74	57.919
445.09	58.189
445.44	58.661
445.79	57.943
446.15	58.474
446.50	57.595
446.85	57.520
447.20	57.861
447.55	59.217
447.91	58.711
448.26	58.094
448.61	59.204
448.96	59.695
449.31	59.681
449.66	58.970
450.02	57.753
450.37	60.744
450.72	59.945
451.07	58.697
451.42	59.218
451.77	61.054
452.12	58.423
452.47	59.903
452.83	59.437
453.18	60.360
453.53	60.154
453.88	59.486
454.23	58.861
454.58	59.499
454.93	58.676
455.28	58.568
455.63	59.161
455.98	59.222
456.34	59.574
456.69	59.024
457.04	60.084
457.39	59.657
457.74	59.065
458.09	58.338
458.44	57.612
458.79	59.682
459.14	59.411
459.49	59.173
459.84	59.783
460.19	58.136
460.54	58.519
460.89	58.475
461.24	57.961
461.59	59.410
461.94	58.511
462.29	59.840
462.64	58.920
462.99	60.013
463.34	60.467
463.69	59.468
464.04	60.679
464.39	57.813
464.74	58.617
465.09	57.574
465.44	58.324
465.79	58.302
466.14	57.446
466.49	58.058
466.84	58.863
467.19	59.110
467.54	58.138
467.89	57.981
468.24	59.641
468.59	58.393
468.94	58.394
469.29	59.071
469.64	58.457
469.99	59.769
470.34	58.571
470.68	58.000
471.03	59.573
471.38	59.404
471.73	58.720
472.08	60.209
472.43	59.466
472.78	58.963
473.13	58.385
473.48	59.963
473.83	58.598
474.17	58.055
474.52	57.820
474.87	57.078
475.22	58.595
475.57	58.080
475.92	57.077
476.27	56.638
476.61	57.641
476.96	57.001
477.31	58.098
477.66	58.078
478.01	58.742
478.36	57.775
478.70	57.370
479.05	58.839
479.40	58.681
479.75	58.143
480.10	57.357
480.45	57.376
480.79	57.742
481.14	56.443
481.49	57.136
481.84	56.069
482.19	56.681
482.53	56.390
482.88	57.706
483.23	56.879
483.58	57.136
483.92	57.267
484.27	56.207
484.62	57.725
484.97	56.369
485.31	55.354
485.66	55.008
486.01	53.664
486.36	52.882
486.70	51.932
487.05	53.279
487.40	53.680
487.75	54.409
488.09	54.290
488.44	54.971
488.79	55.259
489.13	56.924
489.48	56.892
489.83	56.547
490.17	55.698
490.52	57.537
490.87	57.629
491.22	57.137
491.56	56.302
491.91	57.482
492.26	56.036
492.60	57.904
492.95	57.952
493.30	57.416
493.64	57.817
493.99	55.725
494.34	56.970
494.68	56.751
495.03	57.207
495.37	56.956
495.72	57.389
496.07	56.604
496.41	55.647
496.76	55.804
497.11	56.470
497.45	55.502
497.80	57.322
498.14	56.357
498.49	56.685
498.84	57.009
499.18	56.901
499.53	55.627
499.87	57.188
500.22	56.333
500.56	56.360
500.91	57.514
501.26	57.005
501.60	56.831
501.95	55.690
502.29	56.667
502.64	55.845
502.98	55.980
503.33	55.724
503.67	56.026
504.02	55.755
504.36	55.339
504.71	56.859
505.06	55.842
505.40	56.715
505.75	56.034
506.09	56.883
506.44	56.109
506.78	57.183
507.13	57.877
507.47	55.944
507.82	57.421
508.16	57.374
508.51	57.343
508.85	55.983
509.19	57.171
509.54	55.908
509.88	57.136
510.23	56.912
510.57	55.309
510.92	56.094
511.26	56.275
511.61	56.081
511.95	55.948
512.30	55.750
512.64	57.165
512.98	56.023
513.33	56.404
513.67	55.308
514.02	55.792
514.36	56.750
514.70	57.547
515.05	56.633
515.39	57.401
515.74	57.244
516.08	57.190
516.42	59.290
516.77	57.333
517.11	57.333
517.46	57.543
517.80	56.253
518.14	58.817
518.49	56.946
518.83	56.593
519.17	58.014
519.52	56.963
519.86	57.275
520.20	57.151
520.55	57.038
520.89	57.529
521.23	58.236
521.58	57.659
521.92	57.201
522.26	57.701
522.61	59.299
522.95	58.919
523.29	57.719
523.64	56.474
523.98	59.859
524.32	56.228
524.66	57.275
525.01	58.107
525.35	57.926
525.69	57.134
526.04	57.882
526.38	58.446
526.72	56.921
527.06	56.416
527.41	58.283
527.75	57.030
528.09	57.616
528.43	57.657
528.78	57.901
529.12	58.158
529.46	58.095
529.80	56.192
530.15	57.278
530.49	56.318
530.83	57.038
531.17	56.704
531.51	56.530
531.86	56.099
532.20	57.478
532.54	57.125
532.88	58.651
533.22	57.526
533.57	57.596
533.91	54.662
534.25	54.241
534.59	55.731
534.93	54.664
535.27	53.785
535.62	55.251
535.96	56.028
536.30	57.160
536.64	56.708
536.98	56.828
537.32	57.812
537.66	57.270
538.01	56.471
538.35	56.581
538.69	55.947
539.03	55.037
539.37	55.461
539.71	55.926
540.05	54.585
540.39	57.610
540.73	56.582
541.07	56.148
541.42	56.281
541.76	57.028
542.10	55.672
542.44	55.736
542.78	55.129
543.12	54.847
543.46	55.075
543.80	55.388
544.14	56.347
544.48	55.657
544.82	55.902
545.16	55.556
545.50	56.054
545.84	55.366
546.18	57.412
546.52	56.590
546.86	56.673
547.20	54.716
547.54	55.478
547.88	54.562
548.22	56.163
548.56	54.390
548.90	52.966
549.24	56.286
549.58	54.832
549.92	56.778
550.26	55.781
550.60	57.219
550.94	56.716
551.28	56.828
551.62	58.414
551.96	55.811
552.30	54.977
552.64	56.634
552.98	55.928
553.32	55.634
553.66	55.114
554.00	55.019
554.34	57.057
554.68	56.519
555.02	55.601
555.36	55.452
555.69	55.628
556.03	54.650
556.37	55.577
556.71	55.150
557.05	54.587
557.39	55.867
557.73	55.526
558.07	55.801
558.41	56.271
558.75	56.361
559.08	55.754
559.42	56.979
559.76	58.019
560.10	56.710
560.44	54.545
560.78	54.604
561.12	54.927
561.45	55.507
561.79	54.557
562.13	54.075
562.47	55.613
562.81	55.433
563.15	55.527
563.48	53.168
563.82	56.893
564.16	55.286
564.50	54.370
564.84	54.954
565.17	53.357
565.51	55.727
565.85	55.953
566.19	54.345
566.52	53.791
566.86	55.050
567.20	54.213
567.54	53.548
567.88	53.625
568.21	52.371
568.55	52.383
568.89	51.323
569.23	51.381
569.56	51.558
569.90	49.515
570.24	49.779
570.57	49.676
570.91	48.643
571.25	48.191
571.59	48.026
571.92	48.197
572.26	47.224
572.60	47.765
572.93	47.872
573.27	48.794
573.61	47.807
573.95	47.958
574.28	48.013
574.62	47.322
574.96	46.496
575.29	46.321
575.63	45.607
575.97	45.716
576.30	46.090
576.64	46.509
576.98	46.738
577.31	47.212
577.65	46.564
577.98	45.969
578.32	45.335
578.66	45.937
578.99	46.486
579.33	46.076
579.67	46.550
580.00	45.861
580.34	46.513
580.67	46.823
581.01	46.763
581.35	45.975
581.68	45.606
582.02	45.332
582.35	45.391
582.69	45.203
583.02	45.906
583.36	46.151
583.70	46.830
584.03	47.676
584.37	47.501
584.70	46.629
585.04	46.205
585.37	46.258
585.71	47.011
586.04	45.512
586.38	46.301
586.72	46.126
587.05	46.526
587.39	46.144
587.72	46.426
588.06	47.331
588.39	46.904
588.73	46.091
589.06	48.118
589.40	47.825
589.73	47.624
590.07	49.176
590.40	48.397
590.73	48.917
591.07	49.336
591.40	48.862
591.74	49.067
592.07	48.960
592.41	49.241
592.74	47.675
593.08	47.559
593.41	46.768
593.75	46.501
594.08	47.182
594.41	47.410
594.75	47.397
595.08	47.977
595.42	47.762
595.75	47.351
596.09	48.245
596.42	48.252
596.75	50.120
597.09	48.948
597.42	48.694
597.75	48.803
598.09	48.051
598.42	48.266
598.76	47.610
599.09	48.584
599.42	47.197
599.76	46.981
600.09	46.814
600.42	46.443
600.76	46.941
601.09	47.152
601.42	46.779
601.76	47.834
602.09	48.675
602.42	46.691
602.76	48.463
603.09	48.303
603.42	47.450
603.76	47.867
604.09	46.833
604.42	48.362
604.76	48.163
605.09	48.245
605.42	48.192
605.75	48.480
606.09	47.705
606.42	48.290
606.75	48.387
607.09	47.533
607.42	47.489
607.75	48.010
608.08	48.619
608.42	48.280
608.75	47.497
609.08	48.526
609.41	48.364
609.75	49.038
610.08	48.651
610.41	48.968
610.74	47.706
611.07	49.068
611.41	49.722
611.74	49.665
612.07	50.000
612.40	49.025
612.73	50.175
613.07	49.569
613.40	50.226
613.73	48.777
614.06	48.350
614.39	50.354
614.72	49.473
615.06	48.764
615.39	49.208
615.72	48.645
616.05	49.724
616.38	48.554
616.71	48.996
617.05	51.455
617.38	50.506
617.71	51.069
618.04	50.477
618.37	49.861
618.70	49.942
619.03	51.160
619.36	52.073
619.69	50.330
620.03	53.425
620.36	52.152
620.69	51.469
621.02	52.242
621.35	52.364
621.68	54.794
622.01	53.948
622.34	54.042
622.67	52.669
623.00	52.349
623.33	51.215
623.66	52.495
623.99	51.918
624.32	53.252
624.65	52.140
624.99	52.874
625.32	52.104
625.65	52.138
625.98	52.092
626.31	53.561
626.64	52.012
626.97	53.328
627.30	54.115
627.63	53.689
627.96	54.304
628.29	56.436
628.62	54.405
628.95	56.294
629.28	56.442
629.61	55.448
629.94	56.439
630.26	55.719
630.59	54.610
630.92	54.709
631.25	55.576
631.58	58.631
631.91	57.088
632.24	57.143
632.57	56.974
632.90	58.799
633.23	58.972
633.56	57.956
633.89	57.878
634.22	59.849
634.55	56.774
634.88	58.598
635.20	60.874
635.53	61.672
635.86	58.837
636.19	58.923
636.52	57.189
636.85	56.526
637.18	58.830
637.51	58.883
637.83	57.895
638.16	59.437
638.49	60.120
638.82	59.507
639.15	57.109
639.48	60.071
639.81	59.829
640.13	60.245
640.46	59.418
640.79	59.428
641.12	57.874
641.45	62.354
641.77	62.087
642.10	58.768
642.43	62.873
642.76	61.506
643.09	61.960
643.41	60.729
643.74	62.158
644.07	62.684
644.40	62.722
644.73	62.763
645.05	63.150
645.38	62.940
645.71	59.939
646.04	63.817
646.36	62.441
646.69	63.200
647.02	65.600
647.35	59.843
647.67	61.912
648.00	65.147
648.33	63.308
648.66	61.818
648.98	59.130
649.31	58.570
649.64	56.846
649.96	61.024
650.29	58.000
650.62	61.119
650.94	62.048
651.27	66.348
651.60	60.876
651.92	62.826
652.25	63.150
652.58	60.709
652.90	61.826
653.23	61.152
653.56	62.611
653.88	57.122
654.21	57.185
654.54	60.029
654.86	59.882
655.19	58.311
655.52	49.659
655.84	39.095
656.17	44.513
656.49	63.493
656.82	72.622
657.15	58.429
657.47	43.867
657.80	32.923
658.13	26.389
658.45	36.148
658.78	43.686
659.10	44.776
659.43	46.229
659.75	49.124
660.08	52.130
660.41	54.537
660.73	61.230
661.06	61.261
661.38	62.862
661.71	62.230
662.03	64.639
662.36	64.000
662.68	62.756
663.01	62.162
663.33	62.264
663.66	66.864
663.98	66.270
664.31	63.619
664.63	63.985
664.96	63.977
665.28	62.524
665.61	63.774
665.93	63.774
666.26	62.430
666.58	63.853
666.91	62.355
667.23	64.458
667.56	68.789
667.88	66.598
668.21	65.984
668.53	67.540
668.86	66.934
669.18	65.377
669.50	64.256
669.83	64.066
670.15	64.657
670.48	62.305
670.80	66.135
671.13	67.131
671.45	65.932
671.77	64.564
672.10	62.118
672.42	60.197
672.75	62.816
673.07	60.095
673.39	59.904
673.72	60.727
674.04	64.875
674.37	64.791
674.69	62.268
675.01	62.313
675.34	62.791
675.66	66.211
675.98	65.286
676.31	65.800
676.63	62.823
676.95	63.294
677.28	62.880
677.60	65.191
677.92	62.698
678.25	60.853
678.57	62.011
678.89	63.110
679.22	62.316
679.54	63.523
679.86	59.162
680.18	60.984
680.51	56.882
680.83	57.095
681.15	61.352
681.48	62.500
681.80	60.420
682.12	59.516
682.44	56.396
682.77	60.498
683.09	63.107
683.41	65.510
683.73	62.795
684.06	62.103
684.38	63.372
684.70	60.252
685.02	57.986
685.34	60.739
685.67	58.521
685.99	57.635
686.31	56.086
686.63	59.024
686.96	57.843
687.28	56.208
687.60	59.898
687.92	57.956
688.24	57.241
688.56	59.253
688.89	59.082
689.21	60.501
689.53	65.020
689.85	60.163
690.17	59.029
690.49	63.306
690.82	63.866
691.14	63.434
691.46	64.887
691.78	59.649
692.10	62.786
692.42	58.076
692.74	60.465
693.06	60.078
693.39	61.462
693.71	58.153
694.03	61.538
694.35	62.048
694.67	60.896
694.99	64.080
695.31	62.162
695.63	61.538
695.95	64.027
696.27	64.381
696.59	66.587
696.91	64.810
697.23	64.027
697.56	58.921
697.88	57.884
698.20	59.811
698.52	58.171
698.84	58.932
699.16	62.473
699.48	59.322
699.80	65.359
700.12	64.203
700.44	64.486
700.76	62.291
701.08	65.274
701.40	66.234
701.72	68.717
702.04	69.377
702.36	68.011
702.68	65.957
703.00	59.900
703.32	62.283
703.64	61.209
703.96	63.542
704.28	68.783
704.60	67.042
704.91	65.826
705.23	65.909
705.55	69.733
705.87	71.111
706.19	70.533
706.51	70.219
706.83	69.912
707.15	64.171
707.47	66.102
707.79	60.690
708.11	62.585
708.43	60.674
708.74	60.407
709.06	60.698
709.38	61.290
709.70	65.395
710.02	66.304
710.34	64.641
710.66	65.833
710.98	63.388
711.29	64.903
711.61	61.281
711.93	73.860
712.25	68.976
712.57	72.990
712.89	69.091
713.20	70.927
713.52	65.732
713.84	70.695
714.16	62.029
714.48	61.671
714.80	62.331
715.11	63.564
715.43	62.570
715.75	63.099
716.07	67.052
716.39	64.286
716.70	65.421
717.02	72.727
717.34	68.705
717.66	72.569
717.97	76.894
718.29	72.535
718.61	65.541
718.93	69.550
719.24	68.121
719.56	66.897
719.88	61.146
720.20	64.194
720.51	60.131
720.83	70.569
721.15	67.007
721.46	68.151
721.78	66.899
722.10	64.583
722.42	70.234
722.73	70.036
723.05	71.228
723.37	69.611
723.68	70.703
724.00	72.348
724.32	70.342
724.63	70.385
724.95	72.941
725.27	65.428
725.58	66.176
725.90	63.028
726.22	67.808
726.53	68.227
726.85	64.821
727.16	68.792
727.48	62.791
727.80	66.547
728.11	68.571
728.43	65.217
728.74	69.930
729.06	65.233
729.38	67.719
729.69	70.333
730.01	67.434
730.32	65.436
730.64	69.767
730.96	59.159
731.27	59.633
731.59	60.057
731.90	60.446
732.22	62.286
732.53	61.254
732.85	60.526
733.16	59.639
733.48	62.382
733.80	59.420
734.11	65.951
734.43	63.158
734.74	57.105
735.06	59.259
735.37	58.763
735.69	60.870
736.00	67.584
736.32	58.182
736.63	60.252
736.95	58.696
737.26	65.244
737.58	60.736
737.89	60.542
738.21	66.556
738.52	61.873
738.83	67.033
739.15	66.202
739.46	61.724
739.78	61.905
740.09	62.099
740.41	62.883
740.72	64.762
741.04	66.084
741.35	66.406
741.66	66.008
741.98	66.524
742.29	73.148
742.61	66.814
742.92	66.102
743.23	65.600
743.55	63.774
743.86	66.275
744.18	69.492
744.49	64.050
744.80	71.429
745.12	75.893
745.43	74.299
745.74	69.333
746.06	64.474
746.37	79.535
746.68	80.088
747.00	78.475
747.31	71.008
747.62	68.852
747.94	70.386
748.25	63.424
748.56	70.339
748.88	70.982
749.19	74.884
749.50	70.320
749.82	69.136
750.13	70.356
750.44	61.000
750.75	63.423
751.07	61.513
751.38	60.066
751.69	63.300
752.01	65.035
752.32	67.442
752.63	64.765
752.94	65.385
753.26	69.531
753.57	69.650
753.88	63.670
754.19	64.260
754.51	60.465
754.82	60.403
755.13	57.095
755.44	69.259
755.75	64.948
756.07	63.014
756.38	61.111
756.69	61.563
757.00	60.534
757.31	57.465
757.63	58.953
757.94	54.521
758.25	53.140
758.56	53.089
758.87	55.388
759.18	60.465
759.50	58.055
759.81	59.050
760.12	60.112
760.43	53.782
760.74	55.949
761.05	58.355
761.36	54.167
761.67	60.377
761.99	57.465
762.30	61.093
762.61	61.806
762.92	61.742
763.23	61.132
763.54	63.846
763.85	64.981
764.16	61.458
764.47	61.149
764.78	57.655
765.10	57.622
765.41	57.670
765.72	51.657
766.03	56.798
766.34	63.066
766.65	62.357
766.96	68.016
767.27	69.626
767.58	70.792
767.89	74.033
768.20	81.707
768.51	65.816
768.82	62.281
769.13	61.176
769.44	62.030
769.75	62.921
770.06	69.328
770.37	60.965
770.68	58.667
770.99	66.949
771.30	64.854
771.61	62.308
771.92	64.885
772.23	63.306
772.54	64.000
772.85	68.317
773.16	71.739
773.47	72.778
773.78	71.287
774.09	86.364
774.39	75.758
774.70	64.706
775.01	75.000
775.32	68.323
775.63	76.712
775.94	74.691
776.25	78.621
776.56	81.679
776.87	81.679
777.18	77.273
777.48	88.189
777.79	82.308
778.10	75.000
778.41	79.851
778.72	80.451
779.03	70.513
779.34	73.649
779.65	78.261
779.95	76.398
780.26	67.857
780.57	79.592
780.88	76.596
781.19	92.500
781.50	67.456
781.80	72.678
782.11	66.138
782.42	67.241
782.73	68.927
783.04	65.161
783.34	79.845
783.65	72.789
783.96	69.677
784.27	67.550
784.57	63.158
784.88	65.942
785.19	80.833
785.50	76.724
785.81	86.822
786.11	81.481
786.42	66.929
786.73	90.991
787.04	82.075
787.34	65.041
787.65	74.242
787.96	76.515
788.26	71.654
788.57	78.832
788.88	75.352
789.19	79.389
789.49	71.622
789.80	78.906
790.11	84.298
790.41	75.926
790.72	89.815
791.03	84.615
791.33	80.808
791.64	97.895
791.95	86.316
792.25	75.000
792.56	81.000
792.87	98.780
793.17	82.955
793.48	91.765
793.79	101.149
794.09	76.136
794.40	82.759
794.70	69.841
795.01	72.308
795.32	76.336
795.62	60.684
795.93	84.034
796.23	83.740
796.54	92.857
796.85	89.773
797.15	106.494
797.46	97.561
797.76	88.750
798.07	109.333
798.37	97.500
798.68	106.250
798.99	103.659
799.29	105.333
799.60	74.419
799.90	100.000
800.21	93.939
800.51	100.000
800.82	117.241
801.12	115.385
801.43	102.667
801.73	117.241
802.04	94.805
802.34	100.000
802.65	115.686
802.95	121.739
803.26	129.032
803.56	125.000
803.87	100.000
804.17	111.111
804.48	101.887
804.78	91.667
805.09	112.121
805.39	103.175
805.70	128.070
806.00	87.143
806.30	106.250
806.61	88.235
806.91	81.111
807.22	83.696
807.52	101.316
807.83	94.737
808.13	100.000
808.43	114.516
808.74	101.370
809.04	119.643
809.35	107.353
809.65	104.545
809.95	131.373
810.26	146.296
810.56	109.375
810.86	124.490
811.17	128.070
811.47	121.739
811.77	101.724
812.08	103.448
812.38	116.667
812.69	142.857
812.99	97.778
813.29	165.714
813.59	180.645
813.90	96.552
814.20	116.393
814.50	132.000
814.81	112.281
815.11	109.259
815.41	98.214
815.72	126.786
816.02	126.000
816.32	136.585
816.62	101.724
816.93	145.455
817.23	131.707
817.53	121.429
817.84	142.222
818.14	150.000
818.44	127.083
818.74	132.075
819.04	92.308
819.35	160.606
819.65	117.308
819.95	133.333
820.25	144.681
820.56	181.081
820.86	150.000
821.16	106.383
821.46	152.632
821.76	118.182
822.07	114.286
822.37	136.842
822.67	151.163
822.97	110.526
823.27	126.087
823.57	143.750
823.88	112.821
824.18	136.364
824.48	208.696
824.78	122.222
825.08	221.739
825.38	175.862
825.69	155.882
825.99	104.255
826.29	108.333
826.59	154.286
826.89	173.333
827.19	140.000
827.49	151.613
827.79	215.385
828.09	109.524
828.39	138.889
828.70	127.027
829.00	196.429
829.30	262.500
829.60	127.778
829.90	174.194
830.20	139.394
830.50	145.946
830.80	175.000
831.10	230.769
831.40	161.905
831.70	200.000
832.00	156.667
832.30	221.739
832.60	233.333
832.90	178.788
833.20	270.000
833.50	147.368
833.80	141.176
834.10	126.316
834.40	205.263
834.70	136.667
835.00	188.000
835.30	135.135
835.60	146.875
835.90	132.432
836.20	184.615
836.50	209.091
836.80	131.707
837.10	173.913
837.40	361.538
837.70	205.263
838.00	176.667
838.30	175.000
838.60	208.000
838.90	370.000
839.19	225.000
839.49	160.000
839.79	127.586
840.09	188.462
840.39	306.667
840.69	278.947
840.99	138.095
841.29	178.261
841.59	230.000
841.88	204.000
842.18	388.889
842.48	146.429
842.78	170.370
843.08	269.231
843.38	250.000
843.68	264.286
843.97	585.714
844.27	173.913
844.57	1800.000
844.87	292.857
845.17	222.222
845.47	161.905
845.76	200.000
846.06	571.429
846.36	264.706
846.66	292.308
846.96	262.500
847.25	292.308
847.55	231.579
847.85	194.444
848.15	580.000
848.44	290.909
848.74	185.714
849.04	225.000
849.34	211.765
849.63	237.500
849.93	312.500
850.23	966.667
850.53	425.000
850.82	372.727
851.12	176.471
851.42	183.333
851.71	243.750
852.01	0.000
852.31	205.882
852.61	460.000
852.90	191.667
853.20	522.222
853.50	-4000.000
853.79	156.000
854.09	162.500
854.39	148.276
854.68	172.414
854.98	242.857
855.28	154.839
855.57	257.143
855.87	183.333
856.17	151.852
856.46	215.789
856.76	164.516
857.05	270.588
857.35	318.182
857.65	292.308
857.94	230.000
858.24	433.333
858.53	242.857
858.83	742.857
859.13	265.217
859.42	366.667
859.72	525.000
860.01	316.667
860.31	675.000
860.60	470.000
860.90	425.000
861.20	323.077
861.49	485.714
861.79	-3100.000
862.08	685.714
862.38	311.111
862.67	228.571
862.97	420.000
863.26	113.333
863.56	1025.000
863.85	246.154
864.15	311.765
864.44	200.000
864.74	375.000
865.03	327.273
865.33	387.500
865.62	306.667
865.92	616.667
866.21	975.000
866.51	720.000
866.80	222.222
867.10	666.667
867.39	4100.000
867.69	640.000
867.98	1000.000
868.27	223.810
868.57	280.000
868.86	1000.000
869.16	157.143
869.45	4300.000
869.75	-500.000
870.04	875.000
870.33	640.000
870.63	487.500
870.92	252.941
871.22	850.000
871.51	500.000
871.80	325.000
872.10	407.692
>>>>>End Processed Spectral Data<<<<<
