SpectraSuite Data File
++++++++++++++++++++++++++++++++++++
Date: Tue May 12 17:11:02 PDT 2015
User: schluterlab
Dark Spectrum Present: Yes
Reference Spectrum Present: Yes
Number of Sampled Component Spectra: 1
Spectrometers: USB2E3373
Integration Time (usec): 3000 (USB2E3373)
Spectra Averaged: 3 (USB2E3373)
Boxcar Smoothing: 0 (USB2E3373)
Correct for Electrical Dark: No (USB2E3373)
Strobe/Lamp Enabled: No (USB2E3373)
Correct for Detector Non-linearity: No (USB2E3373)
Correct for Stray Light: No (USB2E3373)
Number of Pixels in Processed Spectrum: 2048
>>>>>Begin Processed Spectral Data<<<<<
178.53	0.000
178.91	-225.000
179.29	-850.000
179.67	-4400.000
180.04	-140.000
180.42	650.000
180.80	1550.000
181.18	0.000
181.56	-262.500
181.94	0.000
182.31	900.000
182.69	-3500.000
183.07	514.286
183.45	-2800.000
183.83	-1800.000
184.20	330.000
184.58	500.000
184.96	-338.462
185.34	-308.333
185.72	1450.000
186.09	-675.000
186.47	-3200.000
186.85	1000.000
187.23	460.000
187.61	1450.000
187.98	437.500
188.36	250.000
188.74	275.000
189.12	316.667
189.49	675.000
189.87	0.000
190.25	462.500
190.63	2500.000
191.00	-216.667
191.38	-4100.000
191.76	-575.000
192.14	537.500
192.51	-2200.000
192.89	1550.000
193.27	733.333
193.65	-1000.000
194.02	-820.000
194.40	528.571
194.78	-264.286
195.15	280.000
195.53	-2400.000
195.91	-500.000
196.29	4400.000
196.66	206.250
197.04	725.000
197.42	-1400.000
197.79	500.000
198.17	283.333
198.55	0.000
198.92	471.429
199.30	1300.000
199.68	1950.000
200.05	650.000
200.43	-366.667
200.81	188.889
201.18	3000.000
201.56	283.333
201.94	-750.000
202.31	-250.000
202.69	-560.000
203.07	3700.000
203.44	-333.333
203.82	283.333
204.19	500.000
204.57	-1350.000
204.95	-650.000
205.32	-560.000
205.70	483.333
206.08	575.000
206.45	-800.000
206.83	244.444
207.20	231.579
207.58	250.000
207.96	700.000
208.33	0.000
208.71	571.429
209.08	620.000
209.46	-3000.000
209.84	-950.000
210.21	860.000
210.59	-460.000
210.96	266.667
211.34	-975.000
211.71	281.818
212.09	825.000
212.46	1650.000
212.84	-416.667
213.22	422.222
213.59	-2400.000
213.97	320.000
214.34	1025.000
214.72	1066.667
215.09	1000.000
215.47	-2900.000
215.84	-240.000
216.22	-387.500
216.59	0.000
216.97	0.000
217.34	1150.000
217.72	-1850.000
218.09	1100.000
218.47	450.000
218.84	800.000
219.22	1000.000
219.59	666.667
219.97	442.857
220.34	311.111
220.72	1400.000
221.09	2800.000
221.47	233.333
221.84	1200.000
222.22	250.000
222.59	238.889
222.97	192.857
223.34	218.750
223.72	-1650.000
224.09	900.000
224.46	384.615
224.84	-825.000
225.21	366.667
225.59	246.667
225.96	1333.333
226.34	-860.000
226.71	-550.000
227.08	-640.000
227.46	0.000
227.83	-416.667
228.21	-1100.000
228.58	383.333
228.95	925.000
229.33	411.111
229.70	975.000
230.08	269.231
230.45	2400.000
230.82	-850.000
231.20	-700.000
231.57	-900.000
231.95	500.000
232.32	266.667
232.69	450.000
233.07	200.000
233.44	-1500.000
233.81	226.667
234.19	148.148
234.56	287.500
234.93	129.412
235.31	225.000
235.68	225.000
236.05	135.714
236.43	122.222
236.80	235.714
237.17	127.586
237.55	131.250
237.92	75.000
238.29	112.121
238.67	106.250
239.04	73.171
239.41	58.333
239.79	97.500
240.16	77.083
240.53	52.459
240.91	55.072
241.28	61.017
241.65	54.545
242.02	66.197
242.40	50.000
242.77	45.055
243.14	34.177
243.51	50.505
243.89	43.925
244.26	40.187
244.63	47.525
245.00	46.789
245.38	28.814
245.75	38.636
246.12	43.704
246.49	31.206
246.87	36.066
247.24	31.333
247.61	36.875
247.98	34.014
248.36	27.273
248.73	33.163
249.10	21.429
249.47	31.500
249.84	24.876
250.22	30.270
250.59	26.000
250.96	26.582
251.33	25.581
251.70	25.000
252.08	27.311
252.45	24.701
252.82	21.673
253.19	20.553
253.56	23.077
253.94	24.275
254.31	24.419
254.68	23.693
255.05	23.793
255.42	23.723
255.79	20.521
256.16	26.780
256.54	25.325
256.91	18.954
257.28	18.729
257.65	16.301
258.02	22.419
258.39	22.350
258.76	23.478
259.14	19.143
259.51	23.615
259.88	19.149
260.25	18.681
260.62	23.014
260.99	18.182
261.36	20.613
261.73	21.277
262.10	21.466
262.47	22.250
262.85	18.667
263.22	19.023
263.59	20.716
263.96	18.797
264.33	19.506
264.70	19.902
265.07	20.244
265.44	21.330
265.81	21.698
266.18	21.053
266.55	17.967
266.92	18.121
267.29	18.640
267.66	20.179
268.03	18.610
268.40	19.027
268.77	19.163
269.14	14.967
269.51	16.481
269.88	20.000
270.25	16.631
270.62	17.597
270.99	18.458
271.36	17.073
271.73	16.143
272.10	18.788
272.47	18.056
272.84	16.567
273.21	16.322
273.58	19.433
273.95	13.963
274.32	16.926
274.69	18.110
275.06	18.761
275.43	18.391
275.80	18.491
276.17	18.015
276.54	16.262
276.91	20.149
277.28	18.248
277.65	16.974
278.02	17.647
278.39	16.906
278.76	18.966
279.13	16.904
279.50	19.273
279.87	15.642
280.23	17.127
280.60	16.788
280.97	16.552
281.34	16.832
281.71	18.957
282.08	18.462
282.45	14.527
282.82	15.217
283.19	16.216
283.56	15.702
283.92	15.961
284.29	16.805
284.66	15.462
285.03	17.745
285.40	16.694
285.77	16.821
286.14	15.789
286.51	15.491
286.87	15.506
287.24	13.964
287.61	14.590
287.98	16.269
288.35	15.407
288.72	15.478
289.08	15.616
289.45	14.939
289.82	15.469
290.19	15.520
290.56	14.847
290.93	14.964
291.29	14.365
291.66	14.548
292.03	16.129
292.40	14.499
292.77	14.345
293.13	15.407
293.50	12.551
293.87	13.686
294.24	13.986
294.60	14.670
294.97	15.245
295.34	15.405
295.71	14.323
296.08	13.867
296.44	13.596
296.81	15.136
297.18	14.449
297.55	12.438
297.91	13.054
298.28	13.406
298.65	13.497
299.02	13.631
299.38	14.269
299.75	12.927
300.12	13.876
300.48	14.520
300.85	12.872
301.22	13.837
301.59	12.500
301.95	12.602
302.32	13.504
302.69	14.367
303.05	13.580
303.42	11.659
303.79	12.459
304.15	11.661
304.52	11.522
304.89	14.499
305.25	13.904
305.62	13.113
305.99	11.739
306.35	11.263
306.72	12.487
307.09	13.561
307.45	13.833
307.82	12.860
308.19	14.536
308.55	12.600
308.92	13.543
309.29	12.525
309.65	12.983
310.02	13.185
310.38	11.864
310.75	11.572
311.12	12.739
311.48	13.514
311.85	13.073
312.22	13.945
312.58	14.091
312.95	12.621
313.31	13.390
313.68	11.914
314.05	13.645
314.41	12.477
314.78	12.216
315.14	14.028
315.51	12.204
315.87	13.595
316.24	12.232
316.61	11.817
316.97	12.110
317.34	12.129
317.70	13.521
318.07	14.146
318.43	12.742
318.80	12.785
319.16	12.500
319.53	12.920
319.89	10.932
320.26	12.570
320.62	12.454
320.99	12.488
321.35	12.152
321.72	13.662
322.08	12.927
322.45	11.807
322.81	12.809
323.18	12.966
323.54	13.589
323.91	13.599
324.27	11.583
324.64	12.543
325.00	13.103
325.37	13.153
325.73	11.467
326.10	13.173
326.46	12.964
326.83	12.800
327.19	12.691
327.56	12.540
327.92	11.803
328.29	12.766
328.65	13.442
329.01	12.746
329.38	12.267
329.74	12.724
330.11	12.858
330.47	13.384
330.84	11.562
331.20	12.860
331.56	13.731
331.93	13.088
332.29	12.245
332.66	12.500
333.02	12.113
333.38	13.700
333.75	12.844
334.11	13.255
334.48	12.821
334.84	12.669
335.20	13.003
335.57	11.923
335.93	12.279
336.29	12.852
336.66	14.494
337.02	11.377
337.38	11.866
337.75	12.838
338.11	12.827
338.47	11.770
338.84	12.193
339.20	12.208
339.56	12.195
339.93	11.371
340.29	12.521
340.65	12.238
341.02	13.033
341.38	12.890
341.74	10.797
342.11	11.686
342.47	11.321
342.83	12.469
343.20	12.449
343.56	10.643
343.92	11.974
344.28	11.722
344.65	11.084
345.01	12.619
345.37	11.378
345.73	11.508
346.10	11.394
346.46	11.882
346.82	11.420
347.19	12.751
347.55	10.383
347.91	11.027
348.27	11.619
348.63	11.709
349.00	12.567
349.36	11.751
349.72	11.621
350.08	12.034
350.45	10.967
350.81	12.156
351.17	10.709
351.53	10.624
351.89	11.655
352.26	11.413
352.62	10.633
352.98	11.350
353.34	11.787
353.70	10.933
354.07	12.077
354.43	11.674
354.79	11.010
355.15	10.796
355.51	11.329
355.87	12.575
356.24	11.932
356.60	11.263
356.96	10.993
357.32	11.379
357.68	12.335
358.04	11.170
358.40	10.345
358.77	12.472
359.13	10.210
359.49	10.600
359.85	12.360
360.21	10.327
360.57	11.168
360.93	11.111
361.29	11.400
361.66	12.379
362.02	10.369
362.38	9.885
362.74	11.748
363.10	11.220
363.46	11.050
363.82	12.132
364.18	10.953
364.54	11.016
364.90	10.910
365.26	11.242
365.62	10.773
365.98	10.805
366.35	9.724
366.71	11.312
367.07	9.898
367.43	10.611
367.79	10.638
368.15	9.769
368.51	11.096
368.87	9.103
369.23	11.019
369.59	11.059
369.95	10.909
370.31	10.198
370.67	10.965
371.03	10.854
371.39	10.526
371.75	9.630
372.11	10.673
372.47	11.575
372.83	11.285
373.19	10.966
373.55	11.065
373.91	9.945
374.27	10.053
374.63	10.169
374.99	11.186
375.35	11.089
375.71	10.752
376.07	10.013
376.42	10.038
376.78	10.469
377.14	10.288
377.50	10.924
377.86	9.865
378.22	10.542
378.58	10.775
378.94	10.682
379.30	10.067
379.66	10.476
380.02	10.616
380.38	9.836
380.74	10.438
381.09	10.806
381.45	9.884
381.81	9.397
382.17	9.768
382.53	9.718
382.89	10.881
383.25	9.769
383.61	10.029
383.97	10.318
384.32	9.946
384.68	11.230
385.04	9.965
385.40	10.024
385.76	10.357
386.12	10.080
386.48	9.970
386.83	10.452
387.19	9.835
387.55	10.188
387.91	9.931
388.27	10.351
388.62	10.505
388.98	9.738
389.34	9.756
389.70	9.316
390.06	10.305
390.42	9.809
390.77	9.521
391.13	9.596
391.49	10.224
391.85	10.277
392.20	9.774
392.56	10.753
392.92	9.545
393.28	9.081
393.64	9.174
393.99	9.899
394.35	9.653
394.71	9.349
395.07	9.976
395.42	9.368
395.78	10.857
396.14	10.301
396.50	9.868
396.85	9.817
397.21	9.507
397.57	9.145
397.92	9.243
398.28	9.322
398.64	9.482
399.00	9.086
399.35	8.857
399.71	10.099
400.07	9.304
400.42	9.134
400.78	9.677
401.14	9.395
401.49	9.274
401.85	10.081
402.21	8.905
402.57	9.037
402.92	9.152
403.28	8.950
403.63	9.300
403.99	9.831
404.35	10.023
404.70	8.860
405.06	9.489
405.42	9.515
405.77	8.931
406.13	9.870
406.49	9.039
406.84	9.419
407.20	10.274
407.55	8.923
407.91	9.445
408.27	10.370
408.62	9.344
408.98	9.876
409.34	9.117
409.69	9.459
410.05	8.945
410.40	8.481
410.76	8.930
411.11	9.242
411.47	9.198
411.83	8.846
412.18	8.394
412.54	8.949
412.89	8.142
413.25	10.091
413.60	9.346
413.96	9.037
414.31	9.386
414.67	8.814
415.03	8.748
415.38	9.842
415.74	8.970
416.09	9.994
416.45	10.019
416.80	10.006
417.16	8.657
417.51	9.299
417.87	9.574
418.22	9.113
418.58	9.236
418.93	8.983
419.29	9.242
419.64	8.964
420.00	10.442
420.35	9.175
420.71	8.926
421.06	8.770
421.42	9.269
421.77	10.050
422.12	8.490
422.48	9.142
422.83	9.375
423.19	9.449
423.54	9.435
423.90	9.117
424.25	9.081
424.61	9.402
424.96	8.470
425.31	8.976
425.67	9.147
426.02	9.254
426.38	8.693
426.73	9.543
427.09	9.905
427.44	8.723
427.79	8.919
428.15	10.548
428.50	9.200
428.85	8.995
429.21	9.562
429.56	9.422
429.92	9.150
430.27	9.192
430.62	8.468
430.98	9.232
431.33	8.266
431.68	8.444
432.04	9.364
432.39	9.221
432.74	9.895
433.10	9.468
433.45	9.075
433.80	10.094
434.16	9.511
434.51	9.907
434.86	9.145
435.22	8.536
435.57	9.899
435.92	10.017
436.28	9.505
436.63	10.049
436.98	10.248
437.34	9.189
437.69	8.287
438.04	10.000
438.39	9.632
438.75	9.633
439.10	9.822
439.45	9.271
439.81	10.295
440.16	10.237
440.51	9.178
440.86	10.940
441.22	9.957
441.57	9.711
441.92	9.427
442.27	9.897
442.63	10.163
442.98	9.752
443.33	9.320
443.68	10.412
444.03	10.132
444.39	9.746
444.74	9.627
445.09	9.321
445.44	10.361
445.79	10.429
446.15	9.895
446.50	9.599
446.85	9.761
447.20	9.453
447.55	9.407
447.91	10.762
448.26	10.224
448.61	10.006
448.96	10.621
449.31	10.121
449.66	10.797
450.02	10.265
450.37	10.883
450.72	10.909
451.07	10.297
451.42	10.433
451.77	10.653
452.12	10.267
452.47	10.936
452.83	10.761
453.18	10.571
453.53	10.598
453.88	11.371
454.23	10.866
454.58	10.723
454.93	10.484
455.28	11.016
455.63	10.165
455.98	10.998
456.34	11.489
456.69	10.000
457.04	11.695
457.39	9.829
457.74	11.205
458.09	9.994
458.44	10.843
458.79	11.194
459.14	10.256
459.49	11.268
459.84	11.250
460.19	10.565
460.54	11.624
460.89	10.928
461.24	10.653
461.59	11.054
461.94	10.757
462.29	11.556
462.64	11.307
462.99	11.324
463.34	12.508
463.69	11.615
464.04	11.284
464.39	11.276
464.74	10.082
465.09	10.853
465.44	11.099
465.79	10.615
466.14	11.553
466.49	11.394
466.84	11.594
467.19	11.365
467.54	11.471
467.89	11.561
468.24	11.175
468.59	11.905
468.94	11.051
469.29	11.973
469.64	12.026
469.99	11.440
470.34	11.006
470.68	11.862
471.03	11.608
471.38	11.126
471.73	12.606
472.08	12.720
472.43	11.235
472.78	12.164
473.13	11.202
473.48	11.125
473.83	11.602
474.17	11.489
474.52	12.145
474.87	11.256
475.22	10.851
475.57	11.175
475.92	11.191
476.27	11.045
476.61	10.885
476.96	11.494
477.31	11.311
477.66	11.004
478.01	11.604
478.36	11.689
478.70	11.067
479.05	11.245
479.40	11.409
479.75	11.321
480.10	11.568
480.45	11.111
480.79	11.659
481.14	10.651
481.49	10.567
481.84	11.566
482.19	10.917
482.53	10.804
482.88	11.066
483.23	10.871
483.58	11.176
483.92	11.472
484.27	11.087
484.62	11.885
484.97	11.258
485.31	10.080
485.66	9.673
486.01	9.412
486.36	9.554
486.70	9.666
487.05	9.746
487.40	10.138
487.75	10.062
488.09	10.256
488.44	10.548
488.79	10.864
489.13	10.825
489.48	11.147
489.83	10.926
490.17	10.941
490.52	11.499
490.87	11.466
491.22	11.569
491.56	11.989
491.91	10.753
492.26	11.581
492.60	11.253
492.95	11.554
493.30	11.010
493.64	11.725
493.99	11.762
494.34	11.475
494.68	11.377
495.03	12.259
495.37	11.796
495.72	11.981
496.07	10.602
496.41	11.468
496.76	11.313
497.11	11.782
497.45	11.486
497.80	11.260
498.14	12.483
498.49	11.792
498.84	11.916
499.18	11.060
499.53	11.621
499.87	11.680
500.22	11.285
500.56	11.142
500.91	12.384
501.26	11.897
501.60	11.885
501.95	11.335
502.29	11.467
502.64	11.954
502.98	11.605
503.33	11.581
503.67	11.567
504.02	11.285
504.36	11.674
504.71	11.826
505.06	11.825
505.40	11.605
505.75	11.974
506.09	12.179
506.44	11.936
506.78	12.524
507.13	11.827
507.47	12.130
507.82	12.895
508.16	12.249
508.51	11.981
508.85	11.966
509.19	11.845
509.54	12.305
509.88	12.631
510.23	12.304
510.57	11.486
510.92	12.138
511.26	12.400
511.61	11.965
511.95	12.593
512.30	12.500
512.64	12.046
512.98	12.250
513.33	12.398
513.67	12.947
514.02	11.844
514.36	12.201
514.70	12.373
515.05	11.721
515.39	12.445
515.74	12.958
516.08	12.636
516.42	13.552
516.77	12.213
517.11	12.427
517.46	12.769
517.80	12.343
518.14	12.958
518.49	12.073
518.83	12.308
519.17	13.089
519.52	13.326
519.86	12.807
520.20	13.151
520.55	12.549
520.89	12.931
521.23	12.617
521.58	13.081
521.92	12.012
522.26	12.678
522.61	12.537
522.95	13.333
523.29	13.099
523.64	12.312
523.98	13.732
524.32	12.976
524.66	12.928
525.01	12.426
525.35	13.023
525.69	13.305
526.04	13.801
526.38	12.713
526.72	13.067
527.06	13.247
527.41	13.664
527.75	12.842
528.09	13.064
528.43	13.301
528.78	13.596
529.12	13.245
529.46	13.442
529.80	12.442
530.15	12.846
530.49	11.853
530.83	13.163
531.17	14.084
531.51	12.753
531.86	13.225
532.20	13.412
532.54	13.120
532.88	12.867
533.22	13.711
533.57	12.935
533.91	12.179
534.25	12.983
534.59	12.865
534.93	12.173
535.27	12.464
535.62	12.894
535.96	12.884
536.30	13.650
536.64	12.919
536.98	12.712
537.32	13.438
537.66	12.309
538.01	13.065
538.35	13.225
538.69	12.075
539.03	13.060
539.37	12.561
539.71	13.086
540.05	12.062
540.39	13.208
540.73	12.468
541.07	12.484
541.42	12.500
541.76	12.639
542.10	13.255
542.44	12.781
542.78	12.838
543.12	12.393
543.46	13.033
543.80	12.469
544.14	13.313
544.48	12.835
544.82	13.089
545.16	12.508
545.50	12.415
545.84	13.068
546.18	13.394
546.52	12.918
546.86	13.217
547.20	13.501
547.54	13.046
547.88	13.139
548.22	13.175
548.56	13.023
548.90	12.989
549.24	12.887
549.58	14.111
549.92	13.752
550.26	13.185
550.60	12.375
550.94	13.840
551.28	14.690
551.62	14.690
551.96	12.095
552.30	12.261
552.64	13.074
552.98	12.693
553.32	12.740
553.66	13.355
554.00	12.934
554.34	13.782
554.68	14.046
555.02	13.714
555.36	13.364
555.69	13.613
556.03	13.822
556.37	12.874
556.71	13.429
557.05	12.385
557.39	13.000
557.73	13.544
558.07	13.816
558.41	13.434
558.75	13.953
559.08	14.010
559.42	14.316
559.76	13.828
560.10	13.627
560.44	12.276
560.78	12.980
561.12	12.905
561.45	13.392
561.79	12.422
562.13	12.318
562.47	12.135
562.81	14.314
563.15	13.639
563.48	12.919
563.82	13.288
564.16	13.682
564.50	12.176
564.84	13.191
565.17	13.012
565.51	13.054
565.85	13.634
566.19	13.095
566.52	12.936
566.86	13.310
567.20	12.584
567.54	13.210
567.88	12.520
568.21	12.082
568.55	12.257
568.89	12.774
569.23	11.432
569.56	11.861
569.90	11.211
570.24	11.278
570.57	11.713
570.91	11.201
571.25	10.854
571.59	10.575
571.92	10.980
572.26	10.135
572.60	10.914
572.93	11.041
573.27	10.655
573.61	10.531
573.95	10.433
574.28	10.834
574.62	10.317
574.96	10.036
575.29	9.871
575.63	10.530
575.97	10.151
576.30	10.681
576.64	10.265
576.98	10.448
577.31	10.571
577.65	10.496
577.98	10.063
578.32	10.006
578.66	10.323
578.99	10.048
579.33	10.374
579.67	10.316
580.00	9.975
580.34	10.125
580.67	10.358
581.01	10.709
581.35	10.396
581.68	9.928
582.02	10.003
582.35	10.089
582.69	10.360
583.02	10.384
583.36	10.356
583.70	10.445
584.03	10.863
584.37	10.550
584.70	10.550
585.04	10.588
585.37	10.167
585.71	10.607
586.04	10.242
586.38	10.630
586.72	10.656
587.05	11.400
587.39	10.746
587.72	10.637
588.06	10.355
588.39	10.722
588.73	10.706
589.06	11.263
589.40	11.205
589.73	11.373
590.07	11.428
590.40	11.638
590.73	12.229
591.07	12.182
591.40	11.417
591.74	12.256
592.07	10.940
592.41	11.751
592.74	10.948
593.08	10.970
593.41	10.652
593.75	11.010
594.08	11.210
594.41	11.502
594.75	11.164
595.08	11.248
595.42	11.587
595.75	11.254
596.09	11.679
596.42	11.398
596.75	12.300
597.09	11.927
597.42	11.265
597.75	11.440
598.09	11.736
598.42	11.873
598.76	11.681
599.09	11.401
599.42	11.073
599.76	10.957
600.09	11.458
600.42	11.395
600.76	11.013
601.09	11.460
601.42	11.334
601.76	11.386
602.09	11.626
602.42	11.756
602.76	11.461
603.09	11.501
603.42	11.486
603.76	11.244
604.09	10.894
604.42	11.186
604.76	11.616
605.09	11.102
605.42	11.662
605.75	11.528
606.09	11.859
606.42	11.462
606.75	11.776
607.09	11.133
607.42	11.370
607.75	11.903
608.08	11.089
608.42	11.242
608.75	10.911
609.08	11.351
609.41	11.727
609.75	12.775
610.08	12.185
610.41	11.287
610.74	12.035
611.07	11.778
611.41	12.095
611.74	11.616
612.07	11.609
612.40	11.940
612.73	11.982
613.07	11.911
613.40	11.880
613.73	11.782
614.06	11.700
614.39	12.576
614.72	12.205
615.06	11.177
615.39	11.931
615.72	11.617
616.05	12.757
616.38	11.821
616.71	12.371
617.05	11.587
617.38	12.079
617.71	11.924
618.04	12.619
618.37	11.562
618.70	12.413
619.03	13.370
619.36	13.317
619.69	12.797
620.03	14.090
620.36	12.524
620.69	13.218
621.02	13.315
621.35	13.324
621.68	13.348
622.01	14.022
622.34	13.256
622.67	13.202
623.00	13.274
623.33	13.023
623.66	12.708
623.99	12.740
624.32	12.669
624.65	13.035
624.99	12.373
625.32	13.427
625.65	12.759
625.98	12.971
626.31	13.947
626.64	12.908
626.97	12.930
627.30	13.665
627.63	13.893
627.96	12.285
628.29	13.779
628.62	12.318
628.95	13.830
629.28	15.250
629.61	13.708
629.94	13.915
630.26	13.865
630.59	14.362
630.92	14.439
631.25	14.415
631.58	14.754
631.91	14.272
632.24	14.674
632.57	13.458
632.90	14.700
633.23	13.431
633.56	15.595
633.89	12.862
634.22	16.469
634.55	14.946
634.88	15.882
635.20	14.462
635.53	15.447
635.86	14.094
636.19	14.254
636.52	14.054
636.85	12.513
637.18	14.735
637.51	14.078
637.83	13.959
638.16	15.709
638.49	14.731
638.82	14.554
639.15	14.219
639.48	16.706
639.81	14.652
640.13	15.951
640.46	15.044
640.79	14.954
641.12	14.829
641.45	15.783
641.77	15.984
642.10	14.592
642.43	16.643
642.76	15.057
643.09	14.265
643.41	18.093
643.74	16.403
644.07	15.782
644.40	16.124
644.73	18.468
645.05	18.722
645.38	17.458
645.71	16.237
646.04	18.015
646.36	15.649
646.69	15.520
647.02	14.880
647.35	15.748
647.67	16.532
648.00	16.775
648.33	14.286
648.66	15.909
648.98	14.203
649.31	15.115
649.64	14.938
649.96	14.936
650.29	13.857
650.62	14.433
650.94	17.771
651.27	16.906
651.60	16.119
651.92	17.665
652.25	17.165
652.58	16.028
652.90	15.269
653.23	14.771
653.56	15.579
653.88	16.153
654.21	16.862
654.54	15.813
654.86	14.897
655.19	15.172
655.52	12.266
655.84	8.598
656.17	9.488
656.49	13.416
656.82	15.616
657.15	12.896
657.47	9.841
657.80	7.189
658.13	5.811
658.45	7.912
658.78	9.580
659.10	9.567
659.43	9.877
659.75	11.174
660.08	11.278
660.41	13.249
660.73	15.307
661.06	16.066
661.38	18.399
661.71	19.604
662.03	16.350
662.36	18.095
662.68	17.318
663.01	18.739
663.33	16.792
663.66	17.160
663.98	16.865
664.31	19.590
664.63	17.816
664.96	19.325
665.28	13.936
665.61	15.472
665.93	16.415
666.26	18.692
666.58	18.532
666.91	17.954
667.23	18.474
667.56	20.123
667.88	16.598
668.21	16.598
668.53	19.153
668.86	19.238
669.18	17.312
669.50	18.182
669.83	19.302
670.15	16.216
670.48	15.625
670.80	18.127
671.13	17.530
671.45	19.439
671.77	17.625
672.10	16.158
672.42	14.967
672.75	17.247
673.07	15.739
673.39	13.738
673.72	15.398
674.04	17.384
674.37	17.786
674.69	16.171
675.01	16.045
675.34	16.279
675.66	18.945
675.98	18.540
676.31	15.200
676.63	15.905
676.95	18.056
677.28	17.241
677.60	18.511
677.92	15.278
678.25	17.829
678.57	17.132
678.89	17.360
679.22	17.096
679.54	17.616
679.86	16.056
680.18	15.466
680.51	12.106
680.83	14.696
681.15	18.024
681.48	16.667
681.80	14.711
682.12	16.609
682.44	14.595
682.77	16.548
683.09	19.223
683.41	17.347
683.73	18.307
684.06	17.262
684.38	18.217
684.70	16.187
685.02	15.625
685.34	15.493
685.67	16.559
685.99	16.420
686.31	14.484
686.63	17.886
686.96	17.647
687.28	14.430
687.60	15.188
687.92	17.588
688.24	16.034
688.56	16.904
688.89	15.870
689.21	15.414
689.53	18.972
689.85	16.463
690.17	16.311
690.49	18.145
690.82	15.966
691.14	16.970
691.46	17.454
691.78	17.934
692.10	16.603
692.42	14.701
692.74	15.504
693.06	17.442
693.39	15.020
693.71	17.878
694.03	17.949
694.35	19.880
694.67	16.293
694.99	17.960
695.31	19.144
695.63	18.100
695.95	18.326
696.27	20.133
696.59	17.422
696.91	15.190
697.23	15.158
697.56	17.012
697.88	14.371
698.20	18.491
698.52	17.121
698.84	18.070
699.16	19.190
699.48	17.797
699.80	20.044
700.12	19.400
700.44	18.224
700.76	16.945
701.08	19.321
701.40	15.844
701.72	24.332
702.04	18.157
702.36	18.817
702.68	18.883
703.00	16.291
703.32	19.355
703.64	18.892
703.96	19.010
704.28	19.048
704.60	20.845
704.91	21.569
705.23	19.886
705.55	21.365
705.87	16.825
706.19	23.824
706.51	21.630
706.83	21.829
707.15	21.925
707.47	17.676
707.79	18.161
708.11	17.687
708.43	17.753
708.74	14.027
709.06	17.907
709.38	19.107
709.70	18.529
710.02	18.207
710.34	20.166
710.66	21.389
710.98	18.306
711.29	20.334
711.61	21.727
711.93	17.325
712.25	19.277
712.57	18.650
712.89	21.818
713.20	21.086
713.52	20.249
713.84	20.242
714.16	20.580
714.48	14.409
714.80	20.596
715.11	16.223
715.43	17.877
715.75	20.563
716.07	17.052
716.39	21.429
716.70	20.561
717.02	22.896
717.34	21.223
717.66	25.000
717.97	21.212
718.29	23.239
718.61	24.662
718.93	22.837
719.24	22.483
719.56	15.172
719.88	21.656
720.20	19.355
720.51	19.935
720.83	21.070
721.15	21.769
721.46	20.548
721.78	21.603
722.10	24.306
722.42	21.405
722.73	19.495
723.05	21.404
723.37	23.322
723.68	22.266
724.00	21.591
724.32	26.236
724.63	23.846
724.95	18.431
725.27	18.587
725.58	25.735
725.90	20.423
726.22	16.438
726.53	16.054
726.85	22.801
727.16	22.148
727.48	22.259
727.80	26.259
728.11	22.500
728.43	19.565
728.74	22.378
729.06	17.204
729.38	22.807
729.69	27.333
730.01	19.737
730.32	20.470
730.64	20.930
730.96	20.120
731.27	17.737
731.59	18.678
731.90	18.106
732.22	22.000
732.53	20.513
732.85	20.175
733.16	19.578
733.48	20.690
733.80	19.420
734.11	18.098
734.43	15.497
734.74	19.839
735.06	19.841
735.37	18.041
735.69	17.101
736.00	20.183
736.32	15.152
736.63	14.511
736.95	19.876
737.26	21.341
737.58	19.018
737.89	20.181
738.21	20.530
738.52	21.405
738.83	23.810
739.15	25.087
739.46	17.586
739.78	19.388
740.09	24.781
740.41	18.712
740.72	21.270
741.04	23.077
741.35	24.609
741.66	24.111
741.98	26.609
742.29	23.148
742.61	19.912
742.92	23.305
743.23	22.000
743.55	16.981
743.86	23.922
744.18	22.034
744.49	24.793
744.80	23.963
745.12	21.875
745.43	26.168
745.74	27.111
746.06	20.614
746.37	22.326
746.68	25.664
747.00	25.112
747.31	25.210
747.62	18.443
747.94	22.747
748.25	26.070
748.56	21.186
748.88	22.321
749.19	22.326
749.50	21.461
749.82	24.280
750.13	23.320
750.44	20.000
750.75	22.148
751.07	19.408
751.38	18.152
751.69	21.212
752.01	20.979
752.32	19.269
752.63	20.470
752.94	22.727
753.26	23.047
753.57	21.790
753.88	20.599
754.19	20.217
754.51	20.266
754.82	16.107
755.13	17.905
755.44	18.889
755.75	22.680
756.07	18.493
756.38	17.974
756.69	18.750
757.00	21.068
757.31	25.070
757.63	16.253
757.94	16.755
758.25	21.256
758.56	18.764
758.87	17.043
759.18	17.151
759.50	18.237
759.81	19.585
760.12	17.697
760.43	18.487
760.74	16.456
761.05	19.363
761.36	13.021
761.67	14.286
761.99	19.437
762.30	16.720
762.61	19.444
762.92	20.076
763.23	21.887
763.54	19.231
763.85	19.066
764.16	22.569
764.47	20.946
764.78	19.218
765.10	21.341
765.41	16.193
765.72	17.403
766.03	19.940
766.34	16.725
766.65	22.814
766.96	27.126
767.27	25.234
767.58	26.733
767.89	29.834
768.20	29.268
768.51	22.449
768.82	24.561
769.13	23.529
769.44	21.053
769.75	20.974
770.06	25.630
770.37	20.175
770.68	20.000
770.99	25.847
771.30	25.523
771.61	23.846
771.92	18.702
772.23	21.774
772.54	24.000
772.85	26.238
773.16	26.087
773.47	22.222
773.78	23.267
774.09	32.955
774.39	32.727
774.70	28.235
775.01	25.658
775.32	32.919
775.63	36.301
775.94	33.333
776.25	31.724
776.56	34.351
776.87	32.061
777.18	35.606
777.48	43.307
777.79	36.154
778.10	32.576
778.41	35.075
778.72	31.579
779.03	26.282
779.34	35.135
779.65	28.571
779.95	25.466
780.26	24.405
780.57	38.095
780.88	34.043
781.19	38.333
781.50	32.544
781.80	33.880
782.11	24.868
782.42	27.011
782.73	28.249
783.04	32.903
783.34	27.907
783.65	24.490
783.96	36.129
784.27	24.503
784.57	20.395
784.88	25.362
785.19	43.333
785.50	41.379
785.81	34.109
786.11	34.074
786.42	29.921
786.73	37.838
787.04	29.245
787.34	34.959
787.65	41.667
787.96	43.182
788.26	31.496
788.57	37.226
788.88	28.873
789.19	25.191
789.49	42.568
789.80	31.250
790.11	33.058
790.41	33.333
790.72	37.037
791.03	41.346
791.33	35.354
791.64	53.684
791.95	40.000
792.25	43.750
792.56	43.000
792.87	45.122
793.17	40.909
793.48	45.882
793.79	47.126
794.09	44.318
794.40	43.966
794.70	34.127
795.01	26.154
795.32	32.824
795.62	35.043
795.93	31.933
796.23	34.959
796.54	46.939
796.85	61.364
797.15	57.143
797.46	58.537
797.76	41.250
798.07	52.000
798.37	51.250
798.68	53.750
798.99	43.902
799.29	50.667
799.60	31.395
799.90	57.895
800.21	78.788
800.51	60.563
800.82	53.448
801.12	64.615
801.43	73.333
801.73	67.241
802.04	54.545
802.34	56.164
802.65	66.667
802.95	60.870
803.26	53.226
803.56	75.000
803.87	61.194
804.17	55.556
804.48	52.830
804.78	52.778
805.09	74.242
805.39	65.079
805.70	57.895
806.00	51.429
806.30	57.813
806.61	48.235
806.91	42.222
807.22	39.130
807.52	51.316
807.83	53.947
808.13	49.275
808.43	62.903
808.74	47.945
809.04	64.286
809.35	67.647
809.65	63.636
809.95	88.235
810.26	75.926
810.56	65.625
810.86	65.306
811.17	64.912
811.47	71.739
811.77	56.897
812.08	63.793
812.38	73.810
812.69	85.714
812.99	71.111
813.29	65.714
813.59	125.806
813.90	77.586
814.20	67.213
814.50	52.000
814.81	61.404
815.11	87.037
815.41	67.857
815.72	87.500
816.02	90.000
816.32	82.927
816.62	74.138
816.93	81.818
817.23	107.317
817.53	89.286
817.84	57.778
818.14	64.286
818.44	79.167
818.74	90.566
819.04	53.846
819.35	75.758
819.65	75.000
819.95	90.741
820.25	95.745
820.56	110.811
820.86	105.263
821.16	82.979
821.46	97.368
821.76	69.091
822.07	42.857
822.37	102.632
822.67	102.326
822.97	60.526
823.27	84.783
823.57	109.375
823.88	87.179
824.18	84.848
824.48	82.609
824.78	122.222
825.08	126.087
825.38	110.345
825.69	67.647
825.99	63.830
826.29	47.222
826.59	74.286
826.89	136.667
827.19	82.857
827.49	93.548
827.79	119.231
828.09	78.571
828.39	97.222
828.70	67.568
829.00	139.286
829.30	156.250
829.60	102.778
829.90	119.355
830.20	84.848
830.50	110.811
830.80	154.167
831.10	134.615
831.40	161.905
831.70	183.333
832.00	116.667
832.30	182.609
832.60	170.833
832.90	142.424
833.20	160.000
833.50	102.632
833.80	76.471
834.10	89.474
834.40	147.368
834.70	86.667
835.00	144.000
835.30	75.676
835.60	125.000
835.90	94.595
836.20	126.923
836.50	68.182
836.80	95.122
837.10	152.174
837.40	284.615
837.70	115.789
838.00	116.667
838.30	158.333
838.60	148.000
838.90	190.000
839.19	225.000
839.49	133.333
839.79	100.000
840.09	153.846
840.39	193.333
840.69	178.947
840.99	133.333
841.29	147.826
841.59	165.000
841.88	144.000
842.18	344.444
842.48	142.857
842.78	148.148
843.08	215.385
843.38	168.182
843.68	235.714
843.97	328.571
844.27	143.478
844.57	1800.000
844.87	235.714
845.17	177.778
845.47	114.286
845.76	150.000
846.06	514.286
846.36	188.235
846.66	238.462
846.96	187.500
847.25	138.462
847.55	178.947
847.85	194.444
848.15	560.000
848.44	327.273
848.74	161.905
849.04	145.833
849.34	170.588
849.63	206.250
849.93	237.500
850.23	933.333
850.53	487.500
850.82	318.182
851.12	223.529
851.42	187.500
851.71	268.750
852.01	0.000
852.31	176.471
852.61	410.000
852.90	133.333
853.20	200.000
853.50	-1500.000
853.79	152.000
854.09	118.750
854.39	131.034
854.68	151.724
854.98	180.952
855.28	87.097
855.57	185.714
855.87	138.889
856.17	114.815
856.46	178.947
856.76	96.774
857.05	229.412
857.35	318.182
857.65	184.615
857.94	150.000
858.24	388.889
858.53	335.714
858.83	614.286
859.13	178.261
859.42	322.222
859.72	387.500
860.01	308.333
860.31	650.000
860.60	340.000
860.90	412.500
861.20	238.462
861.49	342.857
861.79	-3400.000
862.08	514.286
862.38	266.667
862.67	121.429
862.97	300.000
863.26	126.667
863.56	875.000
863.85	253.846
864.15	205.882
864.44	161.111
864.74	266.667
865.03	290.909
865.33	375.000
865.62	180.000
865.92	550.000
866.21	875.000
866.51	820.000
866.80	250.000
867.10	1166.667
867.39	3300.000
867.69	760.000
867.98	825.000
868.27	161.905
868.57	233.333
868.86	675.000
869.16	142.857
869.45	2700.000
869.75	-433.333
870.04	650.000
870.33	700.000
870.63	512.500
870.92	223.529
871.22	850.000
871.51	371.429
871.80	308.333
872.10	300.000
>>>>>End Processed Spectral Data<<<<<
