SpectraSuite Data File
++++++++++++++++++++++++++++++++++++
Date: Tue May 12 15:20:36 PDT 2015
User: schluterlab
Dark Spectrum Present: Yes
Reference Spectrum Present: Yes
Number of Sampled Component Spectra: 1
Spectrometers: USB2E3373
Integration Time (usec): 3000 (USB2E3373)
Spectra Averaged: 3 (USB2E3373)
Boxcar Smoothing: 0 (USB2E3373)
Correct for Electrical Dark: No (USB2E3373)
Strobe/Lamp Enabled: No (USB2E3373)
Correct for Detector Non-linearity: No (USB2E3373)
Correct for Stray Light: No (USB2E3373)
Number of Pixels in Processed Spectrum: 2048
>>>>>Begin Processed Spectral Data<<<<<
178.53	0.000
178.91	-275.000
179.29	-800.000
179.67	-3300.000
180.04	-106.667
180.42	725.000
180.80	1100.000
181.18	0.000
181.56	-512.500
181.94	0.000
182.31	966.667
182.69	-3000.000
183.07	600.000
183.45	-2900.000
183.83	-1500.000
184.20	300.000
184.58	400.000
184.96	-238.462
185.34	-250.000
185.72	1550.000
186.09	-625.000
186.47	-3100.000
186.85	900.000
187.23	420.000
187.61	1950.000
187.98	375.000
188.36	235.714
188.74	341.667
189.12	383.333
189.49	900.000
189.87	0.000
190.25	375.000
190.63	2300.000
191.00	-200.000
191.38	-4500.000
191.76	-725.000
192.14	562.500
192.51	-3200.000
192.89	2150.000
193.27	1266.667
193.65	-1200.000
194.02	-700.000
194.40	528.571
194.78	-142.857
195.15	213.333
195.53	-2500.000
195.91	-600.000
196.29	4400.000
196.66	243.750
197.04	700.000
197.42	-1800.000
197.79	650.000
198.17	366.667
198.55	0.000
198.92	571.429
199.30	1266.667
199.68	1400.000
200.05	500.000
200.43	-333.333
200.81	172.222
201.18	3600.000
201.56	258.333
201.94	-450.000
202.31	-212.500
202.69	-500.000
203.07	2700.000
203.44	-400.000
203.82	275.000
204.19	520.000
204.57	-900.000
204.95	-800.000
205.32	-620.000
205.70	500.000
206.08	825.000
206.45	-433.333
206.83	366.667
207.20	173.684
207.58	325.000
207.96	760.000
208.33	0.000
208.71	414.286
209.08	480.000
209.46	-3400.000
209.84	-750.000
210.21	880.000
210.59	-740.000
210.96	300.000
211.34	-900.000
211.71	381.818
212.09	875.000
212.46	2000.000
212.84	-433.333
213.22	422.222
213.59	-2900.000
213.97	260.000
214.34	800.000
214.72	900.000
215.09	1033.333
215.47	-2800.000
215.84	-300.000
216.22	-362.500
216.59	0.000
216.97	0.000
217.34	1050.000
217.72	-1400.000
218.09	1033.333
218.47	387.500
218.84	825.000
219.22	1000.000
219.59	500.000
219.97	471.429
220.34	288.889
220.72	1500.000
221.09	3700.000
221.47	300.000
221.84	1100.000
222.22	250.000
222.59	222.222
222.97	142.857
223.34	256.250
223.72	-1500.000
224.09	1233.333
224.46	315.385
224.84	-525.000
225.21	344.444
225.59	253.333
225.96	1033.333
226.34	-560.000
226.71	-650.000
227.08	-420.000
227.46	0.000
227.83	-400.000
228.21	-1650.000
228.58	350.000
228.95	900.000
229.33	400.000
229.70	850.000
230.08	384.615
230.45	4300.000
230.82	-950.000
231.20	-900.000
231.57	-1066.667
231.95	580.000
232.32	333.333
232.69	566.667
233.07	258.333
233.44	-1400.000
233.81	220.000
234.19	162.963
234.56	237.500
234.93	158.824
235.31	190.000
235.68	250.000
236.05	157.143
236.43	118.519
236.80	264.286
237.17	155.172
237.55	134.375
237.92	120.000
238.29	136.364
238.67	137.500
239.04	121.951
239.41	81.250
239.79	100.000
240.16	127.083
240.53	80.328
240.91	81.159
241.28	94.915
241.65	90.909
242.02	95.775
242.40	88.571
242.77	72.527
243.14	64.557
243.51	84.848
243.89	61.682
244.26	73.832
244.63	60.396
245.00	66.055
245.38	63.559
245.75	67.424
246.12	65.926
246.49	59.574
246.87	66.393
247.24	66.667
247.61	61.250
247.98	63.946
248.36	54.545
248.73	62.245
249.10	53.571
249.47	58.500
249.84	55.224
250.22	52.973
250.59	52.500
250.96	51.899
251.33	54.419
251.70	51.786
252.08	53.782
252.45	49.801
252.82	48.289
253.19	45.455
253.56	50.769
253.94	46.377
254.31	49.225
254.68	48.432
255.05	51.724
255.42	51.095
255.79	49.837
256.16	48.814
256.54	47.078
256.91	49.346
257.28	45.819
257.65	44.514
258.02	45.723
258.39	47.278
258.76	46.087
259.14	42.000
259.51	44.315
259.88	50.760
260.25	43.956
260.62	44.932
260.99	42.424
261.36	47.075
261.73	47.606
262.10	47.906
262.47	45.500
262.85	45.600
263.22	46.272
263.59	45.013
263.96	45.614
264.33	44.198
264.70	45.209
265.07	44.878
265.44	42.431
265.81	42.689
266.18	41.648
266.55	44.681
266.92	42.506
267.29	46.053
267.66	43.274
268.03	43.049
268.40	41.649
268.77	45.154
269.14	40.564
269.51	44.098
269.88	42.041
270.25	40.389
270.62	43.348
270.99	41.988
271.36	44.512
271.73	42.977
272.10	42.626
272.47	43.056
272.84	39.721
273.21	43.802
273.58	42.510
273.95	43.121
274.32	42.218
274.69	43.307
275.06	41.712
275.43	41.571
275.80	40.000
276.17	40.625
276.54	43.738
276.91	45.336
277.28	39.964
277.65	42.066
278.02	40.625
278.39	41.007
278.76	39.655
279.13	37.722
279.50	41.636
279.87	39.106
280.23	37.753
280.60	43.066
280.97	43.276
281.34	37.294
281.71	42.087
282.08	38.803
282.45	38.851
282.82	40.134
283.19	39.587
283.56	37.190
283.92	42.997
284.29	39.601
284.66	40.000
285.03	39.469
285.40	40.661
285.77	38.272
286.14	39.628
286.51	41.718
286.87	39.241
287.24	37.988
287.61	39.058
287.98	37.612
288.35	37.333
288.72	37.936
289.08	38.288
289.45	37.043
289.82	38.906
290.19	38.214
290.56	38.574
290.93	39.137
291.29	35.635
291.66	37.571
292.03	37.307
292.40	37.805
292.77	37.465
293.13	39.087
293.50	36.437
293.87	36.314
294.24	38.741
294.60	37.147
294.97	38.322
295.34	37.052
295.71	37.188
296.08	37.733
296.44	36.086
296.81	37.097
297.18	35.868
297.55	36.576
297.91	34.729
298.28	36.594
298.65	34.479
299.02	35.706
299.38	35.612
299.75	36.829
300.12	35.206
300.48	38.056
300.85	36.591
301.22	35.581
301.59	35.024
301.95	37.223
302.32	37.020
302.69	37.104
303.05	36.251
303.42	36.996
303.79	36.186
304.15	34.983
304.52	34.884
304.89	36.247
305.25	38.710
305.62	36.461
305.99	35.217
306.35	38.211
306.72	36.524
307.09	38.509
307.45	36.642
307.82	35.597
308.19	35.670
308.55	36.500
308.92	37.586
309.29	37.673
309.65	37.463
310.02	37.931
310.38	36.291
310.75	36.837
311.12	38.027
311.48	38.707
311.85	37.405
312.22	39.064
312.58	37.318
312.95	39.029
313.31	39.045
313.68	37.617
314.05	38.462
314.41	37.709
314.78	40.341
315.14	40.284
315.51	39.924
315.87	39.690
316.24	40.896
316.61	40.734
316.97	39.633
317.34	40.791
317.70	40.913
318.07	40.658
318.43	41.388
318.80	40.718
319.16	42.133
319.53	42.301
319.89	40.950
320.26	43.669
320.62	41.758
320.99	42.803
321.35	41.651
321.72	42.884
322.08	43.213
322.45	44.233
322.81	44.190
323.18	43.872
323.54	42.334
323.91	45.059
324.27	44.562
324.64	45.156
325.00	46.293
325.37	44.941
325.73	45.110
326.10	45.899
326.46	46.821
326.83	45.280
327.19	46.586
327.56	46.086
327.92	47.131
328.29	48.527
328.65	46.490
329.01	46.792
329.38	46.870
329.74	46.712
330.11	47.785
330.47	47.315
330.84	46.764
331.20	47.631
331.56	48.705
331.93	49.615
332.29	47.109
332.66	48.554
333.02	47.251
333.38	47.295
333.75	47.456
334.11	47.399
334.48	49.231
334.84	48.311
335.20	48.845
335.57	48.531
335.93	48.108
336.29	47.844
336.66	48.799
337.02	48.589
337.38	48.323
337.75	48.395
338.11	47.932
338.47	49.196
338.84	48.857
339.20	48.312
339.56	48.612
339.93	47.993
340.29	47.731
340.65	49.455
341.02	48.512
341.38	49.261
341.74	48.920
342.11	48.164
342.47	48.318
342.83	49.631
343.20	49.394
343.56	48.292
343.92	49.876
344.28	49.123
344.65	50.041
345.01	48.651
345.37	48.638
345.73	50.079
346.10	48.446
346.46	50.558
346.82	48.148
347.19	50.000
347.55	49.336
347.91	50.378
348.27	48.490
348.63	49.842
349.00	49.505
349.36	51.518
349.72	49.083
350.08	50.932
350.45	49.353
350.81	50.612
351.17	49.461
351.53	49.269
351.89	50.816
352.26	50.567
352.62	50.905
352.98	49.770
353.34	51.541
353.70	49.694
354.07	50.846
354.43	51.843
354.79	50.190
355.15	50.230
355.51	49.773
355.87	51.280
356.24	51.193
356.60	50.152
356.96	51.478
357.32	50.867
357.68	51.689
358.04	50.988
358.40	51.949
358.77	50.639
359.13	52.027
359.49	52.113
359.85	52.792
360.21	51.857
360.57	51.241
360.93	52.165
361.29	52.886
361.66	53.318
362.02	51.491
362.38	52.597
362.74	52.442
363.10	52.735
363.46	51.934
363.82	52.805
364.18	52.347
364.54	53.362
364.90	52.544
365.26	53.227
365.62	53.315
365.98	52.030
366.35	52.276
366.71	54.407
367.07	53.106
367.43	52.317
367.79	52.527
368.15	51.696
368.51	53.963
368.87	53.397
369.23	53.638
369.59	52.596
369.95	54.755
370.31	54.620
370.67	53.296
371.03	54.972
371.39	54.848
371.75	53.594
372.11	53.365
372.47	54.658
372.83	55.201
373.19	54.489
373.55	54.639
373.91	53.384
374.27	54.101
374.63	54.508
374.99	55.054
375.35	56.048
375.71	54.551
376.07	55.172
376.42	54.604
376.78	57.161
377.14	56.750
377.50	54.744
377.86	56.310
378.22	56.246
378.58	55.751
378.94	55.763
379.30	55.913
379.66	55.930
380.02	56.246
380.38	55.855
380.74	56.920
381.09	56.308
381.45	55.145
381.81	56.915
382.17	56.227
382.53	56.269
382.89	56.830
383.25	57.253
383.61	56.138
383.97	56.089
384.32	57.263
384.68	57.873
385.04	56.389
385.40	57.414
385.76	56.056
386.12	57.885
386.48	57.933
386.83	57.213
387.19	56.596
387.55	57.126
387.91	57.852
388.27	58.596
388.62	57.453
388.98	57.609
389.34	55.503
389.70	56.899
390.06	57.256
390.42	57.495
390.77	57.740
391.13	57.514
391.49	57.471
391.85	58.646
392.20	56.496
392.56	57.527
392.92	56.990
393.28	56.166
393.64	56.537
393.99	55.602
394.35	56.386
394.71	57.419
395.07	56.630
395.42	57.377
395.78	57.927
396.14	58.133
396.50	57.762
396.85	58.049
397.21	58.785
397.57	58.159
397.92	56.326
398.28	56.812
398.64	57.417
399.00	56.815
399.35	55.824
399.71	57.119
400.07	57.249
400.42	57.313
400.78	57.361
401.14	57.663
401.49	57.085
401.85	57.300
402.21	56.005
402.57	57.271
402.92	56.485
403.28	56.325
403.63	55.032
403.99	56.031
404.35	56.624
404.70	58.358
405.06	55.587
405.42	55.835
405.77	55.347
406.13	55.043
406.49	55.486
406.84	54.992
407.20	56.792
407.55	55.877
407.91	56.988
408.27	55.852
408.62	55.056
408.98	57.244
409.34	54.822
409.69	55.632
410.05	55.695
410.40	56.125
410.76	55.295
411.11	54.562
411.47	55.556
411.83	53.427
412.18	53.200
412.54	55.736
412.89	53.805
413.25	55.131
413.60	54.673
413.96	54.877
414.31	54.368
414.67	55.121
415.03	55.875
415.38	55.899
415.74	53.506
416.09	55.278
416.45	54.945
416.80	55.933
417.16	53.533
417.51	55.732
417.87	55.069
418.22	54.192
418.58	54.459
418.93	53.956
419.29	53.112
419.64	54.452
420.00	54.415
420.35	54.297
420.71	53.851
421.06	53.502
421.42	54.462
421.77	53.914
422.12	53.473
422.48	53.416
422.83	53.962
423.19	53.294
423.54	53.209
423.90	54.077
424.25	54.595
424.61	53.163
424.96	53.077
425.31	54.078
425.67	54.602
426.02	53.954
426.38	52.859
426.73	53.962
427.09	54.211
427.44	53.517
427.79	52.830
428.15	55.274
428.50	53.029
428.85	54.262
429.21	53.052
429.56	52.792
429.92	53.754
430.27	53.169
430.62	51.640
430.98	52.046
431.33	52.470
431.68	51.951
432.04	52.923
432.39	53.513
432.74	52.752
433.10	53.544
433.45	53.935
433.80	54.661
434.16	51.655
434.51	53.664
434.86	52.803
435.22	53.431
435.57	53.705
435.92	53.614
436.28	53.917
436.63	52.242
436.98	54.279
437.34	52.854
437.69	53.695
438.04	51.935
438.39	52.890
438.75	53.619
439.10	51.808
439.45	52.289
439.81	52.689
440.16	52.119
440.51	50.845
440.86	53.390
441.22	52.435
441.57	52.546
441.92	52.221
442.27	51.907
442.63	51.270
442.98	51.293
443.33	52.437
443.68	51.962
444.03	51.414
444.39	51.460
444.74	51.087
445.09	52.343
445.44	52.285
445.79	51.706
446.15	52.316
446.50	52.162
446.85	51.942
447.20	50.647
447.55	51.332
447.91	51.145
448.26	50.479
448.61	51.189
448.96	52.505
449.31	51.320
449.66	50.720
450.02	50.513
450.37	51.749
450.72	52.176
451.07	51.658
451.42	50.622
451.77	51.375
452.12	50.993
452.47	51.337
452.83	50.930
453.18	49.610
453.53	50.977
453.88	49.943
454.23	51.249
454.58	50.991
454.93	48.927
455.28	50.428
455.63	50.768
455.98	50.141
456.34	51.307
456.69	49.817
457.04	49.165
457.39	49.886
457.74	50.563
458.09	49.074
458.44	49.890
458.79	50.080
459.14	48.663
459.49	50.510
459.84	49.837
460.19	48.870
460.54	49.801
460.89	49.041
461.24	48.396
461.59	49.320
461.94	49.173
462.29	49.085
462.64	48.995
462.99	48.496
463.34	48.218
463.69	49.304
464.04	49.280
464.39	48.598
464.74	47.773
465.09	49.100
465.44	47.878
465.79	47.904
466.14	46.423
466.49	48.671
466.84	47.603
467.19	48.096
467.54	47.027
467.89	47.711
468.24	47.887
468.59	47.619
468.94	47.101
469.29	46.915
469.64	47.203
469.99	47.044
470.34	46.553
470.68	47.517
471.03	47.498
471.38	46.954
471.73	46.114
472.08	47.358
472.43	47.238
472.78	47.247
473.13	46.183
473.48	47.188
473.83	46.643
474.17	46.687
474.52	46.268
474.87	45.424
475.22	46.202
475.57	45.750
475.92	44.865
476.27	44.995
476.61	45.630
476.96	45.037
477.31	45.913
477.66	46.538
478.01	44.507
478.36	45.675
478.70	45.112
479.05	46.653
479.40	44.841
479.75	44.588
480.10	44.869
480.45	44.631
480.79	44.885
481.14	44.603
481.49	43.641
481.84	44.371
482.19	44.803
482.53	44.620
482.88	43.907
483.23	43.978
483.58	43.941
483.92	44.196
484.27	43.793
484.62	43.421
484.97	43.319
485.31	42.588
485.66	43.068
486.01	42.820
486.36	41.898
486.70	40.736
487.05	40.853
487.40	42.094
487.75	41.935
488.09	41.591
488.44	41.969
488.79	42.242
489.13	42.628
489.48	42.749
489.83	42.327
490.17	41.618
490.52	41.904
490.87	41.983
491.22	42.686
491.56	42.468
491.91	41.577
492.26	40.713
492.60	41.595
492.95	42.229
493.30	41.674
493.64	42.093
493.99	41.816
494.34	41.596
494.68	42.143
495.03	41.626
495.37	41.423
495.72	40.932
496.07	40.791
496.41	41.486
496.76	40.481
497.11	40.146
497.45	41.210
497.80	40.547
498.14	40.499
498.49	40.436
498.84	40.047
499.18	40.265
499.53	39.642
499.87	40.476
500.22	39.843
500.56	41.133
500.91	41.141
501.26	41.249
501.60	40.073
501.95	40.009
502.29	40.178
502.64	39.965
502.98	39.707
503.33	40.223
503.67	39.691
504.02	38.871
504.36	39.231
504.71	39.688
505.06	39.840
505.40	39.307
505.75	39.196
506.09	39.711
506.44	39.897
506.78	40.170
507.13	39.603
507.47	39.592
507.82	39.757
508.16	39.931
508.51	39.372
508.85	38.699
509.19	39.599
509.54	37.842
509.88	39.035
510.23	38.529
510.57	38.562
510.92	39.111
511.26	38.705
511.61	37.715
511.95	38.576
512.30	37.550
512.64	38.577
512.98	37.724
513.33	38.473
513.67	37.804
514.02	38.701
514.36	37.487
514.70	38.293
515.05	37.240
515.39	39.803
515.74	38.928
516.08	37.636
516.42	38.579
516.77	37.387
517.11	37.280
517.46	38.200
517.80	37.302
518.14	37.803
518.49	38.589
518.83	37.253
519.17	36.606
519.52	37.739
519.86	37.493
520.20	38.685
520.55	36.461
520.89	37.184
521.23	37.734
521.58	37.235
521.92	37.026
522.26	37.500
522.61	37.314
522.95	37.898
523.29	37.018
523.64	36.069
523.98	36.972
524.32	36.448
524.66	36.812
525.01	37.160
525.35	35.298
525.69	36.665
526.04	37.061
526.38	36.551
526.72	35.919
527.06	36.073
527.41	37.787
527.75	36.701
528.09	35.039
528.43	36.425
528.78	36.732
529.12	36.303
529.46	35.593
529.80	35.339
530.15	35.298
530.49	34.657
530.83	36.563
531.17	35.178
531.51	35.561
531.86	36.111
532.20	35.167
532.54	35.405
532.88	37.039
533.22	35.771
533.57	35.815
533.91	34.033
534.25	34.391
534.59	36.491
534.93	33.902
535.27	34.092
535.62	34.072
535.96	34.515
536.30	36.015
536.64	34.534
536.98	33.984
537.32	34.500
537.66	33.992
538.01	35.356
538.35	34.623
538.69	33.617
539.03	34.080
539.37	33.374
539.71	34.691
540.05	34.154
540.39	35.346
540.73	34.367
541.07	33.375
541.42	34.017
541.76	33.909
542.10	34.094
542.44	34.040
542.78	33.669
543.12	33.558
543.46	33.960
543.80	34.398
544.14	33.746
544.48	33.151
544.82	33.272
545.16	33.151
545.50	33.313
545.84	34.028
546.18	34.070
546.52	33.574
546.86	34.365
547.20	33.592
547.54	32.172
547.88	32.299
548.22	33.758
548.56	32.823
548.90	32.088
549.24	32.660
549.58	32.603
549.92	33.268
550.26	33.266
550.60	32.868
550.94	34.261
551.28	33.862
551.62	34.414
551.96	32.500
552.30	32.894
552.64	33.333
552.98	32.603
553.32	32.330
553.66	31.726
554.00	31.660
554.34	33.222
554.68	32.191
555.02	32.994
555.36	32.247
555.69	31.937
556.03	31.847
556.37	32.250
556.71	32.203
557.05	31.389
557.39	31.467
557.73	31.536
558.07	32.663
558.41	32.762
558.75	32.695
559.08	33.024
559.42	32.856
559.76	33.500
560.10	31.796
560.44	31.851
560.78	32.353
561.12	31.151
561.45	30.726
561.79	31.336
562.13	30.954
562.47	31.408
562.81	32.075
563.15	31.222
563.48	30.373
563.82	31.441
564.16	31.530
564.50	31.465
564.84	31.368
565.17	31.254
565.51	32.759
565.85	32.696
566.19	31.548
566.52	30.987
566.86	32.516
567.20	31.910
567.54	30.895
567.88	31.612
568.21	30.005
568.55	30.739
568.89	30.976
569.23	30.328
569.56	30.631
569.90	30.399
570.24	30.733
570.57	30.532
570.91	29.641
571.25	30.368
571.59	30.203
571.92	29.682
572.26	29.137
572.60	29.325
572.93	29.816
573.27	30.126
573.61	29.751
573.95	29.109
574.28	29.859
574.62	29.157
574.96	28.843
575.29	29.137
575.63	29.211
575.97	28.627
576.30	28.423
576.64	29.068
576.98	29.301
577.31	29.295
577.65	28.863
577.98	29.325
578.32	28.684
578.66	28.616
578.99	28.844
579.33	28.823
579.67	28.595
580.00	28.205
580.34	28.789
580.67	28.658
581.01	28.659
581.35	28.960
581.68	28.626
582.02	28.793
582.35	28.359
582.69	28.452
583.02	28.383
583.36	28.791
583.70	29.006
584.03	28.635
584.37	29.278
584.70	28.589
585.04	28.242
585.37	28.291
585.71	29.146
586.04	27.945
586.38	27.987
586.72	28.520
587.05	28.435
587.39	28.774
587.72	28.861
588.06	28.284
588.39	28.301
588.73	28.385
589.06	28.538
589.40	28.638
589.73	28.712
590.07	29.135
590.40	29.895
590.73	28.975
591.07	29.450
591.40	28.623
591.74	28.774
592.07	28.286
592.41	29.017
592.74	28.634
593.08	27.995
593.41	28.217
593.75	27.848
594.08	28.334
594.41	28.022
594.75	28.288
595.08	28.361
595.42	28.736
595.75	28.628
596.09	28.363
596.42	28.405
596.75	29.087
597.09	28.683
597.42	29.184
597.75	28.682
598.09	28.149
598.42	28.274
598.76	27.911
599.09	28.356
599.42	27.301
599.76	28.087
600.09	27.864
600.42	28.039
600.76	28.280
601.09	27.442
601.42	27.526
601.76	27.999
602.09	28.035
602.42	27.505
602.76	28.387
603.09	28.205
603.42	28.037
603.76	27.910
604.09	27.543
604.42	27.797
604.76	28.052
605.09	28.000
605.42	27.875
605.75	28.030
606.09	27.391
606.42	27.245
606.75	27.555
607.09	27.319
607.42	27.521
607.75	27.946
608.08	27.457
608.42	27.810
608.75	27.129
609.08	27.629
609.41	28.318
609.75	28.297
610.08	27.563
610.41	27.844
610.74	26.883
611.07	28.513
611.41	27.804
611.74	27.677
612.07	28.324
612.40	28.119
612.73	27.509
613.07	27.978
613.40	28.170
613.73	28.208
614.06	27.700
614.39	28.030
614.72	27.223
615.06	28.091
615.39	27.079
615.72	26.573
616.05	28.327
616.38	27.905
616.71	27.564
617.05	27.018
617.38	27.584
617.71	27.728
618.04	27.594
618.37	26.737
618.70	27.367
619.03	27.350
619.36	27.827
619.69	27.309
620.03	28.963
620.36	27.810
620.69	28.480
621.02	27.514
621.35	27.292
621.68	27.065
622.01	28.339
622.34	26.730
622.67	28.230
623.00	27.774
623.33	27.328
623.66	27.013
623.99	28.151
624.32	27.710
624.65	26.662
624.99	27.857
625.32	27.522
625.65	26.345
625.98	27.406
626.31	27.967
626.64	27.866
626.97	26.626
627.30	27.795
627.63	28.336
627.96	27.074
628.29	28.300
628.62	27.374
628.95	26.773
629.28	27.783
629.61	26.801
629.94	27.831
630.26	27.383
630.59	28.989
630.92	27.444
631.25	27.380
631.58	29.412
631.91	26.641
632.24	26.822
632.57	26.817
632.90	28.675
633.23	28.332
633.56	27.397
633.89	27.867
634.22	27.772
634.55	27.419
634.88	29.354
635.20	28.475
635.53	27.410
635.86	27.405
636.19	28.507
636.52	26.811
636.85	26.969
637.18	29.036
637.51	28.045
637.83	27.231
638.16	28.370
638.49	28.503
638.82	29.460
639.15	28.085
639.48	27.014
639.81	28.816
640.13	28.098
640.46	27.686
640.79	28.739
641.12	26.115
641.45	30.660
641.77	28.269
642.10	28.112
642.43	29.303
642.76	27.415
643.09	28.242
643.41	28.892
643.74	28.058
644.07	28.466
644.40	28.107
644.73	27.778
645.05	30.609
645.38	27.565
645.71	27.769
646.04	28.092
646.36	29.264
646.69	29.440
647.02	27.040
647.35	27.087
647.67	27.877
648.00	29.153
648.33	28.571
648.66	28.636
648.98	28.696
649.31	28.340
649.64	28.354
649.96	28.592
650.29	27.429
650.62	30.044
650.94	28.464
651.27	31.260
651.60	27.856
651.92	29.339
652.25	28.661
652.58	29.220
652.90	26.946
653.23	28.065
653.56	28.487
653.88	28.341
654.21	28.592
654.54	27.672
654.86	28.319
655.19	26.517
655.52	26.831
655.84	23.285
656.17	27.786
656.49	39.757
656.82	45.634
657.15	36.388
657.47	26.926
657.80	20.039
658.13	15.642
658.45	21.121
658.78	25.614
659.10	26.450
659.43	27.169
659.75	27.169
660.08	28.070
660.41	28.494
660.73	28.858
661.06	27.477
661.38	31.687
661.71	26.799
662.03	28.327
662.36	27.810
662.68	29.981
663.01	31.171
663.33	28.113
663.66	29.586
663.98	28.373
664.31	28.731
664.63	30.077
664.96	30.394
665.28	28.437
665.61	26.604
665.93	27.170
666.26	29.533
666.58	29.908
666.91	29.537
667.23	29.518
667.56	30.390
667.88	29.668
668.21	29.098
668.53	27.823
668.86	29.860
669.18	26.477
669.50	27.066
669.83	29.158
670.15	25.988
670.48	27.344
670.80	30.677
671.13	29.482
671.45	29.659
671.77	28.200
672.10	29.982
672.42	26.316
672.75	28.481
673.07	27.981
673.39	28.115
673.72	27.509
674.04	27.957
674.37	27.405
674.69	27.509
675.01	28.358
675.34	26.744
675.66	30.469
675.98	29.191
676.31	29.600
676.63	26.839
676.95	29.762
677.28	26.775
677.60	28.974
677.92	25.794
678.25	27.907
678.57	29.236
678.89	29.837
679.22	26.838
679.54	29.893
679.86	28.621
680.18	27.417
680.51	27.197
680.83	26.351
681.15	27.556
681.48	28.125
681.80	28.021
682.12	28.201
682.44	26.847
682.77	25.267
683.09	30.291
683.41	29.592
683.73	26.969
684.06	28.770
684.38	29.457
684.70	27.518
685.02	28.125
685.34	26.408
685.67	29.260
685.99	26.273
686.31	29.276
686.63	25.366
686.96	27.124
687.28	26.846
687.60	27.304
687.92	28.978
688.24	30.517
688.56	27.580
688.89	26.195
689.21	28.324
689.53	28.261
689.85	27.236
690.17	28.932
690.49	29.637
690.82	27.521
691.14	28.687
691.46	29.363
691.78	30.409
692.10	29.389
692.42	26.316
692.74	28.876
693.06	29.651
693.39	25.692
693.71	28.880
694.03	30.572
694.35	31.928
694.67	27.495
694.99	31.486
695.31	28.604
695.63	26.923
695.95	29.638
696.27	29.646
696.59	30.549
696.91	29.873
697.23	29.412
697.56	26.763
697.88	25.549
698.20	27.358
698.52	27.237
698.84	27.105
699.16	31.557
699.48	26.907
699.80	29.194
700.12	32.564
700.44	29.673
700.76	29.833
701.08	31.332
701.40	30.390
701.72	31.016
702.04	29.268
702.36	31.720
702.68	30.851
703.00	28.571
703.32	30.025
703.64	29.975
703.96	29.167
704.28	30.688
704.60	32.394
704.91	33.333
705.23	29.261
705.55	31.157
705.87	32.381
706.19	36.677
706.51	31.348
706.83	31.268
707.15	31.818
707.47	29.540
707.79	30.115
708.11	28.798
708.43	29.438
708.74	28.733
709.06	27.907
709.38	28.288
709.70	27.793
710.02	30.163
710.34	30.110
710.66	33.611
710.98	29.508
711.29	30.084
711.61	32.869
711.93	29.787
712.25	30.723
712.57	32.154
712.89	31.515
713.20	35.144
713.52	33.956
713.84	32.931
714.16	29.565
714.48	25.360
714.80	30.623
715.11	26.596
715.43	28.212
715.75	32.394
716.07	28.035
716.39	28.286
716.70	29.907
717.02	36.364
717.34	33.453
717.66	34.722
717.97	39.394
718.29	34.507
718.61	29.730
718.93	33.910
719.24	32.550
719.56	27.586
719.88	28.025
720.20	32.581
720.51	31.373
720.83	32.776
721.15	32.313
721.46	32.534
721.78	33.449
722.10	32.986
722.42	33.110
722.73	32.130
723.05	29.474
723.37	32.509
723.68	32.031
724.00	33.712
724.32	34.981
724.63	31.923
724.95	33.333
725.27	30.483
725.58	33.456
725.90	29.930
726.22	30.479
726.53	33.110
726.85	34.202
727.16	33.893
727.48	30.897
727.80	34.532
728.11	30.714
728.43	32.971
728.74	34.615
729.06	32.616
729.38	34.737
729.69	34.667
730.01	33.882
730.32	32.215
730.64	35.880
730.96	29.730
731.27	30.275
731.59	29.023
731.90	29.805
732.22	30.000
732.53	29.345
732.85	37.427
733.16	31.325
733.48	31.975
733.80	32.754
734.11	32.515
734.43	28.947
734.74	28.150
735.06	32.540
735.37	28.608
735.69	28.116
736.00	33.639
736.32	28.182
736.63	29.653
736.95	30.745
737.26	31.707
737.58	29.755
737.89	33.434
738.21	32.119
738.52	32.107
738.83	33.700
739.15	31.359
739.46	30.000
739.78	32.993
740.09	33.528
740.41	31.902
740.72	32.698
741.04	32.168
741.35	31.641
741.66	30.830
741.98	35.193
742.29	37.037
742.61	40.265
742.92	30.085
743.23	30.000
743.55	36.981
743.86	32.549
744.18	33.051
744.49	35.124
744.80	31.797
745.12	35.714
745.43	35.047
745.74	37.333
746.06	32.018
746.37	35.349
746.68	38.938
747.00	33.184
747.31	31.933
747.62	29.098
747.94	31.330
748.25	31.518
748.56	38.983
748.88	37.054
749.19	35.349
749.50	30.594
749.82	32.510
750.13	33.597
750.44	29.667
750.75	33.557
751.07	30.921
751.38	29.373
751.69	34.343
752.01	32.867
752.32	30.565
752.63	31.544
752.94	34.965
753.26	37.891
753.57	29.961
753.88	33.708
754.19	36.823
754.51	33.223
754.82	29.866
755.13	32.770
755.44	31.481
755.75	33.677
756.07	32.877
756.38	31.046
756.69	31.250
757.00	30.861
757.31	33.521
757.63	28.650
757.94	26.064
758.25	29.469
758.56	27.689
758.87	31.328
759.18	30.814
759.50	26.444
759.81	32.344
760.12	28.371
760.43	29.412
760.74	32.405
761.05	30.769
761.36	28.385
761.67	27.763
761.99	32.958
762.30	32.476
762.61	31.597
762.92	31.818
763.23	35.849
763.54	31.923
763.85	28.405
764.16	30.903
764.47	34.122
764.78	31.922
765.10	30.488
765.41	29.261
765.72	29.558
766.03	31.722
766.34	33.101
766.65	34.221
766.96	37.247
767.27	37.850
767.58	42.079
767.89	34.254
768.20	40.854
768.51	36.735
768.82	36.842
769.13	34.510
769.44	34.211
769.75	32.210
770.06	38.235
770.37	32.895
770.68	31.111
770.99	38.983
771.30	33.891
771.61	34.231
771.92	37.786
772.23	35.484
772.54	35.556
772.85	34.158
773.16	37.500
773.47	40.000
773.78	34.158
774.09	42.614
774.39	41.818
774.70	32.941
775.01	36.184
775.32	36.025
775.63	38.356
775.94	40.123
776.25	40.690
776.56	41.985
776.87	45.038
777.18	47.727
777.48	57.480
777.79	51.538
778.10	40.909
778.41	51.493
778.72	38.346
779.03	39.744
779.34	40.541
779.65	41.615
779.95	40.373
780.26	35.119
780.57	52.381
780.88	41.135
781.19	49.167
781.50	40.828
781.80	38.798
782.11	36.508
782.42	35.057
782.73	40.678
783.04	41.290
783.34	43.411
783.65	38.776
783.96	41.935
784.27	40.397
784.57	37.500
784.88	39.130
785.19	42.500
785.50	45.690
785.81	51.163
786.11	40.000
786.42	44.094
786.73	56.757
787.04	49.057
787.34	42.276
787.65	52.273
787.96	48.485
788.26	51.969
788.57	46.715
788.88	42.958
789.19	49.618
789.49	46.622
789.80	45.313
790.11	44.628
790.41	50.926
790.72	56.481
791.03	55.769
791.33	53.535
791.64	56.842
791.95	60.000
792.25	42.708
792.56	55.000
792.87	65.854
793.17	51.136
793.48	52.941
793.79	55.172
794.09	53.409
794.40	56.897
794.70	50.000
795.01	44.615
795.32	47.328
795.62	41.880
795.93	47.899
796.23	59.350
796.54	54.082
796.85	45.455
797.15	76.623
797.46	64.634
797.76	56.250
798.07	70.667
798.37	55.000
798.68	63.750
798.99	75.610
799.29	45.333
799.60	50.000
799.90	63.158
800.21	81.818
800.51	63.380
800.82	68.966
801.12	66.154
801.43	73.333
801.73	63.793
802.04	71.429
802.34	58.904
802.65	41.176
802.95	60.870
803.26	69.355
803.56	96.667
803.87	65.672
804.17	73.016
804.48	83.019
804.78	62.500
805.09	78.788
805.39	79.365
805.70	57.895
806.00	58.571
806.30	79.687
806.61	51.765
806.91	60.000
807.22	50.000
807.52	57.895
807.83	65.789
808.13	68.116
808.43	62.903
808.74	67.123
809.04	82.143
809.35	73.529
809.65	75.758
809.95	60.784
810.26	87.037
810.56	65.625
810.86	83.673
811.17	68.421
811.47	73.913
811.77	74.138
812.08	65.517
812.38	66.667
812.69	83.333
812.99	97.778
813.29	85.714
813.59	125.806
813.90	86.207
814.20	68.852
814.50	66.000
814.81	49.123
815.11	75.926
815.41	85.714
815.72	91.071
816.02	88.000
816.32	117.073
816.62	89.655
816.93	100.000
817.23	102.439
817.53	75.000
817.84	73.333
818.14	107.143
818.44	95.833
818.74	81.132
819.04	79.487
819.35	103.030
819.65	101.923
819.95	109.259
820.25	97.872
820.56	121.622
820.86	81.579
821.16	87.234
821.46	94.737
821.76	90.909
822.07	64.286
822.37	84.211
822.67	102.326
822.97	71.053
823.27	76.087
823.57	93.750
823.88	120.513
824.18	109.091
824.48	165.217
824.78	119.444
825.08	152.174
825.38	186.207
825.69	114.706
825.99	82.979
826.29	88.889
826.59	97.143
826.89	133.333
827.19	77.143
827.49	125.806
827.79	165.385
828.09	111.905
828.39	105.556
828.70	78.378
829.00	139.286
829.30	137.500
829.60	119.444
829.90	87.097
830.20	78.788
830.50	108.108
830.80	125.000
831.10	157.692
831.40	157.143
831.70	162.500
832.00	116.667
832.30	152.174
832.60	141.667
832.90	93.939
833.20	185.000
833.50	100.000
833.80	85.294
834.10	121.053
834.40	173.684
834.70	83.333
835.00	148.000
835.30	78.378
835.60	159.375
835.90	121.622
836.20	146.154
836.50	159.091
836.80	97.561
837.10	78.261
837.40	307.692
837.70	110.526
838.00	150.000
838.30	170.833
838.60	148.000
838.90	270.000
839.19	181.250
839.49	93.333
839.79	158.621
840.09	142.308
840.39	206.667
840.69	184.211
840.99	161.905
841.29	126.087
841.59	155.000
841.88	160.000
842.18	322.222
842.48	110.714
842.78	177.778
843.08	169.231
843.38	122.727
843.68	242.857
843.97	542.857
844.27	108.696
844.57	1450.000
844.87	257.143
845.17	216.667
845.47	142.857
845.76	158.333
846.06	357.143
846.36	182.353
846.66	307.692
846.96	256.250
847.25	215.385
847.55	173.684
847.85	166.667
848.15	620.000
848.44	263.636
848.74	161.905
849.04	154.167
849.34	147.059
849.63	250.000
849.93	206.250
850.23	666.667
850.53	437.500
850.82	200.000
851.12	182.353
851.42	166.667
851.71	218.750
852.01	0.000
852.31	235.294
852.61	350.000
852.90	137.500
853.20	366.667
853.50	-1400.000
853.79	144.000
854.09	128.125
854.39	86.207
854.68	134.483
854.98	204.762
855.28	112.903
855.57	207.143
855.87	155.556
856.17	111.111
856.46	147.368
856.76	122.581
857.05	217.647
857.35	281.818
857.65	176.923
857.94	150.000
858.24	388.889
858.53	250.000
858.83	514.286
859.13	160.870
859.42	388.889
859.72	362.500
860.01	300.000
860.31	700.000
860.60	360.000
860.90	387.500
861.20	215.385
861.49	371.429
861.79	-2900.000
862.08	414.286
862.38	311.111
862.67	214.286
862.97	350.000
863.26	140.000
863.56	950.000
863.85	276.923
864.15	294.118
864.44	216.667
864.74	366.667
865.03	318.182
865.33	437.500
865.62	180.000
865.92	383.333
866.21	900.000
866.51	600.000
866.80	227.778
867.10	800.000
867.39	3900.000
867.69	460.000
867.98	650.000
868.27	171.429
868.57	273.333
868.86	700.000
869.16	128.571
869.45	3200.000
869.75	-500.000
870.04	825.000
870.33	420.000
870.63	425.000
870.92	223.529
871.22	650.000
871.51	400.000
871.80	316.667
872.10	284.615
>>>>>End Processed Spectral Data<<<<<
