SpectraSuite Data File
++++++++++++++++++++++++++++++++++++
Date: Wed May 13 21:52:16 PDT 2015
User: schluterlab
Dark Spectrum Present: Yes
Reference Spectrum Present: Yes
Number of Sampled Component Spectra: 1
Spectrometers: USB2E3373
Integration Time (usec): 3000 (USB2E3373)
Spectra Averaged: 3 (USB2E3373)
Boxcar Smoothing: 0 (USB2E3373)
Correct for Electrical Dark: No (USB2E3373)
Strobe/Lamp Enabled: No (USB2E3373)
Correct for Detector Non-linearity: No (USB2E3373)
Correct for Stray Light: No (USB2E3373)
Number of Pixels in Processed Spectrum: 2048
>>>>>Begin Processed Spectral Data<<<<<
178.53	0.000
178.91	1050.000
179.29	291.667
179.67	-950.000
180.04	-400.000
180.42	300.000
180.80	2000.000
181.18	333.333
181.56	-500.000
181.94	-100.000
182.31	-81.818
182.69	215.385
183.07	-240.000
183.45	333.333
183.83	211.111
184.20	200.000
184.58	-366.667
184.96	533.333
185.34	300.000
185.72	0.000
186.09	-700.000
186.47	-180.000
186.85	260.000
187.23	-600.000
187.61	500.000
187.98	1200.000
188.36	-87.500
188.74	0.000
189.12	-18.182
189.49	-60.000
189.87	108.333
190.25	360.000
190.63	1000.000
191.00	-200.000
191.38	300.000
191.76	525.000
192.14	183.333
192.51	-10.526
192.89	466.667
193.27	375.000
193.65	-440.000
194.02	200.000
194.40	280.000
194.78	-800.000
195.15	280.000
195.53	-80.000
195.91	-62.500
196.29	-300.000
196.66	0.000
197.04	200.000
197.42	-60.000
197.79	-130.000
198.17	-87.500
198.55	-300.000
198.92	75.000
199.30	-600.000
199.68	-140.000
200.05	750.000
200.43	216.667
200.81	-1200.000
201.18	-140.000
201.56	-100.000
201.94	550.000
202.31	8.696
202.69	-157.143
203.07	-500.000
203.44	-420.000
203.82	-266.667
204.19	-130.000
204.57	0.000
204.95	-66.667
205.32	0.000
205.70	-800.000
206.08	-200.000
206.45	-50.000
206.83	500.000
207.20	-200.000
207.58	-180.000
207.96	-1400.000
208.33	-285.714
208.71	-2800.000
209.08	287.500
209.46	375.000
209.84	0.000
210.21	220.000
210.59	1500.000
210.96	460.000
211.34	1700.000
211.71	-750.000
212.09	-83.333
212.46	-160.000
212.84	-100.000
213.22	-175.000
213.59	-600.000
213.97	-700.000
214.34	-850.000
214.72	-7.692
215.09	87.500
215.47	111.111
215.84	850.000
216.22	-87.500
216.59	-550.000
216.97	800.000
217.34	111.111
217.72	0.000
218.09	200.000
218.47	-900.000
218.84	-142.857
219.22	-150.000
219.59	-600.000
219.97	-425.000
220.34	-175.000
220.72	-140.000
221.09	0.000
221.47	-216.667
221.84	-100.000
222.22	0.000
222.59	900.000
222.97	-433.333
223.34	-58.333
223.72	-1100.000
224.09	-850.000
224.46	-100.000
224.84	-50.000
225.21	-42.857
225.59	-275.000
225.96	-116.667
226.34	-90.000
226.71	-228.571
227.08	700.000
227.46	-162.500
227.83	-1400.000
228.21	-31.250
228.58	-150.000
228.95	-47.059
229.33	-37.500
229.70	-112.500
230.08	0.000
230.45	-150.000
230.82	-75.000
231.20	185.714
231.57	-125.000
231.95	1400.000
232.32	8.333
232.69	-17.647
233.07	-1000.000
233.44	-4.348
233.81	-550.000
234.19	-12.500
234.56	-73.333
234.93	-53.333
235.31	5.263
235.68	-23.077
236.05	-23.077
236.43	-27.778
236.80	30.303
237.17	-66.667
237.55	-117.647
237.92	10.345
238.29	0.000
238.67	5.556
239.04	12.903
239.41	6.383
239.79	31.915
240.16	18.605
240.53	23.214
240.91	17.857
241.28	12.500
241.65	27.419
242.02	9.211
242.40	26.087
242.77	10.145
243.14	21.795
243.51	25.532
243.89	31.731
244.26	33.962
244.63	25.962
245.00	31.250
245.38	21.849
245.75	28.689
246.12	26.316
246.49	15.447
246.87	25.210
247.24	28.378
247.61	27.152
247.98	28.846
248.36	27.811
248.73	24.157
249.10	23.737
249.47	26.882
249.84	34.737
250.22	30.348
250.59	32.243
250.96	35.909
251.33	24.402
251.70	31.381
252.08	32.218
252.45	34.568
252.82	27.376
253.19	28.016
253.56	32.014
253.94	30.249
254.31	30.282
254.68	32.215
255.05	31.683
255.42	31.818
255.79	30.982
256.16	33.754
256.54	30.794
256.91	26.582
257.28	34.591
257.65	28.344
258.02	31.965
258.39	31.287
258.76	34.302
259.14	30.114
259.51	33.427
259.88	31.978
260.25	31.389
260.62	31.742
260.99	36.340
261.36	35.233
261.73	29.877
262.10	31.807
262.47	33.580
262.85	28.607
263.22	33.077
263.59	31.948
263.96	32.847
264.33	27.163
264.70	32.326
265.07	31.019
265.44	36.092
265.81	32.265
266.18	31.891
266.55	30.131
266.92	31.992
267.29	30.247
267.66	34.183
268.03	32.305
268.40	30.720
268.77	31.198
269.14	30.612
269.51	35.113
269.88	34.012
270.25	32.203
270.62	31.967
270.99	31.496
271.36	33.333
271.73	32.932
272.10	33.714
272.47	33.397
272.84	30.512
273.21	31.703
273.58	32.787
273.95	30.755
274.32	32.463
274.69	32.423
275.06	32.686
275.43	30.132
275.80	32.624
276.17	30.387
276.54	29.663
276.91	32.056
277.28	29.783
277.65	32.343
278.02	33.036
278.39	31.972
278.76	31.605
279.13	31.561
279.50	33.621
279.87	30.072
280.23	32.613
280.60	32.007
280.97	31.331
281.34	31.703
281.71	30.407
282.08	33.333
282.45	32.951
282.82	31.629
283.19	32.622
283.56	31.563
283.92	31.651
284.29	30.109
284.66	30.807
285.03	29.642
285.40	31.420
285.77	31.832
286.14	32.523
286.51	31.184
286.87	31.231
287.24	31.563
287.61	31.175
287.98	31.176
288.35	29.061
288.72	30.560
289.08	29.630
289.45	28.047
289.82	29.198
290.19	31.136
290.56	29.830
290.93	28.867
291.29	30.096
291.66	30.055
292.03	29.973
292.40	29.071
292.77	28.648
293.13	32.497
293.50	28.497
293.87	27.200
294.24	25.926
294.60	28.869
294.97	30.423
295.34	27.441
295.71	27.727
296.08	28.272
296.44	27.423
296.81	25.457
297.18	28.625
297.55	26.297
297.91	28.944
298.28	28.935
298.65	26.601
299.02	30.037
299.38	26.012
299.75	27.524
300.12	26.512
300.48	27.018
300.85	26.674
301.22	27.875
301.59	26.056
301.95	25.784
302.32	27.305
302.69	27.006
303.05	27.132
303.42	27.614
303.79	27.234
304.15	27.820
304.52	28.602
304.89	27.685
305.25	26.454
305.62	26.139
305.99	28.183
306.35	29.258
306.72	29.095
307.09	28.676
307.45	29.073
307.82	28.211
308.19	29.781
308.55	27.943
308.92	28.978
309.29	29.129
309.65	29.670
310.02	29.026
310.38	29.065
310.75	30.769
311.12	30.224
311.48	30.069
311.85	31.398
312.22	32.302
312.58	31.304
312.95	31.642
313.31	31.956
313.68	32.824
314.05	33.081
314.41	35.927
314.78	35.294
315.14	35.556
315.51	35.109
315.87	36.886
316.24	36.823
316.61	38.356
316.97	37.037
317.34	38.235
317.70	38.269
318.07	39.130
318.43	39.386
318.80	40.140
319.16	39.876
319.53	42.204
319.89	43.270
320.26	44.455
320.62	45.505
320.99	44.671
321.35	44.995
321.72	46.198
322.08	47.140
322.45	48.659
322.81	49.353
323.18	50.358
323.54	52.437
323.91	53.117
324.27	52.295
324.64	52.439
325.00	55.293
325.37	55.802
325.73	57.239
326.10	59.630
326.46	59.114
326.83	60.113
327.19	58.862
327.56	63.014
327.92	62.993
328.29	64.357
328.65	65.031
329.01	65.699
329.38	65.565
329.74	65.665
330.11	68.440
330.47	67.361
330.84	69.224
331.20	68.318
331.56	71.377
331.93	70.887
332.29	71.069
332.66	69.831
333.02	70.460
333.38	71.754
333.75	69.113
334.11	72.309
334.48	72.537
334.84	72.527
335.20	70.240
335.57	71.628
335.93	71.649
336.29	72.417
336.66	74.615
337.02	72.783
337.38	71.802
337.75	74.246
338.11	71.221
338.47	73.887
338.84	73.196
339.20	74.250
339.56	72.952
339.93	75.108
340.29	73.527
340.65	74.850
341.02	73.960
341.38	74.747
341.74	74.118
342.11	73.906
342.47	73.975
342.83	73.938
343.20	76.311
343.56	77.187
343.92	74.655
344.28	76.786
344.65	76.898
345.01	74.738
345.37	77.961
345.73	76.716
346.10	76.886
346.46	75.772
346.82	77.769
347.19	76.582
347.55	77.706
347.91	76.539
348.27	77.050
348.63	76.763
349.00	76.808
349.36	76.374
349.72	76.721
350.08	76.599
350.45	78.935
350.81	78.091
351.17	78.060
351.53	78.005
351.89	76.728
352.26	77.992
352.62	78.915
352.98	79.792
353.34	81.643
353.70	79.283
354.07	78.353
354.43	78.149
354.79	81.330
355.15	77.484
355.51	79.575
355.87	80.141
356.24	80.498
356.60	78.186
356.96	79.662
357.32	78.483
357.68	79.450
358.04	79.441
358.40	78.760
358.77	79.893
359.13	82.802
359.49	80.696
359.85	80.970
360.21	83.577
360.57	83.422
360.93	83.763
361.29	82.679
361.66	83.295
362.02	81.913
362.38	82.053
362.74	82.306
363.10	82.574
363.46	83.501
363.82	83.149
364.18	82.741
364.54	85.193
364.90	84.460
365.26	82.166
365.62	82.386
365.98	83.630
366.35	84.752
366.71	84.807
367.07	82.920
367.43	83.833
367.79	85.615
368.15	84.810
368.51	84.177
368.87	84.857
369.23	85.267
369.59	84.355
369.95	85.196
370.31	84.798
370.67	85.663
371.03	88.122
371.39	84.883
371.75	86.214
372.11	86.254
372.47	86.734
372.83	87.032
373.19	87.842
373.55	86.488
373.91	87.199
374.27	87.483
374.63	87.909
374.99	88.092
375.35	88.562
375.71	87.160
376.07	89.719
376.42	88.168
376.78	89.432
377.14	89.017
377.50	89.700
377.86	90.173
378.22	89.823
378.58	88.272
378.94	89.500
379.30	90.506
379.66	90.814
380.02	90.380
380.38	89.518
380.74	91.034
381.09	88.902
381.45	90.447
381.81	91.251
382.17	89.792
382.53	89.969
382.89	90.229
383.25	89.568
383.61	92.373
383.97	91.875
384.32	90.989
384.68	91.363
385.04	90.531
385.40	92.777
385.76	92.336
386.12	93.221
386.48	91.034
386.83	91.552
387.19	92.165
387.55	92.336
387.91	94.465
388.27	92.663
388.62	91.511
388.98	94.618
389.34	92.544
389.70	91.331
390.06	90.812
390.42	93.750
390.77	94.299
391.13	94.823
391.49	90.955
391.85	92.716
392.20	91.792
392.56	92.762
392.92	93.505
393.28	92.504
393.64	93.945
393.99	90.942
394.35	91.296
394.71	92.756
395.07	91.698
395.42	92.017
395.78	92.278
396.14	93.722
396.50	92.200
396.85	94.200
397.21	92.634
397.57	94.161
397.92	92.994
398.28	91.935
398.64	92.835
399.00	91.629
399.35	94.098
399.71	92.312
400.07	92.831
400.42	93.103
400.78	92.085
401.14	94.543
401.49	91.192
401.85	93.059
402.21	93.994
402.57	92.643
402.92	93.054
403.28	91.807
403.63	92.560
403.99	92.514
404.35	93.142
404.70	91.541
405.06	91.368
405.42	92.525
405.77	91.417
406.13	89.886
406.49	92.211
406.84	92.918
407.20	90.586
407.55	91.753
407.91	91.727
408.27	91.391
408.62	91.651
408.98	90.875
409.34	90.532
409.69	92.658
410.05	92.102
410.40	91.540
410.76	92.118
411.11	93.221
411.47	93.696
411.83	91.266
412.18	90.806
412.54	91.980
412.89	91.912
413.25	91.032
413.60	92.288
413.96	92.572
414.31	91.554
414.67	90.794
415.03	92.693
415.38	91.480
415.74	91.293
416.09	94.052
416.45	92.344
416.80	93.356
417.16	91.633
417.51	90.221
417.87	92.791
418.22	92.631
418.58	92.838
418.93	91.086
419.29	93.597
419.64	90.967
420.00	92.254
420.35	91.632
420.71	90.920
421.06	92.497
421.42	92.883
421.77	93.237
422.12	93.238
422.48	91.876
422.83	93.739
423.19	92.582
423.54	93.816
423.90	91.627
424.25	94.223
424.61	94.578
424.96	93.495
425.31	92.765
425.67	94.709
426.02	94.994
426.38	94.216
426.73	95.113
427.09	94.622
427.44	93.130
427.79	94.002
428.15	94.067
428.50	93.776
428.85	94.034
429.21	94.260
429.56	94.846
429.92	94.951
430.27	93.149
430.62	95.488
430.98	94.870
431.33	95.271
431.68	95.847
432.04	95.606
432.39	95.727
432.74	94.421
433.10	96.397
433.45	94.024
433.80	95.345
434.16	93.392
434.51	94.348
434.86	96.879
435.22	95.020
435.57	94.656
435.92	95.718
436.28	94.955
436.63	96.767
436.98	96.945
437.34	95.665
437.69	96.045
438.04	96.095
438.39	98.381
438.75	96.901
439.10	96.935
439.45	96.065
439.81	97.106
440.16	97.739
440.51	95.244
440.86	95.554
441.22	97.762
441.57	97.234
441.92	97.512
442.27	94.859
442.63	96.286
442.98	97.049
443.33	98.307
443.68	97.522
444.03	98.311
444.39	97.918
444.74	96.024
445.09	98.183
445.44	99.211
445.79	98.554
446.15	97.726
446.50	96.256
446.85	100.053
447.20	99.164
447.55	96.698
447.91	98.090
448.26	98.628
448.61	98.216
448.96	98.405
449.31	98.972
449.66	97.455
450.02	99.261
450.37	98.355
450.72	96.843
451.07	98.119
451.42	97.130
451.77	98.904
452.12	98.752
452.47	98.967
452.83	98.998
453.18	98.027
453.53	98.487
453.88	98.434
454.23	98.640
454.58	99.081
454.93	98.076
455.28	99.936
455.63	98.378
455.98	98.296
456.34	98.029
456.69	98.466
457.04	98.266
457.39	98.437
457.74	98.504
458.09	98.460
458.44	99.295
458.79	95.332
459.14	95.730
459.49	99.024
459.84	96.561
460.19	97.179
460.54	97.263
460.89	98.367
461.24	97.472
461.59	99.577
461.94	97.219
462.29	97.978
462.64	97.427
462.99	99.061
463.34	99.862
463.69	97.745
464.04	96.639
464.39	98.536
464.74	96.806
465.09	97.644
465.44	96.240
465.79	97.240
466.14	97.605
466.49	99.296
466.84	98.087
467.19	98.280
467.54	99.741
467.89	97.423
468.24	99.693
468.59	98.725
468.94	97.893
469.29	97.555
469.64	99.233
469.99	97.172
470.34	98.314
470.68	98.141
471.03	99.506
471.38	96.662
471.73	98.217
472.08	100.550
472.43	100.726
472.78	98.310
473.13	96.042
473.48	98.043
473.83	97.928
474.17	99.284
474.52	99.159
474.87	99.035
475.22	97.947
475.57	97.434
475.92	99.400
476.27	97.960
476.61	97.508
476.96	99.086
477.31	98.706
477.66	98.644
478.01	97.582
478.36	98.856
478.70	98.980
479.05	100.000
479.40	97.244
479.75	99.947
480.10	98.419
480.45	97.646
480.79	98.905
481.14	99.949
481.49	97.780
481.84	97.361
482.19	97.453
482.53	98.524
482.88	98.706
483.23	97.305
483.58	99.102
483.92	97.519
484.27	98.582
484.62	96.227
484.97	97.511
485.31	96.361
485.66	89.746
486.01	90.620
486.36	91.823
486.70	94.023
487.05	94.855
487.40	95.113
487.75	97.244
488.09	94.776
488.44	96.810
488.79	97.805
489.13	96.382
489.48	96.708
489.83	97.276
490.17	98.911
490.52	99.579
490.87	98.146
491.22	98.116
491.56	100.815
491.91	98.944
492.26	99.178
492.60	98.076
492.95	99.368
493.30	96.366
493.64	98.321
493.99	98.309
494.34	99.085
494.68	100.143
495.03	101.087
495.37	98.297
495.72	98.997
496.07	99.075
496.41	99.298
496.76	97.349
497.11	97.793
497.45	99.805
497.80	99.495
498.14	99.093
498.49	99.496
498.84	100.658
499.18	98.656
499.53	98.572
499.87	98.011
500.22	98.706
500.56	99.298
500.91	98.944
501.26	99.507
501.60	99.510
501.95	98.275
502.29	99.515
502.64	100.096
502.98	97.640
503.33	98.832
503.67	98.685
504.02	98.333
504.36	98.762
504.71	99.898
505.06	100.866
505.40	100.722
505.75	100.560
506.09	101.482
506.44	99.194
506.78	100.203
507.13	100.468
507.47	100.477
507.82	100.523
508.16	100.317
508.51	100.207
508.85	99.585
509.19	101.217
509.54	101.501
509.88	101.452
510.23	101.158
510.57	101.218
510.92	101.940
511.26	102.860
511.61	101.372
511.95	102.646
512.30	101.055
512.64	102.951
512.98	101.440
513.33	101.915
513.67	102.499
514.02	102.452
514.36	102.753
514.70	103.464
515.05	104.798
515.39	104.009
515.74	104.085
516.08	102.360
516.42	102.535
516.77	104.979
517.11	104.821
517.46	105.222
517.80	105.993
518.14	103.613
518.49	103.014
518.83	103.282
519.17	102.169
519.52	105.127
519.86	105.647
520.20	105.033
520.55	104.291
520.89	106.135
521.23	106.474
521.58	105.183
521.92	104.463
522.26	106.962
522.61	106.270
522.95	106.606
523.29	105.714
523.64	106.548
523.98	106.417
524.32	104.285
524.66	106.753
525.01	107.208
525.35	107.044
525.69	105.699
526.04	105.016
526.38	103.888
526.72	105.128
527.06	104.900
527.41	107.015
527.75	107.810
528.09	108.237
528.43	108.548
528.78	105.685
529.12	105.369
529.46	104.990
529.80	105.437
530.15	103.282
530.49	107.547
530.83	107.515
531.17	106.986
531.51	104.585
531.86	106.436
532.20	106.616
532.54	107.724
532.88	106.467
533.22	106.734
533.57	107.815
533.91	106.258
534.25	108.529
534.59	105.534
534.93	105.548
535.27	104.586
535.62	106.842
535.96	105.921
536.30	106.848
536.64	105.673
536.98	104.555
537.32	107.117
537.66	105.219
538.01	106.311
538.35	106.768
538.69	105.953
539.03	102.416
539.37	105.366
539.71	104.980
540.05	104.049
540.39	103.304
540.73	104.958
541.07	104.218
541.42	104.040
541.76	104.804
542.10	103.724
542.44	104.712
542.78	105.135
543.12	103.437
543.46	103.110
543.80	102.987
544.14	104.474
544.48	103.849
544.82	103.295
545.16	104.327
545.50	103.781
545.84	103.857
546.18	103.717
546.52	103.035
546.86	102.261
547.20	102.359
547.54	103.931
547.88	102.699
548.22	102.866
548.56	102.668
548.90	103.518
549.24	104.583
549.58	103.132
549.92	105.576
550.26	106.421
550.60	105.781
550.94	104.701
551.28	103.861
551.62	105.414
551.96	101.903
552.30	104.367
552.64	103.319
552.98	105.753
553.32	106.056
553.66	107.263
554.00	105.688
554.34	106.520
554.68	105.817
555.02	104.940
555.36	105.749
555.69	105.608
556.03	104.646
556.37	103.201
556.71	102.383
557.05	105.683
557.39	105.124
557.73	106.127
558.07	105.878
558.41	106.586
558.75	105.312
559.08	107.618
559.42	108.183
559.76	104.281
560.10	107.302
560.44	104.348
560.78	106.115
561.12	105.046
561.45	101.565
561.79	103.920
562.13	104.360
562.47	105.786
562.81	105.483
563.15	102.762
563.48	102.409
563.82	105.267
564.16	103.318
564.50	104.478
564.84	103.446
565.17	102.980
565.51	103.877
565.85	103.931
566.19	105.497
566.52	102.359
566.86	101.580
567.20	103.054
567.54	99.252
567.88	100.448
568.21	99.402
568.55	98.539
568.89	98.953
569.23	98.075
569.56	97.539
569.90	95.054
570.24	93.682
570.57	93.722
570.91	93.941
571.25	93.631
571.59	92.814
571.92	92.813
572.26	93.258
572.60	93.194
572.93	93.721
573.27	91.831
573.61	92.773
573.95	92.015
574.28	92.214
574.62	90.496
574.96	91.855
575.29	91.274
575.63	91.913
575.97	92.391
576.30	91.327
576.64	92.167
576.98	91.574
577.31	91.389
577.65	89.993
577.98	90.648
578.32	90.008
578.66	89.912
578.99	90.728
579.33	91.129
579.67	92.464
580.00	90.311
580.34	90.499
580.67	91.401
581.01	89.855
581.35	89.689
581.68	88.548
582.02	89.802
582.35	90.794
582.69	89.855
583.02	89.538
583.36	92.155
583.70	91.173
584.03	91.480
584.37	91.339
584.70	90.706
585.04	92.025
585.37	91.373
585.71	91.317
586.04	91.604
586.38	91.502
586.72	91.009
587.05	92.640
587.39	91.420
587.72	92.633
588.06	91.409
588.39	92.024
588.73	92.208
589.06	93.631
589.40	92.845
589.73	93.856
590.07	92.891
590.40	93.866
590.73	96.070
591.07	94.902
591.40	94.087
591.74	94.976
592.07	96.577
592.41	96.353
592.74	94.213
593.08	92.479
593.41	92.197
593.75	91.279
594.08	92.573
594.41	93.638
594.75	93.966
595.08	94.324
595.42	92.484
595.75	92.878
596.09	94.226
596.42	93.913
596.75	93.374
597.09	96.451
597.42	96.007
597.75	94.133
598.09	94.718
598.42	94.765
598.76	93.913
599.09	94.958
599.42	92.145
599.76	93.729
600.09	92.809
600.42	93.522
600.76	93.163
601.09	93.183
601.42	93.532
601.76	91.544
602.09	93.636
602.42	94.387
602.76	95.386
603.09	94.743
603.42	93.603
603.76	92.595
604.09	92.846
604.42	92.842
604.76	94.849
605.09	94.971
605.42	95.277
605.75	94.047
606.09	92.964
606.42	93.599
606.75	94.069
607.09	94.282
607.42	93.958
607.75	92.691
608.08	93.417
608.42	94.892
608.75	95.700
609.08	95.247
609.41	94.386
609.75	95.966
610.08	95.710
610.41	95.335
610.74	95.284
611.07	94.940
611.41	95.087
611.74	94.565
612.07	93.121
612.40	95.946
612.73	95.554
613.07	95.898
613.40	97.907
613.73	95.666
614.06	96.130
614.39	95.442
614.72	95.447
615.06	96.000
615.39	96.634
615.72	94.492
616.05	97.016
616.38	96.621
616.71	94.781
617.05	98.034
617.38	97.843
617.71	97.243
618.04	94.942
618.37	99.432
618.70	97.413
619.03	99.107
619.36	99.075
619.69	98.830
620.03	97.032
620.36	96.312
620.69	97.288
621.02	99.462
621.35	100.245
621.68	100.163
622.01	101.618
622.34	99.841
622.67	101.644
623.00	99.696
623.33	98.953
623.66	98.736
623.99	99.400
624.32	97.506
624.65	99.629
624.99	98.898
625.32	98.656
625.65	100.233
625.98	100.395
626.31	99.347
626.64	102.666
626.97	102.249
627.30	101.198
627.63	100.865
627.96	100.779
628.29	104.465
628.62	103.965
628.95	105.210
629.28	104.335
629.61	102.201
629.94	102.805
630.26	104.532
630.59	103.896
630.92	102.811
631.25	103.296
631.58	106.317
631.91	103.712
632.24	104.940
632.57	105.333
632.90	109.218
633.23	106.475
633.56	107.554
633.89	106.818
634.22	109.894
634.55	109.257
634.88	106.740
635.20	107.750
635.53	108.656
635.86	110.641
636.19	107.444
636.52	108.049
636.85	105.669
637.18	104.263
637.51	107.491
637.83	107.702
638.16	109.067
638.49	108.411
638.82	107.712
639.15	108.644
639.48	108.824
639.81	108.333
640.13	110.845
640.46	109.887
640.79	108.921
641.12	111.686
641.45	107.860
641.77	109.278
642.10	109.228
642.43	112.421
642.76	108.991
643.09	108.946
643.41	113.876
643.74	112.116
644.07	112.136
644.40	111.277
644.73	112.881
645.05	117.103
645.38	109.468
645.71	112.245
646.04	107.912
646.36	114.757
646.69	113.811
647.02	114.208
647.35	116.819
647.67	112.384
648.00	113.043
648.33	110.678
648.66	109.349
648.98	105.745
649.31	107.975
649.64	108.607
649.96	107.741
650.29	108.987
650.62	103.954
650.94	109.310
651.27	112.544
651.60	111.888
651.92	111.649
652.25	109.715
652.58	106.436
652.90	108.923
653.23	109.508
653.56	107.934
653.88	106.314
654.21	108.362
654.54	104.319
654.86	106.179
655.19	100.420
655.52	97.357
655.84	84.909
656.17	96.787
656.49	100.000
656.82	100.000
657.15	100.000
657.47	100.000
657.80	61.441
658.13	56.579
658.45	84.701
658.78	85.168
659.10	84.770
659.43	85.018
659.75	86.455
660.08	87.724
660.41	92.799
660.73	99.449
661.06	104.252
661.38	107.558
661.71	110.861
662.03	111.628
662.36	114.381
662.68	111.183
663.01	112.500
663.33	108.639
663.66	109.313
663.98	112.584
664.31	113.407
664.63	111.036
664.96	110.722
665.28	107.940
665.61	108.207
665.93	110.064
666.26	109.283
666.58	105.353
666.91	115.695
667.23	110.369
667.56	112.414
667.88	113.785
668.21	106.473
668.53	112.874
668.86	116.307
669.18	111.348
669.50	105.760
669.83	113.365
670.15	111.429
670.48	108.966
670.80	108.753
671.13	110.069
671.45	108.447
671.77	106.681
672.10	104.678
672.42	103.435
672.75	102.143
673.07	102.727
673.39	104.291
673.72	108.782
674.04	106.352
674.37	103.659
674.69	104.115
675.01	105.983
675.34	110.503
675.66	108.279
675.98	105.531
676.31	107.692
676.63	107.937
676.95	111.294
677.28	109.633
677.60	112.500
677.92	107.982
678.25	104.772
678.57	104.073
678.89	105.544
679.22	102.484
679.54	104.694
679.86	102.930
680.18	101.731
680.51	101.923
680.83	98.635
681.15	101.375
681.48	100.601
681.80	103.067
682.12	102.292
682.44	98.994
682.77	101.684
683.09	101.339
683.41	106.512
683.73	102.009
684.06	101.991
684.38	100.641
684.70	101.426
685.02	103.719
685.34	102.348
685.67	103.940
685.99	97.331
686.31	93.276
686.63	96.140
686.96	95.918
687.28	100.399
687.60	100.945
687.92	100.000
688.24	99.200
688.56	105.263
688.89	99.555
689.21	99.552
689.53	99.775
689.85	97.978
690.17	104.396
690.49	108.213
690.82	103.341
691.14	108.696
691.46	101.624
691.78	101.099
692.10	99.788
692.42	97.143
692.74	99.130
693.06	101.348
693.39	103.044
693.71	100.222
694.03	98.409
694.35	98.649
694.67	100.750
694.99	102.577
695.31	103.359
695.63	98.049
695.95	100.509
696.27	103.288
696.59	96.237
696.91	101.676
697.23	96.447
697.56	101.199
697.88	91.476
698.20	97.408
698.52	95.794
698.84	100.239
699.16	95.981
699.48	98.272
699.80	102.326
700.12	98.928
700.44	98.310
700.76	97.753
701.08	101.813
701.40	105.090
701.72	103.385
702.04	105.031
702.36	101.524
702.68	100.610
703.00	102.632
703.32	96.936
703.64	101.807
703.96	103.812
704.28	96.084
704.60	102.439
704.91	100.627
705.23	101.266
705.55	103.103
705.87	104.930
706.19	104.396
706.51	99.648
706.83	96.178
707.15	98.476
707.47	98.072
707.79	91.371
708.11	98.458
708.43	95.939
708.74	95.479
709.06	93.850
709.38	97.983
709.70	97.598
710.02	99.065
710.34	95.000
710.66	96.091
710.98	97.833
711.29	96.753
711.61	96.129
711.93	94.194
712.25	97.203
712.57	97.544
712.89	100.366
713.20	101.418
713.52	105.474
713.84	94.839
714.16	97.087
714.48	96.203
714.80	94.569
715.11	92.442
715.43	96.273
715.75	96.584
716.07	93.373
716.39	93.939
716.70	97.842
717.02	102.745
717.34	93.939
717.66	102.586
717.97	96.825
718.29	99.213
718.61	103.863
718.93	94.574
719.24	95.572
719.56	91.760
719.88	99.627
720.20	101.186
720.51	96.094
720.83	101.167
721.15	96.341
721.46	93.130
721.78	100.398
722.10	94.821
722.42	96.774
722.73	93.436
723.05	100.408
723.37	94.538
723.68	82.800
724.00	91.064
724.32	96.653
724.63	99.588
724.95	90.171
725.27	95.781
725.58	98.354
725.90	102.092
726.22	85.507
726.53	89.804
726.85	92.701
727.16	90.370
727.48	94.636
727.80	87.500
728.11	90.984
728.43	89.453
728.74	94.841
729.06	88.000
729.38	93.676
729.69	87.189
730.01	90.706
730.32	85.240
730.64	91.667
730.96	86.713
731.27	88.294
731.59	90.476
731.90	86.084
732.22	82.372
732.53	83.784
732.85	82.215
733.16	87.459
733.48	84.797
733.80	88.514
734.11	89.527
734.43	83.282
734.74	87.087
735.06	80.980
735.37	82.675
735.69	84.142
736.00	80.858
736.32	89.007
736.63	84.828
736.95	86.644
737.26	82.069
737.58	86.806
737.89	86.598
738.21	82.206
738.52	87.072
738.83	86.122
739.15	91.561
739.46	87.160
739.78	81.338
740.09	82.192
740.41	82.500
740.72	81.915
741.04	83.200
741.35	91.228
741.66	77.333
741.98	88.942
742.29	88.614
742.61	89.268
742.92	90.351
743.23	88.679
743.55	84.685
743.86	82.960
744.18	89.706
744.49	93.401
744.80	97.449
745.12	85.047
745.43	88.152
745.74	89.640
746.06	87.850
746.37	86.239
746.68	87.019
747.00	88.995
747.31	87.981
747.62	93.578
747.94	90.393
748.25	87.615
748.56	90.667
748.88	87.793
749.19	91.905
749.50	86.408
749.82	85.915
750.13	83.333
750.44	81.154
750.75	82.288
751.07	84.698
751.38	76.241
751.69	84.170
752.01	85.938
752.32	83.846
752.63	80.224
752.94	84.800
753.26	81.590
753.57	81.667
753.88	80.567
754.19	83.267
754.51	83.459
754.82	73.626
755.13	82.609
755.44	84.553
755.75	84.400
756.07	80.443
756.38	76.619
756.69	81.229
757.00	74.766
757.31	78.317
757.63	76.543
757.94	77.966
758.25	74.074
758.56	74.457
758.87	75.000
759.18	74.763
759.50	81.481
759.81	81.271
760.12	79.385
760.43	74.107
760.74	74.294
761.05	71.823
761.36	69.054
761.67	72.508
761.99	75.258
762.30	74.818
762.61	76.955
762.92	79.487
763.23	79.918
763.54	87.446
763.85	78.776
764.16	76.423
764.47	79.600
764.78	74.286
765.10	75.738
765.41	72.948
765.72	69.255
766.03	75.248
766.34	80.000
766.65	78.243
766.96	74.178
767.27	80.198
767.58	75.281
767.89	87.654
768.20	74.586
768.51	79.397
768.82	81.731
769.13	76.549
769.44	76.987
769.75	70.085
770.06	78.027
770.37	82.353
770.68	76.214
770.99	79.126
771.30	71.008
771.61	70.612
771.92	75.519
772.23	72.072
772.54	73.481
772.85	73.256
773.16	73.016
773.47	77.515
773.78	74.138
774.09	79.375
774.39	72.050
774.70	83.673
775.01	76.552
775.32	80.000
775.63	83.459
775.94	69.925
776.25	70.400
776.56	77.686
776.87	81.746
777.18	75.676
777.48	93.694
777.79	77.953
778.10	94.495
778.41	74.561
778.72	82.353
779.03	64.085
779.34	83.784
779.65	78.169
779.95	70.199
780.26	71.942
780.57	77.698
780.88	59.859
781.19	73.950
781.50	81.879
781.80	69.591
782.11	65.698
782.42	74.843
782.73	67.974
783.04	71.034
783.34	69.466
783.65	61.074
783.96	76.154
784.27	71.429
784.57	68.085
784.88	73.077
785.19	78.182
785.50	64.545
785.81	68.571
786.11	72.269
786.42	75.221
786.73	70.755
787.04	67.890
787.34	76.238
787.65	66.667
787.96	73.554
788.26	68.841
788.57	63.492
788.88	69.106
789.19	61.600
789.49	58.779
789.80	71.212
790.11	71.698
790.41	61.386
790.72	80.851
791.03	71.739
791.33	76.471
791.64	86.420
791.95	81.522
792.25	67.045
792.56	82.051
792.87	58.974
793.17	58.974
793.48	77.381
793.79	65.000
794.09	70.192
794.40	65.625
794.70	73.874
795.01	64.063
795.32	59.130
795.62	72.826
795.93	64.151
796.23	61.616
796.54	56.098
796.85	72.619
797.15	71.212
797.46	75.362
797.76	56.579
798.07	68.182
798.37	64.634
798.68	45.161
798.99	52.703
799.29	51.807
799.60	34.615
799.90	69.231
800.21	71.212
800.51	46.667
800.82	64.000
801.12	37.500
801.43	56.667
801.73	54.054
802.04	62.857
802.34	47.541
802.65	64.179
802.95	63.636
803.26	65.517
803.56	63.077
803.87	69.811
804.17	61.290
804.48	54.412
804.78	75.610
805.09	56.522
805.39	47.059
805.70	40.426
806.00	54.386
806.30	61.538
806.61	57.895
806.91	60.811
807.22	57.895
807.52	59.091
807.83	62.712
808.13	27.273
808.43	75.000
808.74	36.207
809.04	57.143
809.35	55.102
809.65	71.667
809.95	65.306
810.26	49.296
810.56	58.333
810.86	67.347
811.17	80.769
811.47	51.064
811.77	58.333
812.08	52.830
812.38	84.375
812.69	56.364
812.99	63.415
813.29	62.162
813.59	43.243
813.90	54.545
814.20	58.182
814.50	45.000
814.81	60.000
815.11	63.158
815.41	74.419
815.72	52.500
816.02	57.143
816.32	62.162
816.62	52.083
816.93	55.556
817.23	55.556
817.53	41.667
817.84	45.946
818.14	65.854
818.44	54.000
818.74	42.857
819.04	29.268
819.35	61.111
819.65	63.636
819.95	16.667
820.25	57.576
820.56	33.333
820.86	16.667
821.16	43.182
821.46	36.957
821.76	31.034
822.07	36.957
822.37	93.939
822.67	87.805
822.97	27.027
823.27	22.857
823.57	51.724
823.88	29.412
824.18	58.333
824.48	37.143
824.78	23.810
825.08	75.000
825.38	88.889
825.69	67.742
825.99	73.171
826.29	55.556
826.59	53.125
826.89	58.065
827.19	4.348
827.49	22.222
827.79	82.609
828.09	35.484
828.39	50.000
828.70	-9.375
829.00	44.828
829.30	40.541
829.60	16.667
829.90	18.519
830.20	34.375
830.50	68.182
830.80	-64.706
831.10	68.182
831.40	-5.882
831.70	23.077
832.00	45.455
832.30	35.294
832.60	45.946
832.90	100.000
833.20	21.429
833.50	0.000
833.80	44.737
834.10	8.333
834.40	0.000
834.70	46.667
835.00	70.000
835.30	29.167
835.60	47.619
835.90	28.571
836.20	32.000
836.50	25.000
836.80	21.053
837.10	24.324
837.40	36.667
837.70	13.043
838.00	75.000
838.30	21.053
838.60	40.000
838.90	0.000
839.19	50.000
839.49	23.077
839.79	26.316
840.09	-200.000
840.39	50.000
840.69	31.818
840.99	4.762
841.29	25.000
841.59	-30.769
841.88	-13.333
842.18	14.286
842.48	50.000
842.78	-14.286
843.08	7.143
843.38	-12.500
843.68	-93.750
843.97	71.429
844.27	-66.667
844.57	-27.273
844.87	-113.333
845.17	27.273
845.47	466.667
845.76	-13.333
846.06	-75.000
846.36	-500.000
846.66	-15.789
846.96	-40.909
847.25	-50.000
847.55	-100.000
847.85	-9.524
848.15	23.077
848.44	-100.000
848.74	8.333
849.04	-61.538
849.34	-225.000
849.63	-45.455
849.93	-64.286
850.23	30.000
850.53	-150.000
850.82	22.222
851.12	-33.333
851.42	5.882
851.71	-50.000
852.01	29.412
852.31	-7.692
852.61	350.000
852.90	0.000
853.20	6.667
853.50	-31.250
853.79	-85.714
854.09	-275.000
854.39	25.000
854.68	25.000
854.98	-4.762
855.28	24.000
855.57	12.500
855.87	0.000
856.17	-12.000
856.46	12.500
856.76	25.000
857.05	4.000
857.35	-75.000
857.65	0.000
857.94	-66.667
858.24	-91.667
858.53	25.000
858.83	-100.000
859.13	20.000
859.42	7.143
859.72	-100.000
860.01	-8.333
860.31	-137.500
860.60	-31.250
860.90	-150.000
861.20	-16.667
861.49	6.667
861.79	-50.000
862.08	175.000
862.38	-58.333
862.67	271.429
862.97	25.000
863.26	-72.727
863.56	-81.818
863.85	5.263
864.15	-5.882
864.44	-200.000
864.74	20.000
865.03	-33.333
865.33	21.429
865.62	114.286
865.92	-15.789
866.21	-11.111
866.51	18.182
866.80	-22.222
867.10	-137.500
867.39	-37.500
867.69	-20.000
867.98	-40.000
868.27	35.294
868.57	0.000
868.86	800.000
869.16	-150.000
869.45	-285.714
869.75	350.000
870.04	-10.000
870.33	-2200.000
870.63	-15.789
870.92	-25.000
871.22	-1200.000
871.51	-128.571
871.80	-122.222
872.10	-175.000
>>>>>End Processed Spectral Data<<<<<
