SpectraSuite Data File
++++++++++++++++++++++++++++++++++++
Date: Tue May 12 17:22:16 PDT 2015
User: schluterlab
Dark Spectrum Present: Yes
Reference Spectrum Present: Yes
Number of Sampled Component Spectra: 1
Spectrometers: USB2E3373
Integration Time (usec): 3000 (USB2E3373)
Spectra Averaged: 3 (USB2E3373)
Boxcar Smoothing: 0 (USB2E3373)
Correct for Electrical Dark: No (USB2E3373)
Strobe/Lamp Enabled: No (USB2E3373)
Correct for Detector Non-linearity: No (USB2E3373)
Correct for Stray Light: No (USB2E3373)
Number of Pixels in Processed Spectrum: 2048
>>>>>Begin Processed Spectral Data<<<<<
178.53	0.000
178.91	-241.667
179.29	-650.000
179.67	-3700.000
180.04	-86.667
180.42	450.000
180.80	1700.000
181.18	0.000
181.56	-312.500
181.94	0.000
182.31	933.333
182.69	-2400.000
183.07	600.000
183.45	-3200.000
183.83	-1550.000
184.20	390.000
184.58	485.714
184.96	-238.462
185.34	-200.000
185.72	1850.000
186.09	-625.000
186.47	-3000.000
186.85	1166.667
187.23	580.000
187.61	1550.000
187.98	525.000
188.36	242.857
188.74	291.667
189.12	341.667
189.49	1000.000
189.87	0.000
190.25	612.500
190.63	3000.000
191.00	-150.000
191.38	-4100.000
191.76	-900.000
192.14	475.000
192.51	-3600.000
192.89	1500.000
193.27	1200.000
193.65	-1200.000
194.02	-720.000
194.40	500.000
194.78	-264.286
195.15	273.333
195.53	-3500.000
195.91	-580.000
196.29	3800.000
196.66	212.500
197.04	775.000
197.42	-1650.000
197.79	650.000
198.17	258.333
198.55	0.000
198.92	400.000
199.30	1066.667
199.68	1850.000
200.05	650.000
200.43	-533.333
200.81	238.889
201.18	3600.000
201.56	308.333
201.94	-1075.000
202.31	-312.500
202.69	-460.000
203.07	3200.000
203.44	-600.000
203.82	391.667
204.19	760.000
204.57	-1800.000
204.95	-775.000
205.32	-780.000
205.70	416.667
206.08	750.000
206.45	-1100.000
206.83	377.778
207.20	242.105
207.58	358.333
207.96	680.000
208.33	0.000
208.71	528.571
209.08	820.000
209.46	-2600.000
209.84	-875.000
210.21	900.000
210.59	-540.000
210.96	250.000
211.34	-1050.000
211.71	309.091
212.09	1175.000
212.46	2150.000
212.84	-416.667
213.22	422.222
213.59	-3500.000
213.97	320.000
214.34	1000.000
214.72	1166.667
215.09	900.000
215.47	-2700.000
215.84	-340.000
216.22	-337.500
216.59	0.000
216.97	0.000
217.34	1700.000
217.72	-1400.000
218.09	1366.667
218.47	550.000
218.84	925.000
219.22	933.333
219.59	833.333
219.97	471.429
220.34	433.333
220.72	1800.000
221.09	3300.000
221.47	316.667
221.84	1100.000
222.22	340.000
222.59	294.444
222.97	242.857
223.34	293.750
223.72	-2050.000
224.09	1066.667
224.46	230.769
224.84	-1000.000
225.21	422.222
225.59	313.333
225.96	1300.000
226.34	-620.000
226.71	-800.000
227.08	-400.000
227.46	0.000
227.83	-383.333
228.21	-1600.000
228.58	383.333
228.95	1275.000
229.33	422.222
229.70	900.000
230.08	323.077
230.45	2900.000
230.82	-950.000
231.20	-933.333
231.57	-1100.000
231.95	640.000
232.32	333.333
232.69	616.667
233.07	316.667
233.44	-1400.000
233.81	286.667
234.19	151.852
234.56	218.750
234.93	252.941
235.31	180.000
235.68	193.750
236.05	139.286
236.43	181.481
236.80	185.714
237.17	141.379
237.55	140.625
237.92	117.500
238.29	139.394
238.67	159.375
239.04	109.756
239.41	79.167
239.79	72.500
240.16	87.500
240.53	65.574
240.91	76.812
241.28	86.441
241.65	65.152
242.02	76.056
242.40	75.714
242.77	63.736
243.14	60.759
243.51	63.636
243.89	46.729
244.26	52.336
244.63	56.436
245.00	54.128
245.38	44.915
245.75	50.758
246.12	53.333
246.49	34.752
246.87	40.984
247.24	40.000
247.61	40.625
247.98	38.095
248.36	33.333
248.73	43.878
249.10	38.095
249.47	42.500
249.84	37.811
250.22	36.216
250.59	32.500
250.96	37.553
251.33	29.302
251.70	37.054
252.08	31.933
252.45	30.279
252.82	28.137
253.19	27.668
253.56	31.538
253.94	30.797
254.31	27.907
254.68	32.753
255.05	34.483
255.42	31.387
255.79	32.573
256.16	29.831
256.54	33.766
256.91	28.758
257.28	30.100
257.65	31.661
258.02	29.499
258.39	30.659
258.76	27.826
259.14	25.429
259.51	28.280
259.88	29.787
260.25	23.626
260.62	25.205
260.99	26.171
261.36	25.905
261.73	25.532
262.10	28.796
262.47	28.250
262.85	29.867
263.22	26.992
263.59	27.110
263.96	25.815
264.33	25.432
264.70	27.764
265.07	25.122
265.44	26.835
265.81	28.302
266.18	26.545
266.55	26.241
266.92	28.188
267.29	26.535
267.66	25.561
268.03	26.457
268.40	25.370
268.77	27.753
269.14	24.295
269.51	24.944
269.88	27.551
270.25	22.246
270.62	26.180
270.99	25.152
271.36	26.220
271.73	24.528
272.10	21.616
272.47	21.429
272.84	21.557
273.21	25.000
273.58	26.316
273.95	21.355
274.32	26.265
274.69	26.772
275.06	25.319
275.43	24.713
275.80	23.962
276.17	22.978
276.54	27.477
276.91	25.187
277.28	23.175
277.65	23.801
278.02	25.184
278.39	24.820
278.76	23.966
279.13	22.776
279.50	21.455
279.87	21.788
280.23	22.836
280.60	24.635
280.97	22.586
281.34	22.607
281.71	22.957
282.08	24.103
282.45	23.142
282.82	24.080
283.19	23.370
283.56	22.314
283.92	21.498
284.29	25.291
284.66	22.017
285.03	22.056
285.40	20.826
285.77	21.605
286.14	25.232
286.51	24.233
286.87	19.937
287.24	22.222
287.61	21.125
287.98	22.239
288.35	22.667
288.72	23.520
289.08	22.372
289.45	23.628
289.82	21.875
290.19	21.816
290.56	22.416
290.93	22.878
291.29	21.271
291.66	22.599
292.03	21.599
292.40	21.951
292.77	19.499
293.13	21.255
293.50	21.188
293.87	19.648
294.24	22.657
294.60	23.149
294.97	20.699
295.34	20.983
295.71	23.653
296.08	21.200
296.44	21.474
296.81	20.844
297.18	19.772
297.55	21.059
297.91	19.951
298.28	20.531
298.65	20.736
299.02	21.472
299.38	21.463
299.75	19.512
300.12	22.248
300.48	20.609
300.85	20.501
301.22	21.860
301.59	20.755
301.95	19.837
302.32	21.187
302.69	21.154
303.05	23.008
303.42	20.740
303.79	21.452
304.15	20.022
304.52	21.142
304.89	21.748
305.25	23.137
305.62	21.642
305.99	21.413
306.35	21.053
306.72	21.852
307.09	21.636
307.45	20.591
307.82	20.267
308.19	21.856
308.55	21.900
308.92	24.338
309.29	23.669
309.65	24.182
310.02	24.138
310.38	23.529
310.75	23.529
311.12	24.042
311.48	25.000
311.85	26.050
312.22	25.501
312.58	25.656
312.95	25.728
313.31	26.217
313.68	25.610
314.05	27.289
314.41	27.281
314.78	29.830
315.14	29.194
315.51	29.234
315.87	28.650
316.24	29.879
316.61	29.902
316.97	30.275
317.34	32.794
317.70	31.870
318.07	31.940
318.43	32.513
318.80	34.238
319.16	34.266
319.53	35.310
319.89	35.753
320.26	37.151
320.62	38.278
320.99	37.560
321.35	38.590
321.72	40.228
322.08	40.720
322.45	41.689
322.81	41.446
323.18	43.783
323.54	44.861
323.91	46.782
324.27	47.126
324.64	47.405
325.00	51.121
325.37	51.433
325.73	52.277
326.10	54.018
326.46	54.666
326.83	53.840
327.19	58.153
327.56	58.466
327.92	59.836
328.29	60.966
328.65	61.387
329.01	63.815
329.38	62.437
329.74	63.023
330.11	65.248
330.47	66.667
330.84	65.487
331.20	65.736
331.56	68.653
331.93	68.435
332.29	66.241
332.66	69.133
333.02	67.440
333.38	72.600
333.75	68.641
334.11	71.225
334.48	69.658
334.84	70.101
335.20	70.830
335.57	70.445
335.93	72.077
336.29	71.973
336.66	73.928
337.02	71.001
337.38	73.603
337.75	73.395
338.11	73.249
338.47	72.904
338.84	72.227
339.20	73.939
339.56	72.750
339.93	73.579
340.29	71.261
340.65	75.775
341.02	73.210
341.38	75.534
341.74	75.166
342.11	74.374
342.47	74.897
342.83	75.718
343.20	76.071
343.56	73.550
343.92	76.135
344.28	75.439
344.65	77.343
345.01	74.206
345.37	74.840
345.73	74.524
346.10	75.458
346.46	74.322
346.82	75.694
347.19	75.193
347.55	75.098
347.91	75.227
348.27	75.678
348.63	77.136
349.00	76.314
349.36	77.821
349.72	77.676
350.08	78.416
350.45	77.228
350.81	76.682
351.17	76.656
351.53	76.982
351.89	77.778
352.26	76.493
352.62	77.903
352.98	77.991
353.34	78.505
353.70	76.376
354.07	79.462
354.43	79.724
354.79	75.702
355.15	78.025
355.51	78.399
355.87	79.367
356.24	79.138
356.60	79.148
356.96	79.378
357.32	77.995
357.68	78.634
358.04	79.711
358.40	78.861
358.77	79.189
359.13	79.955
359.49	78.577
359.85	81.459
360.21	78.752
360.57	78.248
360.93	78.644
361.29	80.952
361.66	82.550
362.02	78.409
362.38	79.798
362.74	80.821
363.10	81.417
363.46	80.870
363.82	80.014
364.18	80.512
364.54	81.116
364.90	81.124
365.26	81.957
365.62	82.182
365.98	80.454
366.35	81.034
366.71	80.708
367.07	82.116
367.43	80.792
367.79	80.253
368.15	80.054
368.51	81.254
368.87	81.454
369.23	82.259
369.59	81.119
369.95	82.378
370.31	80.767
370.67	80.500
371.03	81.232
371.39	82.064
371.75	81.368
372.11	81.169
372.47	81.644
372.83	83.277
373.19	82.180
373.55	82.405
373.91	82.390
374.27	80.622
374.63	83.186
374.99	83.221
375.35	83.401
375.71	82.124
376.07	82.759
376.42	80.115
376.78	83.494
377.14	82.372
377.50	82.335
377.86	81.230
378.22	82.023
378.58	83.293
378.94	82.378
379.30	83.141
379.66	81.878
380.02	82.581
380.38	82.963
380.74	82.065
381.09	83.703
381.45	82.254
381.81	82.033
382.17	82.845
382.53	82.783
382.89	81.609
383.25	82.948
383.61	81.383
383.97	81.644
384.32	82.278
384.68	82.828
385.04	82.767
385.40	81.673
385.76	82.212
386.12	82.560
386.48	83.343
386.83	83.496
387.19	82.450
387.55	81.861
387.91	82.506
388.27	82.332
388.62	81.279
388.98	81.808
389.34	80.726
389.70	81.191
390.06	81.890
390.42	82.295
390.77	81.020
391.13	82.498
391.49	82.940
391.85	81.662
392.20	80.989
392.56	80.287
392.92	79.618
393.28	81.502
393.64	82.167
393.99	81.328
394.35	80.224
394.71	81.122
395.07	80.231
395.42	81.030
395.78	81.370
396.14	81.928
396.50	81.408
396.85	80.549
397.21	82.190
397.57	79.498
397.92	80.069
398.28	80.916
398.64	79.697
399.00	78.461
399.35	77.563
399.71	78.698
400.07	80.365
400.42	78.627
400.78	80.938
401.14	81.092
401.49	79.435
401.85	78.273
402.21	79.028
402.57	79.593
402.92	79.636
403.28	78.222
403.63	77.222
403.99	77.986
404.35	79.367
404.70	78.795
405.06	79.169
405.42	78.516
405.77	77.067
406.13	76.844
406.49	77.032
406.84	76.593
407.20	77.797
407.55	77.662
407.91	77.601
408.27	78.108
408.62	77.646
408.98	77.528
409.34	76.973
409.69	76.727
410.05	76.744
410.40	75.559
410.76	76.073
411.11	77.014
411.47	77.284
411.83	75.864
412.18	76.570
412.54	76.156
412.89	75.870
413.25	75.257
413.60	76.110
413.96	76.900
414.31	77.273
414.67	78.212
415.03	76.692
415.38	77.729
415.74	76.627
416.09	76.765
416.45	77.182
416.80	78.063
417.16	75.939
417.51	75.669
417.87	76.471
418.22	76.367
418.58	77.516
418.93	76.086
419.29	75.539
419.64	77.650
420.00	76.969
420.35	78.281
420.71	76.488
421.06	78.105
421.42	77.317
421.77	77.735
422.12	77.563
422.48	75.912
422.83	77.344
423.19	76.674
423.54	75.809
423.90	77.633
424.25	77.931
424.61	77.075
424.96	76.398
425.31	77.066
425.67	78.451
426.02	78.071
426.38	77.538
426.73	78.890
427.09	78.826
427.44	77.378
427.79	79.074
428.15	80.082
428.50	78.229
428.85	78.072
429.21	77.958
429.56	75.972
429.92	77.822
430.27	76.778
430.62	75.281
430.98	75.898
431.33	76.613
431.68	77.086
432.04	77.031
432.39	77.497
432.74	77.986
433.10	77.187
433.45	79.035
433.80	80.640
434.16	77.719
434.51	78.483
434.86	77.409
435.22	78.552
435.57	78.008
435.92	78.543
436.28	77.362
436.63	78.444
436.98	79.110
437.34	77.911
437.69	77.716
438.04	77.527
438.39	77.583
438.75	78.452
439.10	78.467
439.45	76.993
439.81	78.774
440.16	78.976
440.51	76.745
440.86	79.772
441.22	76.623
441.57	78.425
441.92	77.690
442.27	76.959
442.63	76.931
442.98	76.024
443.33	77.022
443.68	77.062
444.03	76.767
444.39	78.343
444.74	77.122
445.09	77.988
445.44	78.215
445.79	77.680
446.15	77.895
446.50	77.532
446.85	76.693
447.20	77.512
447.55	79.663
447.91	77.251
448.26	77.210
448.61	77.446
448.96	78.322
449.31	77.613
449.66	76.689
450.02	76.877
450.37	77.290
450.72	78.017
451.07	76.614
451.42	76.526
451.77	78.522
452.12	77.141
452.47	78.129
452.83	79.380
453.18	77.477
453.53	79.041
453.88	76.914
454.23	77.397
454.58	76.865
454.93	77.131
455.28	78.397
455.63	77.778
455.98	77.496
456.34	77.629
456.69	77.988
457.04	76.969
457.39	76.629
457.74	77.196
458.09	74.958
458.44	75.685
458.79	76.499
459.14	77.032
459.49	75.481
459.84	77.500
460.19	76.045
460.54	76.923
460.89	76.866
461.24	74.742
461.59	76.757
461.94	75.650
462.29	76.659
462.64	77.513
462.99	76.008
463.34	76.280
463.69	76.044
464.04	77.605
464.39	74.642
464.74	75.147
465.09	75.334
465.44	75.626
465.79	73.979
466.14	74.457
466.49	75.583
466.84	73.969
467.19	74.810
467.54	74.234
467.89	75.939
468.24	74.754
468.59	75.179
468.94	75.181
469.29	76.420
469.64	75.498
469.99	75.771
470.34	75.206
470.68	75.103
471.03	75.183
471.38	75.695
471.73	76.682
472.08	78.213
472.43	76.226
472.78	75.800
473.13	74.656
473.48	74.633
473.83	74.912
474.17	74.954
474.52	74.763
474.87	74.531
475.22	75.899
475.57	73.085
475.92	74.400
476.27	72.579
476.61	74.424
476.96	73.354
477.31	73.985
477.66	76.221
478.01	74.575
478.36	74.202
478.70	73.350
479.05	74.791
479.40	73.264
479.75	73.486
480.10	73.040
480.45	73.996
480.79	73.548
481.14	73.134
481.49	71.866
481.84	73.791
482.19	72.445
482.53	72.288
482.88	72.670
483.23	73.703
483.58	73.115
483.92	73.766
484.27	72.389
484.62	72.708
484.97	70.316
485.31	71.050
485.66	68.503
486.01	66.704
486.36	66.661
486.70	66.069
487.05	68.264
487.40	67.830
487.75	68.620
488.09	68.580
488.44	69.344
488.79	69.976
489.13	70.735
489.48	72.553
489.83	71.184
490.17	70.727
490.52	71.964
490.87	71.422
491.22	72.695
491.56	72.200
491.91	70.744
492.26	71.403
492.60	72.346
492.95	72.179
493.30	71.292
493.64	71.878
493.99	71.020
494.34	71.672
494.68	71.226
495.03	72.205
495.37	72.580
495.72	71.888
496.07	71.069
496.41	71.199
496.76	70.747
497.11	70.737
497.45	71.109
497.80	71.594
498.14	71.151
498.49	71.031
498.84	72.243
499.18	70.887
499.53	70.969
499.87	70.305
500.22	71.396
500.56	71.495
500.91	71.846
501.26	70.785
501.60	70.628
501.95	70.251
502.29	70.489
502.64	69.696
502.98	70.076
503.33	69.577
503.67	69.934
504.02	69.592
504.36	70.045
504.71	71.239
505.06	70.530
505.40	70.051
505.75	70.065
506.09	69.855
506.44	70.818
506.78	71.503
507.13	71.837
507.47	71.082
507.82	71.290
508.16	72.024
508.51	70.966
508.85	70.608
509.19	70.338
509.54	70.605
509.88	72.004
510.23	70.049
510.57	68.581
510.92	71.029
511.26	71.536
511.61	69.966
511.95	69.736
512.30	68.850
512.64	70.613
512.98	70.015
513.33	69.723
513.67	71.517
514.02	70.494
514.36	69.990
514.70	70.773
515.05	70.964
515.39	73.520
515.74	72.827
516.08	71.024
516.42	73.060
516.77	70.987
517.11	70.453
517.46	71.713
517.80	70.563
518.14	70.930
518.49	70.948
518.83	69.945
519.17	70.438
519.52	71.928
519.86	70.736
520.20	70.027
520.55	71.566
520.89	72.011
521.23	72.664
521.58	70.912
521.92	71.895
522.26	71.801
522.61	72.965
522.95	71.892
523.29	72.222
523.64	70.289
523.98	71.831
524.32	69.089
524.66	70.551
525.01	70.592
525.35	70.006
525.69	71.222
526.04	71.802
526.38	71.572
526.72	70.406
527.06	70.313
527.41	71.221
527.75	71.820
528.09	70.620
528.43	71.080
528.78	70.602
529.12	71.824
529.46	69.199
529.80	70.093
530.15	69.711
530.49	70.036
530.83	70.384
531.17	69.988
531.51	69.221
531.86	69.867
532.20	70.148
532.54	69.868
532.88	70.956
533.22	70.689
533.57	70.531
533.91	68.298
534.25	68.609
534.59	69.123
534.93	66.553
535.27	66.648
535.62	68.261
535.96	68.499
536.30	70.810
536.64	69.565
536.98	69.163
537.32	69.500
537.66	68.686
538.01	67.616
538.35	68.559
538.69	66.505
539.03	67.724
539.37	67.476
539.71	68.642
540.05	68.062
540.39	69.937
540.73	69.873
541.07	67.503
541.42	67.724
541.76	67.448
542.10	67.448
542.44	67.706
542.78	68.345
543.12	66.871
543.46	66.980
543.80	68.421
544.14	67.245
544.48	67.640
544.82	67.401
545.16	65.634
545.50	67.240
545.84	67.929
546.18	69.636
546.52	68.393
546.86	67.698
547.20	66.990
547.54	67.131
547.88	65.146
548.22	66.242
548.56	63.936
548.90	65.362
549.24	67.783
549.58	67.075
549.92	68.107
550.26	67.275
550.60	67.265
550.94	69.471
551.28	67.310
551.62	69.034
551.96	67.635
552.30	66.974
552.64	66.214
552.98	66.688
553.32	66.069
553.66	66.254
554.00	65.701
554.34	67.776
554.68	67.272
555.02	66.056
555.36	66.423
555.69	65.772
556.03	65.223
556.37	64.818
556.71	66.037
557.05	65.990
557.39	66.267
557.73	67.790
558.07	65.862
558.41	67.718
558.75	67.305
559.08	65.475
559.42	66.858
559.76	67.427
560.10	66.139
560.44	64.035
560.78	65.473
561.12	64.717
561.45	64.330
561.79	64.295
562.13	63.929
562.47	65.347
562.81	64.997
563.15	63.025
563.48	62.609
563.82	65.066
564.16	64.241
564.50	62.929
564.84	63.526
565.17	61.913
565.51	65.209
565.85	63.911
566.19	63.631
566.52	63.658
566.86	64.273
567.20	62.809
567.54	61.190
567.88	60.981
568.21	60.160
568.55	60.117
568.89	59.991
569.23	59.060
569.56	58.546
569.90	56.917
570.24	57.342
570.57	56.749
570.91	55.881
571.25	55.457
571.59	54.851
571.92	54.790
572.26	53.935
572.60	54.402
572.93	55.664
573.27	55.370
573.61	54.169
573.95	54.382
574.28	54.435
574.62	53.633
574.96	52.735
575.29	52.615
575.63	52.721
575.97	53.432
576.30	52.316
576.64	53.320
576.98	51.753
577.31	53.236
577.65	52.541
577.98	52.299
578.32	51.549
578.66	51.128
578.99	51.961
579.33	52.548
579.67	52.042
580.00	52.442
580.34	51.341
580.67	52.058
581.01	52.820
581.35	51.819
581.68	50.778
582.02	50.734
582.35	50.644
582.69	51.228
583.02	51.365
583.36	52.521
583.70	52.294
584.03	53.443
584.37	53.130
584.70	52.028
585.04	51.463
585.37	51.353
585.71	51.775
586.04	52.024
586.38	52.574
586.72	52.149
587.05	52.419
587.39	51.656
587.72	51.891
588.06	52.520
588.39	52.661
588.73	52.847
589.06	53.312
589.40	54.210
589.73	52.868
590.07	54.118
590.40	54.111
590.73	55.086
591.07	55.674
591.40	56.088
591.74	54.383
592.07	53.702
592.41	54.396
592.74	53.680
593.08	52.734
593.41	52.334
593.75	52.035
594.08	53.003
594.41	52.981
594.75	52.397
595.08	52.469
595.42	53.061
595.75	52.024
596.09	53.041
596.42	53.095
596.75	55.809
597.09	54.684
597.42	53.469
597.75	53.834
598.09	53.262
598.42	53.570
598.76	52.583
599.09	53.145
599.42	52.318
599.76	52.103
600.09	51.051
600.42	53.177
600.76	51.971
601.09	52.019
601.42	53.467
601.76	51.629
602.09	52.612
602.42	51.719
602.76	53.321
603.09	53.017
603.42	53.541
603.76	52.748
604.09	52.552
604.42	52.203
604.76	51.995
605.09	52.776
605.42	52.499
605.75	52.467
606.09	52.525
606.42	52.499
606.75	52.934
607.09	52.704
607.42	52.069
607.75	52.189
608.08	52.071
608.42	53.188
608.75	52.674
609.08	52.750
609.41	54.227
609.75	54.716
610.08	53.327
610.41	53.711
610.74	53.810
611.07	53.615
611.41	54.402
611.74	53.011
612.07	54.287
612.40	54.630
612.73	54.868
613.07	55.347
613.40	54.185
613.73	55.117
614.06	53.250
614.39	54.596
614.72	53.692
615.06	53.066
615.39	53.267
615.72	52.807
616.05	54.596
616.38	53.374
616.71	53.717
617.05	53.377
617.38	54.719
617.71	55.062
618.04	54.571
618.37	54.808
618.70	55.716
619.03	55.006
619.36	56.344
619.69	55.673
620.03	58.056
620.36	58.125
620.69	56.130
621.02	56.182
621.35	57.307
621.68	58.038
622.01	59.336
622.34	57.393
622.67	58.638
623.00	55.888
623.33	56.950
623.66	55.422
623.99	56.096
624.32	56.640
624.65	55.826
624.99	56.998
625.32	56.713
625.65	55.172
625.98	55.858
626.31	58.309
626.64	58.162
626.97	55.853
627.30	58.385
627.63	57.771
627.96	58.842
628.29	60.396
628.62	58.426
628.95	60.018
629.28	61.350
629.61	60.018
629.94	59.723
630.26	59.532
630.59	59.929
630.92	58.924
631.25	59.927
631.58	61.427
631.91	62.512
632.24	60.641
632.57	60.118
632.90	62.836
633.23	65.058
633.56	62.276
633.89	63.344
634.22	63.186
634.55	61.505
634.88	63.855
635.20	64.574
635.53	64.111
635.86	63.758
636.19	65.208
636.52	59.892
636.85	61.489
637.18	62.947
637.51	63.911
637.83	62.929
638.16	62.720
638.49	64.311
638.82	65.845
639.15	61.692
639.48	66.706
639.81	63.614
640.13	63.926
640.46	64.475
640.79	65.280
641.12	64.698
641.45	65.977
641.77	65.786
642.10	63.989
642.43	66.145
642.76	66.619
643.09	65.994
643.41	63.534
643.74	67.914
644.07	69.174
644.40	67.751
644.73	68.619
645.05	65.825
645.38	68.453
645.71	66.464
646.04	67.176
646.36	72.144
646.69	67.520
647.02	65.120
647.35	68.031
647.67	66.937
648.00	67.264
648.33	64.962
648.66	66.364
648.98	63.913
649.31	60.864
649.64	62.794
649.96	62.589
650.29	63.714
650.62	64.507
650.94	65.211
651.27	65.550
651.60	65.571
651.92	64.516
652.25	66.457
652.58	60.851
652.90	65.120
653.23	62.334
653.56	64.095
653.88	62.849
654.21	63.930
654.54	62.811
654.86	62.094
655.19	61.478
655.52	51.618
655.84	40.621
656.17	45.710
656.49	64.893
656.82	73.979
657.15	59.769
657.47	44.978
657.80	33.415
658.13	26.567
658.45	35.840
658.78	43.092
659.10	44.385
659.43	44.841
659.75	48.291
660.08	50.439
660.41	54.174
660.73	62.986
661.06	63.213
661.38	66.099
661.71	68.705
662.03	66.920
662.36	66.667
662.68	68.343
663.01	67.027
663.33	66.038
663.66	65.878
663.98	68.056
664.31	66.418
664.63	65.709
664.96	66.041
665.28	67.608
665.61	66.038
665.93	64.906
666.26	65.421
666.58	64.954
666.91	66.023
667.23	66.466
667.56	67.762
667.88	71.577
668.21	67.828
668.53	67.339
668.86	68.136
669.18	66.191
669.50	64.050
669.83	68.172
670.15	65.281
670.48	64.648
670.80	69.323
671.13	66.534
671.45	67.335
671.77	64.935
672.10	63.016
672.42	60.362
672.75	60.759
673.07	58.824
673.39	59.425
673.72	62.976
674.04	64.695
674.37	61.887
674.69	65.613
675.01	61.567
675.34	62.984
675.66	62.305
675.98	67.061
676.31	65.400
676.63	63.022
676.95	64.484
677.28	64.097
677.60	62.575
677.92	61.310
678.25	62.791
678.57	62.942
678.89	62.749
679.22	62.684
679.54	61.388
679.86	61.780
680.18	61.687
680.51	56.716
680.83	57.939
681.15	61.005
681.48	60.069
681.80	60.595
682.12	57.439
682.44	58.559
682.77	59.609
683.09	63.301
683.41	62.653
683.73	61.024
684.06	63.294
684.38	63.953
684.70	59.712
685.02	60.069
685.34	60.739
685.67	58.039
685.99	58.785
686.31	54.391
686.63	57.398
686.96	57.843
687.28	58.054
687.60	58.191
687.92	58.626
688.24	58.621
688.56	58.541
688.89	59.656
689.21	60.694
689.53	62.846
689.85	60.366
690.17	59.612
690.49	62.702
690.82	64.496
691.14	63.030
691.46	62.218
691.78	63.743
692.10	59.542
692.42	56.987
692.74	60.271
693.06	62.209
693.39	57.708
693.71	60.314
694.03	60.552
694.35	62.048
694.67	57.637
694.99	64.523
695.31	64.414
695.63	62.217
695.95	59.955
696.27	61.504
696.59	62.053
696.91	62.532
697.23	62.670
697.56	58.714
697.88	58.683
698.20	57.170
698.52	53.696
698.84	59.548
699.16	59.488
699.48	59.534
699.80	61.220
700.12	65.589
700.44	58.411
700.76	63.007
701.08	62.924
701.40	64.156
701.72	66.043
702.04	66.125
702.36	65.591
702.68	64.096
703.00	56.391
703.32	61.787
703.64	64.484
703.96	62.760
704.28	60.053
704.60	66.197
704.91	65.546
705.23	61.932
705.55	64.392
705.87	67.302
706.19	69.279
706.51	70.846
706.83	63.127
707.15	65.241
707.47	59.322
707.79	58.621
708.11	58.503
708.43	60.000
708.74	57.240
709.06	57.209
709.38	58.809
709.70	59.673
710.02	62.772
710.34	62.431
710.66	60.000
710.98	63.388
711.29	61.281
711.61	60.167
711.93	65.653
712.25	63.253
712.57	63.987
712.89	64.242
713.20	64.217
713.52	60.436
713.84	63.444
714.16	60.000
714.48	59.654
714.80	60.163
715.11	56.383
715.43	59.777
715.75	59.437
716.07	58.960
716.39	57.714
716.70	59.813
717.02	69.697
717.34	65.827
717.66	67.708
717.97	70.455
718.29	63.732
718.61	63.514
718.93	66.436
719.24	65.772
719.56	59.655
719.88	54.777
720.20	60.323
720.51	60.784
720.83	61.204
721.15	63.946
721.46	62.329
721.78	68.990
722.10	64.583
722.42	59.532
722.73	65.343
723.05	64.912
723.37	65.018
723.68	66.406
724.00	64.015
724.32	67.300
724.63	65.385
724.95	64.314
725.27	62.454
725.58	58.824
725.90	62.324
726.22	61.986
726.53	62.542
726.85	61.889
727.16	66.443
727.48	59.468
727.80	67.626
728.11	65.714
728.43	60.507
728.74	64.336
729.06	60.573
729.38	60.702
729.69	61.667
730.01	62.829
730.32	59.396
730.64	57.807
730.96	55.556
731.27	51.988
731.59	51.724
731.90	52.089
732.22	52.857
732.53	52.422
732.85	61.696
733.16	53.012
733.48	56.113
733.80	57.391
734.11	58.896
734.43	54.094
734.74	52.815
735.06	54.233
735.37	52.577
735.69	53.623
736.00	58.104
736.32	51.818
736.63	52.366
736.95	57.143
737.26	56.707
737.58	51.534
737.89	54.518
738.21	54.305
738.52	55.518
738.83	60.806
739.15	57.491
739.46	57.241
739.78	60.204
740.09	53.644
740.41	55.215
740.72	59.048
741.04	60.839
741.35	62.500
741.66	62.055
741.98	66.524
742.29	66.667
742.61	62.389
742.92	58.051
743.23	56.000
743.55	60.377
743.86	63.137
744.18	63.559
744.49	63.223
744.80	67.742
745.12	62.500
745.43	69.159
745.74	64.889
746.06	66.228
746.37	63.721
746.68	72.566
747.00	71.300
747.31	60.084
747.62	59.836
747.94	63.948
748.25	55.253
748.56	65.254
748.88	65.179
749.19	64.186
749.50	64.840
749.82	60.082
750.13	59.684
750.44	53.667
750.75	58.389
751.07	55.263
751.38	54.785
751.69	53.199
752.01	58.042
752.32	53.488
752.63	59.732
752.94	58.042
753.26	62.891
753.57	54.864
753.88	52.434
754.19	58.845
754.51	59.136
754.82	54.362
755.13	56.757
755.44	60.370
755.75	58.076
756.07	55.822
756.38	54.902
756.69	49.688
757.00	54.599
757.31	50.423
757.63	50.413
757.94	50.000
758.25	49.758
758.56	47.826
758.87	50.877
759.18	52.035
759.50	54.103
759.81	55.786
760.12	51.404
760.43	51.821
760.74	47.342
761.05	49.072
761.36	46.875
761.67	48.518
761.99	51.549
762.30	51.447
762.61	50.694
762.92	55.303
763.23	54.340
763.54	55.385
763.85	56.809
764.16	57.292
764.47	55.068
764.78	52.443
765.10	47.561
765.41	48.295
765.72	46.133
766.03	47.734
766.34	55.401
766.65	60.456
766.96	57.085
767.27	67.290
767.58	61.881
767.89	70.718
768.20	71.341
768.51	60.714
768.82	59.649
769.13	56.471
769.44	53.383
769.75	51.685
770.06	54.622
770.37	52.632
770.68	53.333
770.99	56.356
771.30	56.485
771.61	55.385
771.92	52.672
772.23	50.000
772.54	57.778
772.85	64.356
773.16	64.674
773.47	65.000
773.78	59.406
774.09	67.614
774.39	69.697
774.70	55.882
775.01	57.895
775.32	67.702
775.63	63.699
775.94	70.370
776.25	71.034
776.56	70.992
776.87	82.443
777.18	69.697
777.48	82.677
777.79	82.308
778.10	70.455
778.41	78.358
778.72	72.180
779.03	58.333
779.34	66.216
779.65	58.385
779.95	65.839
780.26	62.500
780.57	71.429
780.88	65.248
781.19	76.667
781.50	59.763
781.80	59.563
782.11	55.556
782.42	60.345
782.73	58.192
783.04	61.935
783.34	57.364
783.65	59.864
783.96	69.677
784.27	58.940
784.57	59.868
784.88	72.464
785.19	64.167
785.50	72.414
785.81	77.519
786.11	72.593
786.42	70.866
786.73	66.667
787.04	77.358
787.34	66.667
787.65	80.303
787.96	62.879
788.26	75.591
788.57	72.263
788.88	66.197
789.19	61.832
789.49	67.568
789.80	61.719
790.11	71.074
790.41	75.926
790.72	74.074
791.03	81.731
791.33	79.798
791.64	82.105
791.95	75.789
792.25	81.250
792.56	73.000
792.87	85.366
793.17	81.818
793.48	69.412
793.79	89.655
794.09	79.545
794.40	79.310
794.70	64.286
795.01	63.077
795.32	68.702
795.62	61.538
795.93	62.185
796.23	70.732
796.54	79.592
796.85	72.727
797.15	97.403
797.46	91.463
797.76	78.750
798.07	97.333
798.37	86.250
798.68	81.250
798.99	96.341
799.29	84.000
799.60	70.930
799.90	81.579
800.21	84.848
800.51	90.141
800.82	103.448
801.12	98.462
801.43	105.333
801.73	113.793
802.04	77.922
802.34	83.562
802.65	113.725
802.95	126.087
803.26	100.000
803.56	118.333
803.87	89.552
804.17	85.714
804.48	90.566
804.78	80.556
805.09	95.455
805.39	82.540
805.70	108.772
806.00	75.714
806.30	92.187
806.61	87.059
806.91	67.778
807.22	69.565
807.52	85.526
807.83	88.158
808.13	95.652
808.43	108.065
808.74	83.562
809.04	128.571
809.35	92.647
809.65	87.879
809.95	119.608
810.26	112.963
810.56	110.938
810.86	116.327
811.17	124.561
811.47	119.565
811.77	89.655
812.08	100.000
812.38	145.238
812.69	109.524
812.99	113.333
813.29	151.429
813.59	129.032
813.90	94.828
814.20	85.246
814.50	114.000
814.81	89.474
815.11	124.074
815.41	96.429
815.72	100.000
816.02	98.000
816.32	139.024
816.62	108.621
816.93	154.545
817.23	131.707
817.53	100.000
817.84	128.889
818.14	135.714
818.44	120.833
818.74	103.774
819.04	87.179
819.35	157.576
819.65	126.923
819.95	124.074
820.25	117.021
820.56	148.649
820.86	134.211
821.16	102.128
821.46	128.947
821.76	101.818
822.07	111.905
822.37	118.421
822.67	113.953
822.97	110.526
823.27	126.087
823.57	131.250
823.88	123.077
824.18	133.333
824.48	182.609
824.78	141.667
825.08	160.870
825.38	155.172
825.69	129.412
825.99	97.872
826.29	119.444
826.59	154.286
826.89	156.667
827.19	134.286
827.49	187.097
827.79	230.769
828.09	123.810
828.39	116.667
828.70	97.297
829.00	171.429
829.30	268.750
829.60	127.778
829.90	151.613
830.20	127.273
830.50	148.649
830.80	229.167
831.10	176.923
831.40	190.476
831.70	200.000
832.00	156.667
832.30	173.913
832.60	208.333
832.90	154.545
833.20	240.000
833.50	155.263
833.80	135.294
834.10	123.684
834.40	242.105
834.70	146.667
835.00	148.000
835.30	118.919
835.60	162.500
835.90	148.649
836.20	180.769
836.50	168.182
836.80	95.122
837.10	173.913
837.40	338.462
837.70	178.947
838.00	170.000
838.30	175.000
838.60	200.000
838.90	310.000
839.19	231.250
839.49	146.667
839.79	110.345
840.09	180.769
840.39	220.000
840.69	205.263
840.99	147.619
841.29	208.696
841.59	260.000
841.88	192.000
842.18	377.778
842.48	203.571
842.78	177.778
843.08	253.846
843.38	213.636
843.68	328.571
843.97	528.571
844.27	186.957
844.57	2200.000
844.87	314.286
845.17	211.111
845.47	176.190
845.76	179.167
846.06	557.143
846.36	182.353
846.66	300.000
846.96	218.750
847.25	261.538
847.55	231.579
847.85	200.000
848.15	620.000
848.44	381.818
848.74	204.762
849.04	191.667
849.34	241.176
849.63	218.750
849.93	231.250
850.23	1200.000
850.53	512.500
850.82	272.727
851.12	194.118
851.42	175.000
851.71	312.500
852.01	0.000
852.31	258.824
852.61	390.000
852.90	170.833
853.20	433.333
853.50	-3300.000
853.79	164.000
854.09	162.500
854.39	148.276
854.68	151.724
854.98	257.143
855.28	125.806
855.57	271.429
855.87	211.111
856.17	174.074
856.46	226.316
856.76	154.839
857.05	300.000
857.35	272.727
857.65	269.231
857.94	265.000
858.24	577.778
858.53	364.286
858.83	600.000
859.13	239.130
859.42	333.333
859.72	475.000
860.01	266.667
860.31	650.000
860.60	350.000
860.90	350.000
861.20	223.077
861.49	528.571
861.79	-3200.000
862.08	485.714
862.38	444.444
862.67	278.571
862.97	390.000
863.26	116.667
863.56	1100.000
863.85	292.308
864.15	288.235
864.44	227.778
864.74	400.000
865.03	381.818
865.33	375.000
865.62	220.000
865.92	583.333
866.21	825.000
866.51	820.000
866.80	250.000
867.10	966.667
867.39	3700.000
867.69	680.000
867.98	675.000
868.27	219.048
868.57	253.333
868.86	925.000
869.16	133.333
869.45	4500.000
869.75	-700.000
870.04	725.000
870.33	680.000
870.63	350.000
870.92	252.941
871.22	875.000
871.51	485.714
871.80	358.333
872.10	269.231
>>>>>End Processed Spectral Data<<<<<
