SpectraSuite Data File
++++++++++++++++++++++++++++++++++++
Date: Tue May 12 16:45:33 PDT 2015
User: schluterlab
Dark Spectrum Present: Yes
Reference Spectrum Present: Yes
Number of Sampled Component Spectra: 1
Spectrometers: USB2E3373
Integration Time (usec): 3000 (USB2E3373)
Spectra Averaged: 3 (USB2E3373)
Boxcar Smoothing: 0 (USB2E3373)
Correct for Electrical Dark: No (USB2E3373)
Strobe/Lamp Enabled: No (USB2E3373)
Correct for Detector Non-linearity: No (USB2E3373)
Correct for Stray Light: No (USB2E3373)
Number of Pixels in Processed Spectrum: 2048
>>>>>Begin Processed Spectral Data<<<<<
178.53	0.000
178.91	-200.000
179.29	-525.000
179.67	-4400.000
180.04	-193.333
180.42	650.000
180.80	1950.000
181.18	0.000
181.56	-412.500
181.94	0.000
182.31	933.333
182.69	-3800.000
183.07	642.857
183.45	-2600.000
183.83	-1450.000
184.20	430.000
184.58	442.857
184.96	-238.462
185.34	-250.000
185.72	2000.000
186.09	-800.000
186.47	-2900.000
186.85	966.667
187.23	760.000
187.61	1450.000
187.98	562.500
188.36	271.429
188.74	308.333
189.12	291.667
189.49	950.000
189.87	0.000
190.25	437.500
190.63	2400.000
191.00	-150.000
191.38	-2800.000
191.76	-550.000
192.14	625.000
192.51	-3000.000
192.89	1900.000
193.27	900.000
193.65	-800.000
194.02	-740.000
194.40	471.429
194.78	-192.857
195.15	253.333
195.53	-2500.000
195.91	-480.000
196.29	4100.000
196.66	275.000
197.04	950.000
197.42	-1950.000
197.79	675.000
198.17	341.667
198.55	0.000
198.92	442.857
199.30	1000.000
199.68	2050.000
200.05	650.000
200.43	-516.667
200.81	233.333
201.18	2500.000
201.56	358.333
201.94	-750.000
202.31	-312.500
202.69	-520.000
203.07	3300.000
203.44	-550.000
203.82	325.000
204.19	600.000
204.57	-1800.000
204.95	-700.000
205.32	-640.000
205.70	550.000
206.08	750.000
206.45	-766.667
206.83	322.222
207.20	194.737
207.58	291.667
207.96	820.000
208.33	0.000
208.71	614.286
209.08	680.000
209.46	-2700.000
209.84	-825.000
210.21	800.000
210.59	-460.000
210.96	300.000
211.34	-950.000
211.71	454.545
212.09	950.000
212.46	1550.000
212.84	-383.333
213.22	444.444
213.59	-2700.000
213.97	410.000
214.34	950.000
214.72	766.667
215.09	1033.333
215.47	-4300.000
215.84	-260.000
216.22	-462.500
216.59	0.000
216.97	0.000
217.34	1050.000
217.72	-1350.000
218.09	1433.333
218.47	437.500
218.84	1025.000
219.22	1366.667
219.59	733.333
219.97	485.714
220.34	366.667
220.72	1650.000
221.09	2800.000
221.47	300.000
221.84	1233.333
222.22	300.000
222.59	300.000
222.97	257.143
223.34	243.750
223.72	-1400.000
224.09	1066.667
224.46	230.769
224.84	-825.000
225.21	266.667
225.59	226.667
225.96	1300.000
226.34	-820.000
226.71	-750.000
227.08	-480.000
227.46	0.000
227.83	-500.000
228.21	-1650.000
228.58	358.333
228.95	1025.000
229.33	355.556
229.70	1050.000
230.08	307.692
230.45	3800.000
230.82	-1000.000
231.20	-866.667
231.57	-1233.333
231.95	440.000
232.32	291.667
232.69	350.000
233.07	300.000
233.44	-1550.000
233.81	246.667
234.19	140.741
234.56	162.500
234.93	211.765
235.31	185.000
235.68	275.000
236.05	146.429
236.43	137.037
236.80	178.571
237.17	148.276
237.55	146.875
237.92	122.500
238.29	163.636
238.67	143.750
239.04	134.146
239.41	89.583
239.79	97.500
240.16	85.417
240.53	85.246
240.91	86.957
241.28	93.220
241.65	83.333
242.02	87.324
242.40	82.857
242.77	70.330
243.14	73.418
243.51	82.828
243.89	66.355
244.26	67.290
244.63	78.218
245.00	76.147
245.38	64.407
245.75	65.909
246.12	69.630
246.49	66.667
246.87	58.197
247.24	68.000
247.61	56.875
247.98	65.986
248.36	52.727
248.73	56.633
249.10	54.762
249.47	52.500
249.84	59.204
250.22	62.162
250.59	52.000
250.96	53.586
251.33	54.884
251.70	59.821
252.08	55.462
252.45	47.012
252.82	53.612
253.19	50.593
253.56	47.692
253.94	50.362
254.31	53.876
254.68	50.523
255.05	54.138
255.42	51.460
255.79	54.723
256.16	51.525
256.54	52.273
256.91	47.712
257.28	51.839
257.65	44.828
258.02	48.968
258.39	46.418
258.76	47.536
259.14	43.714
259.51	46.939
259.88	48.936
260.25	46.154
260.62	47.671
260.99	43.251
261.36	48.189
261.73	44.947
262.10	45.812
262.47	44.250
262.85	44.800
263.22	45.501
263.59	44.757
263.96	45.865
264.33	45.679
264.70	44.963
265.07	43.659
265.44	45.642
265.81	45.755
266.18	44.394
266.55	43.972
266.92	43.624
267.29	42.325
267.66	43.049
268.03	41.704
268.40	40.592
268.77	42.952
269.14	40.347
269.51	42.316
269.88	42.857
270.25	39.957
270.62	41.845
270.99	41.988
271.36	42.073
271.73	40.881
272.10	39.798
272.47	39.881
272.84	37.325
273.21	40.909
273.58	43.117
273.95	41.478
274.32	38.521
274.69	42.717
275.06	38.434
275.43	36.015
275.80	39.057
276.17	41.360
276.54	37.944
276.91	40.858
277.28	38.139
277.65	36.716
278.02	36.765
278.39	41.187
278.76	37.759
279.13	38.256
279.50	39.091
279.87	36.313
280.23	36.464
280.60	39.234
280.97	36.897
281.34	35.644
281.71	37.913
282.08	37.949
282.45	36.486
282.82	37.960
283.19	36.725
283.56	34.876
283.92	38.111
284.29	35.940
284.66	37.815
285.03	37.313
285.40	36.198
285.77	33.488
286.14	35.139
286.51	35.736
286.87	33.703
287.24	33.784
287.61	34.802
287.98	34.179
288.35	32.296
288.72	35.357
289.08	35.135
289.45	34.299
289.82	34.375
290.19	35.286
290.56	33.624
290.93	33.813
291.29	33.149
291.66	32.486
292.03	32.819
292.40	32.656
292.77	30.362
293.13	32.382
293.50	33.333
293.87	31.707
294.24	33.147
294.60	30.417
294.97	30.909
295.34	29.748
295.71	31.800
296.08	30.133
296.44	29.987
296.81	29.777
297.18	28.644
297.55	28.448
297.91	28.448
298.28	27.899
298.65	26.626
299.02	27.986
299.38	28.537
299.75	27.317
300.12	27.982
300.48	28.103
300.85	28.963
301.22	27.326
301.59	27.005
301.95	27.071
302.32	26.542
302.69	27.715
303.05	28.058
303.42	25.785
303.79	26.652
304.15	24.532
304.52	26.638
304.89	25.160
305.25	27.475
305.62	26.333
305.99	25.326
306.35	26.211
306.72	26.119
307.09	25.155
307.45	24.498
307.82	25.412
308.19	24.948
308.55	23.800
308.92	26.104
309.29	26.036
309.65	25.372
310.02	25.963
310.38	24.327
310.75	24.301
311.12	23.755
311.48	26.641
311.85	24.809
312.22	25.215
312.58	24.004
312.95	24.369
313.31	24.251
313.68	24.765
314.05	24.908
314.41	24.860
314.78	24.621
315.14	25.592
315.51	24.882
315.87	23.814
316.24	23.996
316.61	24.709
316.97	23.578
317.34	24.888
317.70	25.549
318.07	24.911
318.43	25.132
318.80	23.643
319.16	25.612
319.53	24.248
319.89	24.821
320.26	25.512
320.62	25.366
320.99	24.976
321.35	24.675
321.72	26.091
322.08	24.007
322.45	25.522
322.81	23.788
323.18	26.110
323.54	26.568
323.91	26.745
324.27	25.995
324.64	24.567
325.00	27.500
325.37	26.897
325.73	26.223
326.10	26.761
326.46	25.681
326.83	24.320
327.19	25.863
327.56	26.438
327.92	26.557
328.29	26.105
328.65	26.884
329.01	25.406
329.38	26.734
329.74	25.875
330.11	26.238
330.47	26.769
330.84	25.194
331.20	25.465
331.56	27.720
331.93	26.262
332.29	24.915
332.66	26.786
333.02	24.227
333.38	25.654
333.75	26.272
334.11	24.497
334.48	25.128
334.84	25.760
335.20	26.518
335.57	24.013
335.93	25.904
336.29	24.378
336.66	25.472
337.02	23.781
337.38	25.967
337.75	24.747
338.11	25.485
338.47	24.894
338.84	24.132
339.20	23.810
339.56	25.147
339.93	23.913
340.29	24.118
340.65	24.560
341.02	25.261
341.38	24.056
341.74	23.090
342.11	23.539
342.47	24.692
342.83	24.282
343.20	23.686
343.56	23.908
343.92	24.855
344.28	24.322
344.65	24.613
345.01	23.016
345.37	23.397
345.73	23.413
346.10	22.629
346.46	23.844
346.82	22.917
347.19	24.266
347.55	21.546
347.91	22.961
348.27	22.076
348.63	23.022
349.00	23.229
349.36	23.580
349.72	23.471
350.08	24.146
350.45	23.305
350.81	22.936
351.17	22.573
351.53	23.095
351.89	22.999
352.26	22.298
352.62	23.529
352.98	22.776
353.34	23.729
353.70	22.706
354.07	23.385
354.43	22.120
354.79	22.475
355.15	23.201
355.51	22.432
355.87	22.590
356.24	22.710
356.60	21.766
356.96	22.972
357.32	23.060
357.68	21.880
358.04	22.720
358.40	22.189
358.77	22.014
359.13	22.898
359.49	22.313
359.85	21.966
360.21	21.322
360.57	21.606
360.93	21.212
361.29	22.222
361.66	22.371
362.02	21.378
362.38	23.016
362.74	22.364
363.10	22.300
363.46	22.030
363.82	22.440
364.18	22.119
364.54	21.745
364.90	22.222
365.26	21.374
365.62	21.892
365.98	21.404
366.35	21.793
366.71	21.721
367.07	21.843
367.43	21.088
367.79	21.543
368.15	21.642
368.51	21.778
368.87	21.196
369.23	20.859
369.59	22.252
369.95	21.958
370.31	20.808
370.67	21.860
371.03	21.289
371.39	21.676
371.75	20.865
372.11	21.210
372.47	22.329
372.83	22.162
373.19	22.481
373.55	22.680
373.91	21.202
374.27	21.561
374.63	22.576
374.99	21.631
375.35	21.438
375.71	21.966
376.07	20.955
376.42	20.908
376.78	22.030
377.14	21.298
377.50	21.286
377.86	21.076
378.22	21.328
378.58	22.639
378.94	21.907
379.30	21.831
379.66	22.276
380.02	22.111
380.38	21.370
380.74	22.434
381.09	21.671
381.45	20.983
381.81	21.099
382.17	22.100
382.53	22.076
382.89	22.235
383.25	21.018
383.61	21.268
383.97	21.236
384.32	21.338
384.68	22.519
385.04	21.278
385.40	21.412
385.76	21.884
386.12	21.769
386.48	21.763
386.83	21.577
387.19	21.319
387.55	21.143
387.91	22.402
388.27	21.713
388.62	22.007
388.98	21.108
389.34	21.178
389.70	21.698
390.06	21.524
390.42	21.653
390.77	21.683
391.13	21.907
391.49	21.779
391.85	22.092
392.20	22.229
392.56	22.043
392.92	20.550
393.28	21.805
393.64	20.528
393.99	20.628
394.35	21.542
394.71	20.688
395.07	20.985
395.42	21.370
395.78	22.517
396.14	22.651
396.50	21.661
396.85	21.159
397.21	20.698
397.57	21.160
397.92	20.797
398.28	20.684
398.64	21.931
399.00	20.738
399.35	21.149
399.71	20.751
400.07	21.518
400.42	20.597
400.78	21.525
401.14	21.315
401.49	21.198
401.85	22.132
402.21	21.441
402.57	22.023
402.92	21.758
403.28	20.704
403.63	20.424
403.99	20.326
404.35	21.102
404.70	21.500
405.06	20.550
405.42	21.065
405.77	20.617
406.13	20.662
406.49	20.978
406.84	21.207
407.20	21.119
407.55	20.738
407.91	20.357
408.27	22.317
408.62	21.881
408.98	21.053
409.34	21.391
409.69	20.784
410.05	20.572
410.40	21.260
410.76	20.206
411.11	20.201
411.47	20.309
411.83	19.742
412.18	20.531
412.54	21.021
412.89	20.059
413.25	20.867
413.60	21.437
413.96	21.843
414.31	20.956
414.67	20.857
415.03	20.626
415.38	21.136
415.74	20.278
416.09	21.549
416.45	21.913
416.80	21.681
417.16	20.369
417.51	20.191
417.87	20.275
418.22	20.595
418.58	21.465
418.93	20.226
419.29	19.717
419.64	21.320
420.00	20.406
420.35	20.325
420.71	20.828
421.06	20.600
421.42	19.862
421.77	21.266
422.12	20.507
422.48	20.185
422.83	21.094
423.19	20.356
423.54	20.680
423.90	20.385
424.25	20.969
424.61	20.429
424.96	19.706
425.31	20.416
425.67	20.707
426.02	20.415
426.38	20.128
426.73	21.515
427.09	20.700
427.44	19.809
427.79	20.869
428.15	21.096
428.50	20.571
428.85	21.223
429.21	20.313
429.56	20.040
429.92	20.985
430.27	20.223
430.62	19.628
430.98	20.060
431.33	19.758
431.68	18.765
432.04	19.141
432.39	20.856
432.74	20.492
433.10	20.210
433.45	20.161
433.80	20.794
434.16	19.758
434.51	19.556
434.86	20.087
435.22	19.341
435.57	20.213
435.92	20.091
436.28	21.256
436.63	19.989
436.98	21.171
437.34	20.205
437.69	19.373
438.04	19.624
438.39	20.315
438.75	20.267
439.10	20.237
439.45	20.803
439.81	20.648
440.16	20.363
440.51	19.764
440.86	20.171
441.22	19.535
441.57	19.843
441.92	19.447
442.27	19.536
442.63	19.868
442.98	19.289
443.33	20.086
443.68	19.416
444.03	19.604
444.39	20.151
444.74	19.876
445.09	19.642
445.44	20.191
445.79	19.591
446.15	19.737
446.50	19.989
446.85	19.223
447.20	19.154
447.55	18.923
447.91	20.139
448.26	19.595
448.61	20.453
448.96	20.044
449.31	20.187
449.66	19.767
450.02	18.855
450.37	19.711
450.72	20.441
451.07	20.244
451.42	20.273
451.77	19.874
452.12	20.136
452.47	20.292
452.83	20.563
453.18	20.000
453.53	20.189
453.88	19.886
454.23	20.628
454.58	19.697
454.93	19.681
455.28	20.196
455.63	20.213
455.98	19.910
456.34	19.696
456.69	20.122
457.04	20.286
457.39	20.457
457.74	20.495
458.09	19.315
458.44	19.660
458.79	19.629
459.14	19.313
459.49	20.159
459.84	20.054
460.19	19.718
460.54	20.057
460.89	20.362
461.24	19.473
461.59	19.444
461.94	19.267
462.29	20.023
462.64	20.854
462.99	20.473
463.34	19.961
463.69	20.448
464.04	20.553
464.39	20.034
464.74	19.812
465.09	20.255
465.44	19.151
465.79	19.162
466.14	19.237
466.49	19.479
466.84	20.346
467.19	19.918
467.54	19.219
467.89	20.364
468.24	19.745
468.59	18.988
468.94	20.229
469.29	20.098
469.64	19.293
469.99	20.244
470.34	20.367
470.68	19.310
471.03	20.013
471.38	20.662
471.73	20.444
472.08	20.874
472.43	19.988
472.78	20.487
473.13	19.024
473.48	20.416
473.83	19.317
474.17	20.486
474.52	19.964
474.87	19.215
475.22	19.132
475.57	19.675
475.92	18.804
476.27	19.260
476.61	19.303
476.96	18.757
477.31	20.206
477.66	19.699
478.01	19.030
478.36	18.847
478.70	19.107
479.05	18.985
479.40	19.593
479.75	19.017
480.10	19.700
480.45	19.001
480.79	18.802
481.14	19.591
481.49	18.573
481.84	18.821
482.19	18.865
482.53	18.797
482.88	18.638
483.23	19.080
483.58	18.537
483.92	20.338
484.27	18.707
484.62	19.779
484.97	18.231
485.31	18.382
485.66	17.422
486.01	17.857
486.36	17.555
486.70	17.294
487.05	17.523
487.40	18.376
487.75	18.620
488.09	18.580
488.44	18.674
488.79	18.605
489.13	19.074
489.48	18.498
489.83	18.974
490.17	18.704
490.52	18.863
490.87	19.353
491.22	19.016
491.56	19.016
491.91	18.772
492.26	18.753
492.60	18.907
492.95	19.166
493.30	19.017
493.64	18.823
493.99	19.633
494.34	18.288
494.68	18.858
495.03	18.859
495.37	19.406
495.72	19.301
496.07	18.868
496.41	18.593
496.76	18.953
497.11	18.852
497.45	19.290
497.80	19.092
498.14	19.279
498.49	19.499
498.84	19.860
499.18	18.419
499.53	18.604
499.87	17.969
500.22	19.300
500.56	18.570
500.91	20.083
501.26	19.063
501.60	18.898
501.95	18.772
502.29	19.244
502.64	18.747
502.98	18.631
503.33	19.065
503.67	19.470
504.02	18.137
504.36	19.095
504.71	19.584
505.06	18.817
505.40	18.531
505.75	18.756
506.09	19.132
506.44	19.502
506.78	18.951
507.13	19.050
507.47	19.165
507.82	19.611
508.16	19.745
508.51	18.841
508.85	18.708
509.19	19.041
509.54	19.238
509.88	18.846
510.23	18.971
510.57	18.002
510.92	19.081
511.26	19.177
511.61	18.710
511.95	19.462
512.30	19.250
512.64	19.159
512.98	19.426
513.33	19.211
513.67	19.368
514.02	19.688
514.36	18.899
514.70	19.253
515.05	19.180
515.39	19.572
515.74	19.410
516.08	19.172
516.42	19.508
516.77	18.987
517.11	19.787
517.46	19.774
517.80	19.115
518.14	20.169
518.49	19.515
518.83	19.066
519.17	19.911
519.52	20.098
519.86	18.965
520.20	19.452
520.55	18.598
520.89	19.368
521.23	19.743
521.58	19.277
521.92	19.825
522.26	18.661
522.61	19.667
522.95	20.120
523.29	18.947
523.64	18.613
523.98	20.599
524.32	19.839
524.66	18.957
525.01	19.408
525.35	19.505
525.69	19.326
526.04	20.107
526.38	18.599
526.72	20.107
527.06	19.279
527.41	19.528
527.75	19.781
528.09	18.423
528.43	19.707
528.78	20.215
529.12	20.169
529.46	18.995
529.80	19.276
530.15	19.328
530.49	19.916
530.83	19.500
531.17	19.188
531.51	19.068
531.86	19.384
532.20	18.727
532.54	19.146
532.88	19.113
533.22	19.866
533.57	19.585
533.91	18.998
534.25	18.754
534.59	19.825
534.93	19.340
535.27	18.554
535.62	18.378
535.96	19.267
536.30	19.744
536.64	18.261
536.98	19.383
537.32	19.688
537.66	19.133
538.01	20.310
538.35	19.464
538.69	18.447
539.03	18.657
539.37	18.386
539.71	19.506
540.05	18.092
540.39	19.560
540.73	19.114
541.07	18.319
541.42	19.341
541.76	19.729
542.10	18.619
542.44	19.327
542.78	18.754
543.12	18.466
543.46	18.546
543.80	18.546
544.14	18.452
544.48	18.187
544.82	19.388
545.16	18.944
545.50	19.484
545.84	19.508
546.18	19.116
546.52	19.607
546.86	19.149
547.20	18.411
547.54	19.253
547.88	18.735
548.22	19.551
548.56	19.151
548.90	18.446
549.24	19.078
549.58	17.719
549.92	19.843
550.26	18.999
550.60	19.361
550.94	18.792
551.28	19.586
551.62	19.862
551.96	19.392
552.30	18.260
552.64	20.259
552.98	18.428
553.32	18.310
553.66	18.567
554.00	18.404
554.34	19.707
554.68	19.489
555.02	18.398
555.36	19.016
555.69	18.652
556.03	19.363
556.37	18.164
556.71	19.948
557.05	18.283
557.39	19.067
557.73	18.868
558.07	18.645
558.41	19.260
558.75	19.904
559.08	19.871
559.42	18.754
559.76	19.387
560.10	18.376
560.44	19.111
560.78	18.990
561.12	18.881
561.45	18.148
561.79	19.164
562.13	18.130
562.47	18.949
562.81	18.543
563.15	19.134
563.48	17.640
563.82	19.713
564.16	18.719
564.50	18.746
564.84	17.994
565.17	17.885
565.51	18.904
565.85	19.062
566.19	18.393
566.52	18.412
566.86	17.630
567.20	18.708
567.54	18.395
567.88	17.893
568.21	17.374
568.55	18.045
568.89	18.294
569.23	17.386
569.56	17.732
569.90	17.391
570.24	17.479
570.57	17.326
570.91	17.036
571.25	16.756
571.59	16.469
571.92	16.577
572.26	16.415
572.60	16.690
572.93	17.251
573.27	16.801
573.61	16.459
573.95	16.484
574.28	17.135
574.62	16.698
574.96	16.388
575.29	16.414
575.63	16.207
575.97	16.675
576.30	16.679
576.64	16.930
576.98	16.647
577.31	16.797
577.65	17.014
577.98	16.317
578.32	15.938
578.66	16.271
578.99	16.551
579.33	16.960
579.67	16.571
580.00	16.510
580.34	16.629
580.67	16.286
581.01	16.656
581.35	16.339
581.68	16.510
582.02	15.955
582.35	16.095
582.69	16.455
583.02	16.377
583.36	16.389
583.70	16.555
584.03	16.754
584.37	17.214
584.70	16.397
585.04	16.060
585.37	16.321
585.71	16.674
586.04	16.437
586.38	16.256
586.72	16.396
587.05	17.061
587.39	16.612
587.72	16.541
588.06	16.365
588.39	16.479
588.73	16.889
589.06	16.749
589.40	17.465
589.73	17.109
590.07	16.918
590.40	17.352
590.73	18.215
591.07	17.647
591.40	16.926
591.74	16.558
592.07	16.847
592.41	17.546
592.74	17.100
593.08	16.113
593.41	16.756
593.75	16.135
594.08	16.446
594.41	16.390
594.75	17.055
595.08	16.529
595.42	16.985
595.75	17.012
596.09	17.344
596.42	16.533
596.75	17.668
597.09	16.797
597.42	16.694
597.75	16.917
598.09	16.496
598.42	16.687
598.76	16.461
599.09	16.955
599.42	16.194
599.76	16.995
600.09	16.746
600.42	16.264
600.76	16.179
601.09	16.707
601.42	16.931
601.76	16.362
602.09	17.770
602.42	16.488
602.76	16.660
603.09	16.591
603.42	17.321
603.76	16.233
604.09	16.576
604.42	16.422
604.76	17.305
605.09	16.857
605.42	17.107
605.75	16.226
606.09	16.526
606.42	16.310
606.75	16.557
607.09	16.857
607.42	16.513
607.75	16.760
608.08	17.141
608.42	16.862
608.75	16.260
609.08	16.454
609.41	16.727
609.75	16.529
610.08	16.996
610.41	16.645
610.74	17.100
611.07	17.281
611.41	17.146
611.74	16.778
612.07	16.522
612.40	17.154
612.73	17.224
613.07	17.081
613.40	16.792
613.73	16.975
614.06	16.500
614.39	16.869
614.72	16.173
615.06	16.469
615.39	17.376
615.72	16.651
616.05	16.374
616.38	17.098
616.71	17.092
617.05	17.463
617.38	16.236
617.71	17.379
618.04	16.377
618.37	17.732
618.70	17.148
619.03	16.972
619.36	17.839
619.69	17.216
620.03	18.591
620.36	17.148
620.69	18.263
621.02	18.274
621.35	17.837
621.68	18.142
622.01	17.934
622.34	17.480
622.67	18.890
623.00	18.108
623.33	17.544
623.66	16.900
623.99	17.671
624.32	17.683
624.65	16.853
624.99	17.647
625.32	18.236
625.65	17.724
625.98	17.643
626.31	17.804
626.64	17.768
626.97	16.526
627.30	17.780
627.63	18.367
627.96	17.136
628.29	17.409
628.62	18.050
628.95	17.465
629.28	19.457
629.61	18.893
629.94	19.274
630.26	18.804
630.59	19.149
630.92	17.399
631.25	19.583
631.58	18.515
631.91	19.410
632.24	17.493
632.57	17.583
632.90	19.669
633.23	19.307
633.56	19.178
633.89	17.685
634.22	18.299
634.55	18.172
634.88	18.729
635.20	17.937
635.53	19.977
635.86	19.463
636.19	19.304
636.52	18.162
636.85	17.044
637.18	20.260
637.51	19.665
637.83	17.048
638.16	19.109
638.49	18.204
638.82	20.305
639.15	19.154
639.48	20.379
639.81	18.437
640.13	19.141
640.46	20.986
640.79	18.726
641.12	18.373
641.45	20.699
641.77	19.287
642.10	19.009
642.43	19.203
642.76	18.182
643.09	18.876
643.41	18.373
643.74	19.137
644.07	19.764
644.40	19.379
644.73	19.520
645.05	21.248
645.38	19.296
645.71	19.879
646.04	20.458
646.36	19.562
646.69	19.680
647.02	20.160
647.35	20.315
647.67	19.611
648.00	20.521
648.33	18.947
648.66	17.879
648.98	18.696
649.31	18.623
649.64	18.811
649.96	18.350
650.29	18.714
650.62	20.177
650.94	20.482
651.27	20.415
651.60	19.875
651.92	20.584
652.25	20.472
652.58	21.418
652.90	19.760
653.23	20.089
653.56	19.288
653.88	19.677
654.21	19.941
654.54	18.448
654.86	20.354
655.19	19.393
655.52	16.695
655.84	13.827
656.17	16.490
656.49	23.532
656.82	26.352
657.15	20.769
657.47	15.753
657.80	12.061
658.13	9.916
658.45	13.573
658.78	16.152
659.10	16.271
659.43	16.567
659.75	17.003
660.08	17.168
660.41	18.330
660.73	21.957
661.06	19.219
661.38	21.635
661.71	20.683
662.03	20.152
662.36	22.476
662.68	19.553
663.01	20.901
663.33	20.377
663.66	18.935
663.98	19.841
664.31	21.269
664.63	20.307
664.96	23.640
665.28	21.657
665.61	20.566
665.93	19.811
666.26	22.617
666.58	21.468
666.91	18.340
667.23	18.876
667.56	20.329
667.88	22.407
668.21	22.951
668.53	20.363
668.86	24.449
669.18	22.200
669.50	21.488
669.83	20.739
670.15	18.711
670.48	19.336
670.80	21.514
671.13	22.112
671.45	22.445
671.77	20.965
672.10	20.646
672.42	19.408
672.75	19.304
673.07	18.919
673.39	18.211
673.72	21.453
674.04	19.713
674.37	22.323
674.69	18.401
675.01	19.776
675.34	20.736
675.66	21.094
675.98	20.316
676.31	20.600
676.63	20.080
676.95	23.214
677.28	19.270
677.60	22.938
677.92	20.833
678.25	20.349
678.57	21.974
678.89	21.157
679.22	22.243
679.54	21.174
679.86	19.721
680.18	19.859
680.51	18.242
680.83	18.581
681.15	17.851
681.48	18.056
681.80	19.264
682.12	20.934
682.44	20.000
682.77	20.996
683.09	20.388
683.41	19.592
683.73	22.441
684.06	19.841
684.38	21.512
684.70	18.525
685.02	18.229
685.34	20.070
685.67	19.936
685.99	19.869
686.31	19.414
686.63	19.837
686.96	20.588
687.28	18.624
687.60	17.918
687.92	20.101
688.24	20.000
688.56	20.107
688.89	19.120
689.21	20.424
689.53	21.739
689.85	20.122
690.17	20.000
690.49	21.976
690.82	20.798
691.14	19.192
691.46	22.793
691.78	20.273
692.10	21.183
692.42	20.690
692.74	19.380
693.06	20.349
693.39	18.972
693.71	20.629
694.03	18.738
694.35	22.088
694.67	21.181
694.99	21.286
695.31	22.072
695.63	18.778
695.95	19.683
696.27	23.451
696.59	22.673
696.91	21.266
697.23	21.719
697.56	20.747
697.88	18.563
698.20	17.358
698.52	19.844
698.84	20.534
699.16	23.241
699.48	20.551
699.80	22.222
700.12	22.633
700.44	22.664
700.76	19.809
701.08	22.454
701.40	23.377
701.72	24.866
702.04	22.493
702.36	25.269
702.68	25.000
703.00	19.799
703.32	19.851
703.64	22.166
703.96	22.396
704.28	24.603
704.60	24.225
704.91	22.689
705.23	23.295
705.55	25.816
705.87	19.683
706.19	22.257
706.51	28.213
706.83	22.714
707.15	22.193
707.47	22.034
707.79	20.230
708.11	19.501
708.43	21.348
708.74	19.457
709.06	22.791
709.38	24.069
709.70	22.616
710.02	22.011
710.34	20.166
710.66	25.833
710.98	24.590
711.29	25.070
711.61	22.284
711.93	24.012
712.25	26.205
712.57	23.794
712.89	23.636
713.20	25.879
713.52	25.234
713.84	22.659
714.16	20.870
714.48	21.037
714.80	24.119
715.11	22.340
715.43	23.743
715.75	21.972
716.07	21.098
716.39	24.286
716.70	21.495
717.02	24.242
717.34	27.698
717.66	31.597
717.97	28.030
718.29	25.704
718.61	23.311
718.93	25.606
719.24	23.490
719.56	25.517
719.88	23.248
720.20	22.903
720.51	22.222
720.83	23.077
721.15	22.449
721.46	22.945
721.78	25.436
722.10	25.347
722.42	28.428
722.73	26.354
723.05	28.070
723.37	27.562
723.68	21.875
724.00	24.621
724.32	25.475
724.63	25.000
724.95	25.098
725.27	25.651
725.58	23.897
725.90	20.775
726.22	25.000
726.53	25.753
726.85	26.710
727.16	26.510
727.48	22.259
727.80	22.662
728.11	24.286
728.43	23.913
728.74	25.874
729.06	23.656
729.38	28.421
729.69	27.667
730.01	26.645
730.32	26.174
730.64	25.581
730.96	23.123
731.27	18.349
731.59	20.690
731.90	21.448
732.22	25.143
732.53	21.368
732.85	27.778
733.16	21.988
733.48	23.197
733.80	26.377
734.11	25.460
734.43	20.760
734.74	23.056
735.06	25.132
735.37	23.969
735.69	24.058
736.00	20.795
736.32	20.606
736.63	21.451
736.95	23.913
737.26	23.780
737.58	23.926
737.89	23.795
738.21	23.510
738.52	26.421
738.83	26.374
739.15	27.526
739.46	24.828
739.78	21.769
740.09	23.907
740.41	25.153
740.72	24.127
741.04	24.126
741.35	28.125
741.66	27.668
741.98	28.326
742.29	27.315
742.61	24.336
742.92	26.271
743.23	27.200
743.55	24.906
743.86	23.922
744.18	28.390
744.49	28.512
744.80	23.963
745.12	32.143
745.43	28.972
745.74	28.444
746.06	25.877
746.37	28.372
746.68	30.531
747.00	21.973
747.31	25.210
747.62	23.361
747.94	22.747
748.25	22.179
748.56	34.322
748.88	26.339
749.19	26.977
749.50	22.374
749.82	28.395
750.13	20.949
750.44	26.667
750.75	27.852
751.07	23.355
751.38	22.112
751.69	22.896
752.01	24.825
752.32	23.588
752.63	24.497
752.94	26.224
753.26	25.391
753.57	26.070
753.88	25.843
754.19	24.188
754.51	22.924
754.82	22.819
755.13	19.257
755.44	28.148
755.75	24.055
756.07	27.055
756.38	24.183
756.69	20.000
757.00	22.849
757.31	25.634
757.63	22.314
757.94	18.617
758.25	21.498
758.56	18.764
758.87	22.306
759.18	23.547
759.50	24.620
759.81	24.926
760.12	20.787
760.43	23.810
760.74	23.797
761.05	22.546
761.36	22.396
761.67	25.606
761.99	26.761
762.30	21.865
762.61	23.611
762.92	27.273
763.23	27.547
763.54	24.231
763.85	24.125
764.16	29.514
764.47	24.324
764.78	24.756
765.10	27.134
765.41	21.307
765.72	21.823
766.03	23.867
766.34	24.042
766.65	26.236
766.96	25.506
767.27	32.243
767.58	27.723
767.89	23.204
768.20	30.488
768.51	27.041
768.82	28.509
769.13	28.235
769.44	28.571
769.75	23.221
770.06	26.891
770.37	24.561
770.68	26.222
770.99	28.814
771.30	28.033
771.61	31.154
771.92	24.427
772.23	26.210
772.54	36.000
772.85	32.673
773.16	30.435
773.47	25.000
773.78	31.683
774.09	38.636
774.39	29.697
774.70	27.059
775.01	24.342
775.32	26.708
775.63	28.082
775.94	41.358
776.25	40.690
776.56	28.244
776.87	38.168
777.18	35.606
777.48	40.157
777.79	33.846
778.10	41.667
778.41	43.284
778.72	33.083
779.03	33.333
779.34	27.703
779.65	26.087
779.95	29.193
780.26	32.143
780.57	38.776
780.88	31.915
781.19	46.667
781.50	34.911
781.80	36.612
782.11	33.862
782.42	30.460
782.73	32.203
783.04	36.129
783.34	34.109
783.65	27.211
783.96	35.484
784.27	30.464
784.57	33.553
784.88	32.609
785.19	32.500
785.50	36.207
785.81	46.512
786.11	38.519
786.42	33.071
786.73	34.234
787.04	35.849
787.34	35.772
787.65	46.970
787.96	37.879
788.26	43.307
788.57	43.796
788.88	35.211
789.19	37.405
789.49	45.946
789.80	40.625
790.11	36.364
790.41	42.593
790.72	38.889
791.03	46.154
791.33	45.455
791.64	56.842
791.95	44.211
792.25	45.833
792.56	44.000
792.87	50.000
793.17	51.136
793.48	62.353
793.79	55.172
794.09	47.727
794.40	46.552
794.70	50.000
795.01	32.308
795.32	29.771
795.62	28.205
795.93	39.496
796.23	50.407
796.54	50.000
796.85	52.273
797.15	46.753
797.46	62.195
797.76	57.500
798.07	53.333
798.37	52.500
798.68	56.250
798.99	60.976
799.29	45.333
799.60	46.512
799.90	53.947
800.21	65.152
800.51	60.563
800.82	68.966
801.12	67.692
801.43	60.000
801.73	55.172
802.04	54.545
802.34	56.164
802.65	74.510
802.95	69.565
803.26	66.129
803.56	88.333
803.87	67.164
804.17	73.016
804.48	66.038
804.78	45.833
805.09	63.636
805.39	63.492
805.70	68.421
806.00	62.857
806.30	48.438
806.61	47.059
806.91	51.111
807.22	42.391
807.52	40.789
807.83	60.526
808.13	65.217
808.43	51.613
808.74	69.863
809.04	66.071
809.35	64.706
809.65	56.061
809.95	94.118
810.26	74.074
810.56	75.000
810.86	67.347
811.17	68.421
811.47	78.261
811.77	81.034
812.08	74.138
812.38	83.333
812.69	73.810
812.99	66.667
813.29	74.286
813.59	119.355
813.90	67.241
814.20	85.246
814.50	68.000
814.81	54.386
815.11	74.074
815.41	69.643
815.72	94.643
816.02	86.000
816.32	90.244
816.62	87.931
816.93	100.000
817.23	90.244
817.53	80.357
817.84	77.778
818.14	92.857
818.44	87.500
818.74	96.226
819.04	97.436
819.35	87.879
819.65	90.385
819.95	83.333
820.25	85.106
820.56	113.514
820.86	86.842
821.16	48.936
821.46	113.158
821.76	83.636
822.07	76.190
822.37	84.211
822.67	100.000
822.97	65.789
823.27	86.957
823.57	118.750
823.88	100.000
824.18	96.970
824.48	117.391
824.78	111.111
825.08	121.739
825.38	103.448
825.69	111.765
825.99	87.234
826.29	83.333
826.59	108.571
826.89	143.333
827.19	94.286
827.49	145.161
827.79	119.231
828.09	64.286
828.39	88.889
828.70	83.784
829.00	175.000
829.30	200.000
829.60	88.889
829.90	135.484
830.20	84.848
830.50	118.919
830.80	170.833
831.10	169.231
831.40	128.571
831.70	145.833
832.00	83.333
832.30	178.261
832.60	187.500
832.90	127.273
833.20	175.000
833.50	134.211
833.80	102.941
834.10	84.211
834.40	147.368
834.70	86.667
835.00	140.000
835.30	94.595
835.60	109.375
835.90	116.216
836.20	115.385
836.50	122.727
836.80	109.756
837.10	156.522
837.40	184.615
837.70	136.842
838.00	113.333
838.30	150.000
838.60	148.000
838.90	240.000
839.19	156.250
839.49	120.000
839.79	117.241
840.09	123.077
840.39	173.333
840.69	163.158
840.99	133.333
841.29	156.522
841.59	185.000
841.88	160.000
842.18	400.000
842.48	150.000
842.78	129.630
843.08	223.077
843.38	159.091
843.68	250.000
843.97	357.143
844.27	156.522
844.57	1100.000
844.87	235.714
845.17	183.333
845.47	128.571
845.76	133.333
846.06	585.714
846.36	229.412
846.66	269.231
846.96	262.500
847.25	169.231
847.55	163.158
847.85	177.778
848.15	520.000
848.44	172.727
848.74	152.381
849.04	154.167
849.34	152.941
849.63	187.500
849.93	193.750
850.23	666.667
850.53	362.500
850.82	300.000
851.12	205.882
851.42	195.833
851.71	225.000
852.01	0.000
852.31	188.235
852.61	380.000
852.90	187.500
853.20	455.556
853.50	-2300.000
853.79	144.000
854.09	146.875
854.39	103.448
854.68	124.138
854.98	147.619
855.28	93.548
855.57	271.429
855.87	183.333
856.17	122.222
856.46	178.947
856.76	116.129
857.05	205.882
857.35	263.636
857.65	153.846
857.94	140.000
858.24	400.000
858.53	278.571
858.83	471.429
859.13	173.913
859.42	188.889
859.72	262.500
860.01	275.000
860.31	625.000
860.60	250.000
860.90	500.000
861.20	253.846
861.49	342.857
861.79	-3000.000
862.08	457.143
862.38	300.000
862.67	228.571
862.97	320.000
863.26	153.333
863.56	850.000
863.85	253.846
864.15	223.529
864.44	172.222
864.74	325.000
865.03	327.273
865.33	375.000
865.62	240.000
865.92	416.667
866.21	600.000
866.51	580.000
866.80	177.778
867.10	866.667
867.39	3300.000
867.69	720.000
867.98	1000.000
868.27	176.190
868.57	133.333
868.86	800.000
869.16	128.571
869.45	2100.000
869.75	-550.000
870.04	675.000
870.33	500.000
870.63	350.000
870.92	211.765
871.22	675.000
871.51	428.571
871.80	325.000
872.10	284.615
>>>>>End Processed Spectral Data<<<<<
