SpectraSuite Data File
++++++++++++++++++++++++++++++++++++
Date: Tue May 12 17:03:53 PDT 2015
User: schluterlab
Dark Spectrum Present: Yes
Reference Spectrum Present: Yes
Number of Sampled Component Spectra: 1
Spectrometers: USB2E3373
Integration Time (usec): 3000 (USB2E3373)
Spectra Averaged: 3 (USB2E3373)
Boxcar Smoothing: 0 (USB2E3373)
Correct for Electrical Dark: No (USB2E3373)
Strobe/Lamp Enabled: No (USB2E3373)
Correct for Detector Non-linearity: No (USB2E3373)
Correct for Stray Light: No (USB2E3373)
Number of Pixels in Processed Spectrum: 2048
>>>>>Begin Processed Spectral Data<<<<<
178.53	0.000
178.91	-175.000
179.29	-625.000
179.67	-4200.000
180.04	-140.000
180.42	600.000
180.80	1800.000
181.18	0.000
181.56	-362.500
181.94	0.000
182.31	1233.333
182.69	-3400.000
183.07	442.857
183.45	-3000.000
183.83	-1250.000
184.20	420.000
184.58	485.714
184.96	-215.385
185.34	-250.000
185.72	1800.000
186.09	-925.000
186.47	-3300.000
186.85	1033.333
187.23	680.000
187.61	2250.000
187.98	537.500
188.36	250.000
188.74	358.333
189.12	316.667
189.49	925.000
189.87	0.000
190.25	500.000
190.63	2200.000
191.00	-225.000
191.38	-4200.000
191.76	-650.000
192.14	600.000
192.51	-2800.000
192.89	1450.000
193.27	1133.333
193.65	-866.667
194.02	-860.000
194.40	514.286
194.78	-207.143
195.15	213.333
195.53	-3000.000
195.91	-780.000
196.29	3200.000
196.66	250.000
197.04	675.000
197.42	-1650.000
197.79	825.000
198.17	341.667
198.55	0.000
198.92	457.143
199.30	1166.667
199.68	2100.000
200.05	650.000
200.43	-450.000
200.81	233.333
201.18	3600.000
201.56	325.000
201.94	-850.000
202.31	-400.000
202.69	-600.000
203.07	3600.000
203.44	-600.000
203.82	400.000
204.19	540.000
204.57	-1700.000
204.95	-475.000
205.32	-820.000
205.70	500.000
206.08	750.000
206.45	-833.333
206.83	322.222
207.20	189.474
207.58	266.667
207.96	660.000
208.33	0.000
208.71	542.857
209.08	520.000
209.46	-2500.000
209.84	-975.000
210.21	840.000
210.59	-480.000
210.96	316.667
211.34	-975.000
211.71	363.636
212.09	1000.000
212.46	1750.000
212.84	-366.667
213.22	400.000
213.59	-3000.000
213.97	420.000
214.34	1350.000
214.72	1166.667
215.09	933.333
215.47	-2300.000
215.84	-300.000
216.22	-412.500
216.59	0.000
216.97	0.000
217.34	1150.000
217.72	-1450.000
218.09	1166.667
218.47	512.500
218.84	850.000
219.22	1600.000
219.59	1000.000
219.97	542.857
220.34	311.111
220.72	1350.000
221.09	3700.000
221.47	266.667
221.84	1100.000
222.22	350.000
222.59	288.889
222.97	228.571
223.34	237.500
223.72	-1200.000
224.09	1033.333
224.46	246.154
224.84	-825.000
225.21	466.667
225.59	306.667
225.96	1400.000
226.34	-940.000
226.71	-525.000
227.08	-640.000
227.46	0.000
227.83	-483.333
228.21	-1850.000
228.58	358.333
228.95	875.000
229.33	377.778
229.70	925.000
230.08	276.923
230.45	3100.000
230.82	-850.000
231.20	-733.333
231.57	-1033.333
231.95	560.000
232.32	341.667
232.69	566.667
233.07	283.333
233.44	-1950.000
233.81	266.667
234.19	151.852
234.56	225.000
234.93	188.235
235.31	145.000
235.68	243.750
236.05	160.714
236.43	144.444
236.80	235.714
237.17	127.586
237.55	115.625
237.92	117.500
238.29	133.333
238.67	115.625
239.04	100.000
239.41	81.250
239.79	70.000
240.16	79.167
240.53	44.262
240.91	49.275
241.28	55.932
241.65	57.576
242.02	63.380
242.40	55.714
242.77	53.846
243.14	37.975
243.51	45.455
243.89	42.056
244.26	38.318
244.63	34.653
245.00	38.532
245.38	28.814
245.75	37.121
246.12	42.222
246.49	36.879
246.87	29.508
247.24	38.667
247.61	31.250
247.98	36.054
248.36	30.909
248.73	40.306
249.10	23.810
249.47	27.500
249.84	25.871
250.22	25.405
250.59	24.500
250.96	24.473
251.33	22.791
251.70	22.768
252.08	24.790
252.45	20.717
252.82	23.574
253.19	21.344
253.56	20.385
253.94	22.101
254.31	18.605
254.68	20.906
255.05	19.310
255.42	18.613
255.79	19.870
256.16	21.017
256.54	22.078
256.91	20.915
257.28	16.722
257.65	17.868
258.02	18.584
258.39	22.350
258.76	21.739
259.14	18.571
259.51	18.659
259.88	17.629
260.25	18.681
260.62	15.890
260.99	15.702
261.36	17.270
261.73	17.021
262.10	18.586
262.47	18.500
262.85	18.400
263.22	16.195
263.59	15.601
263.96	18.797
264.33	16.543
264.70	15.479
265.07	16.829
265.44	16.055
265.81	17.925
266.18	16.018
266.55	14.421
266.92	15.660
267.29	14.693
267.66	15.919
268.03	15.022
268.40	16.702
268.77	16.300
269.14	14.751
269.51	14.699
269.88	16.735
270.25	11.879
270.62	14.378
270.99	14.807
271.36	16.667
271.73	14.256
272.10	15.354
272.47	13.690
272.84	15.170
273.21	16.529
273.58	17.611
273.95	12.731
274.32	16.148
274.69	15.157
275.06	14.936
275.43	15.134
275.80	13.585
276.17	17.096
276.54	14.766
276.91	16.791
277.28	12.591
277.65	14.391
278.02	14.706
278.39	13.669
278.76	15.690
279.13	12.456
279.50	14.364
279.87	14.339
280.23	13.628
280.60	15.511
280.97	14.138
281.34	13.696
281.71	14.957
282.08	15.043
282.45	12.331
282.82	13.545
283.19	15.421
283.56	12.727
283.92	14.658
284.29	14.143
284.66	14.286
285.03	14.925
285.40	15.041
285.77	12.963
286.14	14.396
286.51	12.883
286.87	12.025
287.24	13.514
287.61	14.438
287.98	13.433
288.35	12.148
288.72	12.595
289.08	12.613
289.45	14.177
289.82	14.375
290.19	13.031
290.56	13.974
290.93	14.245
291.29	13.398
291.66	12.288
292.03	14.165
292.40	14.363
292.77	12.535
293.13	14.836
293.50	13.090
293.87	9.892
294.24	13.007
294.60	13.190
294.97	13.846
295.34	13.546
295.71	13.009
296.08	14.133
296.44	12.961
296.81	13.151
297.18	11.534
297.55	13.547
297.91	11.084
298.28	13.527
298.65	12.638
299.02	12.786
299.38	13.789
299.75	11.220
300.12	13.876
300.48	14.169
300.85	12.992
301.22	11.977
301.59	12.618
301.95	12.252
302.32	12.456
302.69	14.367
303.05	14.029
303.42	12.668
303.79	13.868
304.15	13.091
304.52	13.848
304.89	13.966
305.25	13.237
305.62	14.179
305.99	13.152
306.35	12.737
306.72	12.383
307.09	13.354
307.45	12.883
307.82	14.198
308.19	13.711
308.55	12.600
308.92	13.739
309.29	14.497
309.65	13.776
310.02	13.895
310.38	13.858
310.75	13.018
311.12	13.697
311.48	15.251
311.85	15.076
312.22	15.091
312.58	13.800
312.95	14.951
313.31	14.794
313.68	15.103
314.05	15.293
314.41	13.780
314.78	15.152
315.14	15.735
315.51	15.516
315.87	15.237
316.24	16.527
316.61	15.309
316.97	16.330
317.34	15.993
317.70	15.979
318.07	16.548
318.43	17.135
318.80	16.200
319.16	17.745
319.53	17.522
319.89	16.756
320.26	17.691
320.62	17.491
320.99	17.636
321.35	18.275
321.72	18.311
322.08	17.452
322.45	18.074
322.81	18.847
323.18	19.716
323.54	20.122
323.91	20.490
324.27	20.159
324.64	18.426
325.00	21.121
325.37	20.320
325.73	20.320
326.10	20.547
326.46	20.892
326.83	21.440
327.19	21.847
327.56	21.565
327.92	21.475
328.29	23.568
328.65	22.774
329.01	22.327
329.38	22.081
329.74	21.178
330.11	22.850
330.47	23.444
330.84	21.139
331.20	22.589
331.56	23.230
331.93	23.353
332.29	21.939
332.66	23.980
333.02	22.509
333.38	24.084
333.75	23.853
334.11	23.658
334.48	22.308
334.84	22.804
335.20	22.583
335.57	21.746
335.93	22.960
336.29	21.144
336.66	23.070
337.02	22.583
337.38	22.614
337.75	23.311
338.11	22.194
338.47	22.777
338.84	21.931
339.20	22.078
339.56	21.447
339.93	22.492
340.29	21.513
340.65	22.883
341.02	22.607
341.38	22.085
341.74	22.924
342.11	21.786
342.47	22.067
342.83	22.149
343.20	22.070
343.56	21.684
343.92	21.800
344.28	22.807
344.65	22.168
345.01	22.143
345.37	21.474
345.73	22.143
346.10	21.912
346.46	22.727
346.82	21.451
347.19	22.720
347.55	21.311
347.91	21.148
348.27	22.308
348.63	23.101
349.00	21.935
349.36	22.257
349.72	23.012
350.08	21.817
350.45	22.315
350.81	22.248
351.17	21.880
351.53	21.940
351.89	22.378
352.26	21.013
352.62	21.644
352.98	21.549
353.34	22.188
353.70	21.407
354.07	21.846
354.43	21.813
354.79	21.792
355.15	22.511
355.51	21.903
355.87	22.892
356.24	22.864
356.60	21.309
356.96	21.001
357.32	22.381
357.68	22.687
358.04	22.112
358.40	21.889
358.77	22.464
359.13	21.321
359.49	23.202
359.85	21.966
360.21	21.545
360.57	22.190
360.93	22.799
361.29	23.016
361.66	22.371
362.02	21.662
362.38	21.789
362.74	21.656
363.10	22.651
363.46	21.271
363.82	22.651
364.18	22.191
364.54	22.675
364.90	21.954
365.26	22.831
365.62	20.994
365.98	21.129
366.35	22.138
366.71	22.207
367.07	22.457
367.43	21.289
367.79	22.008
368.15	21.777
368.51	22.467
368.87	21.196
369.23	22.037
369.59	22.792
369.95	23.007
370.31	22.177
370.67	23.387
371.03	22.689
371.39	22.091
371.75	22.401
372.11	22.026
372.47	22.534
372.83	22.366
373.19	23.441
373.55	22.337
373.91	22.307
374.27	22.288
374.63	22.780
374.99	22.776
375.35	22.849
375.71	23.285
376.07	21.751
376.42	22.634
376.78	22.415
377.14	21.887
377.50	21.848
377.86	22.293
378.22	21.877
378.58	23.729
378.94	22.692
379.30	21.710
379.66	22.637
380.02	22.639
380.38	22.541
380.74	23.529
381.09	21.846
381.45	21.850
381.81	21.513
382.17	23.016
382.53	22.196
382.89	22.117
383.25	22.854
383.61	22.248
383.97	21.836
384.32	22.182
384.68	22.935
385.04	23.154
385.40	22.539
385.76	22.820
386.12	23.191
386.48	22.188
386.83	23.166
387.19	23.086
387.55	22.850
387.91	22.691
388.27	23.617
388.62	22.829
388.98	22.041
389.34	21.951
389.70	22.347
390.06	22.744
390.42	22.455
390.77	23.096
391.13	21.907
391.49	22.868
391.85	23.508
392.20	22.825
392.56	22.581
392.92	21.954
393.28	22.534
393.64	21.617
393.99	22.288
394.35	21.954
394.71	21.894
395.07	22.019
395.42	22.190
395.78	23.134
396.14	22.410
396.50	21.600
396.85	21.707
397.21	22.142
397.57	21.877
397.92	21.548
398.28	21.180
398.64	22.106
399.00	22.181
399.35	21.524
399.71	22.075
400.07	21.290
400.42	21.791
400.78	21.994
401.14	22.372
401.49	20.795
401.85	21.263
402.21	21.324
402.57	21.903
402.92	21.455
403.28	21.778
403.63	20.777
403.99	20.929
404.35	22.333
404.70	21.500
405.06	20.213
405.42	21.245
405.77	21.444
406.13	21.692
406.49	20.807
406.84	20.587
407.20	21.005
407.55	20.862
407.91	20.804
408.27	20.497
408.62	21.348
408.98	21.171
409.34	20.514
409.69	20.411
410.05	20.751
410.40	20.966
410.76	19.977
411.11	20.379
411.47	19.568
411.83	20.445
412.18	20.048
412.54	21.562
412.89	20.295
413.25	20.410
413.60	20.386
413.96	20.527
414.31	21.192
414.67	21.353
415.03	21.137
415.38	20.946
415.74	20.783
416.09	21.674
416.45	21.719
416.80	21.745
417.16	20.687
417.51	21.529
417.87	21.026
418.22	20.960
418.58	21.338
418.93	20.642
419.29	20.518
419.64	20.957
420.00	21.062
420.35	21.370
420.71	20.362
421.06	20.777
421.42	21.013
421.77	20.766
422.12	20.562
422.48	20.134
422.83	20.759
423.19	20.626
423.54	20.625
423.90	20.668
424.25	20.969
424.61	20.604
424.96	20.158
425.31	19.978
425.67	20.988
426.02	20.415
426.38	20.712
426.73	21.342
427.09	21.174
427.44	20.315
427.79	20.869
428.15	22.098
428.50	21.143
428.85	20.811
429.21	20.908
429.56	21.486
429.92	20.885
430.27	20.561
430.62	20.166
430.98	21.158
431.33	20.665
431.68	19.852
432.04	20.383
432.39	20.692
432.74	21.487
433.10	21.041
433.45	20.850
433.80	21.622
434.16	21.125
434.51	21.053
434.86	21.067
435.22	21.232
435.57	21.340
435.92	21.628
436.28	22.293
436.63	21.610
436.98	21.791
437.34	22.260
437.69	20.885
438.04	21.559
438.39	21.191
438.75	21.381
439.10	21.263
439.45	22.272
439.81	21.978
440.16	21.519
440.51	20.439
440.86	22.165
441.22	21.429
441.57	21.522
441.92	21.422
442.27	21.856
442.63	21.341
442.98	21.336
443.33	21.585
443.68	21.529
444.03	21.301
444.39	21.422
444.74	21.687
445.09	21.380
445.44	22.104
445.79	21.832
446.15	22.053
446.50	22.363
446.85	22.012
447.20	21.194
447.55	22.403
447.91	22.429
448.26	22.151
448.61	21.891
448.96	21.841
449.31	22.277
449.66	22.924
450.02	21.448
450.37	21.932
450.72	22.259
451.07	22.513
451.42	23.118
451.77	23.139
452.12	22.348
452.47	22.722
452.83	22.535
453.18	22.342
453.53	22.676
453.88	22.229
454.23	22.313
454.58	23.077
454.93	21.827
455.28	22.827
455.63	22.577
455.98	22.617
456.34	23.283
456.69	23.659
457.04	22.196
457.39	21.829
457.74	22.860
458.09	21.561
458.44	21.851
458.79	22.334
459.14	21.495
459.49	22.990
459.84	21.902
460.19	22.260
460.54	22.222
460.89	22.335
461.24	22.509
461.59	22.676
461.94	22.222
462.29	22.025
462.64	23.178
462.99	23.161
463.34	22.294
463.69	23.049
464.04	22.395
464.39	22.553
464.74	21.161
465.09	22.577
465.44	22.361
465.79	22.537
466.14	22.417
466.49	22.029
466.84	21.851
467.19	23.140
467.54	21.862
467.89	23.298
468.24	22.235
468.59	22.083
468.94	22.283
469.29	22.786
469.64	23.601
469.99	23.972
470.34	23.403
470.68	22.621
471.03	23.149
471.38	23.841
471.73	22.926
472.08	23.810
472.43	23.526
472.78	23.175
473.13	22.841
473.48	23.166
473.83	21.908
474.17	23.526
474.52	23.104
474.87	22.229
475.22	23.130
475.57	23.033
475.92	22.381
476.27	22.524
476.61	23.271
476.96	22.884
477.31	22.468
477.66	23.296
478.01	22.641
478.36	22.245
478.70	21.439
479.05	22.228
479.40	22.619
479.75	22.989
480.10	23.088
480.45	22.176
480.79	22.350
481.14	21.541
481.49	21.500
481.84	21.944
482.19	22.227
482.53	22.310
482.88	22.715
483.23	21.290
483.58	21.993
483.92	22.395
484.27	21.832
484.62	22.241
484.97	21.543
485.31	21.311
485.66	20.796
486.01	20.089
486.36	19.916
486.70	19.842
487.05	20.000
487.40	20.394
487.75	20.332
488.09	20.114
488.44	20.841
488.79	20.861
489.13	21.202
489.48	21.294
489.83	21.893
490.17	21.552
490.52	21.447
490.87	21.724
491.22	22.385
491.56	22.178
491.91	21.998
492.26	21.604
492.60	21.686
492.95	21.885
493.30	22.293
493.64	22.417
493.99	21.869
494.34	21.694
494.68	21.558
495.03	22.497
495.37	21.972
495.72	22.238
496.07	22.013
496.41	21.503
496.76	21.444
497.11	21.937
497.45	22.315
497.80	22.428
498.14	21.729
498.49	22.098
498.84	22.944
499.18	21.846
499.53	22.186
499.87	22.327
500.22	22.386
500.56	22.702
500.91	22.217
501.26	22.646
501.60	22.268
501.95	21.998
502.29	22.311
502.64	21.262
502.98	21.699
503.33	22.806
503.67	23.135
504.02	21.541
504.36	22.489
504.71	22.895
505.06	22.243
505.40	22.461
505.75	22.264
506.09	22.678
506.44	23.402
506.78	22.495
507.13	22.831
507.47	22.659
507.82	22.871
508.16	22.930
508.51	23.285
508.85	23.267
509.19	23.299
509.54	23.145
509.88	23.769
510.23	22.500
510.57	22.490
510.92	23.526
511.26	23.243
511.61	22.895
511.95	23.046
512.30	23.500
512.64	23.728
512.98	22.963
513.33	24.027
513.67	24.081
514.02	23.481
514.36	22.949
514.70	23.360
515.05	23.655
515.39	24.232
515.74	24.604
516.08	24.728
516.42	24.918
516.77	24.587
517.11	23.947
517.46	24.407
517.80	24.140
518.14	24.676
518.49	24.476
518.83	23.736
519.17	24.792
519.52	24.795
519.86	24.142
520.20	24.986
520.55	23.968
520.89	24.195
521.23	24.825
521.58	24.842
521.92	25.015
522.26	23.934
522.61	25.253
522.95	25.345
523.29	25.322
523.64	24.740
523.98	24.941
524.32	24.510
524.66	25.391
525.01	24.615
525.35	24.573
525.69	25.587
526.04	25.164
526.38	25.839
526.72	24.702
527.06	24.897
527.41	25.574
527.75	24.407
528.09	24.383
528.43	24.771
528.78	24.985
529.12	25.647
529.46	25.307
529.80	25.350
530.15	25.575
530.49	23.947
530.83	25.411
531.17	24.354
531.51	25.138
531.86	24.336
532.20	24.722
532.54	25.487
532.88	25.297
533.22	25.533
533.57	25.564
533.91	25.117
534.25	24.755
534.59	25.322
534.93	25.313
535.27	24.075
535.62	24.212
535.96	24.468
536.30	25.838
536.64	24.783
536.98	25.299
537.32	25.250
537.66	24.936
538.01	25.201
538.35	24.828
538.69	25.000
539.03	24.689
539.37	24.272
539.71	25.309
540.05	24.985
540.39	24.843
540.73	25.443
541.07	24.780
541.42	24.938
541.76	25.092
542.10	24.106
542.44	24.688
542.78	24.481
543.12	24.601
543.46	24.875
543.80	25.564
544.14	25.139
544.48	24.757
544.82	26.116
545.16	23.558
545.50	24.831
545.84	25.947
546.18	24.772
546.52	25.836
546.86	25.274
547.20	25.129
547.54	24.699
547.88	26.034
548.22	24.408
548.56	24.160
548.90	24.437
549.24	25.584
549.58	24.613
549.92	25.147
550.26	25.896
550.60	24.551
550.94	25.780
551.28	26.138
551.62	27.172
551.96	25.270
552.30	24.720
552.64	26.019
552.98	24.034
553.32	23.688
553.66	24.560
554.00	24.968
554.34	25.366
554.68	24.664
555.02	25.187
555.36	25.931
555.69	25.065
556.03	24.650
556.37	25.558
556.71	25.619
557.05	24.377
557.39	25.400
557.73	26.078
558.07	25.151
558.41	25.565
558.75	25.445
559.08	25.375
559.42	25.698
559.76	25.873
560.10	24.914
560.44	24.419
560.78	25.384
561.12	25.429
561.45	24.656
561.79	24.782
562.13	24.637
562.47	24.984
562.81	25.179
563.15	25.727
563.48	23.913
563.82	24.828
564.16	25.124
564.50	24.533
564.84	25.471
565.17	24.421
565.51	26.108
565.85	25.231
566.19	24.107
566.52	24.489
566.86	25.044
567.20	24.831
567.54	24.782
567.88	24.830
568.21	22.966
568.55	23.298
568.89	23.951
569.23	22.951
569.56	23.163
569.90	22.206
570.24	22.555
570.57	22.388
570.91	21.186
571.25	22.034
571.59	21.686
571.92	20.990
572.26	20.566
572.60	21.022
572.93	21.622
573.27	21.453
573.61	20.926
573.95	21.116
574.28	20.795
574.62	20.913
574.96	20.502
575.29	20.602
575.63	20.589
575.97	20.131
576.30	20.729
576.64	20.919
576.98	20.943
577.31	20.806
577.65	20.825
577.98	20.723
578.32	20.218
578.66	20.295
578.99	20.663
579.33	20.704
579.67	20.586
580.00	20.248
580.34	20.384
580.67	20.492
581.01	21.088
581.35	20.851
581.68	19.964
582.02	20.107
582.35	20.177
582.69	20.616
583.02	20.366
583.36	20.797
583.70	21.028
584.03	21.327
584.37	21.126
584.70	21.423
585.04	20.723
585.37	20.852
585.71	20.989
586.04	20.574
586.38	20.924
586.72	21.338
587.05	20.973
587.39	21.138
587.72	21.371
588.06	20.884
588.39	21.392
588.73	21.139
589.06	21.768
589.40	21.721
589.73	21.436
590.07	22.546
590.40	22.474
590.73	22.512
591.07	22.694
591.40	22.834
591.74	22.403
592.07	21.797
592.41	22.542
592.74	21.604
593.08	21.973
593.41	21.394
593.75	21.874
594.08	21.928
594.41	21.994
594.75	22.021
595.08	22.085
595.42	22.087
595.75	21.718
596.09	21.794
596.42	22.214
596.75	22.476
597.09	22.493
597.42	22.122
597.75	21.907
598.09	22.240
598.42	22.889
598.76	21.974
599.09	22.177
599.42	22.145
599.76	21.608
600.09	21.831
600.42	21.651
600.76	21.856
601.09	21.540
601.42	21.964
601.76	22.163
602.09	22.149
602.42	22.144
602.76	22.770
603.09	22.851
603.42	22.239
603.76	22.054
604.09	22.222
604.42	22.863
604.76	22.916
605.09	22.816
605.42	22.471
605.75	22.463
606.09	22.303
606.42	22.548
606.75	22.347
607.09	22.345
607.42	22.660
607.75	22.651
608.08	22.340
608.42	22.987
608.75	21.908
609.08	22.393
609.41	23.045
609.75	23.443
610.08	22.707
610.41	23.276
610.74	23.333
611.07	22.738
611.41	23.262
611.74	23.853
612.07	22.592
612.40	23.684
612.73	23.665
613.07	23.264
613.40	23.759
613.73	23.465
614.06	23.000
614.39	23.535
614.72	22.853
615.06	22.404
615.39	23.861
615.72	22.846
616.05	23.656
616.38	22.730
616.71	23.440
617.05	23.723
617.38	23.764
617.71	23.622
618.04	23.556
618.37	23.513
618.70	24.018
619.03	23.993
619.36	24.937
619.69	24.208
620.03	25.310
620.36	24.470
620.69	25.415
621.02	25.136
621.35	25.860
621.68	26.401
622.01	26.937
622.34	24.763
622.67	25.632
623.00	24.779
623.33	25.506
623.66	24.418
623.99	25.548
624.32	25.203
624.65	25.741
624.99	24.949
625.32	25.651
625.65	24.552
625.98	24.547
626.31	26.706
626.64	25.133
626.97	25.249
627.30	25.932
627.63	25.353
627.96	25.822
628.29	27.310
628.62	24.893
628.95	27.482
629.28	27.958
629.61	26.450
629.94	25.756
630.26	27.210
630.59	27.128
630.92	26.816
631.25	26.564
631.58	29.219
631.91	28.069
632.24	27.600
632.57	27.505
632.90	29.193
633.23	28.017
633.56	27.187
633.89	27.331
634.22	29.279
634.55	26.667
634.88	29.792
635.20	29.372
635.53	29.152
635.86	29.866
636.19	30.640
636.52	28.432
636.85	26.106
637.18	29.252
637.51	29.050
637.83	27.002
638.16	29.660
638.49	29.820
638.82	29.225
639.15	28.320
639.48	30.450
639.81	28.449
640.13	28.344
640.46	30.594
640.79	28.739
641.12	28.478
641.45	28.719
641.77	29.590
642.10	29.183
642.43	30.725
642.76	31.108
643.09	29.683
643.41	30.856
643.74	30.360
644.07	28.466
644.40	29.438
644.73	31.081
645.05	30.609
645.38	32.925
645.71	29.590
646.04	31.756
646.36	32.394
646.69	30.560
647.02	32.160
647.35	29.921
647.67	32.739
648.00	31.270
648.33	30.827
648.66	31.667
648.98	29.420
649.31	30.364
649.64	27.939
649.96	30.299
650.29	30.286
650.62	31.517
650.94	31.325
651.27	31.738
651.60	32.081
651.92	29.032
652.25	30.236
652.58	28.794
652.90	30.539
653.23	28.951
653.56	30.267
653.88	30.837
654.21	30.938
654.54	28.697
654.86	30.826
655.19	29.288
655.52	24.532
655.84	18.284
656.17	20.928
656.49	30.083
656.82	35.034
657.15	28.379
657.47	21.013
657.80	15.371
658.13	12.189
658.45	16.354
658.78	20.150
659.10	20.700
659.43	21.142
659.75	22.349
660.08	23.559
660.41	25.862
660.73	30.866
661.06	30.030
661.38	31.857
661.71	32.554
662.03	33.270
662.36	32.762
662.68	32.216
663.01	32.613
663.33	30.755
663.66	31.361
663.98	34.921
664.31	33.955
664.63	32.375
664.96	33.583
665.28	32.957
665.61	31.509
665.93	33.774
666.26	34.019
666.58	33.945
666.91	34.749
667.23	31.526
667.56	34.908
667.88	33.817
668.21	34.016
668.53	35.484
668.86	33.267
669.18	34.623
669.50	31.818
669.83	36.550
670.15	34.304
670.48	31.836
670.80	34.861
671.13	33.865
671.45	34.269
671.77	34.137
672.10	32.855
672.42	29.770
672.75	29.114
673.07	29.889
673.39	28.754
673.72	30.796
674.04	31.004
674.37	29.764
674.69	31.041
675.01	31.530
675.34	30.814
675.66	32.227
675.98	31.558
676.31	31.600
676.63	31.412
676.95	32.937
677.28	33.063
677.60	32.998
677.92	32.540
678.25	31.589
678.57	33.520
678.89	32.188
679.22	32.353
679.54	31.317
679.86	31.937
680.18	29.525
680.51	28.524
680.83	27.027
681.15	31.023
681.48	31.597
681.80	30.823
682.12	32.353
682.44	28.288
682.77	31.495
683.09	32.233
683.41	35.102
683.73	35.039
684.06	30.357
684.38	34.109
684.70	31.475
685.02	29.861
685.34	29.577
685.67	29.743
685.99	31.199
686.31	28.659
686.63	29.919
686.96	30.065
687.28	29.027
687.60	28.669
687.92	30.821
688.24	31.034
688.56	30.961
688.89	30.019
689.21	31.021
689.53	34.387
689.85	30.488
690.17	32.233
690.49	32.661
690.82	31.092
691.14	35.152
691.46	33.881
691.78	32.359
692.10	29.198
692.42	29.220
692.74	32.946
693.06	30.233
693.39	31.621
693.71	31.238
694.03	32.544
694.35	31.928
694.67	29.939
694.99	31.042
695.31	33.784
695.63	32.127
695.95	34.163
696.27	30.088
696.59	33.890
696.91	31.899
697.23	32.805
697.56	31.950
697.88	29.940
698.20	30.755
698.52	27.821
698.84	31.828
699.16	31.983
699.48	30.932
699.80	32.680
700.12	32.333
700.44	33.879
700.76	31.265
701.08	33.159
701.40	32.208
701.72	41.176
702.04	34.417
702.36	35.215
702.68	34.574
703.00	31.078
703.32	33.251
703.64	35.013
703.96	33.333
704.28	35.714
704.60	39.155
704.91	37.535
705.23	35.511
705.55	32.938
705.87	37.460
706.19	38.871
706.51	40.752
706.83	33.333
707.15	34.225
707.47	33.414
707.79	30.345
708.11	29.025
708.43	30.562
708.74	30.090
709.06	33.721
709.38	34.491
709.70	31.608
710.02	32.065
710.34	34.254
710.66	33.333
710.98	34.973
711.29	32.312
711.61	34.819
711.93	32.827
712.25	35.542
712.57	35.691
712.89	38.788
713.20	36.422
713.52	33.645
713.84	33.233
714.16	30.435
714.48	28.530
714.80	30.352
715.11	32.181
715.43	31.844
715.75	30.986
716.07	34.393
716.39	33.143
716.70	33.022
717.02	36.700
717.34	39.928
717.66	35.764
717.97	45.833
718.29	36.972
718.61	30.405
718.93	36.332
719.24	34.899
719.56	38.621
719.88	36.943
720.20	33.871
720.51	33.987
720.83	35.452
721.15	40.816
721.46	38.699
721.78	40.418
722.10	37.153
722.42	33.779
722.73	33.935
723.05	40.702
723.37	40.283
723.68	34.766
724.00	36.364
724.32	42.205
724.63	36.538
724.95	43.529
725.27	43.494
725.58	37.500
725.90	34.859
726.22	32.192
726.53	34.114
726.85	35.179
727.16	37.919
727.48	38.870
727.80	37.410
728.11	36.071
728.43	35.507
728.74	37.413
729.06	34.050
729.38	35.439
729.69	39.000
730.01	39.803
730.32	35.235
730.64	36.877
730.96	36.036
731.27	31.804
731.59	29.885
731.90	30.641
732.22	32.000
732.53	31.339
732.85	34.795
733.16	34.639
733.48	33.856
733.80	34.783
734.11	35.890
734.43	34.211
734.74	31.099
735.06	33.069
735.37	32.732
735.69	31.304
736.00	33.639
736.32	29.394
736.63	30.599
736.95	32.609
737.26	31.707
737.58	35.276
737.89	31.627
738.21	33.444
738.52	31.438
738.83	36.630
739.15	36.237
739.46	36.552
739.78	36.395
740.09	34.402
740.41	33.436
740.72	36.825
741.04	35.664
741.35	33.984
741.66	36.364
741.98	42.489
742.29	34.259
742.61	36.283
742.92	32.203
743.23	37.600
743.55	35.849
743.86	36.471
744.18	39.831
744.49	38.017
744.80	41.935
745.12	41.964
745.43	37.850
745.74	40.000
746.06	33.772
746.37	40.000
746.68	41.593
747.00	39.910
747.31	42.857
747.62	34.016
747.94	36.481
748.25	30.739
748.56	40.254
748.88	37.946
749.19	42.326
749.50	33.790
749.82	35.802
750.13	38.340
750.44	37.000
750.75	36.577
751.07	37.829
751.38	31.353
751.69	34.007
752.01	36.014
752.32	35.548
752.63	38.591
752.94	37.063
753.26	35.156
753.57	35.798
753.88	36.330
754.19	32.491
754.51	35.216
754.82	33.557
755.13	35.135
755.44	34.074
755.75	33.333
756.07	37.329
756.38	32.026
756.69	29.688
757.00	36.499
757.31	32.676
757.63	30.579
757.94	29.521
758.25	31.159
758.56	27.231
758.87	33.333
759.18	31.105
759.50	33.435
759.81	34.125
760.12	32.584
760.43	31.933
760.74	30.127
761.05	28.382
761.36	27.604
761.67	29.919
761.99	33.521
762.30	30.868
762.61	34.028
762.92	36.364
763.23	38.491
763.54	36.923
763.85	31.518
764.16	36.458
764.47	33.446
764.78	33.876
765.10	26.524
765.41	27.841
765.72	26.796
766.03	31.118
766.34	34.843
766.65	35.741
766.96	37.652
767.27	41.121
767.58	39.604
767.89	45.304
768.20	52.439
768.51	40.816
768.82	37.281
769.13	35.686
769.44	31.579
769.75	31.461
770.06	40.756
770.37	26.316
770.68	38.222
770.99	36.864
771.30	36.820
771.61	38.462
771.92	33.588
772.23	33.871
772.54	42.222
772.85	43.069
773.16	40.761
773.47	36.111
773.78	38.614
774.09	45.455
774.39	43.636
774.70	32.941
775.01	40.789
775.32	34.783
775.63	43.836
775.94	49.383
776.25	48.966
776.56	48.855
776.87	52.672
777.18	50.758
777.48	55.906
777.79	52.308
778.10	47.727
778.41	52.985
778.72	50.376
779.03	40.385
779.34	47.973
779.65	44.720
779.95	44.099
780.26	43.452
780.57	55.782
780.88	51.064
781.19	56.667
781.50	42.012
781.80	46.995
782.11	39.683
782.42	38.506
782.73	42.373
783.04	42.581
783.34	35.659
783.65	41.497
783.96	46.452
784.27	43.046
784.57	41.447
784.88	39.130
785.19	46.667
785.50	56.897
785.81	58.915
786.11	48.889
786.42	46.457
786.73	47.748
787.04	52.830
787.34	41.463
787.65	55.303
787.96	47.727
788.26	51.181
788.57	50.365
788.88	42.958
789.19	46.565
789.49	44.595
789.80	53.906
790.11	51.240
790.41	47.222
790.72	51.852
791.03	57.692
791.33	61.616
791.64	64.211
791.95	62.105
792.25	58.333
792.56	57.000
792.87	67.073
793.17	56.818
793.48	55.294
793.79	58.621
794.09	59.091
794.40	58.621
794.70	43.651
795.01	43.846
795.32	48.092
795.62	52.991
795.93	52.941
796.23	49.593
796.54	64.286
796.85	69.318
797.15	75.325
797.46	67.073
797.76	62.500
798.07	70.667
798.37	63.750
798.68	72.500
798.99	69.512
799.29	57.333
799.60	48.837
799.90	53.947
800.21	65.152
800.51	64.789
800.82	65.517
801.12	83.077
801.43	73.333
801.73	72.414
802.04	64.935
802.34	72.603
802.65	98.039
802.95	78.261
803.26	98.387
803.56	86.667
803.87	71.642
804.17	68.254
804.48	62.264
804.78	73.611
805.09	75.758
805.39	80.952
805.70	87.719
806.00	72.857
806.30	81.250
806.61	75.294
806.91	68.889
807.22	65.217
807.52	50.000
807.83	75.000
808.13	86.957
808.43	82.258
808.74	72.603
809.04	76.786
809.35	85.294
809.65	80.303
809.95	109.804
810.26	109.259
810.56	101.563
810.86	81.633
811.17	94.737
811.47	104.348
811.77	87.931
812.08	81.034
812.38	95.238
812.69	102.381
812.99	106.667
813.29	117.143
813.59	132.258
813.90	82.759
814.20	77.049
814.50	94.000
814.81	77.193
815.11	88.889
815.41	101.786
815.72	108.929
816.02	94.000
816.32	100.000
816.62	93.103
816.93	124.242
817.23	119.512
817.53	96.429
817.84	88.889
818.14	88.095
818.44	116.667
818.74	94.340
819.04	69.231
819.35	127.273
819.65	111.538
819.95	105.556
820.25	104.255
820.56	132.432
820.86	110.526
821.16	72.340
821.46	94.737
821.76	89.091
822.07	100.000
822.37	107.895
822.67	118.605
822.97	97.368
823.27	93.478
823.57	128.125
823.88	135.897
824.18	133.333
824.48	165.217
824.78	102.778
825.08	143.478
825.38	117.241
825.69	132.353
825.99	76.596
826.29	100.000
826.59	140.000
826.89	140.000
827.19	117.143
827.49	154.839
827.79	150.000
828.09	88.095
828.39	100.000
828.70	121.622
829.00	171.429
829.30	237.500
829.60	105.556
829.90	164.516
830.20	81.818
830.50	132.432
830.80	150.000
831.10	165.385
831.40	161.905
831.70	191.667
832.00	103.333
832.30	195.652
832.60	166.667
832.90	178.788
833.20	165.000
833.50	126.316
833.80	132.353
834.10	107.895
834.40	147.368
834.70	116.667
835.00	192.000
835.30	121.622
835.60	146.875
835.90	154.054
836.20	169.231
836.50	127.273
836.80	131.707
837.10	134.783
837.40	284.615
837.70	163.158
838.00	163.333
838.30	191.667
838.60	168.000
838.90	260.000
839.19	206.250
839.49	130.000
839.79	131.034
840.09	146.154
840.39	213.333
840.69	210.526
840.99	176.190
841.29	186.957
841.59	240.000
841.88	176.000
842.18	400.000
842.48	146.429
842.78	166.667
843.08	223.077
843.38	213.636
843.68	307.143
843.97	500.000
844.27	156.522
844.57	1800.000
844.87	292.857
845.17	255.556
845.47	161.905
845.76	170.833
846.06	500.000
846.36	229.412
846.66	238.462
846.96	231.250
847.25	207.692
847.55	189.474
847.85	205.556
848.15	500.000
848.44	272.727
848.74	180.952
849.04	204.167
849.34	211.765
849.63	262.500
849.93	225.000
850.23	1200.000
850.53	500.000
850.82	254.545
851.12	182.353
851.42	195.833
851.71	256.250
852.01	0.000
852.31	194.118
852.61	380.000
852.90	137.500
853.20	444.444
853.50	-2600.000
853.79	144.000
854.09	153.125
854.39	134.483
854.68	165.517
854.98	176.190
855.28	135.484
855.57	221.429
855.87	227.778
856.17	125.926
856.46	194.737
856.76	116.129
857.05	264.706
857.35	290.909
857.65	230.769
857.94	185.000
858.24	411.111
858.53	235.714
858.83	485.714
859.13	213.043
859.42	366.667
859.72	300.000
860.01	325.000
860.31	725.000
860.60	370.000
860.90	362.500
861.20	230.769
861.49	442.857
861.79	-3300.000
862.08	485.714
862.38	444.444
862.67	214.286
862.97	350.000
863.26	170.000
863.56	925.000
863.85	323.077
864.15	235.294
864.44	205.556
864.74	341.667
865.03	327.273
865.33	400.000
865.62	193.333
865.92	583.333
866.21	725.000
866.51	700.000
866.80	233.333
867.10	1400.000
867.39	3300.000
867.69	580.000
867.98	750.000
868.27	157.143
868.57	333.333
868.86	1075.000
869.16	176.190
869.45	2700.000
869.75	-416.667
870.04	725.000
870.33	740.000
870.63	350.000
870.92	188.235
871.22	900.000
871.51	514.286
871.80	408.333
872.10	307.692
>>>>>End Processed Spectral Data<<<<<
