SpectraSuite Data File
++++++++++++++++++++++++++++++++++++
Date: Tue May 12 17:15:56 PDT 2015
User: schluterlab
Dark Spectrum Present: Yes
Reference Spectrum Present: Yes
Number of Sampled Component Spectra: 1
Spectrometers: USB2E3373
Integration Time (usec): 3000 (USB2E3373)
Spectra Averaged: 3 (USB2E3373)
Boxcar Smoothing: 0 (USB2E3373)
Correct for Electrical Dark: No (USB2E3373)
Strobe/Lamp Enabled: No (USB2E3373)
Correct for Detector Non-linearity: No (USB2E3373)
Correct for Stray Light: No (USB2E3373)
Number of Pixels in Processed Spectrum: 2048
>>>>>Begin Processed Spectral Data<<<<<
178.53	0.000
178.91	-275.000
179.29	-575.000
179.67	-3200.000
180.04	-66.667
180.42	725.000
180.80	1700.000
181.18	0.000
181.56	-362.500
181.94	0.000
182.31	1200.000
182.69	-3700.000
183.07	485.714
183.45	-3400.000
183.83	-1550.000
184.20	320.000
184.58	471.429
184.96	-246.154
185.34	-200.000
185.72	2250.000
186.09	-950.000
186.47	-2900.000
186.85	1400.000
187.23	360.000
187.61	1750.000
187.98	500.000
188.36	250.000
188.74	375.000
189.12	300.000
189.49	950.000
189.87	0.000
190.25	462.500
190.63	2100.000
191.00	-250.000
191.38	-4100.000
191.76	-750.000
192.14	537.500
192.51	-2800.000
192.89	1500.000
193.27	1033.333
193.65	-1000.000
194.02	-720.000
194.40	442.857
194.78	-228.571
195.15	233.333
195.53	-2900.000
195.91	-640.000
196.29	3800.000
196.66	237.500
197.04	725.000
197.42	-1400.000
197.79	625.000
198.17	350.000
198.55	0.000
198.92	471.429
199.30	1366.667
199.68	1850.000
200.05	433.333
200.43	-516.667
200.81	216.667
201.18	2900.000
201.56	275.000
201.94	-750.000
202.31	-325.000
202.69	-360.000
203.07	3500.000
203.44	-483.333
203.82	325.000
204.19	560.000
204.57	-1350.000
204.95	-975.000
205.32	-640.000
205.70	650.000
206.08	650.000
206.45	-1000.000
206.83	422.222
207.20	215.789
207.58	216.667
207.96	620.000
208.33	0.000
208.71	542.857
209.08	580.000
209.46	-2800.000
209.84	-725.000
210.21	820.000
210.59	-480.000
210.96	283.333
211.34	-900.000
211.71	336.364
212.09	650.000
212.46	1550.000
212.84	-483.333
213.22	288.889
213.59	-2100.000
213.97	400.000
214.34	875.000
214.72	1333.333
215.09	833.333
215.47	-3300.000
215.84	-260.000
216.22	-375.000
216.59	0.000
216.97	0.000
217.34	1600.000
217.72	-1600.000
218.09	1166.667
218.47	412.500
218.84	725.000
219.22	1100.000
219.59	1000.000
219.97	485.714
220.34	366.667
220.72	1550.000
221.09	3900.000
221.47	266.667
221.84	1033.333
222.22	370.000
222.59	283.333
222.97	171.429
223.34	225.000
223.72	-1250.000
224.09	1300.000
224.46	207.692
224.84	-550.000
225.21	344.444
225.59	233.333
225.96	1033.333
226.34	-740.000
226.71	-375.000
227.08	-300.000
227.46	0.000
227.83	-616.667
228.21	-1850.000
228.58	408.333
228.95	925.000
229.33	355.556
229.70	1075.000
230.08	346.154
230.45	3600.000
230.82	-800.000
231.20	-566.667
231.57	-900.000
231.95	560.000
232.32	250.000
232.69	433.333
233.07	308.333
233.44	-1650.000
233.81	213.333
234.19	162.963
234.56	256.250
234.93	211.765
235.31	175.000
235.68	212.500
236.05	135.714
236.43	118.519
236.80	300.000
237.17	131.034
237.55	121.875
237.92	92.500
238.29	112.121
238.67	112.500
239.04	102.439
239.41	50.000
239.79	77.500
240.16	58.333
240.53	57.377
240.91	57.971
241.28	67.797
241.65	60.606
242.02	69.014
242.40	58.571
242.77	60.440
243.14	55.696
243.51	46.465
243.89	49.533
244.26	36.449
244.63	44.554
245.00	38.532
245.38	32.203
245.75	39.394
246.12	40.741
246.49	26.950
246.87	26.230
247.24	37.333
247.61	28.750
247.98	37.415
248.36	22.424
248.73	28.571
249.10	29.167
249.47	24.500
249.84	24.876
250.22	23.784
250.59	23.000
250.96	24.895
251.33	23.721
251.70	23.214
252.08	24.790
252.45	22.709
252.82	19.392
253.19	21.344
253.56	21.154
253.94	19.565
254.31	20.543
254.68	20.557
255.05	23.448
255.42	22.628
255.79	21.173
256.16	20.000
256.54	23.052
256.91	22.876
257.28	21.070
257.65	16.301
258.02	17.699
258.39	22.636
258.76	20.580
259.14	18.571
259.51	20.408
259.88	19.757
260.25	18.407
260.62	17.260
260.99	17.631
261.36	17.549
261.73	16.489
262.10	20.681
262.47	18.000
262.85	17.067
263.22	17.995
263.59	19.693
263.96	18.045
264.33	15.802
264.70	19.165
265.07	20.976
265.44	20.183
265.81	17.453
266.18	17.162
266.55	15.839
266.92	17.450
267.29	16.667
267.66	16.143
268.03	16.816
268.40	16.913
268.77	19.163
269.14	13.666
269.51	16.258
269.88	17.143
270.25	12.311
270.62	15.236
270.99	17.850
271.36	16.057
271.73	16.771
272.10	15.152
272.47	14.484
272.84	14.571
273.21	16.529
273.58	14.777
273.95	16.632
274.32	16.732
274.69	15.945
275.06	16.940
275.43	16.475
275.80	16.226
276.17	17.831
276.54	18.505
276.91	17.351
277.28	16.423
277.65	17.712
278.02	14.890
278.39	13.669
278.76	15.862
279.13	16.192
279.50	14.545
279.87	16.574
280.23	13.996
280.60	16.241
280.97	16.724
281.34	14.191
281.71	16.522
282.08	16.410
282.45	15.034
282.82	14.883
283.19	14.785
283.56	13.884
283.92	15.472
284.29	13.977
284.66	15.462
285.03	16.584
285.40	14.545
285.77	12.500
286.14	14.861
286.51	15.337
286.87	13.449
287.24	12.312
287.61	14.742
287.98	15.672
288.35	14.815
288.72	13.354
289.08	14.565
289.45	15.701
289.82	12.656
290.19	14.202
290.56	15.575
290.93	13.094
291.29	14.641
291.66	12.712
292.03	14.306
292.40	14.092
292.77	13.928
293.13	14.693
293.50	12.011
293.87	12.466
294.24	14.965
294.60	13.459
294.97	13.427
295.34	12.882
295.71	15.900
296.08	14.267
296.44	13.850
296.81	14.640
297.18	12.674
297.55	14.163
297.91	12.562
298.28	13.406
298.65	13.865
299.02	12.786
299.38	14.029
299.75	13.415
300.12	14.220
300.48	14.520
300.85	14.422
301.22	14.302
301.59	13.325
301.95	12.952
302.32	15.250
302.69	14.706
303.05	16.386
303.42	14.686
303.79	14.843
304.15	13.531
304.52	14.165
304.89	14.392
305.25	14.794
305.62	15.885
305.99	14.457
306.35	14.737
306.72	14.464
307.09	13.561
307.45	14.678
307.82	14.506
308.19	14.742
308.55	14.700
308.92	15.505
309.29	15.878
309.65	15.461
310.02	16.126
310.38	14.656
310.75	13.790
311.12	14.272
311.48	16.120
311.85	15.076
312.22	15.091
312.58	15.452
312.95	15.243
313.31	14.045
313.68	15.478
314.05	15.934
314.41	15.084
314.78	15.436
315.14	16.493
315.51	16.840
315.87	15.876
316.24	16.060
316.61	16.294
316.97	14.404
317.34	16.083
317.70	15.891
318.07	16.459
318.43	17.223
318.80	16.813
319.16	16.434
319.53	16.903
319.89	16.129
320.26	18.529
320.62	17.582
320.99	16.397
321.35	16.048
321.72	17.078
322.08	16.990
322.45	16.349
322.81	17.383
323.18	17.229
323.54	16.986
323.91	17.226
324.27	17.330
324.64	17.474
325.00	17.328
325.37	17.116
325.73	17.285
326.10	17.399
326.46	17.093
326.83	17.600
327.19	16.948
327.56	16.374
327.92	16.967
328.29	18.331
328.65	18.664
329.01	17.536
329.38	17.174
329.74	17.421
330.11	18.245
330.47	18.755
330.84	16.739
331.20	16.836
331.56	17.789
331.93	18.135
332.29	16.837
332.66	16.837
333.02	16.409
333.38	17.714
333.75	18.349
334.11	17.534
334.48	17.009
334.84	17.061
335.20	16.852
335.57	16.961
335.93	16.569
336.29	16.667
336.66	19.297
337.02	16.595
337.38	17.197
337.75	17.230
338.11	18.312
338.47	16.935
338.84	17.189
339.20	15.152
339.56	17.073
339.93	16.890
340.29	16.134
340.65	16.848
341.02	17.619
341.38	16.831
341.74	16.030
342.11	15.275
342.47	17.145
342.83	16.161
343.20	16.492
343.56	15.488
343.92	16.350
344.28	16.427
344.65	16.626
345.01	17.063
345.37	14.744
345.73	15.714
346.10	16.892
346.46	16.348
346.82	15.818
347.19	16.692
347.55	16.081
347.91	15.483
348.27	15.802
348.63	16.456
349.00	15.308
349.36	15.331
349.72	15.826
350.08	17.081
350.45	17.060
350.81	17.355
351.17	14.715
351.53	15.473
351.89	14.996
352.26	15.495
352.62	16.365
352.98	15.951
353.34	16.410
353.70	14.832
354.07	16.154
354.43	15.591
354.79	14.655
355.15	15.467
355.51	15.030
355.87	16.491
356.24	15.781
356.60	14.384
356.96	14.481
357.32	15.072
357.68	16.079
358.04	15.805
358.40	15.817
358.77	15.327
359.13	15.165
359.49	14.974
359.85	14.296
360.21	14.413
360.57	15.912
360.93	15.152
361.29	14.719
361.66	15.138
362.02	14.418
362.38	14.719
362.74	15.570
363.10	15.498
363.46	14.503
363.82	15.288
364.18	15.292
364.54	15.880
364.90	14.458
365.26	15.684
365.62	15.401
365.98	14.315
366.35	14.897
366.71	15.059
367.07	15.154
367.43	14.775
367.79	15.293
368.15	13.908
368.51	15.162
368.87	13.655
369.23	14.622
369.59	14.565
369.95	14.545
370.31	14.237
370.67	14.920
371.03	14.916
371.39	15.028
371.75	14.515
372.11	14.752
372.47	15.205
372.83	15.228
373.19	15.490
373.55	14.845
373.91	13.881
374.27	14.881
374.63	14.373
374.99	14.555
375.35	15.323
375.71	15.237
376.07	15.451
376.42	13.747
376.78	14.579
377.14	13.958
377.50	14.419
377.86	14.478
378.22	13.955
378.58	14.225
378.94	13.277
379.30	13.159
379.66	13.666
380.02	14.604
380.38	13.934
380.74	14.879
381.09	14.194
381.45	13.584
381.81	13.712
382.17	13.736
382.53	13.797
382.89	13.779
383.25	12.789
383.61	13.660
383.97	14.037
384.32	14.225
384.68	14.676
385.04	14.185
385.40	13.938
385.76	14.102
386.12	12.863
386.48	13.556
386.83	13.692
387.19	13.958
387.55	13.722
387.91	13.106
388.27	13.385
388.62	13.204
388.98	12.886
389.34	13.444
389.70	13.443
390.06	13.049
390.42	12.708
390.77	13.391
391.13	13.398
391.49	13.612
391.85	13.477
392.20	13.766
392.56	14.038
392.92	13.195
393.28	13.229
393.64	12.729
393.99	13.100
394.35	13.655
394.71	12.545
395.07	12.591
395.42	12.998
395.78	12.461
396.14	13.133
396.50	12.455
396.85	13.659
397.21	13.177
397.57	13.150
397.92	12.016
398.28	13.183
398.64	12.682
399.00	12.614
399.35	12.882
399.71	12.472
400.07	12.557
400.42	12.597
400.78	12.903
401.14	13.388
401.49	12.846
401.85	12.688
402.21	12.888
402.57	12.687
402.92	12.364
403.28	12.470
403.63	13.067
403.99	12.606
404.35	13.189
404.70	12.817
405.06	11.735
405.42	12.687
405.77	12.183
406.13	13.015
406.49	11.995
406.84	12.070
407.20	12.272
407.55	12.615
407.91	12.891
408.27	11.947
408.62	13.306
408.98	13.069
409.34	12.215
409.69	12.072
410.05	12.343
410.40	11.425
410.76	12.078
411.11	12.796
411.47	12.222
411.83	11.716
412.18	12.621
412.54	12.372
412.89	11.268
413.25	12.828
413.60	12.442
413.96	11.251
414.31	11.983
414.67	13.470
415.03	11.877
415.38	12.177
415.74	11.497
416.09	12.742
416.45	13.704
416.80	12.444
417.16	13.113
417.51	12.038
417.87	12.390
418.22	11.665
418.58	12.229
418.93	12.076
419.29	12.076
419.64	12.235
420.00	12.530
420.35	11.963
420.71	12.019
421.06	12.007
421.42	11.341
421.77	12.271
422.12	11.742
422.48	12.018
422.83	12.779
423.19	12.203
423.54	11.903
423.90	11.665
424.25	12.218
424.61	11.956
424.96	11.971
425.31	11.166
425.67	12.065
426.02	11.778
426.38	11.494
426.73	12.261
427.09	12.159
427.44	12.212
427.79	11.492
428.15	11.786
428.50	12.857
428.85	12.581
429.21	12.264
429.56	11.665
429.92	12.034
430.27	11.563
430.62	11.258
430.98	11.627
431.33	11.593
431.68	11.506
432.04	11.847
432.39	12.514
432.74	12.939
433.10	11.683
433.45	11.832
433.80	12.466
434.16	12.034
434.51	12.074
434.86	12.793
435.22	11.453
435.57	12.389
435.92	12.464
436.28	12.212
436.63	11.777
436.98	12.387
437.34	12.443
437.69	11.534
438.04	12.312
438.39	12.434
438.75	12.305
439.10	11.549
439.45	12.267
439.81	12.377
440.16	12.108
440.51	12.613
440.86	12.991
441.22	11.634
441.57	12.021
441.92	11.895
442.27	11.340
442.63	11.280
442.98	11.422
443.33	12.266
443.68	12.072
444.03	12.394
444.39	12.194
444.74	11.801
445.09	11.743
445.44	11.902
445.79	11.891
446.15	12.053
446.50	12.131
446.85	12.749
447.20	11.244
447.55	11.854
447.91	12.946
448.26	12.620
448.61	11.664
448.96	12.691
449.31	11.936
449.66	13.012
450.02	11.939
450.37	11.660
450.72	12.011
451.07	12.507
451.42	12.507
451.77	12.371
452.12	13.159
452.47	12.819
452.83	13.577
453.18	12.372
453.53	12.197
453.88	12.457
454.23	13.481
454.58	12.704
454.93	12.692
455.28	13.035
455.63	12.766
455.98	12.352
456.34	12.705
456.69	12.866
457.04	12.172
457.39	12.057
457.74	13.739
458.09	11.847
458.44	13.034
458.79	13.103
459.14	12.111
459.49	12.797
459.84	12.772
460.19	11.977
460.54	12.593
460.89	12.740
461.24	12.543
461.59	12.755
461.94	12.411
462.29	13.043
462.64	12.751
462.99	13.052
463.34	13.091
463.69	13.551
464.04	13.299
464.39	12.936
464.74	12.134
465.09	12.885
465.44	12.459
465.79	12.194
466.14	11.659
466.49	12.805
466.84	12.653
467.19	12.361
467.54	12.252
467.89	13.791
468.24	12.044
468.59	11.488
468.94	13.225
469.29	12.767
469.64	13.055
469.99	12.853
470.34	13.472
470.68	12.897
471.03	13.342
471.38	12.583
471.73	13.129
472.08	13.112
472.43	13.346
472.78	12.484
473.13	12.703
473.48	13.142
473.83	12.250
474.17	13.131
474.52	12.618
474.87	12.905
475.22	12.964
475.57	12.539
475.92	12.264
476.27	12.242
476.61	12.011
476.96	12.644
477.31	12.853
477.66	12.721
478.01	11.965
478.36	12.822
478.70	12.506
479.05	11.297
479.40	12.897
479.75	12.165
480.10	13.020
480.45	11.671
480.79	12.028
481.14	11.983
481.49	12.123
481.84	11.961
482.19	12.227
482.53	12.560
482.88	12.545
483.23	11.953
483.58	12.163
483.92	12.523
484.27	12.158
484.62	12.097
484.97	12.154
485.31	11.301
485.66	10.622
486.01	10.398
486.36	10.300
486.70	10.077
487.05	11.005
487.40	10.897
487.75	10.944
488.09	11.080
488.44	11.377
488.79	11.385
489.13	11.833
489.48	11.946
489.83	11.593
490.17	11.478
490.52	11.800
490.87	12.414
491.22	12.810
491.56	12.604
491.91	12.321
492.26	11.849
492.60	12.210
492.95	12.913
493.30	12.420
493.64	12.174
493.99	11.941
494.34	12.192
494.68	11.864
495.03	12.438
495.37	12.202
495.72	13.100
496.07	12.264
496.41	12.076
496.76	12.199
497.11	12.125
497.45	12.363
497.80	12.002
498.14	12.575
498.49	12.256
498.84	12.804
499.18	12.157
499.53	12.540
499.87	12.129
500.22	12.391
500.56	12.163
500.91	12.941
501.26	12.494
501.60	11.749
501.95	12.500
502.29	12.178
502.64	11.734
502.98	12.139
503.33	12.383
503.67	12.406
504.02	12.226
504.36	11.855
504.71	12.252
505.06	11.919
505.40	12.728
505.75	12.067
506.09	13.019
506.44	12.547
506.78	12.476
507.13	12.409
507.47	12.567
507.82	13.285
508.16	12.592
508.51	12.415
508.85	12.726
509.19	12.922
509.54	12.793
509.88	12.730
510.23	12.500
510.57	11.824
510.92	12.987
511.26	12.600
511.61	12.112
511.95	12.593
512.30	12.400
512.64	12.773
512.98	12.558
513.33	12.705
513.67	12.688
514.02	12.104
514.36	12.150
514.70	12.267
515.05	11.934
515.39	13.268
515.74	12.849
516.08	12.745
516.42	13.169
516.77	12.533
517.11	12.160
517.46	13.793
517.80	12.507
518.14	12.563
518.49	12.679
518.83	12.363
519.17	13.089
519.52	12.671
519.86	12.807
520.20	13.315
520.55	13.397
520.89	13.333
521.23	13.084
521.58	13.024
521.92	13.353
522.26	12.322
522.61	12.894
522.95	13.093
523.29	13.684
523.64	13.121
523.98	13.263
524.32	13.033
524.66	12.638
525.01	12.367
525.35	12.257
525.69	13.365
526.04	13.087
526.38	13.125
526.72	12.649
527.06	12.892
527.41	13.482
527.75	13.086
528.09	12.643
528.43	13.667
528.78	13.119
529.12	13.185
529.46	13.676
529.80	12.909
530.15	13.494
530.49	11.673
530.83	13.041
531.17	12.854
531.51	12.998
531.86	13.104
532.20	12.608
532.54	13.685
532.88	12.742
533.22	14.077
533.57	13.301
533.91	12.762
534.25	12.406
534.59	12.807
534.93	12.685
535.27	11.725
535.62	12.894
535.96	12.234
536.30	12.919
536.64	12.360
536.98	12.775
537.32	13.750
537.66	12.691
538.01	13.375
538.35	13.100
538.69	12.379
539.03	11.940
539.37	12.803
539.71	13.765
540.05	11.938
540.39	13.333
540.73	12.848
541.07	12.045
541.42	12.065
541.76	13.625
542.10	12.392
542.44	12.718
542.78	12.461
543.12	12.331
543.46	12.030
543.80	12.594
544.14	13.127
544.48	12.044
544.82	12.538
545.16	12.811
545.50	12.293
545.84	12.689
546.18	13.459
546.52	12.393
546.86	13.475
547.20	12.855
547.54	12.160
547.88	12.652
548.22	12.204
548.56	12.493
548.90	12.871
549.24	12.887
549.58	12.436
549.92	12.508
550.26	13.725
550.60	13.041
550.94	12.483
551.28	14.276
551.62	14.138
551.96	12.500
552.30	11.866
552.64	13.010
552.98	12.693
553.32	12.548
553.66	12.313
554.00	13.063
554.34	14.115
554.68	13.374
555.02	13.510
555.36	13.298
555.69	13.024
556.03	12.357
556.37	12.811
556.71	12.907
557.05	12.516
557.39	13.600
557.73	13.477
558.07	13.078
558.41	13.434
558.75	13.201
559.08	12.795
559.42	13.314
559.76	12.758
560.10	12.595
560.44	12.077
560.78	13.107
561.12	12.587
561.45	11.890
561.79	12.422
562.13	12.445
562.47	12.005
562.81	12.167
563.15	12.282
563.48	12.112
563.82	12.414
564.16	11.878
564.50	12.357
564.84	12.340
565.17	12.894
565.51	12.192
565.85	12.153
566.19	12.440
566.52	12.395
566.86	13.076
567.20	12.247
567.54	12.118
567.88	12.363
568.21	10.684
568.55	11.819
568.89	11.998
569.23	11.044
569.56	11.022
569.90	10.564
570.24	10.562
570.57	9.896
570.91	9.672
571.25	10.024
571.59	9.673
571.92	9.715
572.26	9.057
572.60	9.470
572.93	9.948
573.27	9.678
573.61	9.204
573.95	9.711
574.28	9.719
574.62	9.013
574.96	9.222
575.29	9.146
575.63	9.093
575.97	9.323
576.30	9.162
576.64	9.146
576.98	9.078
577.31	9.362
577.65	9.434
577.98	8.543
578.32	8.992
578.66	9.040
578.99	9.398
579.33	9.269
579.67	8.793
580.00	9.103
580.34	8.941
580.67	9.172
581.01	9.634
581.35	9.163
581.68	8.716
582.02	8.653
582.35	8.767
582.69	8.741
583.02	9.048
583.36	9.175
583.70	9.177
584.03	9.421
584.37	9.541
584.70	8.982
585.04	8.994
585.37	8.950
585.71	9.416
586.04	8.998
586.38	9.050
586.72	9.163
587.05	9.444
587.39	9.355
587.72	9.539
588.06	9.486
588.39	9.672
588.73	9.670
589.06	9.396
589.40	9.859
589.73	9.964
590.07	9.780
590.40	10.209
590.73	10.283
591.07	10.588
591.40	9.860
591.74	9.862
592.07	9.900
592.41	10.592
592.74	9.630
593.08	9.668
593.41	9.336
593.75	9.107
594.08	9.948
594.41	9.840
594.75	10.103
595.08	10.082
595.42	9.941
595.75	10.234
596.09	9.767
596.42	9.687
596.75	9.976
597.09	10.648
597.42	10.245
597.75	9.899
598.09	9.971
598.42	10.078
598.76	10.486
599.09	10.298
599.42	9.896
599.76	10.142
600.09	10.203
600.42	10.048
600.76	9.721
601.09	9.631
601.42	10.243
601.76	10.132
602.09	10.412
602.42	9.760
602.76	10.436
603.09	10.294
603.42	9.982
603.76	9.725
604.09	9.989
604.42	9.454
604.76	10.312
605.09	10.204
605.42	10.605
605.75	9.949
606.09	9.908
606.42	9.808
606.75	10.144
607.09	10.304
607.42	10.125
607.75	10.231
608.08	10.317
608.42	10.864
608.75	9.585
609.08	10.427
609.41	10.773
609.75	10.531
610.08	10.342
610.41	10.540
610.74	10.563
611.07	10.505
611.41	10.565
611.74	10.229
612.07	10.501
612.40	10.721
612.73	10.534
613.07	10.998
613.40	10.426
613.73	10.584
614.06	10.350
614.39	11.010
614.72	10.547
615.06	10.386
615.39	10.149
615.72	11.084
616.05	10.949
616.38	11.365
616.71	10.635
617.05	10.434
617.38	10.843
617.71	11.080
618.04	11.217
618.37	10.617
618.70	10.912
619.03	11.538
619.36	12.123
619.69	11.478
620.03	12.459
620.36	12.010
620.69	12.388
621.02	12.092
621.35	11.390
621.68	12.316
622.01	12.546
622.34	12.163
622.67	11.728
623.00	12.253
623.33	12.821
623.66	12.375
623.99	12.397
624.32	11.247
624.65	11.916
624.99	12.035
625.32	11.490
625.65	11.310
625.98	11.018
626.31	11.795
626.64	11.465
626.97	11.706
627.30	12.578
627.63	12.951
627.96	12.441
628.29	12.294
628.62	12.575
628.95	13.830
629.28	13.672
629.61	12.478
629.94	12.446
630.26	13.518
630.59	14.096
630.92	12.556
631.25	14.325
631.58	13.018
631.91	13.701
632.24	14.383
632.57	13.163
632.90	14.596
633.23	14.795
633.56	14.120
633.89	14.255
634.22	14.209
634.55	13.656
634.88	15.334
635.20	15.471
635.53	15.563
635.86	14.765
636.19	13.692
636.52	13.514
636.85	14.455
637.18	14.518
637.51	15.419
637.83	13.959
638.16	14.302
638.49	14.371
638.82	16.080
639.15	14.454
639.48	15.640
639.81	15.140
640.13	15.215
640.46	14.412
640.79	15.865
641.12	14.436
641.45	17.076
641.77	16.248
642.10	14.726
642.43	15.932
642.76	14.773
643.09	14.553
643.41	16.410
643.74	15.396
644.07	15.487
644.40	13.905
644.73	17.718
645.05	16.493
645.38	15.008
645.71	19.272
646.04	16.489
646.36	15.023
646.69	13.760
647.02	16.480
647.35	15.591
647.67	17.018
648.00	18.730
648.33	17.895
648.66	16.970
648.98	14.928
649.31	16.059
649.64	13.831
649.96	13.371
650.29	14.857
650.62	17.084
650.94	16.867
651.27	18.820
651.60	16.745
651.92	17.051
652.25	16.693
652.58	16.312
652.90	16.018
653.23	14.180
653.56	15.430
653.88	15.419
654.21	16.569
654.54	14.202
654.86	15.929
655.19	15.435
655.52	11.925
655.84	7.300
656.17	8.029
656.49	11.499
656.82	13.205
657.15	10.758
657.47	8.220
657.80	6.103
658.13	4.860
658.45	6.626
658.78	8.175
659.10	8.368
659.43	8.488
659.75	9.465
660.08	10.714
660.41	11.797
660.73	14.555
661.06	16.366
661.38	18.399
661.71	14.388
662.03	19.582
662.36	17.333
662.68	15.270
663.01	16.757
663.33	17.736
663.66	17.949
663.98	18.651
664.31	19.403
664.63	17.241
664.96	18.386
665.28	15.819
665.61	16.415
665.93	17.925
666.26	16.636
666.58	19.633
666.91	17.761
667.23	17.470
667.56	18.070
667.88	20.539
668.21	18.648
668.53	17.944
668.86	17.234
669.18	18.737
669.50	16.736
669.83	18.891
670.15	16.840
670.48	16.406
670.80	18.127
671.13	17.331
671.45	19.840
671.77	18.924
672.10	15.619
672.42	16.941
672.75	15.665
673.07	15.739
673.39	15.335
673.72	16.782
674.04	18.280
674.37	17.423
674.69	15.428
675.01	16.978
675.34	16.279
675.66	18.164
675.98	16.765
676.31	19.200
676.63	17.893
676.95	18.254
677.28	16.836
677.60	18.712
677.92	16.270
678.25	17.636
678.57	16.201
678.89	17.902
679.22	17.096
679.54	16.904
679.86	18.325
680.18	15.641
680.51	13.930
680.83	12.838
681.15	15.598
681.48	16.319
681.80	16.112
682.12	16.782
682.44	14.955
682.77	18.149
683.09	14.951
683.41	16.531
683.73	16.732
684.06	17.659
684.38	18.411
684.70	14.209
685.02	14.063
685.34	15.493
685.67	18.006
685.99	16.256
686.31	15.562
686.63	14.959
686.96	17.157
687.28	14.094
687.60	15.529
687.92	15.913
688.24	17.759
688.56	16.548
688.89	14.914
689.21	18.112
689.53	18.379
689.85	15.244
690.17	16.699
690.49	18.347
690.82	17.857
691.14	16.162
691.46	17.043
691.78	16.764
692.10	16.221
692.42	16.878
692.74	18.023
693.06	18.411
693.39	14.427
693.71	16.896
694.03	14.793
694.35	18.273
694.67	16.904
694.99	16.630
695.31	18.243
695.63	17.873
695.95	16.290
696.27	19.469
696.59	19.332
696.91	17.215
697.23	15.837
697.56	16.598
697.88	11.377
698.20	16.226
698.52	16.148
698.84	19.302
699.16	14.499
699.48	18.644
699.80	19.608
700.12	19.630
700.44	18.458
700.76	18.377
701.08	16.971
701.40	19.481
701.72	23.797
702.04	23.306
702.36	20.968
702.68	18.085
703.00	16.291
703.32	21.340
703.64	20.151
703.96	17.187
704.28	18.783
704.60	19.437
704.91	22.129
705.23	21.591
705.55	22.255
705.87	17.778
706.19	21.317
706.51	22.884
706.83	19.764
707.15	19.519
707.47	17.433
707.79	17.931
708.11	16.327
708.43	17.753
708.74	20.136
709.06	16.512
709.38	19.107
709.70	19.074
710.02	20.652
710.34	21.547
710.66	18.611
710.98	20.765
711.29	18.663
711.61	21.170
711.93	20.061
712.25	19.578
712.57	21.543
712.89	23.939
713.20	22.364
713.52	24.299
713.84	23.263
714.16	19.130
714.48	17.291
714.80	17.886
715.11	20.213
715.43	17.039
715.75	19.155
716.07	18.786
716.39	20.571
716.70	17.134
717.02	25.589
717.34	24.820
717.66	20.486
717.97	25.000
718.29	21.831
718.61	19.257
718.93	20.415
719.24	20.470
719.56	21.379
719.88	17.834
720.20	21.290
720.51	23.856
720.83	17.391
721.15	25.510
721.46	20.548
721.78	20.906
722.10	20.833
722.42	23.746
722.73	18.051
723.05	20.351
723.37	24.382
723.68	21.094
724.00	23.485
724.32	26.616
724.63	21.154
724.95	24.314
725.27	18.587
725.58	22.426
725.90	17.606
726.22	21.233
726.53	21.070
726.85	21.824
727.16	19.463
727.48	21.927
727.80	23.022
728.11	20.714
728.43	20.652
728.74	19.930
729.06	18.996
729.38	22.807
729.69	26.667
730.01	20.724
730.32	17.450
730.64	22.924
730.96	21.321
731.27	12.538
731.59	20.115
731.90	20.334
732.22	18.000
732.53	17.379
732.85	21.345
733.16	21.386
733.48	19.749
733.80	18.261
734.11	26.380
734.43	18.129
734.74	17.694
735.06	21.164
735.37	14.691
735.69	17.681
736.00	21.407
736.32	19.091
736.63	15.457
736.95	18.944
737.26	20.122
737.58	17.485
737.89	17.169
738.21	18.543
738.52	20.401
738.83	27.839
739.15	20.557
739.46	22.069
739.78	20.408
740.09	21.283
740.41	17.485
740.72	21.905
741.04	25.175
741.35	21.875
741.66	23.320
741.98	23.605
742.29	28.241
742.61	21.681
742.92	18.644
743.23	24.400
743.55	21.887
743.86	23.922
744.18	24.576
744.49	27.686
744.80	29.954
745.12	24.107
745.43	27.103
745.74	25.333
746.06	21.491
746.37	26.977
746.68	27.876
747.00	21.973
747.31	24.790
747.62	22.951
747.94	22.318
748.25	23.346
748.56	23.305
748.88	21.429
749.19	31.628
749.50	20.548
749.82	24.691
750.13	19.368
750.44	19.333
750.75	23.154
751.07	22.039
751.38	17.822
751.69	19.529
752.01	19.231
752.32	21.927
752.63	23.826
752.94	22.727
753.26	21.094
753.57	22.957
753.88	23.970
754.19	23.827
754.51	23.920
754.82	20.470
755.13	18.919
755.44	22.593
755.75	20.619
756.07	19.521
756.38	19.608
756.69	17.500
757.00	22.849
757.31	21.127
757.63	19.008
757.94	16.755
758.25	18.841
758.56	15.103
758.87	18.546
759.18	17.733
759.50	18.541
759.81	22.255
760.12	19.944
760.43	17.647
760.74	18.228
761.05	15.650
761.36	15.625
761.67	17.520
761.99	18.592
762.30	20.579
762.61	14.583
762.92	21.970
763.23	19.623
763.54	21.154
763.85	19.066
764.16	21.528
764.47	21.959
764.78	20.847
765.10	17.988
765.41	19.602
765.72	14.641
766.03	17.221
766.34	17.422
766.65	21.673
766.96	22.672
767.27	28.972
767.58	28.218
767.89	32.044
768.20	26.220
768.51	22.449
768.82	25.439
769.13	22.745
769.44	21.053
769.75	24.345
770.06	27.311
770.37	17.105
770.68	19.556
770.99	27.966
771.30	23.431
771.61	23.462
771.92	20.229
772.23	20.968
772.54	27.556
772.85	36.139
773.16	24.457
773.47	26.667
773.78	28.713
774.09	31.250
774.39	30.909
774.70	24.118
775.01	29.605
775.32	21.118
775.63	28.082
775.94	36.420
776.25	33.793
776.56	29.008
776.87	39.695
777.18	28.030
777.48	41.732
777.79	35.385
778.10	31.818
778.41	44.030
778.72	36.842
779.03	35.256
779.34	27.703
779.65	28.571
779.95	37.888
780.26	26.786
780.57	35.374
780.88	36.170
781.19	39.167
781.50	38.462
781.80	30.601
782.11	24.868
782.42	25.862
782.73	31.638
783.04	31.613
783.34	23.256
783.65	23.810
783.96	31.613
784.27	32.450
784.57	30.921
784.88	31.159
785.19	34.167
785.50	41.379
785.81	46.512
786.11	31.111
786.42	41.732
786.73	30.631
787.04	32.075
787.34	30.894
787.65	40.152
787.96	32.576
788.26	40.157
788.57	40.146
788.88	27.465
789.19	27.481
789.49	38.514
789.80	35.156
790.11	28.926
790.41	47.222
790.72	30.556
791.03	37.500
791.33	44.444
791.64	43.158
791.95	43.158
792.25	39.583
792.56	49.000
792.87	46.341
793.17	46.591
793.48	49.412
793.79	43.678
794.09	46.591
794.40	43.966
794.70	38.095
795.01	20.769
795.32	30.534
795.62	23.077
795.93	37.815
796.23	39.837
796.54	39.796
796.85	52.273
797.15	59.740
797.46	47.561
797.76	40.000
798.07	61.333
798.37	56.250
798.68	53.750
798.99	56.098
799.29	49.333
799.60	40.698
799.90	42.105
800.21	54.545
800.51	53.521
800.82	41.379
801.12	58.462
801.43	58.667
801.73	56.897
802.04	51.948
802.34	47.945
802.65	54.902
802.95	100.000
803.26	67.742
803.56	78.333
803.87	65.672
804.17	57.143
804.48	67.925
804.78	77.778
805.09	60.606
805.39	61.905
805.70	59.649
806.00	57.143
806.30	67.188
806.61	50.588
806.91	50.000
807.22	45.652
807.52	50.000
807.83	60.526
808.13	65.217
808.43	70.968
808.74	57.534
809.04	87.500
809.35	66.176
809.65	46.970
809.95	56.863
810.26	75.926
810.56	68.750
810.86	89.796
811.17	61.404
811.47	86.957
811.77	70.690
812.08	56.897
812.38	66.667
812.69	109.524
812.99	91.111
813.29	88.571
813.59	109.677
813.90	63.793
814.20	80.328
814.50	80.000
814.81	63.158
815.11	75.926
815.41	78.571
815.72	76.786
816.02	88.000
816.32	70.732
816.62	79.310
816.93	115.152
817.23	102.439
817.53	82.143
817.84	82.222
818.14	107.143
818.44	91.667
818.74	84.906
819.04	74.359
819.35	130.303
819.65	100.000
819.95	107.407
820.25	100.000
820.56	97.297
820.86	113.158
821.16	63.830
821.46	102.632
821.76	83.636
822.07	90.476
822.37	94.737
822.67	102.326
822.97	76.316
823.27	95.652
823.57	75.000
823.88	100.000
824.18	93.939
824.48	152.174
824.78	158.333
825.08	130.435
825.38	155.172
825.69	123.529
825.99	80.851
826.29	50.000
826.59	85.714
826.89	133.333
827.19	122.857
827.49	112.903
827.79	107.692
828.09	80.952
828.39	105.556
828.70	89.189
829.00	125.000
829.30	193.750
829.60	141.667
829.90	116.129
830.20	84.848
830.50	135.135
830.80	150.000
831.10	138.462
831.40	180.952
831.70	187.500
832.00	116.667
832.30	156.522
832.60	141.667
832.90	142.424
833.20	165.000
833.50	121.053
833.80	105.882
834.10	97.368
834.40	115.789
834.70	83.333
835.00	108.000
835.30	91.892
835.60	100.000
835.90	97.297
836.20	138.462
836.50	104.545
836.80	90.244
837.10	182.609
837.40	238.462
837.70	152.632
838.00	140.000
838.30	183.333
838.60	152.000
838.90	350.000
839.19	181.250
839.49	103.333
839.79	120.690
840.09	142.308
840.39	126.667
840.69	168.421
840.99	128.571
841.29	130.435
841.59	190.000
841.88	128.000
842.18	255.556
842.48	135.714
842.78	148.148
843.08	253.846
843.38	159.091
843.68	278.571
843.97	471.429
844.27	169.565
844.57	1100.000
844.87	264.286
845.17	188.889
845.47	166.667
845.76	129.167
846.06	342.857
846.36	194.118
846.66	292.308
846.96	250.000
847.25	200.000
847.55	205.263
847.85	216.667
848.15	480.000
848.44	327.273
848.74	147.619
849.04	158.333
849.34	170.588
849.63	256.250
849.93	218.750
850.23	1000.000
850.53	362.500
850.82	290.909
851.12	217.647
851.42	179.167
851.71	250.000
852.01	0.000
852.31	188.235
852.61	370.000
852.90	158.333
853.20	444.444
853.50	-1300.000
853.79	144.000
854.09	146.875
854.39	79.310
854.68	124.138
854.98	214.286
855.28	112.903
855.57	292.857
855.87	200.000
856.17	129.630
856.46	184.211
856.76	132.258
857.05	252.941
857.35	309.091
857.65	207.692
857.94	145.000
858.24	355.556
858.53	235.714
858.83	642.857
859.13	139.130
859.42	355.556
859.72	312.500
860.01	233.333
860.31	875.000
860.60	400.000
860.90	362.500
861.20	284.615
861.49	342.857
861.79	-2600.000
862.08	442.857
862.38	311.111
862.67	171.429
862.97	410.000
863.26	146.667
863.56	925.000
863.85	346.154
864.15	276.471
864.44	266.667
864.74	300.000
865.03	327.273
865.33	450.000
865.62	173.333
865.92	516.667
866.21	825.000
866.51	400.000
866.80	211.111
867.10	1333.333
867.39	3100.000
867.69	580.000
867.98	725.000
868.27	190.476
868.57	246.667
868.86	925.000
869.16	161.905
869.45	3600.000
869.75	-416.667
870.04	575.000
870.33	540.000
870.63	412.500
870.92	141.176
871.22	825.000
871.51	485.714
871.80	333.333
872.10	292.308
>>>>>End Processed Spectral Data<<<<<
