SpectraSuite Data File
++++++++++++++++++++++++++++++++++++
Date: Wed May 13 21:47:00 PDT 2015
User: schluterlab
Dark Spectrum Present: Yes
Reference Spectrum Present: Yes
Number of Sampled Component Spectra: 1
Spectrometers: USB2E3373
Integration Time (usec): 3000 (USB2E3373)
Spectra Averaged: 3 (USB2E3373)
Boxcar Smoothing: 0 (USB2E3373)
Correct for Electrical Dark: No (USB2E3373)
Strobe/Lamp Enabled: No (USB2E3373)
Correct for Detector Non-linearity: No (USB2E3373)
Correct for Stray Light: No (USB2E3373)
Number of Pixels in Processed Spectrum: 2048
>>>>>Begin Processed Spectral Data<<<<<
178.53	0.000
178.91	650.000
179.29	166.667
179.67	-450.000
180.04	-366.667
180.42	220.000
180.80	1300.000
181.18	216.667
181.56	-425.000
181.94	-275.000
182.31	27.273
182.69	169.231
183.07	-240.000
183.45	366.667
183.83	244.444
184.20	85.714
184.58	33.333
184.96	400.000
185.34	171.429
185.72	0.000
186.09	-400.000
186.47	-220.000
186.85	300.000
187.23	-100.000
187.61	250.000
187.98	1300.000
188.36	-87.500
188.74	0.000
189.12	-18.182
189.49	-20.000
189.87	175.000
190.25	340.000
190.63	1600.000
191.00	-40.000
191.38	340.000
191.76	275.000
192.14	91.667
192.51	0.000
192.89	433.333
193.27	250.000
193.65	-180.000
194.02	190.909
194.40	120.000
194.78	0.000
195.15	120.000
195.53	-60.000
195.91	75.000
196.29	-166.667
196.66	0.000
197.04	650.000
197.42	60.000
197.79	10.000
198.17	-75.000
198.55	-400.000
198.92	350.000
199.30	-200.000
199.68	-70.000
200.05	-50.000
200.43	200.000
200.81	-900.000
201.18	-220.000
201.56	116.667
201.94	625.000
202.31	0.000
202.69	-185.714
203.07	-433.333
203.44	-220.000
203.82	-533.333
204.19	-20.000
204.57	0.000
204.95	-150.000
205.32	0.000
205.70	-450.000
206.08	-200.000
206.45	-66.667
206.83	200.000
207.20	-200.000
207.58	-30.000
207.96	-2200.000
208.33	-185.714
208.71	-1200.000
209.08	287.500
209.46	100.000
209.84	0.000
210.21	140.000
210.59	2000.000
210.96	240.000
211.34	700.000
211.71	-250.000
212.09	-66.667
212.46	-210.000
212.84	-100.000
213.22	-175.000
213.59	-900.000
213.97	-550.000
214.34	-450.000
214.72	-61.538
215.09	175.000
215.47	144.444
215.84	1050.000
216.22	-25.000
216.59	0.000
216.97	633.333
217.34	200.000
217.72	0.000
218.09	333.333
218.47	-300.000
218.84	-85.714
219.22	-137.500
219.59	-666.667
219.97	-350.000
220.34	-75.000
220.72	-60.000
221.09	0.000
221.47	-166.667
221.84	-400.000
222.22	0.000
222.59	700.000
222.97	-233.333
223.34	-50.000
223.72	-1000.000
224.09	-600.000
224.46	9.091
224.84	12.500
225.21	28.571
225.59	-175.000
225.96	-50.000
226.34	-60.000
226.71	-157.143
227.08	200.000
227.46	-87.500
227.83	-600.000
228.21	-18.750
228.58	-150.000
228.95	-58.824
229.33	-12.500
229.70	-100.000
230.08	61.538
230.45	-200.000
230.82	-150.000
231.20	185.714
231.57	-275.000
231.95	1600.000
232.32	-66.667
232.69	-41.176
233.07	-1100.000
233.44	-60.870
233.81	-500.000
234.19	-8.333
234.56	-86.667
234.93	-13.333
235.31	15.789
235.68	-84.615
236.05	53.846
236.43	-16.667
236.80	-21.212
237.17	-86.667
237.55	-11.765
237.92	-24.138
238.29	-37.037
238.67	-5.556
239.04	0.000
239.41	8.511
239.79	19.149
240.16	16.279
240.53	1.786
240.91	23.214
241.28	17.857
241.65	1.613
242.02	10.526
242.40	11.594
242.77	-2.899
243.14	2.564
243.51	20.213
243.89	19.231
244.26	26.415
244.63	16.346
245.00	16.667
245.38	21.849
245.75	24.590
246.12	17.293
246.49	4.065
246.87	15.126
247.24	19.595
247.61	8.609
247.98	18.590
248.36	13.018
248.73	15.169
249.10	22.727
249.47	19.355
249.84	27.368
250.22	19.403
250.59	18.692
250.96	18.182
251.33	13.876
251.70	24.686
252.08	19.247
252.45	15.638
252.82	19.772
253.19	17.510
253.56	15.108
253.94	22.776
254.31	17.606
254.68	19.799
255.05	22.772
255.42	20.979
255.79	19.325
256.16	20.820
256.54	20.317
256.91	19.937
257.28	20.440
257.65	14.968
258.02	23.460
258.39	22.515
258.76	18.023
259.14	20.170
259.51	20.506
259.88	23.035
260.25	22.778
260.62	20.225
260.99	23.607
261.36	23.575
261.73	20.494
262.10	17.557
262.47	19.259
262.85	17.413
263.22	22.564
263.59	23.377
263.96	20.925
264.33	19.712
264.70	21.163
265.07	19.907
265.44	23.218
265.81	22.654
266.18	17.084
266.55	19.869
266.92	19.915
267.29	20.370
267.66	21.656
268.03	22.222
268.40	18.856
268.77	23.554
269.14	23.265
269.51	25.257
269.88	22.811
270.25	22.881
270.62	21.311
270.99	19.291
271.36	22.619
271.73	21.486
272.10	20.571
272.47	21.305
272.84	21.654
273.21	21.331
273.58	20.082
273.95	20.377
274.32	22.388
274.69	20.219
275.06	21.025
275.43	22.411
275.80	20.745
276.17	21.179
276.54	20.249
276.91	18.815
277.28	19.675
277.65	20.455
278.02	23.214
278.39	20.071
278.76	20.736
279.13	20.069
279.50	18.276
279.87	21.739
280.23	21.622
280.60	20.761
280.97	19.156
281.34	20.032
281.71	20.163
282.08	21.538
282.45	21.475
282.82	21.246
283.19	19.207
283.56	21.562
283.92	22.936
284.29	18.721
284.66	20.593
285.03	19.218
285.40	19.789
285.77	22.823
286.14	20.821
286.51	23.238
286.87	18.308
287.24	17.847
287.61	20.482
287.98	18.235
288.35	18.778
288.72	19.082
289.08	19.801
289.45	19.677
289.82	19.818
290.19	18.373
290.56	19.176
290.93	18.785
291.29	17.237
291.66	18.579
292.03	19.482
292.40	16.689
292.77	17.537
293.13	20.363
293.50	17.386
293.87	18.933
294.24	16.931
294.60	19.246
294.97	20.635
295.34	17.018
295.71	16.820
296.08	16.492
296.44	17.730
296.81	18.027
297.18	19.375
297.55	18.160
297.91	17.019
298.28	18.402
298.65	17.857
299.02	18.437
299.38	18.282
299.75	18.029
300.12	17.326
300.48	18.012
300.85	17.206
301.22	17.305
301.59	16.784
301.95	15.912
302.32	16.219
302.69	14.689
303.05	17.719
303.42	16.364
303.79	16.509
304.15	17.744
304.52	18.495
304.89	16.722
305.25	15.697
305.62	18.438
305.99	16.540
306.35	17.973
306.72	17.294
307.09	17.310
307.45	16.720
307.82	17.684
308.19	16.405
308.55	16.479
308.92	17.583
309.29	17.017
309.65	16.683
310.02	16.700
310.38	16.870
310.75	16.469
311.12	16.132
311.48	17.409
311.85	17.126
312.22	16.828
312.58	17.391
312.95	17.114
313.31	16.345
313.68	16.508
314.05	18.526
314.41	18.252
314.78	16.983
315.14	17.037
315.51	17.127
315.87	17.424
316.24	17.906
316.61	18.265
316.97	17.315
317.34	17.291
317.70	18.822
318.07	18.722
318.43	17.254
318.80	16.928
319.16	16.004
319.53	17.204
319.89	16.621
320.26	16.913
320.62	18.072
320.99	16.570
321.35	16.464
321.72	17.902
322.08	18.542
322.45	18.501
322.81	16.913
323.18	18.515
323.54	18.051
323.91	17.615
324.27	17.732
324.64	16.986
325.00	16.448
325.37	17.833
325.73	18.182
326.10	17.073
326.46	17.140
326.83	16.424
327.19	17.724
327.56	18.131
327.92	17.297
328.29	17.613
328.65	18.668
329.01	16.887
329.38	18.000
329.74	16.910
330.11	17.223
330.47	17.882
330.84	18.051
331.20	17.592
331.56	16.938
331.93	17.399
332.29	17.463
332.66	16.949
333.02	18.766
333.38	17.719
333.75	16.894
334.11	17.969
334.48	17.524
334.84	16.784
335.20	16.638
335.57	16.362
335.93	16.667
336.29	16.813
336.66	16.667
337.02	17.304
337.38	17.755
337.75	16.796
338.11	17.165
338.47	16.267
338.84	17.784
339.20	17.637
339.56	16.724
339.93	17.286
340.29	17.592
340.65	17.879
341.02	15.890
341.38	16.976
341.74	15.882
342.11	16.763
342.47	16.234
342.83	17.239
343.20	16.920
343.56	17.580
343.92	17.059
344.28	16.396
344.65	15.510
345.01	16.546
345.37	16.283
345.73	17.157
346.10	16.453
346.46	16.504
346.82	15.971
347.19	15.665
347.55	16.155
347.91	17.147
348.27	15.615
348.63	16.907
349.00	16.116
349.36	16.562
349.72	17.092
350.08	16.147
350.45	16.445
350.81	16.588
351.17	16.705
351.53	17.203
351.89	15.647
352.26	14.595
352.62	16.124
352.98	16.054
353.34	15.942
353.70	16.355
354.07	16.157
354.43	15.785
354.79	15.705
355.15	16.149
355.51	16.249
355.87	16.185
356.24	16.051
356.60	15.168
356.96	15.963
357.32	15.944
357.68	15.661
358.04	15.671
358.40	15.581
358.77	17.584
359.13	16.887
359.49	15.897
359.85	15.315
360.21	16.345
360.57	15.817
360.93	15.402
361.29	15.470
361.66	15.869
362.02	15.048
362.38	16.396
362.74	15.518
363.10	16.197
363.46	15.562
363.82	16.482
364.18	15.228
364.54	15.536
364.90	16.098
365.26	15.428
365.62	15.483
365.98	15.658
366.35	15.674
366.71	15.549
367.07	15.379
367.43	16.585
367.79	16.609
368.15	15.471
368.51	15.260
368.87	15.911
369.23	14.875
369.59	15.222
369.95	14.731
370.31	15.202
370.67	15.134
371.03	15.590
371.39	15.685
371.75	15.571
372.11	15.242
372.47	15.285
372.83	15.673
373.19	15.396
373.55	14.812
373.91	14.851
374.27	16.044
374.63	14.865
374.99	15.947
375.35	16.233
375.71	15.421
376.07	16.107
376.42	15.508
376.78	16.711
377.14	15.458
377.50	17.471
377.86	15.538
378.22	16.245
378.58	16.078
378.94	16.687
379.30	16.490
379.66	16.400
380.02	16.667
380.38	15.181
380.74	16.139
381.09	15.862
381.45	16.022
381.81	16.266
382.17	15.816
382.53	16.123
382.89	15.862
383.25	15.432
383.61	15.617
383.97	15.375
384.32	15.312
384.68	16.101
385.04	14.844
385.40	16.252
385.76	16.302
386.12	16.204
386.48	15.549
386.83	16.145
387.19	16.101
387.55	16.738
387.91	17.036
388.27	15.968
388.62	16.542
388.98	16.583
389.34	16.228
389.70	15.751
390.06	17.000
390.42	16.430
390.77	16.528
391.13	14.773
391.49	15.750
391.85	15.847
392.20	16.667
392.56	16.635
392.92	16.091
393.28	16.851
393.64	15.902
393.99	15.606
394.35	16.852
394.71	15.833
395.07	15.409
395.42	16.575
395.78	16.345
396.14	16.677
396.50	16.170
396.85	16.826
397.21	15.918
397.57	16.149
397.92	15.030
398.28	16.300
398.64	15.847
399.00	16.574
399.35	16.459
399.71	15.783
400.07	15.904
400.42	16.489
400.78	15.287
401.14	16.125
401.49	15.339
401.85	15.663
402.21	15.604
402.57	16.002
402.92	16.458
403.28	15.635
403.63	15.437
403.99	15.227
404.35	16.022
404.70	16.254
405.06	15.913
405.42	15.766
405.77	15.035
406.13	15.657
406.49	16.058
406.84	15.385
407.20	15.690
407.55	15.519
407.91	15.023
408.27	14.660
408.62	15.470
408.98	15.598
409.34	14.975
409.69	16.439
410.05	16.667
410.40	15.399
410.76	15.884
411.11	15.174
411.47	16.855
411.83	15.034
412.18	15.680
412.54	15.977
412.89	15.235
413.25	15.103
413.60	15.987
413.96	15.543
414.31	16.461
414.67	15.810
415.03	15.697
415.38	14.597
415.74	16.114
416.09	16.325
416.45	16.336
416.80	15.839
417.16	16.127
417.51	15.271
417.87	16.071
418.22	16.290
418.58	15.703
418.93	16.008
419.29	15.248
419.64	16.412
420.00	15.619
420.35	15.601
420.71	15.356
421.06	16.605
421.42	15.998
421.77	15.491
422.12	16.046
422.48	15.649
422.83	16.243
423.19	16.504
423.54	15.548
423.90	15.855
424.25	16.522
424.61	15.465
424.96	15.849
425.31	15.592
425.67	16.108
426.02	16.667
426.38	16.418
426.73	16.371
427.09	15.697
427.44	16.500
427.79	15.618
428.15	16.147
428.50	15.227
428.85	16.851
429.21	16.376
429.56	16.047
429.92	16.085
430.27	16.002
430.62	16.369
430.98	16.288
431.33	16.067
431.68	16.720
432.04	15.887
432.39	15.878
432.74	16.370
433.10	16.095
433.45	15.976
433.80	15.632
434.16	16.275
434.51	16.793
434.86	16.019
435.22	16.921
435.57	16.278
435.92	15.983
436.28	16.697
436.63	17.263
436.98	17.098
437.34	15.812
437.69	15.998
438.04	15.733
438.39	16.687
438.75	15.793
439.10	17.120
439.45	16.828
439.81	16.872
440.16	17.507
440.51	17.063
440.86	17.012
441.22	15.777
441.57	16.811
441.92	17.211
442.27	16.450
442.63	16.469
442.98	15.683
443.33	17.438
443.68	16.658
444.03	17.337
444.39	17.551
444.74	16.621
445.09	17.070
445.44	16.676
445.79	16.727
446.15	17.471
446.50	16.795
446.85	17.584
447.20	17.564
447.55	17.236
447.91	16.629
448.26	16.924
448.61	17.204
448.96	17.654
449.31	17.933
449.66	17.351
450.02	17.283
450.37	17.215
450.72	17.451
451.07	17.492
451.42	16.282
451.77	17.955
452.12	17.172
452.47	17.560
452.83	16.509
453.18	17.696
453.53	16.141
453.88	17.952
454.23	18.109
454.58	17.953
454.93	17.126
455.28	17.726
455.63	16.594
455.98	17.833
456.34	17.292
456.69	17.188
457.04	17.523
457.39	17.378
457.74	16.457
458.09	17.062
458.44	17.803
458.79	17.902
459.14	17.640
459.49	18.293
459.84	17.362
460.19	16.867
460.54	17.336
460.89	17.849
461.24	17.941
461.59	18.056
461.94	17.257
462.29	16.483
462.64	17.612
462.99	19.115
463.34	18.232
463.69	18.363
464.04	16.747
464.39	17.877
464.74	17.138
465.09	17.359
465.44	17.733
465.79	18.574
466.14	18.244
466.49	17.478
466.84	18.290
467.19	17.452
467.54	18.146
467.89	17.599
468.24	17.886
468.59	18.419
468.94	17.178
469.29	18.176
469.64	18.759
469.99	18.483
470.34	18.543
470.68	17.621
471.03	18.829
471.38	16.898
471.73	17.764
472.08	18.144
472.43	18.734
472.78	18.120
473.13	17.348
473.48	17.156
473.83	17.514
474.17	17.578
474.52	18.576
474.87	18.215
475.22	18.418
475.57	17.847
475.92	18.212
476.27	18.182
476.61	18.233
476.96	17.761
477.31	18.447
477.66	18.475
478.01	17.198
478.36	18.256
478.70	17.938
479.05	18.424
479.40	17.629
479.75	17.906
480.10	18.358
480.45	18.342
480.79	18.915
481.14	18.034
481.49	19.043
481.84	17.625
482.19	18.342
482.53	18.190
482.88	17.929
483.23	17.372
483.58	18.478
483.92	18.045
484.27	17.612
484.62	17.932
484.97	18.664
485.31	17.909
485.66	17.969
486.01	18.214
486.36	18.197
486.70	18.373
487.05	18.695
487.40	18.418
487.75	18.289
488.09	18.517
488.44	18.822
488.79	18.319
489.13	18.290
489.48	18.127
489.83	17.731
490.17	17.885
490.52	18.700
490.87	17.849
491.22	18.606
491.56	18.448
491.91	18.627
492.26	18.424
492.60	17.508
492.95	19.193
493.30	18.169
493.64	18.513
493.99	18.406
494.34	17.775
494.68	18.377
495.03	16.996
495.37	17.956
495.72	18.045
496.07	18.558
496.41	17.969
496.76	18.327
497.11	18.216
497.45	17.947
497.80	18.526
498.14	18.237
498.49	18.255
498.84	18.877
499.18	17.720
499.53	18.464
499.87	17.952
500.22	18.118
500.56	18.054
500.91	18.260
501.26	18.276
501.60	17.696
501.95	19.023
502.29	18.252
502.64	18.419
502.98	18.690
503.33	18.686
503.67	18.890
504.02	17.892
504.36	18.425
504.71	18.394
505.06	18.237
505.40	18.454
505.75	18.464
506.09	18.651
506.44	18.145
506.78	18.537
507.13	18.243
507.47	18.452
507.82	18.001
508.16	18.892
508.51	17.820
508.85	17.989
509.19	18.095
509.54	19.464
509.88	18.387
510.23	18.842
510.57	19.386
510.92	18.858
511.26	18.427
511.61	17.563
511.95	18.412
512.30	17.490
512.64	18.558
512.98	18.393
513.33	18.085
513.67	17.717
514.02	18.301
514.36	18.090
514.70	18.129
515.05	18.490
515.39	18.986
515.74	18.472
516.08	18.171
516.42	18.088
516.77	16.930
517.11	18.401
517.46	18.367
517.80	18.765
518.14	17.636
518.49	17.058
518.83	18.019
519.17	17.590
519.52	18.697
519.86	18.761
520.20	18.375
520.55	17.662
520.89	17.900
521.23	19.295
521.58	18.774
521.92	17.222
522.26	18.543
522.61	18.940
522.95	17.681
523.29	17.905
523.64	19.135
523.98	18.679
524.32	17.895
524.66	17.792
525.01	19.332
525.35	18.631
525.69	18.290
526.04	17.785
526.38	18.292
526.72	17.817
527.06	18.053
527.41	17.538
527.75	16.956
528.09	19.129
528.43	18.657
528.78	17.119
529.12	18.499
529.46	18.042
529.80	18.317
530.15	18.275
530.49	18.261
530.83	18.077
531.17	17.534
531.51	17.127
531.86	16.938
532.20	17.574
532.54	17.793
532.88	16.814
533.22	17.441
533.57	17.483
533.91	18.323
534.25	17.839
534.59	17.181
534.93	18.559
535.27	18.025
535.62	17.434
535.96	18.282
536.30	17.819
536.64	17.293
536.98	17.309
537.32	17.438
537.66	17.772
538.01	17.198
538.35	17.472
538.69	17.993
539.03	17.785
539.37	18.310
539.71	18.690
540.05	17.139
540.39	16.518
540.73	17.458
541.07	17.483
541.42	17.508
541.76	17.456
542.10	17.603
542.44	16.563
542.78	16.863
543.12	17.790
543.46	17.899
543.80	17.244
544.14	17.550
544.48	16.855
544.82	17.418
545.16	16.971
545.50	17.421
545.84	17.251
546.18	17.251
546.52	17.431
546.86	16.749
547.20	17.298
547.54	16.726
547.88	17.611
548.22	17.329
548.56	17.278
548.90	16.915
549.24	16.736
549.58	16.512
549.92	17.755
550.26	19.114
550.60	17.117
550.94	15.896
551.28	16.503
551.62	18.045
551.96	17.496
552.30	16.885
552.64	16.525
552.98	17.827
553.32	17.952
553.66	17.828
554.00	16.703
554.34	17.363
554.68	17.673
555.02	16.617
555.36	16.868
555.69	16.242
556.03	17.370
556.37	17.425
556.71	17.169
557.05	17.712
557.39	16.729
557.73	18.306
558.07	17.408
558.41	17.562
558.75	17.167
559.08	16.038
559.42	16.758
559.76	16.896
560.10	16.603
560.44	17.318
560.78	16.403
561.12	16.959
561.45	16.939
561.79	17.056
562.13	17.229
562.47	17.714
562.81	15.801
563.15	17.635
563.48	16.449
563.82	17.237
564.16	16.452
564.50	17.300
564.84	16.689
565.17	16.556
565.51	16.778
565.85	16.589
566.19	17.417
566.52	16.579
566.86	16.245
567.20	17.288
567.54	16.926
567.88	16.461
568.21	16.784
568.55	16.275
568.89	16.451
569.23	17.003
569.56	16.980
569.90	17.331
570.24	16.570
570.57	16.854
570.91	16.445
571.25	16.815
571.59	16.627
571.92	16.896
572.26	17.048
572.60	17.062
572.93	16.932
573.27	16.520
573.61	17.305
573.95	16.684
574.28	16.757
574.62	16.934
574.96	17.323
575.29	16.976
575.63	16.834
575.97	17.120
576.30	16.355
576.64	16.793
576.98	16.675
577.31	17.315
577.65	16.656
577.98	17.174
578.32	17.021
578.66	16.685
578.99	17.089
579.33	16.692
579.67	16.675
580.00	16.994
580.34	16.941
580.67	16.952
581.01	16.674
581.35	17.303
581.68	16.809
582.02	17.315
582.35	17.457
582.69	16.696
583.02	16.769
583.36	16.773
583.70	16.756
584.03	17.094
584.37	16.448
584.70	16.991
585.04	17.494
585.37	16.865
585.71	17.342
586.04	17.368
586.38	16.811
586.72	17.308
587.05	16.751
587.39	17.241
587.72	16.835
588.06	16.936
588.39	17.128
588.73	17.028
589.06	17.006
589.40	17.269
589.73	16.780
590.07	16.879
590.40	16.925
590.73	17.099
591.07	16.924
591.40	17.130
591.74	17.297
592.07	17.070
592.41	17.203
592.74	17.014
593.08	17.026
593.41	17.148
593.75	16.893
594.08	16.718
594.41	16.636
594.75	17.091
595.08	17.252
595.42	16.392
595.75	16.667
596.09	17.244
596.42	16.544
596.75	16.806
597.09	17.334
597.42	17.541
597.75	16.622
598.09	17.259
598.42	17.181
598.76	16.667
599.09	17.207
599.42	16.843
599.76	17.199
600.09	16.303
600.42	16.723
600.76	17.073
601.09	16.761
601.42	16.817
601.76	16.564
602.09	16.822
602.42	17.375
602.76	16.653
603.09	17.207
603.42	17.113
603.76	16.602
604.09	16.719
604.42	15.990
604.76	16.456
605.09	17.490
605.42	17.274
605.75	15.931
606.09	16.970
606.42	16.999
606.75	16.710
607.09	16.489
607.42	17.075
607.75	16.586
608.08	17.042
608.42	16.448
608.75	16.531
609.08	16.561
609.41	17.188
609.75	16.137
610.08	16.371
610.41	16.569
610.74	16.699
611.07	17.034
611.41	17.247
611.74	17.236
612.07	16.102
612.40	16.811
612.73	16.301
613.07	16.796
613.40	16.740
613.73	15.818
614.06	16.473
614.39	16.287
614.72	17.934
615.06	16.667
615.39	16.501
615.72	15.713
616.05	16.329
616.38	16.266
616.71	16.017
617.05	16.953
617.38	16.636
617.71	15.564
618.04	15.661
618.37	15.710
618.70	15.395
619.03	15.395
619.36	16.584
619.69	15.351
620.03	15.265
620.36	15.240
620.69	14.632
621.02	16.462
621.35	15.617
621.68	16.137
622.01	15.777
622.34	15.860
622.67	16.915
623.00	15.729
623.33	16.006
623.66	15.167
623.99	17.179
624.32	16.508
624.65	15.727
624.99	15.724
625.32	17.028
625.65	15.814
625.98	15.877
626.31	16.980
626.64	15.133
626.97	15.311
627.30	16.595
627.63	15.311
627.96	15.498
628.29	15.721
628.62	16.634
628.95	15.331
629.28	15.567
629.61	16.459
629.94	16.731
630.26	17.143
630.59	16.384
630.92	13.353
631.25	16.272
631.58	15.525
631.91	14.316
632.24	16.026
632.57	14.889
632.90	15.286
633.23	15.707
633.56	14.748
633.89	14.713
634.22	16.843
634.55	15.104
634.88	16.054
635.20	15.625
635.53	13.953
635.86	15.513
636.19	17.370
636.52	15.122
636.85	16.405
637.18	13.642
637.51	15.356
637.83	17.102
638.16	13.333
638.49	14.152
638.82	15.556
639.15	16.223
639.48	16.310
639.81	15.556
640.13	12.676
640.46	15.113
640.79	15.971
641.12	14.793
641.45	13.246
641.77	13.991
642.10	16.793
642.43	16.667
642.76	15.931
643.09	14.058
643.41	15.152
643.74	14.863
644.07	13.916
644.40	15.920
644.73	13.729
645.05	12.565
645.38	15.116
645.71	14.286
646.04	11.616
646.36	12.500
646.69	14.860
647.02	13.661
647.35	16.819
647.67	14.418
648.00	13.768
648.33	14.746
648.66	12.354
648.98	13.509
649.31	15.031
649.64	13.928
649.96	14.060
650.29	13.072
650.62	14.003
650.94	15.000
651.27	13.428
651.60	16.783
651.92	15.233
652.25	15.243
652.58	14.851
652.90	14.815
653.23	12.054
653.56	13.223
653.88	13.311
654.21	12.287
654.54	13.787
654.86	11.870
655.19	14.706
655.52	17.666
655.84	16.880
656.17	20.374
656.49	26.461
656.82	26.094
657.15	19.422
657.47	14.331
657.80	10.607
658.13	10.925
658.45	16.155
658.78	15.975
659.10	15.315
659.43	15.498
659.75	14.817
660.08	13.862
660.41	13.793
660.73	13.636
661.06	12.585
661.38	12.209
661.71	14.959
662.03	15.222
662.36	13.496
662.68	13.763
663.01	15.254
663.33	12.959
663.66	13.082
663.98	13.483
664.31	12.967
664.63	9.685
664.96	14.880
665.28	15.236
665.61	12.959
665.93	14.989
666.26	14.979
666.58	12.848
666.91	16.368
667.23	14.055
667.56	15.402
667.88	10.280
668.21	12.054
668.53	13.103
668.86	14.628
669.18	13.239
669.50	13.364
669.83	12.411
670.15	11.667
670.48	11.494
670.80	17.287
671.13	11.442
671.45	13.699
671.77	15.302
672.10	13.060
672.42	13.740
672.75	11.964
673.07	14.545
673.39	12.687
673.72	14.172
674.04	14.754
674.37	15.041
674.69	14.198
675.01	13.248
675.34	13.567
675.66	16.776
675.98	13.496
676.31	14.706
676.63	14.286
676.95	13.176
677.28	11.468
677.60	14.461
677.92	13.525
678.25	13.883
678.57	15.071
678.89	12.367
679.22	13.458
679.54	13.878
679.86	13.477
680.18	12.692
680.51	12.115
680.83	12.281
681.15	14.735
681.48	11.623
681.80	12.679
682.12	9.792
682.44	13.481
682.77	11.789
683.09	11.830
683.41	11.628
683.73	12.723
684.06	10.841
684.38	12.179
684.70	13.849
685.02	12.190
685.34	14.090
685.67	14.447
685.99	12.633
686.31	15.517
686.63	12.316
686.96	14.471
687.28	12.176
687.60	15.879
687.92	14.008
688.24	10.200
688.56	15.132
688.89	11.359
689.21	13.677
689.53	9.234
689.85	13.708
690.17	14.945
690.49	14.010
690.82	11.456
691.14	10.145
691.46	11.601
691.78	11.868
692.10	12.527
692.42	12.967
692.74	15.217
693.06	10.787
693.39	11.241
693.71	15.556
694.03	14.318
694.35	15.991
694.67	12.750
694.99	13.918
695.31	15.504
695.63	14.146
695.95	13.740
696.27	8.767
696.59	14.516
696.91	11.173
697.23	12.690
697.56	13.909
697.88	15.800
698.20	15.551
698.52	12.617
698.84	14.354
699.16	13.002
699.48	13.580
699.80	14.987
700.12	12.601
700.44	10.704
700.76	9.831
701.08	10.574
701.40	14.072
701.72	11.385
702.04	11.321
702.36	9.756
702.68	10.366
703.00	16.959
703.32	11.421
703.64	12.952
703.96	10.264
704.28	13.855
704.60	13.110
704.91	10.031
705.23	11.709
705.55	11.034
705.87	15.493
706.19	10.256
706.51	8.451
706.83	5.732
707.15	14.024
707.47	14.325
707.79	10.660
708.11	10.540
708.43	15.228
708.74	13.298
709.06	13.904
709.38	14.121
709.70	15.315
710.02	16.511
710.34	13.667
710.66	7.166
710.98	15.480
711.29	12.987
711.61	8.387
711.93	10.000
712.25	7.692
712.57	8.772
712.89	12.088
713.20	12.766
713.52	10.584
713.84	14.516
714.16	9.709
714.48	10.759
714.80	12.141
715.11	18.314
715.43	9.317
715.75	16.770
716.07	13.253
716.39	10.774
716.70	13.669
717.02	7.843
717.34	10.227
717.66	11.638
717.97	10.317
718.29	16.535
718.61	8.584
718.93	8.527
719.24	18.450
719.56	10.487
719.88	10.821
720.20	14.229
720.51	12.500
720.83	14.397
721.15	5.285
721.46	15.267
721.78	9.960
722.10	9.960
722.42	10.887
722.73	11.197
723.05	13.469
723.37	18.908
723.68	11.200
724.00	8.936
724.32	10.042
724.63	12.346
724.95	10.684
725.27	13.924
725.58	14.815
725.90	9.205
726.22	14.130
726.53	8.235
726.85	16.423
727.16	11.852
727.48	11.111
727.80	12.891
728.11	8.607
728.43	12.891
728.74	8.730
729.06	10.800
729.38	12.648
729.69	13.167
730.01	8.922
730.32	14.760
730.64	12.121
730.96	15.035
731.27	11.706
731.59	13.968
731.90	11.650
732.22	8.333
732.53	11.486
732.85	7.383
733.16	12.541
733.48	13.514
733.80	11.149
734.11	14.527
734.43	11.455
734.74	15.616
735.06	10.663
735.37	11.246
735.69	12.945
736.00	12.211
736.32	11.702
736.63	9.655
736.95	12.671
737.26	12.759
737.58	15.278
737.89	12.371
738.21	9.253
738.52	11.027
738.83	12.653
739.15	10.970
739.46	10.117
739.78	10.563
740.09	9.589
740.41	10.000
740.72	15.957
741.04	12.400
741.35	8.333
741.66	9.778
741.98	10.577
742.29	14.851
742.61	10.732
742.92	15.351
743.23	8.962
743.55	19.369
743.86	9.417
744.18	8.824
744.49	8.122
744.80	10.714
745.12	11.682
745.43	13.744
745.74	9.910
746.06	8.879
746.37	6.881
746.68	9.615
747.00	17.225
747.31	6.731
747.62	11.927
747.94	13.100
748.25	15.596
748.56	15.556
748.88	15.023
749.19	15.714
749.50	9.223
749.82	7.981
750.13	6.667
750.44	9.231
750.75	9.963
751.07	13.879
751.38	11.348
751.69	11.583
752.01	11.719
752.32	5.000
752.63	8.955
752.94	14.800
753.26	9.205
753.57	9.167
753.88	11.336
754.19	6.375
754.51	10.902
754.82	13.553
755.13	8.261
755.44	10.163
755.75	10.800
756.07	10.332
756.38	9.712
756.69	12.628
757.00	12.773
757.31	8.738
757.63	8.951
757.94	13.277
758.25	14.286
758.56	11.957
758.87	13.690
759.18	12.618
759.50	11.785
759.81	9.699
760.12	12.615
760.43	7.738
760.74	14.972
761.05	14.641
761.36	9.456
761.67	12.991
761.99	7.560
762.30	9.854
762.61	11.111
762.92	14.530
763.23	15.164
763.54	12.987
763.85	14.286
764.16	7.724
764.47	9.600
764.78	10.357
765.10	14.098
765.41	12.462
765.72	13.354
766.03	11.881
766.34	14.615
766.65	10.879
766.96	7.981
767.27	12.376
767.58	6.180
767.89	15.432
768.20	15.470
768.51	16.080
768.82	14.904
769.13	12.832
769.44	16.736
769.75	3.419
770.06	7.623
770.37	9.314
770.68	12.136
770.99	12.136
771.30	12.605
771.61	13.061
771.92	9.544
772.23	12.613
772.54	9.945
772.85	11.628
773.16	15.344
773.47	10.651
773.78	18.391
774.09	16.250
774.39	8.075
774.70	12.245
775.01	7.586
775.32	4.286
775.63	3.008
775.94	0.000
776.25	6.400
776.56	12.397
776.87	14.286
777.18	0.901
777.48	3.604
777.79	11.024
778.10	13.761
778.41	7.018
778.72	1.681
779.03	4.225
779.34	13.514
779.65	10.563
779.95	6.623
780.26	2.878
780.57	15.108
780.88	4.930
781.19	5.042
781.50	10.067
781.80	4.678
782.11	2.907
782.42	11.321
782.73	10.458
783.04	2.759
783.34	1.527
783.65	6.711
783.96	0.769
784.27	11.429
784.57	14.894
784.88	0.962
785.19	13.636
785.50	5.455
785.81	6.667
786.11	7.563
786.42	7.080
786.73	7.547
787.04	2.752
787.34	-6.931
787.65	11.667
787.96	11.570
788.26	4.348
788.57	6.349
788.88	12.195
789.19	5.600
789.49	3.817
789.80	17.424
790.11	0.943
790.41	19.802
790.72	8.511
791.03	-8.696
791.33	5.882
791.64	8.642
791.95	8.696
792.25	3.409
792.56	10.256
792.87	-5.128
793.17	-5.128
793.48	1.190
793.79	-7.500
794.09	18.269
794.40	4.167
794.70	7.207
795.01	8.594
795.32	3.478
795.62	-15.217
795.93	8.491
796.23	11.111
796.54	-3.659
796.85	14.286
797.15	-1.515
797.46	-7.246
797.76	6.579
798.07	6.818
798.37	1.220
798.68	-11.290
798.99	-1.351
799.29	10.843
799.60	-3.846
799.90	-4.615
800.21	6.061
800.51	1.333
800.82	10.667
801.12	-31.250
801.43	-13.333
801.73	0.000
802.04	8.571
802.34	-6.557
802.65	2.985
802.95	12.727
803.26	8.621
803.56	-4.615
803.87	3.774
804.17	9.677
804.48	5.882
804.78	-34.146
805.09	1.449
805.39	13.235
805.70	-34.043
806.00	7.018
806.30	6.410
806.61	3.947
806.91	5.405
807.22	7.895
807.52	9.091
807.83	-25.424
808.13	-19.697
808.43	-1.667
808.74	-24.138
809.04	4.762
809.35	-16.327
809.65	0.000
809.95	-14.286
810.26	16.901
810.56	-8.333
810.86	-10.204
811.17	7.692
811.47	-6.383
811.77	-25.000
812.08	9.434
812.38	-6.250
812.69	-9.091
812.99	-14.634
813.29	-18.919
813.59	-10.811
813.90	-14.545
814.20	-10.909
814.50	-13.333
814.81	-5.455
815.11	-3.509
815.41	0.000
815.72	-2.500
816.02	-8.571
816.32	-21.622
816.62	12.500
816.93	6.667
817.23	0.000
817.53	-16.667
817.84	-8.108
818.14	-17.073
818.44	6.000
818.74	8.163
819.04	-12.195
819.35	-2.778
819.65	-9.091
819.95	-122.222
820.25	-9.091
820.56	-19.048
820.86	-27.778
821.16	-4.545
821.46	-2.174
821.76	-22.414
822.07	6.522
822.37	21.212
822.67	36.585
822.97	-13.514
823.27	-62.857
823.57	13.793
823.88	-26.471
824.18	11.111
824.48	14.286
824.78	-52.381
825.08	-17.857
825.38	-11.111
825.69	-54.839
825.99	12.195
826.29	-18.519
826.59	-31.250
826.89	-29.032
827.19	-30.435
827.49	-27.778
827.79	-56.522
828.09	0.000
828.39	-14.583
828.70	-31.250
829.00	-24.138
829.30	-16.216
829.60	-70.833
829.90	14.815
830.20	-9.375
830.50	-36.364
830.80	-58.824
831.10	-50.000
831.40	-14.706
831.70	-3.846
832.00	-18.182
832.30	17.647
832.60	21.622
832.90	1200.000
833.20	7.143
833.50	-75.000
833.80	-23.684
834.10	-41.667
834.40	-36.364
834.70	-40.000
835.00	-150.000
835.30	-4.167
835.60	0.000
835.90	-57.143
836.20	8.000
836.50	-29.167
836.80	-47.368
837.10	10.811
837.40	30.000
837.70	4.348
838.00	16.667
838.30	5.263
838.60	-110.000
838.90	-210.000
839.19	-100.000
839.49	-30.769
839.79	-36.842
840.09	-233.333
840.39	-40.000
840.69	-40.909
840.99	-14.286
841.29	-45.833
841.59	-30.769
841.88	-86.667
842.18	-121.429
842.48	-3.333
842.78	-100.000
843.08	-78.571
843.38	-25.000
843.68	-31.250
843.97	-14.286
844.27	-122.222
844.57	-81.818
844.87	-40.000
845.17	-59.091
845.47	366.667
845.76	-80.000
846.06	-108.333
846.36	-1050.000
846.66	-42.105
846.96	-68.182
847.25	-111.111
847.55	-155.556
847.85	-80.952
848.15	-76.923
848.44	-183.333
848.74	0.000
849.04	-46.154
849.34	-75.000
849.63	-118.182
849.93	-114.286
850.23	-5.000
850.53	-150.000
850.82	-16.667
851.12	-66.667
851.42	-41.176
851.71	-200.000
852.01	-47.059
852.31	38.462
852.61	600.000
852.90	-29.412
853.20	20.000
853.50	-100.000
853.79	-114.286
854.09	-350.000
854.39	-40.000
854.68	12.500
854.98	-38.095
855.28	-8.000
855.57	-37.500
855.87	-41.667
856.17	-56.000
856.46	-12.500
856.76	10.000
857.05	16.000
857.35	-25.000
857.65	-47.059
857.94	-66.667
858.24	-75.000
858.53	35.000
858.83	-54.545
859.13	-4.000
859.42	-78.571
859.72	-137.500
860.01	-25.000
860.31	-100.000
860.60	-25.000
860.90	-233.333
861.20	-100.000
861.49	-53.333
861.79	-12.500
862.08	275.000
862.38	-91.667
862.67	157.143
862.97	400.000
863.26	-100.000
863.56	-36.364
863.85	-21.053
864.15	5.882
864.44	-220.000
864.74	0.000
865.03	-133.333
865.33	-85.714
865.62	128.571
865.92	5.263
866.21	-22.222
866.51	-81.818
866.80	-100.000
867.10	-162.500
867.39	-12.500
867.69	-100.000
867.98	-60.000
868.27	-17.647
868.57	0.000
868.86	700.000
869.16	-300.000
869.45	-171.429
869.75	700.000
870.04	80.000
870.33	-700.000
870.63	-26.316
870.92	-75.000
871.22	-600.000
871.51	-128.571
871.80	-155.556
872.10	-325.000
>>>>>End Processed Spectral Data<<<<<
