SpectraSuite Data File
++++++++++++++++++++++++++++++++++++
Date: Tue May 12 15:11:11 PDT 2015
User: schluterlab
Dark Spectrum Present: Yes
Reference Spectrum Present: Yes
Number of Sampled Component Spectra: 1
Spectrometers: USB2E3373
Integration Time (usec): 3000 (USB2E3373)
Spectra Averaged: 3 (USB2E3373)
Boxcar Smoothing: 0 (USB2E3373)
Correct for Electrical Dark: No (USB2E3373)
Strobe/Lamp Enabled: No (USB2E3373)
Correct for Detector Non-linearity: No (USB2E3373)
Correct for Stray Light: No (USB2E3373)
Number of Pixels in Processed Spectrum: 2048
>>>>>Begin Processed Spectral Data<<<<<
178.53	0.000
178.91	-158.333
179.29	-600.000
179.67	-2400.000
180.04	-73.333
180.42	475.000
180.80	1200.000
181.18	0.000
181.56	-212.500
181.94	0.000
182.31	633.333
182.69	-1100.000
183.07	357.143
183.45	-2600.000
183.83	-850.000
184.20	370.000
184.58	285.714
184.96	-200.000
185.34	-116.667
185.72	1300.000
186.09	-525.000
186.47	-2500.000
186.85	733.333
187.23	480.000
187.61	1800.000
187.98	262.500
188.36	221.429
188.74	208.333
189.12	300.000
189.49	525.000
189.87	0.000
190.25	375.000
190.63	1200.000
191.00	-191.667
191.38	-2600.000
191.76	-225.000
192.14	425.000
192.51	-1400.000
192.89	1250.000
193.27	900.000
193.65	-666.667
194.02	-520.000
194.40	228.571
194.78	-192.857
195.15	140.000
195.53	-1700.000
195.91	-400.000
196.29	3000.000
196.66	150.000
197.04	575.000
197.42	-500.000
197.79	250.000
198.17	316.667
198.55	0.000
198.92	242.857
199.30	766.667
199.68	1150.000
200.05	533.333
200.43	-266.667
200.81	177.778
201.18	1300.000
201.56	150.000
201.94	-625.000
202.31	-175.000
202.69	-360.000
203.07	2300.000
203.44	-366.667
203.82	233.333
204.19	400.000
204.57	-400.000
204.95	-650.000
205.32	-300.000
205.70	350.000
206.08	600.000
206.45	-533.333
206.83	166.667
207.20	115.789
207.58	133.333
207.96	460.000
208.33	0.000
208.71	471.429
209.08	500.000
209.46	-900.000
209.84	-700.000
210.21	620.000
210.59	-420.000
210.96	233.333
211.34	-550.000
211.71	218.182
212.09	500.000
212.46	1100.000
212.84	-200.000
213.22	333.333
213.59	-1700.000
213.97	170.000
214.34	500.000
214.72	800.000
215.09	733.333
215.47	-1800.000
215.84	-90.000
216.22	-287.500
216.59	0.000
216.97	0.000
217.34	1000.000
217.72	-350.000
218.09	566.667
218.47	275.000
218.84	700.000
219.22	666.667
219.59	700.000
219.97	314.286
220.34	255.556
220.72	1100.000
221.09	1600.000
221.47	133.333
221.84	800.000
222.22	210.000
222.59	166.667
222.97	135.714
223.34	206.250
223.72	-1200.000
224.09	200.000
224.46	169.231
224.84	-725.000
225.21	322.222
225.59	206.667
225.96	866.667
226.34	-440.000
226.71	-175.000
227.08	-320.000
227.46	0.000
227.83	-366.667
228.21	-1150.000
228.58	166.667
228.95	700.000
229.33	266.667
229.70	650.000
230.08	246.154
230.45	2000.000
230.82	-575.000
231.20	-566.667
231.57	-400.000
231.95	260.000
232.32	108.333
232.69	183.333
233.07	183.333
233.44	-1050.000
233.81	220.000
234.19	111.111
234.56	100.000
234.93	105.882
235.31	110.000
235.68	131.250
236.05	92.857
236.43	100.000
236.80	178.571
237.17	96.552
237.55	87.500
237.92	87.500
238.29	81.818
238.67	53.125
239.04	48.780
239.41	39.583
239.79	50.000
240.16	37.500
240.53	40.984
240.91	33.333
241.28	32.203
241.65	40.909
242.02	38.028
242.40	28.571
242.77	30.769
243.14	18.987
243.51	35.354
243.89	23.364
244.26	31.776
244.63	25.743
245.00	8.257
245.38	3.390
245.75	16.667
246.12	24.444
246.49	19.149
246.87	12.295
247.24	22.667
247.61	15.000
247.98	17.687
248.36	13.333
248.73	19.898
249.10	10.714
249.47	17.500
249.84	12.935
250.22	17.297
250.59	15.000
250.96	13.502
251.33	9.767
251.70	12.946
252.08	10.504
252.45	14.343
252.82	9.125
253.19	10.277
253.56	10.769
253.94	13.406
254.31	12.016
254.68	11.847
255.05	10.690
255.42	11.679
255.79	14.332
256.16	9.831
256.54	13.312
256.91	12.092
257.28	11.037
257.65	5.643
258.02	9.440
258.39	10.029
258.76	12.754
259.14	8.000
259.51	12.828
259.88	11.854
260.25	7.143
260.62	8.219
260.99	6.612
261.36	8.635
261.73	6.117
262.10	8.639
262.47	8.000
262.85	7.733
263.22	9.254
263.59	10.742
263.96	11.779
264.33	6.667
264.70	8.354
265.07	6.341
265.44	8.257
265.81	9.434
266.18	8.696
266.55	8.983
266.92	6.264
267.29	8.114
267.66	5.605
268.03	4.260
268.40	9.514
268.77	9.251
269.14	4.772
269.51	5.345
269.88	8.163
270.25	6.911
270.62	7.082
270.99	6.694
271.36	8.333
271.73	7.338
272.10	7.879
272.47	6.746
272.84	8.184
273.21	7.025
273.58	7.692
273.95	4.723
274.32	6.031
274.69	8.661
275.06	9.290
275.43	8.046
275.80	6.604
276.17	8.456
276.54	8.598
276.91	9.142
277.28	6.569
277.65	7.934
278.02	8.088
278.39	8.813
278.76	8.276
279.13	6.406
279.50	7.091
279.87	5.959
280.23	6.814
280.60	6.752
280.97	8.103
281.34	7.261
281.71	6.087
282.08	10.769
282.45	6.081
282.82	7.358
283.19	7.472
283.56	7.438
283.92	6.189
284.29	6.489
284.66	6.218
285.03	8.292
285.40	6.446
285.77	6.481
286.14	7.430
286.51	5.368
286.87	5.696
287.24	6.006
287.61	6.535
287.98	7.463
288.35	7.111
288.72	6.829
289.08	6.607
289.45	6.402
289.82	7.031
290.19	7.321
290.56	8.297
290.93	5.899
291.29	7.182
291.66	6.638
292.03	5.891
292.40	6.911
292.77	6.964
293.13	6.847
293.50	5.398
293.87	6.911
294.24	5.874
294.60	7.672
294.97	6.993
295.34	6.507
295.71	7.227
296.08	6.533
296.44	8.132
296.81	6.576
297.18	6.337
297.55	7.266
297.91	5.172
298.28	6.159
298.65	6.135
299.02	5.669
299.38	6.715
299.75	6.951
300.12	7.339
300.48	7.026
300.85	7.509
301.22	5.698
301.59	6.604
301.95	5.718
302.32	7.451
302.69	7.579
303.05	8.081
303.42	5.830
303.79	6.609
304.15	6.711
304.52	6.977
304.89	6.290
305.25	7.898
305.62	8.635
305.99	6.413
306.35	6.842
306.72	6.972
307.09	7.453
307.45	6.864
307.82	6.996
308.19	8.660
308.55	8.200
308.92	8.145
309.29	10.256
309.65	8.226
310.02	9.229
310.38	7.876
310.75	8.004
311.12	8.429
311.48	9.749
311.85	9.542
312.22	9.838
312.58	9.135
312.95	10.388
313.31	10.393
313.68	9.099
314.05	10.989
314.41	10.428
314.78	11.269
315.14	10.806
315.51	11.542
315.87	10.949
316.24	11.204
316.61	10.654
316.97	11.193
317.34	12.399
317.70	12.291
318.07	12.544
318.43	13.269
318.80	12.347
319.16	12.850
319.53	13.186
319.89	13.799
320.26	14.898
320.62	14.469
320.99	12.774
321.35	13.915
321.72	15.844
322.08	15.235
322.45	14.351
322.81	15.188
323.18	16.696
323.54	16.289
323.91	16.319
324.27	16.180
324.64	15.484
325.00	17.069
325.37	16.442
325.73	16.863
326.10	18.310
326.46	18.662
326.83	17.440
327.19	19.438
327.56	18.371
327.92	18.852
328.29	19.394
328.65	20.205
329.01	18.991
329.38	19.797
329.74	19.300
330.11	19.809
330.47	20.460
330.84	18.464
331.20	19.882
331.56	21.762
331.93	20.274
332.29	20.408
332.66	20.408
333.02	20.790
333.38	19.895
333.75	22.352
334.11	20.889
334.48	21.624
334.84	20.693
335.20	21.300
335.57	20.319
335.93	20.521
336.29	19.735
336.66	22.298
337.02	20.787
337.38	20.120
337.75	21.791
338.11	20.591
338.47	21.253
338.84	21.169
339.20	20.346
339.56	20.942
339.93	21.405
340.29	20.084
340.65	20.536
341.02	21.641
341.38	21.018
341.74	20.764
342.11	19.950
342.47	19.524
342.83	21.165
343.20	20.857
343.56	18.348
343.92	21.222
344.28	20.654
344.65	21.353
345.01	20.317
345.37	20.032
345.73	19.841
346.10	20.797
346.46	20.654
346.82	19.599
347.19	19.784
347.55	20.609
347.91	19.562
348.27	20.062
348.63	19.937
349.00	19.878
349.36	20.467
349.72	21.024
350.08	21.351
350.45	20.640
350.81	20.183
351.17	19.183
351.53	20.092
351.89	20.280
352.26	20.181
352.62	20.362
352.98	19.555
353.34	20.801
353.70	17.890
354.07	20.769
354.43	20.276
354.79	18.527
355.15	19.525
355.51	19.864
355.87	19.729
356.24	21.016
356.60	19.178
356.96	19.636
357.32	19.819
357.68	19.824
358.04	19.377
358.40	19.415
358.77	19.083
359.13	18.994
359.49	18.977
359.85	19.955
360.21	19.316
360.57	19.708
360.93	20.707
361.29	19.841
361.66	20.880
362.02	19.034
362.38	19.913
362.74	20.099
363.10	19.495
363.46	19.130
363.82	20.266
364.18	19.275
364.54	19.313
364.90	19.277
365.26	19.847
365.62	19.475
365.98	20.234
366.35	19.034
366.71	19.292
367.07	18.567
367.43	19.409
367.79	18.949
368.15	19.403
368.51	19.228
368.87	18.546
369.23	18.988
369.59	18.746
369.95	18.392
370.31	18.412
370.67	18.321
371.03	19.328
371.39	19.183
371.75	18.353
372.11	19.579
372.47	19.315
372.83	17.879
373.19	19.808
373.55	19.519
373.91	17.749
374.27	18.981
374.63	19.593
374.99	18.733
375.35	18.683
375.71	19.063
376.07	18.369
376.42	17.455
376.78	18.304
377.14	18.087
377.50	18.851
377.86	19.218
378.22	18.708
378.58	18.644
378.94	19.553
379.30	18.072
379.66	18.302
380.02	18.416
380.38	18.618
380.74	19.319
381.09	18.984
381.45	17.630
381.81	18.144
382.17	18.254
382.53	17.457
382.89	17.504
383.25	18.532
383.61	18.617
383.97	17.996
384.32	17.420
384.68	18.419
385.04	19.754
385.40	18.149
385.76	17.905
386.12	17.440
386.48	17.690
386.83	18.276
387.19	17.845
387.55	17.668
387.91	18.938
388.27	17.728
388.62	17.430
388.98	17.959
389.34	17.549
389.70	17.335
390.06	17.805
390.42	18.445
390.77	18.120
391.13	17.622
391.49	17.423
391.85	16.800
392.20	18.713
392.56	18.160
392.92	17.462
393.28	17.152
393.64	16.514
393.99	16.835
394.35	17.187
394.71	17.069
395.07	17.640
395.42	16.979
395.78	18.384
396.14	18.072
396.50	16.968
396.85	17.073
397.21	16.968
397.57	16.856
397.92	17.678
398.28	16.823
398.64	17.801
399.00	16.676
399.35	15.942
399.71	17.163
400.07	16.667
400.42	17.194
400.78	16.364
401.14	17.146
401.49	16.532
401.85	17.034
402.21	15.934
402.57	16.756
402.92	16.848
403.28	15.752
403.63	15.774
403.99	17.250
404.35	16.647
404.70	16.539
405.06	15.946
405.42	16.637
405.77	16.373
406.13	15.998
406.49	15.918
406.84	15.962
407.20	15.925
407.55	15.385
407.91	16.528
408.27	15.949
408.62	16.854
408.98	15.967
409.34	16.072
409.69	15.868
410.05	15.981
410.40	14.959
410.76	15.570
411.11	14.810
411.47	15.123
411.83	15.641
412.18	15.700
412.54	15.616
412.89	16.047
413.25	15.906
413.60	15.362
413.96	15.141
414.31	15.643
414.67	15.891
415.03	14.879
415.38	15.836
415.74	14.972
416.09	14.991
416.45	15.579
416.80	16.164
417.16	15.468
417.51	15.096
417.87	14.768
418.22	15.674
418.58	15.669
418.93	15.170
419.29	14.664
419.64	14.658
420.00	16.647
420.35	14.634
420.71	15.344
421.06	14.656
421.42	14.911
421.77	15.380
422.12	14.498
422.48	15.306
422.83	15.848
423.19	14.741
423.54	14.482
423.90	15.459
424.25	15.355
424.61	15.380
424.96	14.794
425.31	14.888
425.67	15.095
426.02	14.582
426.38	14.411
426.73	14.864
427.09	15.896
427.44	14.744
427.79	14.408
428.15	15.793
428.50	15.029
428.85	16.049
429.21	15.127
429.56	14.905
429.92	15.614
430.27	14.804
430.62	14.537
430.98	14.721
431.33	14.718
431.68	14.123
432.04	14.744
432.39	15.917
432.74	15.105
433.10	14.618
433.45	15.566
433.80	15.334
434.16	15.922
434.51	15.067
434.86	14.916
435.22	14.911
435.57	14.760
435.92	15.538
436.28	15.611
436.63	15.559
436.98	15.372
437.34	14.840
437.69	14.166
438.04	15.161
438.39	15.003
438.75	14.978
439.10	15.003
439.45	14.528
439.81	15.385
440.16	14.860
440.51	14.414
440.86	15.726
441.22	14.556
441.57	14.803
441.92	14.956
442.27	14.897
442.63	14.634
442.98	14.925
443.33	15.212
443.68	14.940
444.03	15.221
444.39	15.913
444.74	15.114
445.09	14.850
445.44	15.303
445.79	14.474
446.15	15.632
446.50	15.137
446.85	15.986
447.20	14.627
447.55	15.280
447.91	16.090
448.26	15.495
448.61	15.533
448.96	14.760
449.31	15.402
449.66	16.777
450.02	14.479
450.37	15.991
450.72	15.537
451.07	15.649
451.42	15.234
451.77	16.037
452.12	15.201
452.47	16.586
452.83	15.324
453.18	16.396
453.53	15.690
453.88	16.343
454.23	15.863
454.58	15.967
454.93	15.205
455.28	15.912
455.63	15.898
455.98	15.228
456.34	15.502
456.69	16.220
457.04	14.737
457.39	15.029
457.74	15.822
458.09	14.823
458.44	15.334
458.79	16.180
459.14	15.330
459.49	15.968
459.84	15.924
460.19	14.633
460.54	15.613
460.89	15.672
461.24	15.636
461.59	15.873
461.94	15.544
462.29	16.190
462.64	16.457
462.99	15.291
463.34	16.332
463.69	16.515
464.04	16.062
464.39	15.455
464.74	15.182
465.09	15.206
465.44	14.962
465.79	15.623
466.14	15.156
466.49	15.301
466.84	14.827
467.19	15.700
467.54	15.315
467.89	15.317
468.24	15.055
468.59	15.060
468.94	15.399
469.29	16.127
469.64	16.013
469.99	15.810
470.34	15.623
470.68	15.103
471.03	15.544
471.38	16.291
471.73	15.088
472.08	16.047
472.43	15.518
472.78	16.325
473.13	15.269
473.48	15.954
473.83	15.253
474.17	15.805
474.52	15.995
474.87	14.724
475.22	16.162
475.57	14.586
475.92	14.205
476.27	14.635
476.61	14.638
476.96	15.465
477.31	14.499
477.66	14.976
478.01	15.214
478.36	14.985
478.70	14.789
479.05	14.487
479.40	14.385
479.75	14.846
480.10	15.053
480.45	14.006
480.79	14.793
481.14	14.123
481.49	14.364
481.84	14.468
482.19	14.847
482.53	14.141
482.88	14.023
483.23	14.659
483.58	14.587
483.92	15.722
484.27	14.255
484.62	14.346
484.97	14.686
485.31	13.568
485.66	13.943
486.01	13.597
486.36	13.345
486.70	13.135
487.05	13.543
487.40	13.770
487.75	13.615
488.09	14.062
488.44	13.862
488.79	14.335
489.13	13.923
489.48	14.622
489.83	14.345
490.17	14.575
490.52	14.341
490.87	14.483
491.22	14.273
491.56	14.581
491.91	13.575
492.26	14.343
492.60	14.396
492.95	14.001
493.30	14.331
493.64	13.567
493.99	15.206
494.34	13.985
494.68	14.298
495.03	14.683
495.37	14.228
495.72	15.012
496.07	14.420
496.41	14.726
496.76	14.479
497.11	14.482
497.45	14.248
497.80	15.060
498.14	14.008
498.49	14.253
498.84	14.579
499.18	13.894
499.53	14.332
499.87	14.016
500.22	14.187
500.56	13.510
500.91	14.981
501.26	14.424
501.60	13.707
501.95	13.620
502.29	14.044
502.64	13.322
502.98	13.917
503.33	13.942
503.67	14.570
504.02	13.614
504.36	13.620
504.71	14.475
505.06	13.890
505.40	13.851
505.75	14.172
506.09	13.859
506.44	14.051
506.78	14.083
507.13	13.766
507.47	13.877
507.82	14.307
508.16	14.552
508.51	14.010
508.85	13.818
509.19	13.705
509.54	13.965
509.88	14.620
510.23	14.461
510.57	13.417
510.92	14.286
511.26	13.855
511.61	13.392
511.95	14.087
512.30	13.650
512.64	13.551
512.98	14.300
513.33	14.293
513.67	13.931
514.02	14.649
514.36	14.694
514.70	13.333
515.05	13.799
515.39	13.377
515.74	14.161
516.08	14.270
516.42	14.645
516.77	13.973
517.11	14.080
517.46	13.901
517.80	13.708
518.14	14.873
518.49	13.782
518.83	13.242
519.17	13.977
519.52	14.855
519.86	13.842
520.20	14.082
520.55	12.776
520.89	13.736
521.23	14.077
521.58	13.769
521.92	13.703
522.26	13.152
522.61	14.676
522.95	13.393
523.29	14.386
523.64	13.121
523.98	13.908
524.32	13.437
524.66	13.739
525.01	13.550
525.35	13.612
525.69	13.967
526.04	14.218
526.38	13.537
526.72	13.425
527.06	13.661
527.41	14.268
527.75	14.607
528.09	13.245
528.43	14.033
528.78	13.536
529.12	14.750
529.46	13.852
529.80	13.610
530.15	14.084
530.49	13.177
530.83	13.285
531.17	12.977
531.51	14.286
531.86	13.587
532.20	12.608
532.54	13.748
532.88	13.367
533.22	13.894
533.57	13.423
533.91	12.471
534.25	13.503
534.59	12.749
534.93	13.026
535.27	12.464
535.62	12.952
535.96	13.357
536.30	14.260
536.64	12.236
536.98	13.216
537.32	13.312
537.66	12.436
538.01	13.127
538.35	14.286
538.69	13.107
539.03	12.624
539.37	12.682
539.71	13.148
540.05	12.738
540.39	13.711
540.73	13.861
541.07	12.798
541.42	13.557
541.76	13.009
542.10	13.009
542.44	13.217
542.78	13.531
543.12	13.129
543.46	12.218
543.80	12.531
544.14	13.189
544.48	12.470
544.82	12.599
545.16	11.900
545.50	13.460
545.84	12.942
546.18	13.004
546.52	13.443
546.86	13.733
547.20	11.951
547.54	13.110
547.88	13.260
548.22	13.297
548.56	13.023
548.90	12.989
549.24	12.824
549.58	12.436
549.92	12.770
550.26	13.320
550.60	13.107
550.94	12.551
551.28	13.241
551.62	14.069
551.96	12.297
552.30	12.986
552.64	13.074
552.98	11.598
553.32	12.676
553.66	12.443
554.00	13.127
554.34	13.449
554.68	12.903
555.02	13.442
555.36	12.500
555.69	12.238
556.03	12.803
556.37	12.492
556.71	13.364
557.05	11.599
557.39	13.000
557.73	13.208
558.07	11.871
558.41	12.748
558.75	13.269
559.08	12.509
559.42	13.386
559.76	12.117
560.10	12.801
560.44	12.276
560.78	12.852
561.12	12.460
561.45	13.517
561.79	11.798
562.13	11.560
562.47	11.746
562.81	12.427
563.15	11.959
563.48	11.242
563.82	12.040
564.16	12.313
564.50	13.080
564.84	12.158
565.17	12.656
565.51	12.438
565.85	12.523
566.19	11.726
566.52	11.552
566.86	12.726
567.20	12.360
567.54	11.190
567.88	12.415
568.21	11.533
568.55	11.770
568.89	11.998
569.23	11.562
569.56	11.022
569.90	11.283
570.24	11.175
570.57	10.967
570.91	10.764
571.25	10.765
571.59	10.209
571.92	11.114
572.26	10.216
572.60	10.636
572.93	10.926
573.27	10.597
573.61	10.612
573.95	11.056
574.28	10.567
574.62	10.014
574.96	10.330
575.29	10.097
575.63	10.483
575.97	10.200
576.30	10.048
576.64	10.776
576.98	10.402
577.31	10.571
577.65	10.287
577.98	10.275
578.32	10.043
578.66	10.381
578.99	10.552
579.33	10.871
579.67	10.201
580.00	10.227
580.34	10.572
580.67	10.447
581.01	10.819
581.35	10.594
581.68	9.982
582.02	10.554
582.35	9.905
582.69	10.099
583.02	10.345
583.36	10.378
583.70	10.261
584.03	10.589
584.37	10.449
584.70	10.351
585.04	10.207
585.37	9.671
585.71	10.247
586.04	10.445
586.38	10.199
586.72	10.476
587.05	10.885
587.39	10.215
587.72	10.393
588.06	10.430
588.39	10.312
588.73	10.597
589.06	10.009
589.40	10.736
589.73	10.783
590.07	11.084
590.40	11.045
590.73	11.201
591.07	11.195
591.40	11.178
591.74	10.998
592.07	11.148
592.41	11.431
592.74	11.168
593.08	10.677
593.41	10.533
593.75	10.483
594.08	10.471
594.41	10.427
594.75	10.890
595.08	11.283
595.42	10.566
595.75	10.628
596.09	10.775
596.42	10.670
596.75	11.178
597.09	11.184
597.42	10.816
597.75	11.318
598.09	10.751
598.42	11.424
598.76	11.141
599.09	11.181
599.42	10.934
599.76	10.889
600.09	10.814
600.42	10.532
600.76	10.877
601.09	10.632
601.42	10.982
601.76	10.741
602.09	11.405
602.42	10.832
602.76	10.664
603.09	10.784
603.42	11.193
603.76	10.774
604.09	10.170
604.42	11.111
604.76	10.747
605.09	11.143
605.42	11.540
605.75	11.133
606.09	11.362
606.42	10.785
606.75	11.154
607.09	11.015
607.42	10.647
607.75	11.027
608.08	10.764
608.42	10.948
608.75	10.783
609.08	10.867
609.41	11.091
609.75	11.355
610.08	11.241
610.41	11.155
610.74	10.909
611.07	10.732
611.41	10.843
611.74	10.612
612.07	10.549
612.40	10.721
612.73	11.333
613.07	10.796
613.40	11.679
613.73	11.782
614.06	10.550
614.39	11.717
614.72	12.104
615.06	11.078
615.39	11.436
615.72	10.503
616.05	11.452
616.38	10.807
616.71	11.774
617.05	11.312
617.38	11.629
617.71	11.024
618.04	10.937
618.37	11.284
618.70	10.797
619.03	11.416
619.36	11.809
619.69	11.280
620.03	12.590
620.36	12.139
620.69	13.155
621.02	11.753
621.35	11.533
621.68	11.578
622.01	13.284
622.34	10.998
622.67	11.868
623.00	11.777
623.33	11.876
623.66	11.843
623.99	11.644
624.32	11.653
624.65	12.113
624.99	11.359
625.32	11.824
625.65	11.103
625.98	11.088
626.31	11.424
626.64	11.465
626.97	11.706
627.30	12.189
627.63	13.187
627.96	11.502
628.29	12.046
628.62	11.719
628.95	12.500
629.28	12.270
629.61	11.951
629.94	12.792
630.26	12.478
630.59	12.943
630.92	11.031
631.25	13.237
631.58	13.211
631.91	12.750
632.24	11.565
632.57	11.395
632.90	11.905
633.23	13.012
633.56	13.699
633.89	13.076
634.22	12.809
634.55	12.366
634.88	13.801
635.20	12.332
635.53	13.357
635.86	14.430
636.19	11.785
636.52	12.324
636.85	12.513
637.18	12.351
637.51	11.955
637.83	13.272
638.16	13.599
638.49	13.653
638.82	13.380
639.15	13.278
639.48	13.981
639.81	12.821
640.13	13.374
640.46	13.527
640.79	13.004
641.12	9.711
641.45	13.583
641.77	14.135
642.10	14.859
642.43	12.660
642.76	13.636
643.09	13.833
643.41	12.903
643.74	14.388
644.07	13.569
644.40	12.574
644.73	13.363
645.05	14.264
645.38	13.017
645.71	14.112
646.04	14.962
646.36	13.146
646.69	13.760
647.02	13.760
647.35	12.913
647.67	15.559
648.00	15.635
648.33	13.684
648.66	12.273
648.98	14.058
649.31	13.630
649.64	13.001
649.96	13.514
650.29	12.857
650.62	13.402
650.94	15.663
651.27	15.470
651.60	13.615
651.92	12.289
652.25	14.173
652.58	13.759
652.90	11.826
653.23	13.146
653.56	12.760
653.88	13.803
654.21	13.196
654.54	13.909
654.86	13.422
655.19	13.720
655.52	11.499
655.84	8.545
656.17	9.480
656.49	13.705
656.82	15.887
657.15	12.700
657.47	9.696
657.80	7.062
658.13	5.624
658.45	7.548
658.78	9.462
659.10	9.151
659.43	10.256
659.75	9.860
660.08	11.090
660.41	11.706
660.73	13.300
661.06	14.414
661.38	14.651
661.71	12.770
662.03	13.498
662.36	11.810
662.68	14.153
663.01	15.676
663.33	15.283
663.66	13.807
663.98	14.484
664.31	15.299
664.63	15.134
664.96	15.197
665.28	11.488
665.61	12.264
665.93	15.283
666.26	12.150
666.58	16.330
666.91	15.637
667.23	14.257
667.56	14.784
667.88	14.938
668.21	14.754
668.53	14.718
668.86	16.232
669.18	14.257
669.50	13.223
669.83	13.552
670.15	12.682
670.48	12.695
670.80	13.347
671.13	15.139
671.45	15.030
671.77	15.028
672.10	15.260
672.42	14.474
672.75	12.816
673.07	14.308
673.39	12.780
673.72	13.841
674.04	15.771
674.37	13.975
674.69	14.498
675.01	13.433
675.34	13.760
675.66	14.648
675.98	14.398
676.31	12.600
676.63	14.712
676.95	14.286
677.28	13.387
677.60	15.694
677.92	13.492
678.25	14.922
678.57	13.780
678.89	14.286
679.22	15.257
679.54	13.167
679.86	14.660
680.18	13.181
680.51	11.774
680.83	10.811
681.15	15.078
681.48	14.410
681.80	11.734
682.12	13.668
682.44	13.153
682.77	16.548
683.09	13.010
683.41	14.694
683.73	14.567
684.06	12.500
684.38	12.209
684.70	12.230
685.02	11.806
685.34	12.324
685.67	13.023
685.99	12.644
686.31	12.327
686.63	11.220
686.96	15.196
687.28	12.081
687.60	13.481
687.92	14.070
688.24	15.172
688.56	13.523
688.89	11.472
689.21	13.487
689.53	15.613
689.85	11.789
690.17	12.621
690.49	12.298
690.82	13.445
691.14	13.535
691.46	15.195
691.78	12.281
692.10	12.405
692.42	11.252
692.74	15.310
693.06	13.566
693.39	12.451
693.71	12.574
694.03	14.990
694.35	16.867
694.67	12.831
694.99	14.634
695.31	13.964
695.63	13.348
695.95	11.538
696.27	19.027
696.59	14.081
696.91	10.633
697.23	15.385
697.56	11.826
697.88	10.778
698.20	14.906
698.52	12.062
698.84	12.115
699.16	13.646
699.48	14.407
699.80	14.815
700.12	14.781
700.44	17.056
700.76	14.320
701.08	14.621
701.40	14.286
701.72	17.112
702.04	14.634
702.36	15.054
702.68	15.426
703.00	13.534
703.32	15.881
703.64	16.877
703.96	14.062
704.28	15.608
704.60	13.521
704.91	14.286
705.23	17.898
705.55	13.947
705.87	16.825
706.19	17.868
706.51	13.480
706.83	16.519
707.15	16.310
707.47	15.012
707.79	15.632
708.11	14.286
708.43	14.607
708.74	15.611
709.06	15.814
709.38	14.640
709.70	12.534
710.02	14.946
710.34	12.983
710.66	16.111
710.98	15.847
711.29	14.763
711.61	16.156
711.93	14.286
712.25	13.554
712.57	17.363
712.89	19.697
713.20	17.252
713.52	16.822
713.84	15.408
714.16	12.174
714.48	13.256
714.80	11.653
715.11	11.702
715.43	13.408
715.75	16.056
716.07	16.185
716.39	14.571
716.70	14.019
717.02	16.498
717.34	16.906
717.66	18.750
717.97	17.424
718.29	17.606
718.61	13.514
718.93	16.609
719.24	18.121
719.56	13.103
719.88	15.287
720.20	19.032
720.51	14.706
720.83	14.381
721.15	19.388
721.46	17.123
721.78	17.422
722.10	15.972
722.42	18.060
722.73	14.440
723.05	16.140
723.37	18.728
723.68	12.109
724.00	18.182
724.32	17.871
724.63	16.923
724.95	15.686
725.27	15.613
725.58	15.809
725.90	13.732
726.22	18.151
726.53	17.057
726.85	15.961
727.16	15.436
727.48	15.947
727.80	19.065
728.11	18.214
728.43	16.304
728.74	15.035
729.06	14.695
729.38	17.544
729.69	19.000
730.01	16.447
730.32	15.101
730.64	17.276
730.96	17.417
731.27	12.538
731.59	13.793
731.90	14.763
732.22	16.286
732.53	13.675
732.85	17.251
733.16	16.265
733.48	17.241
733.80	16.232
734.11	17.178
734.43	12.281
734.74	12.064
735.06	13.757
735.37	12.113
735.69	13.043
736.00	16.820
736.32	11.818
736.63	13.249
736.95	11.491
737.26	18.598
737.58	12.883
737.89	15.060
738.21	10.927
738.52	13.043
738.83	19.414
739.15	17.422
739.46	15.172
739.78	13.946
740.09	18.367
740.41	12.883
740.72	17.778
741.04	18.881
741.35	17.969
741.66	14.229
741.98	18.026
742.29	16.667
742.61	18.142
742.92	17.797
743.23	14.800
743.55	14.717
743.86	12.157
744.18	14.831
744.49	23.967
744.80	18.894
745.12	16.071
745.43	15.888
745.74	15.556
746.06	15.351
746.37	21.860
746.68	22.124
747.00	14.798
747.31	13.866
747.62	11.885
747.94	18.026
748.25	14.008
748.56	22.034
748.88	21.875
749.19	16.744
749.50	13.699
749.82	21.399
750.13	16.206
750.44	14.000
750.75	12.416
751.07	11.513
751.38	15.182
751.69	16.162
752.01	14.336
752.32	17.276
752.63	18.121
752.94	16.084
753.26	13.672
753.57	16.732
753.88	15.730
754.19	16.245
754.51	17.940
754.82	13.758
755.13	16.892
755.44	17.037
755.75	19.931
756.07	16.438
756.38	12.418
756.69	13.125
757.00	18.694
757.31	16.056
757.63	11.846
757.94	11.436
758.25	14.010
758.56	13.043
758.87	15.288
759.18	14.826
759.50	14.894
759.81	16.914
760.12	15.730
760.43	11.485
760.74	14.684
761.05	15.385
761.36	11.979
761.67	15.094
761.99	14.648
762.30	14.148
762.61	11.458
762.92	16.667
763.23	16.604
763.54	13.846
763.85	13.619
764.16	20.139
764.47	15.541
764.78	14.984
765.10	14.329
765.41	10.227
765.72	14.917
766.03	12.689
766.34	17.770
766.65	19.772
766.96	20.648
767.27	19.159
767.58	21.782
767.89	21.547
768.20	25.610
768.51	16.837
768.82	14.035
769.13	15.294
769.44	15.789
769.75	13.483
770.06	18.067
770.37	14.912
770.68	15.111
770.99	19.068
771.30	18.410
771.61	16.538
771.92	15.649
772.23	15.323
772.54	22.222
772.85	19.802
773.16	18.478
773.47	17.222
773.78	19.802
774.09	16.477
774.39	16.364
774.70	19.412
775.01	17.105
775.32	18.012
775.63	19.178
775.94	25.926
776.25	25.517
776.56	22.901
776.87	29.771
777.18	24.242
777.48	34.646
777.79	24.615
778.10	25.758
778.41	29.851
778.72	18.797
779.03	14.744
779.34	20.946
779.65	25.466
779.95	21.118
780.26	16.667
780.57	24.490
780.88	28.369
781.19	28.333
781.50	20.710
781.80	22.404
782.11	20.635
782.42	13.793
782.73	24.859
783.04	17.419
783.34	14.729
783.65	19.728
783.96	27.097
784.27	22.517
784.57	15.789
784.88	21.014
785.19	15.833
785.50	18.103
785.81	32.558
786.11	28.148
786.42	23.622
786.73	20.721
787.04	25.472
787.34	25.203
787.65	28.788
787.96	25.758
788.26	26.772
788.57	24.818
788.88	20.423
789.19	18.321
789.49	35.811
789.80	25.000
790.11	31.405
790.41	30.556
790.72	31.481
791.03	31.731
791.33	29.293
791.64	34.737
791.95	27.368
792.25	15.625
792.56	23.000
792.87	30.488
793.17	37.500
793.48	28.235
793.79	27.586
794.09	31.818
794.40	29.310
794.70	28.571
795.01	22.308
795.32	23.664
795.62	21.368
795.93	27.731
796.23	29.268
796.54	35.714
796.85	31.818
797.15	35.065
797.46	40.244
797.76	23.750
798.07	41.333
798.37	38.750
798.68	37.500
798.99	41.463
799.29	36.000
799.60	22.093
799.90	28.947
800.21	27.273
800.51	25.352
800.82	27.586
801.12	49.231
801.43	50.667
801.73	27.586
802.04	51.948
802.34	23.288
802.65	39.216
802.95	39.130
803.26	50.000
803.56	53.333
803.87	56.716
804.17	39.683
804.48	30.189
804.78	38.889
805.09	50.000
805.39	31.746
805.70	43.860
806.00	40.000
806.30	46.875
806.61	30.588
806.91	47.778
807.22	34.783
807.52	31.579
807.83	43.421
808.13	30.435
808.43	35.484
808.74	46.575
809.04	28.571
809.35	48.529
809.65	48.485
809.95	58.824
810.26	38.889
810.56	46.875
810.86	55.102
811.17	45.614
811.47	45.652
811.77	41.379
812.08	25.862
812.38	45.238
812.69	42.857
812.99	13.333
813.29	48.571
813.59	61.290
813.90	39.655
814.20	57.377
814.50	26.000
814.81	15.789
815.11	50.000
815.41	44.643
815.72	64.286
816.02	64.000
816.32	56.098
816.62	62.069
816.93	84.848
817.23	58.537
817.53	62.500
817.84	37.778
818.14	54.762
818.44	56.250
818.74	64.151
819.04	43.590
819.35	66.667
819.65	94.231
819.95	87.037
820.25	72.340
820.56	83.784
820.86	65.789
821.16	23.404
821.46	81.579
821.76	52.727
822.07	40.476
822.37	57.895
822.67	46.512
822.97	57.895
823.27	69.565
823.57	75.000
823.88	66.667
824.18	60.606
824.48	65.217
824.78	38.889
825.08	56.522
825.38	89.655
825.69	61.765
825.99	48.936
826.29	52.778
826.59	68.571
826.89	73.333
827.19	54.286
827.49	70.968
827.79	65.385
828.09	35.714
828.39	72.222
828.70	56.757
829.00	110.714
829.30	106.250
829.60	52.778
829.90	80.645
830.20	30.303
830.50	91.892
830.80	116.667
831.10	111.538
831.40	76.190
831.70	112.500
832.00	60.000
832.30	65.217
832.60	87.500
832.90	106.061
833.20	85.000
833.50	76.316
833.80	44.118
834.10	50.000
834.40	47.368
834.70	100.000
835.00	112.000
835.30	64.865
835.60	71.875
835.90	64.865
836.20	34.615
836.50	72.727
836.80	87.805
837.10	65.217
837.40	246.154
837.70	100.000
838.00	66.667
838.30	108.333
838.60	96.000
838.90	140.000
839.19	143.750
839.49	90.000
839.79	75.862
840.09	115.385
840.39	120.000
840.69	157.895
840.99	52.381
841.29	95.652
841.59	145.000
841.88	140.000
842.18	188.889
842.48	107.143
842.78	81.481
843.08	84.615
843.38	86.364
843.68	100.000
843.97	328.571
844.27	73.913
844.57	800.000
844.87	150.000
845.17	105.556
845.47	90.476
845.76	104.167
846.06	485.714
846.36	100.000
846.66	138.462
846.96	206.250
847.25	138.462
847.55	126.316
847.85	105.556
848.15	340.000
848.44	154.545
848.74	71.429
849.04	137.500
849.34	135.294
849.63	181.250
849.93	168.750
850.23	466.667
850.53	187.500
850.82	154.545
851.12	94.118
851.42	145.833
851.71	143.750
852.01	0.000
852.31	94.118
852.61	250.000
852.90	62.500
853.20	144.444
853.50	-2200.000
853.79	108.000
854.09	96.875
854.39	110.345
854.68	96.552
854.98	104.762
855.28	67.742
855.57	192.857
855.87	138.889
856.17	85.185
856.46	131.579
856.76	64.516
857.05	141.176
857.35	181.818
857.65	169.231
857.94	105.000
858.24	166.667
858.53	164.286
858.83	257.143
859.13	104.348
859.42	111.111
859.72	162.500
860.01	133.333
860.31	650.000
860.60	300.000
860.90	237.500
861.20	130.769
861.49	357.143
861.79	-1900.000
862.08	371.429
862.38	222.222
862.67	157.143
862.97	220.000
863.26	80.000
863.56	725.000
863.85	253.846
864.15	129.412
864.44	138.889
864.74	116.667
865.03	200.000
865.33	125.000
865.62	106.667
865.92	300.000
866.21	400.000
866.51	260.000
866.80	111.111
867.10	400.000
867.39	1700.000
867.69	340.000
867.98	600.000
868.27	147.619
868.57	193.333
868.86	525.000
869.16	90.476
869.45	2100.000
869.75	-283.333
870.04	400.000
870.33	400.000
870.63	187.500
870.92	141.176
871.22	475.000
871.51	342.857
871.80	283.333
872.10	207.692
>>>>>End Processed Spectral Data<<<<<
