SpectraSuite Data File
++++++++++++++++++++++++++++++++++++
Date: Tue May 12 16:11:25 PDT 2015
User: schluterlab
Dark Spectrum Present: Yes
Reference Spectrum Present: Yes
Number of Sampled Component Spectra: 1
Spectrometers: USB2E3373
Integration Time (usec): 3000 (USB2E3373)
Spectra Averaged: 3 (USB2E3373)
Boxcar Smoothing: 0 (USB2E3373)
Correct for Electrical Dark: No (USB2E3373)
Strobe/Lamp Enabled: No (USB2E3373)
Correct for Detector Non-linearity: No (USB2E3373)
Correct for Stray Light: No (USB2E3373)
Number of Pixels in Processed Spectrum: 2048
>>>>>Begin Processed Spectral Data<<<<<
178.53	0.000
178.91	-275.000
179.29	-600.000
179.67	-3700.000
180.04	-146.667
180.42	575.000
180.80	2000.000
181.18	0.000
181.56	-387.500
181.94	0.000
182.31	1233.333
182.69	-2900.000
183.07	657.143
183.45	-4700.000
183.83	-1950.000
184.20	480.000
184.58	557.143
184.96	-253.846
185.34	-250.000
185.72	2100.000
186.09	-900.000
186.47	-3400.000
186.85	833.333
187.23	820.000
187.61	2050.000
187.98	425.000
188.36	307.143
188.74	325.000
189.12	383.333
189.49	950.000
189.87	0.000
190.25	462.500
190.63	2400.000
191.00	-175.000
191.38	-3600.000
191.76	-950.000
192.14	512.500
192.51	-4000.000
192.89	2100.000
193.27	1066.667
193.65	-1333.333
194.02	-840.000
194.40	685.714
194.78	-228.571
195.15	200.000
195.53	-3500.000
195.91	-660.000
196.29	3300.000
196.66	300.000
197.04	950.000
197.42	-1900.000
197.79	925.000
198.17	383.333
198.55	0.000
198.92	528.571
199.30	1266.667
199.68	1800.000
200.05	750.000
200.43	-516.667
200.81	211.111
201.18	3600.000
201.56	366.667
201.94	-925.000
202.31	-325.000
202.69	-500.000
203.07	3800.000
203.44	-583.333
203.82	333.333
204.19	700.000
204.57	-1400.000
204.95	-825.000
205.32	-660.000
205.70	533.333
206.08	650.000
206.45	-766.667
206.83	400.000
207.20	226.316
207.58	325.000
207.96	900.000
208.33	0.000
208.71	614.286
209.08	960.000
209.46	-3000.000
209.84	-950.000
210.21	820.000
210.59	-700.000
210.96	358.333
211.34	-1025.000
211.71	427.273
212.09	950.000
212.46	1750.000
212.84	-383.333
213.22	522.222
213.59	-2900.000
213.97	420.000
214.34	925.000
214.72	1166.667
215.09	1033.333
215.47	-3400.000
215.84	-320.000
216.22	-487.500
216.59	0.000
216.97	0.000
217.34	1550.000
217.72	-1800.000
218.09	1166.667
218.47	625.000
218.84	975.000
219.22	1466.667
219.59	1133.333
219.97	571.429
220.34	522.222
220.72	1900.000
221.09	2900.000
221.47	258.333
221.84	1100.000
222.22	340.000
222.59	255.556
222.97	292.857
223.34	250.000
223.72	-1700.000
224.09	1200.000
224.46	323.077
224.84	-825.000
225.21	488.889
225.59	293.333
225.96	1533.333
226.34	-600.000
226.71	-775.000
227.08	-760.000
227.46	0.000
227.83	-700.000
228.21	-1650.000
228.58	333.333
228.95	1150.000
229.33	344.444
229.70	1025.000
230.08	446.154
230.45	4300.000
230.82	-1175.000
231.20	-866.667
231.57	-1433.333
231.95	540.000
232.32	291.667
232.69	566.667
233.07	308.333
233.44	-1700.000
233.81	293.333
234.19	125.926
234.56	275.000
234.93	200.000
235.31	255.000
235.68	293.750
236.05	171.429
236.43	196.296
236.80	178.571
237.17	182.759
237.55	153.125
237.92	125.000
238.29	136.364
238.67	140.625
239.04	100.000
239.41	106.250
239.79	95.000
240.16	114.583
240.53	80.328
240.91	78.261
241.28	91.525
241.65	78.788
242.02	83.099
242.40	84.286
242.77	76.923
243.14	88.608
243.51	73.737
243.89	66.355
244.26	57.009
244.63	54.455
245.00	66.055
245.38	55.085
245.75	51.515
246.12	61.481
246.49	51.773
246.87	58.197
247.24	53.333
247.61	53.750
247.98	55.102
248.36	52.727
248.73	53.061
249.10	51.786
249.47	47.000
249.84	45.771
250.22	51.351
250.59	49.000
250.96	45.992
251.33	45.116
251.70	50.000
252.08	46.218
252.45	41.833
252.82	41.065
253.19	39.130
253.56	43.462
253.94	39.855
254.31	44.186
254.68	45.296
255.05	41.379
255.42	39.416
255.79	40.065
256.16	43.729
256.54	42.208
256.91	39.869
257.28	41.472
257.65	36.364
258.02	40.708
258.39	40.974
258.76	41.739
259.14	35.714
259.51	39.942
259.88	40.729
260.25	37.088
260.62	42.466
260.99	35.813
261.36	39.833
261.73	39.628
262.10	40.052
262.47	38.500
262.85	37.600
263.22	39.332
263.59	38.619
263.96	39.098
264.33	36.296
264.70	38.821
265.07	33.171
265.44	36.239
265.81	37.264
266.18	37.986
266.55	34.279
266.92	36.913
267.29	37.719
267.66	36.547
268.03	36.547
268.40	36.786
268.77	36.564
269.14	36.009
269.51	34.967
269.88	36.735
270.25	35.637
270.62	35.408
270.99	35.903
271.36	39.634
271.73	36.897
272.10	34.545
272.47	32.937
272.84	32.934
273.21	33.678
273.58	36.032
273.95	35.524
274.32	34.630
274.69	37.205
275.06	34.244
275.43	34.483
275.80	33.396
276.17	34.559
276.54	34.393
276.91	36.940
277.28	31.934
277.65	33.579
278.02	35.294
278.39	34.173
278.76	35.000
279.13	33.808
279.50	32.909
279.87	32.588
280.23	31.308
280.60	34.854
280.97	34.828
281.34	31.023
281.71	35.130
282.08	34.701
282.45	34.459
282.82	33.445
283.19	33.227
283.56	32.231
283.92	33.713
284.29	32.113
284.66	30.588
285.03	32.338
285.40	32.231
285.77	30.864
286.14	31.579
286.51	30.982
286.87	31.804
287.24	30.631
287.61	31.915
287.98	30.299
288.35	29.630
288.72	29.439
289.08	31.532
289.45	30.793
289.82	32.812
290.19	30.161
290.56	30.277
290.93	29.640
291.29	28.729
291.66	30.508
292.03	30.575
292.40	28.997
292.77	27.994
293.13	30.243
293.50	28.070
293.87	25.881
294.24	25.874
294.60	27.591
294.97	29.790
295.34	26.560
295.71	26.018
296.08	27.467
296.44	28.081
296.81	26.551
297.18	25.602
297.55	26.355
297.91	24.138
298.28	24.638
298.65	25.521
299.02	25.452
299.38	25.899
299.75	23.780
300.12	25.917
300.48	25.293
300.85	25.149
301.22	25.349
301.59	23.349
301.95	24.504
302.32	23.865
302.69	24.434
303.05	25.926
303.42	22.309
303.79	23.944
304.15	23.212
304.52	23.150
304.89	23.454
305.25	25.584
305.62	23.774
305.99	24.022
306.35	24.000
306.72	23.413
307.09	23.706
307.45	23.548
307.82	23.868
308.19	23.608
308.55	23.000
308.92	24.141
309.29	25.247
309.65	23.786
310.02	24.239
310.38	22.732
310.75	21.408
311.12	22.510
311.48	22.973
311.85	23.950
312.22	24.164
312.58	24.684
312.95	25.243
313.31	24.345
313.68	21.951
314.05	24.908
314.41	24.395
314.78	24.337
315.14	25.118
315.51	24.882
315.87	24.088
316.24	24.556
316.61	24.620
316.97	24.862
317.34	25.786
317.70	26.690
318.07	26.068
318.43	26.362
318.80	26.445
319.16	25.612
319.53	26.283
319.89	26.792
320.26	29.143
320.62	28.480
320.99	27.550
321.35	30.334
321.72	31.309
322.08	30.748
322.45	29.973
322.81	29.918
323.18	30.551
323.54	31.446
323.91	32.548
324.27	31.653
324.64	31.142
325.00	32.672
325.37	33.305
325.73	32.968
326.10	33.140
326.46	33.856
326.83	34.240
327.19	35.984
327.56	34.665
327.92	35.984
328.29	36.416
328.65	36.901
329.01	36.185
329.38	36.210
329.74	36.379
330.11	37.272
330.47	38.022
330.84	36.238
331.20	37.140
331.56	39.896
331.93	38.238
332.29	37.330
332.66	40.136
333.02	39.089
333.38	39.442
333.75	38.115
334.11	39.094
334.48	40.256
334.84	39.274
335.20	40.120
335.57	39.379
335.93	39.613
336.29	38.723
336.66	39.708
337.02	40.034
337.38	40.843
337.75	39.865
338.11	40.169
338.47	41.490
338.84	40.644
339.20	40.346
339.56	40.034
339.93	39.632
340.29	39.496
340.65	39.816
341.02	40.225
341.38	40.805
341.74	40.365
342.11	40.234
342.47	39.623
342.83	40.197
343.20	39.369
343.56	38.761
343.92	40.710
344.28	40.909
344.65	39.853
345.01	40.000
345.37	40.304
345.73	40.556
346.10	40.398
346.46	41.228
346.82	40.509
347.19	41.499
347.55	41.296
347.91	40.181
348.27	40.124
348.63	41.377
349.00	40.518
349.36	42.802
349.72	42.355
350.08	41.149
350.45	40.823
350.81	40.749
351.17	40.524
351.53	40.955
351.89	40.482
352.26	40.438
352.62	41.478
352.98	40.951
353.34	41.448
353.70	40.596
354.07	41.846
354.43	42.243
354.79	40.471
355.15	41.348
355.51	40.937
355.87	40.136
356.24	41.263
356.60	40.715
356.96	40.561
357.32	40.090
357.68	41.043
358.04	40.274
358.40	41.379
358.77	41.548
359.13	41.967
359.49	41.809
359.85	41.623
360.21	40.342
360.57	40.949
360.93	40.909
361.29	41.270
361.66	43.102
362.02	39.631
362.38	41.558
362.74	41.543
363.10	41.725
363.46	40.193
363.82	40.884
364.18	40.256
364.54	42.489
364.90	40.897
365.26	41.707
365.62	42.472
365.98	40.674
366.35	40.276
366.71	41.568
367.07	40.341
367.43	40.833
367.79	41.755
368.15	40.841
368.51	41.075
368.87	42.052
369.23	42.065
369.59	41.807
369.95	41.608
370.31	40.178
370.67	41.499
371.03	41.667
371.39	42.382
371.75	41.870
372.11	41.332
372.47	42.877
372.83	40.789
373.19	42.495
373.55	43.230
373.91	39.917
374.27	41.402
374.63	41.356
374.99	41.914
375.35	43.078
375.71	41.953
376.07	40.650
376.42	40.153
376.78	41.811
377.14	42.136
377.50	41.448
377.86	42.665
378.22	42.291
378.58	41.949
378.94	43.090
379.30	42.571
379.66	42.203
380.02	43.284
380.38	41.276
380.74	42.042
381.09	43.283
381.45	41.329
381.81	42.139
382.17	41.514
382.53	41.272
382.89	41.810
383.25	41.741
383.61	40.461
383.97	40.972
384.32	42.495
384.68	42.246
385.04	40.739
385.40	40.036
385.76	41.194
386.12	41.991
386.48	41.277
386.83	41.443
387.19	41.755
387.55	41.755
387.91	41.455
388.27	42.296
388.62	41.373
388.98	40.758
389.34	41.761
389.70	40.212
390.06	42.012
390.42	41.024
390.77	42.015
391.13	42.124
391.49	41.742
391.85	42.769
392.20	41.657
392.56	42.294
392.92	41.606
393.28	41.648
393.64	40.998
393.99	40.782
394.35	41.260
394.71	40.712
395.07	41.180
395.42	40.047
395.78	42.381
396.14	41.566
396.50	40.493
396.85	41.220
397.21	41.276
397.57	42.020
397.92	40.497
398.28	40.816
398.64	40.605
399.00	40.727
399.35	39.989
399.71	40.287
400.07	40.183
400.42	40.119
400.78	41.290
401.14	42.337
401.49	40.783
401.85	41.309
402.21	40.422
402.57	40.814
402.92	40.424
403.28	40.095
403.63	40.553
403.99	39.505
404.35	40.621
404.70	41.229
405.06	39.248
405.42	39.617
405.77	39.802
406.13	39.317
406.49	39.682
406.84	39.763
407.20	39.612
407.55	40.000
407.91	40.587
408.27	39.660
408.62	39.444
408.98	39.740
409.34	39.801
409.69	39.577
410.05	39.475
410.40	39.399
410.76	39.096
411.11	39.455
411.47	40.185
411.83	38.489
412.18	38.889
412.54	39.700
412.89	38.879
413.25	40.308
413.60	38.143
413.96	39.497
414.31	39.138
414.67	39.975
415.03	38.570
415.38	38.927
415.74	39.735
416.09	39.975
416.45	40.336
416.80	40.860
417.16	39.847
417.51	39.745
417.87	39.049
418.22	39.064
418.58	41.338
418.93	39.619
419.29	39.310
419.64	39.976
420.00	40.215
420.35	39.954
420.71	39.265
421.06	40.553
421.42	40.299
421.77	40.478
422.12	40.022
422.48	38.880
422.83	39.565
423.19	39.903
423.54	40.099
423.90	40.544
424.25	41.387
424.61	40.511
424.96	39.977
425.31	40.832
425.67	39.955
426.02	41.167
426.38	40.373
426.73	41.700
427.09	41.340
427.44	42.037
427.79	41.738
428.15	41.721
428.50	41.029
428.85	42.387
429.21	41.059
429.56	41.476
429.92	41.422
430.27	41.509
430.62	40.480
430.98	41.467
431.33	41.028
431.68	40.642
432.04	41.490
432.39	41.877
432.74	42.506
433.10	41.694
433.45	43.366
433.80	43.243
434.16	42.302
434.51	41.641
434.86	43.223
435.22	41.815
435.57	43.865
435.92	43.199
436.28	43.491
436.63	42.896
436.98	44.088
437.34	42.694
437.69	42.945
438.04	42.097
438.39	43.608
438.75	42.984
439.10	43.011
439.45	42.171
439.81	43.088
440.16	43.258
440.51	43.074
440.86	43.761
441.22	43.561
441.57	43.412
441.92	43.238
442.27	43.763
442.63	43.547
442.98	42.888
443.33	44.028
443.68	43.410
444.03	42.837
444.39	43.597
444.74	43.944
445.09	44.286
445.44	43.518
445.79	44.103
446.15	43.895
446.50	44.093
446.85	43.924
447.20	43.781
447.55	45.133
447.91	45.285
448.26	44.569
448.61	45.550
448.96	45.207
449.31	46.095
449.66	44.629
450.02	44.516
450.37	45.197
450.72	46.391
451.07	45.259
451.42	45.584
451.77	45.590
452.12	45.207
452.47	45.687
452.83	45.915
453.18	46.847
453.53	45.293
453.88	45.886
454.23	46.833
454.58	46.096
454.93	45.248
455.28	46.634
455.63	46.631
455.98	45.460
456.34	46.444
456.69	45.305
457.04	46.241
457.39	45.714
457.74	46.903
458.09	45.705
458.44	46.440
458.79	45.995
459.14	45.936
459.49	45.696
459.84	45.652
460.19	45.706
460.54	45.356
460.89	46.588
461.24	45.475
461.59	46.429
461.94	45.745
462.29	46.968
462.64	47.487
462.99	47.025
463.34	46.792
463.69	48.034
464.04	47.208
464.39	46.193
464.74	46.190
465.09	46.721
465.44	46.572
465.79	46.598
466.14	45.416
466.49	46.120
466.84	46.433
467.19	46.749
467.54	46.366
467.89	47.770
468.24	46.497
468.59	46.607
468.94	48.068
469.29	48.076
469.64	48.553
469.99	47.108
470.34	47.818
470.68	48.483
471.03	48.899
471.38	47.947
471.73	48.465
472.08	48.728
472.43	47.796
472.78	48.464
473.13	47.997
473.48	47.005
473.83	48.174
474.17	47.660
474.52	47.571
474.87	47.186
475.22	47.573
475.57	47.219
475.92	46.346
476.27	46.409
476.61	46.434
476.96	47.858
477.31	48.483
477.66	48.041
478.01	46.622
478.36	47.580
478.70	47.792
479.05	49.163
479.40	47.619
479.75	48.510
480.10	48.451
480.45	47.993
480.79	47.143
481.14	47.551
481.49	47.301
481.84	47.757
482.19	47.598
482.53	46.728
482.88	47.357
483.23	47.136
483.58	48.250
483.92	48.766
484.27	47.688
484.62	48.090
484.97	46.864
485.31	46.390
485.66	45.440
486.01	43.917
486.36	42.939
486.70	42.232
487.05	43.533
487.40	44.302
487.75	45.643
488.09	45.114
488.44	45.570
488.79	46.512
489.13	47.032
489.48	47.703
489.83	47.748
490.17	47.316
490.52	47.717
490.87	47.371
491.22	48.936
491.56	49.012
491.91	48.611
492.26	48.330
492.60	49.203
492.95	47.893
493.30	48.772
493.64	48.562
493.99	49.106
494.34	48.364
494.68	48.340
495.03	48.586
495.37	48.852
495.72	49.464
496.07	48.967
496.41	47.350
496.76	49.135
497.11	48.715
497.45	48.224
497.80	49.444
498.14	48.544
498.49	49.675
498.84	49.393
499.18	48.080
499.53	49.288
499.87	48.293
500.22	50.207
500.56	50.604
500.91	49.443
501.26	49.288
501.60	49.226
501.95	48.835
502.29	49.200
502.64	47.949
502.98	49.400
503.33	49.488
503.67	48.830
504.02	48.321
504.36	49.095
504.71	49.622
505.06	50.868
505.40	48.573
505.75	48.831
506.09	50.350
506.44	50.188
506.78	50.803
507.13	50.024
507.47	50.364
507.82	50.852
508.16	51.298
508.51	49.952
508.85	50.237
509.19	50.416
509.54	50.879
509.88	51.716
510.23	50.833
510.57	49.228
510.92	51.099
511.26	50.602
511.61	49.975
511.95	51.618
512.30	50.400
512.64	51.402
512.98	50.641
513.33	50.359
513.67	51.372
514.02	52.000
514.36	51.817
514.70	52.480
515.05	52.424
515.39	52.796
515.74	52.925
516.08	52.778
516.42	53.552
516.77	52.213
517.11	52.853
517.46	52.263
517.80	51.830
518.14	53.803
518.49	52.040
518.83	52.802
519.17	51.858
519.52	52.321
519.86	52.807
520.20	52.548
520.55	53.816
520.89	52.874
521.23	54.089
521.58	52.151
521.92	53.294
522.26	53.791
522.61	53.773
522.95	54.655
523.29	53.509
523.64	52.081
523.98	54.812
524.32	53.172
524.66	53.449
525.01	53.964
525.35	52.917
525.69	54.907
526.04	53.718
526.38	53.208
526.72	53.640
527.06	53.696
527.41	54.172
527.75	53.804
528.09	53.161
528.43	54.423
528.78	53.608
529.12	55.328
529.46	52.601
529.80	52.979
530.15	53.212
530.49	53.309
530.83	54.906
531.17	54.367
531.51	53.771
531.86	53.502
532.20	52.843
532.54	54.614
532.88	55.528
533.22	53.870
533.57	53.691
533.91	53.555
534.25	51.875
534.59	52.865
534.93	52.275
535.27	51.565
535.62	52.100
535.96	51.950
536.30	54.174
536.64	53.416
536.98	54.688
537.32	53.062
537.66	52.232
538.01	54.056
538.35	54.710
538.69	53.277
539.03	52.985
539.37	51.578
539.71	54.444
540.05	52.800
540.39	53.208
540.73	53.418
541.07	53.513
541.42	52.923
541.76	53.453
542.10	53.083
542.44	53.055
542.78	52.989
543.12	52.147
543.46	54.198
543.80	53.697
544.14	52.446
544.48	53.467
544.82	53.394
545.16	51.609
545.50	53.964
545.84	53.851
546.18	55.657
546.52	55.344
546.86	53.385
547.20	53.618
547.54	51.678
547.88	52.433
548.22	53.188
548.56	52.445
548.90	52.195
549.24	52.937
549.58	53.157
549.92	53.635
550.26	55.849
550.60	53.493
550.94	55.020
551.28	54.276
551.62	54.069
551.96	53.919
552.30	51.813
552.64	53.528
552.98	53.093
553.32	53.073
553.66	53.811
554.00	53.732
554.34	54.527
554.68	54.234
555.02	54.447
555.36	52.726
555.69	53.010
556.03	53.439
556.37	54.557
556.71	54.172
557.05	52.687
557.39	53.600
557.73	54.245
558.07	53.924
558.41	55.106
558.75	53.967
559.08	56.969
559.42	56.335
559.76	56.237
560.10	54.233
560.44	52.422
560.78	53.964
561.12	54.736
561.45	52.879
561.79	52.247
562.13	52.622
562.47	53.212
562.81	53.090
563.15	53.135
563.48	51.491
563.82	54.460
564.16	52.736
564.50	51.477
564.84	52.705
565.17	52.050
565.51	53.941
565.85	53.917
566.19	52.024
566.52	52.226
566.86	52.423
567.20	51.573
567.54	51.801
567.88	51.122
568.21	49.825
568.55	50.243
568.89	49.954
569.23	49.396
569.56	48.802
569.90	47.000
570.24	47.871
570.57	46.690
570.91	45.928
571.25	45.878
571.59	45.178
571.92	45.910
572.26	44.744
572.60	44.876
572.93	45.773
573.27	45.577
573.61	45.046
573.95	45.269
574.28	44.813
574.62	44.388
574.96	43.648
575.29	43.672
575.63	43.863
575.97	44.255
576.30	44.318
576.64	44.953
576.98	43.789
577.31	44.278
577.65	43.732
577.98	43.583
578.32	43.176
578.66	43.313
578.99	43.633
579.33	44.046
579.67	44.034
580.00	43.981
580.34	42.691
580.67	43.602
581.01	43.735
581.35	43.590
581.68	42.911
582.02	43.448
582.35	42.095
582.69	43.096
583.02	44.092
583.36	43.219
583.70	44.155
584.03	45.265
584.37	45.053
584.70	44.165
585.04	43.826
585.37	43.711
585.71	44.764
586.04	43.794
586.38	43.716
586.72	44.324
587.05	44.956
587.39	45.006
587.72	44.645
588.06	44.897
588.39	44.985
588.73	44.865
589.06	46.075
589.40	46.541
589.73	46.345
590.07	46.603
590.40	47.003
590.73	48.402
591.07	48.235
591.40	47.745
591.74	47.930
592.07	48.170
592.41	47.762
592.74	46.576
593.08	45.573
593.41	44.764
593.75	45.154
594.08	45.334
594.41	45.585
594.75	46.438
595.08	46.845
595.42	45.490
595.75	46.496
596.09	46.820
596.42	46.140
596.75	47.796
597.09	47.586
597.42	47.347
597.75	46.694
598.09	46.040
598.42	46.838
598.76	46.762
599.09	45.936
599.42	45.121
599.76	45.692
600.09	44.949
600.42	45.925
600.76	44.799
601.09	45.392
601.42	45.442
601.76	46.294
602.09	46.431
602.42	45.471
602.76	46.945
603.09	46.795
603.42	46.385
603.76	46.095
604.09	46.688
604.42	45.348
604.76	46.385
605.09	46.490
605.42	47.135
605.75	46.506
606.09	46.327
606.42	46.186
606.75	46.755
607.09	46.625
607.42	47.127
607.75	46.417
608.08	45.613
608.42	46.644
608.75	46.898
609.08	45.711
609.41	48.000
609.75	48.535
610.08	48.112
610.41	47.255
610.74	47.056
611.07	47.522
611.41	48.285
611.74	47.897
612.07	48.988
612.40	48.782
612.73	49.226
613.07	48.302
613.40	49.123
613.73	48.328
614.06	48.400
614.39	48.838
614.72	47.715
615.06	47.379
615.39	48.267
615.72	48.015
616.05	47.966
616.38	48.351
616.71	48.616
617.05	47.996
617.38	48.933
617.71	49.269
618.04	49.075
618.37	48.972
618.70	48.788
619.03	50.122
619.36	51.131
619.69	50.989
620.03	51.794
620.36	51.060
620.69	50.702
621.02	51.698
621.35	51.218
621.68	52.212
622.01	53.801
622.34	52.877
622.67	53.160
623.00	50.170
623.33	51.687
623.66	50.765
623.99	51.849
624.32	51.016
624.65	51.481
624.99	51.859
625.32	51.570
625.65	50.000
625.98	51.534
626.31	52.967
626.64	51.632
626.97	52.181
627.30	53.339
627.63	52.198
627.96	52.582
628.29	53.960
628.62	53.464
628.95	54.167
629.28	55.916
629.61	53.779
629.94	53.846
630.26	54.679
630.59	54.344
630.92	54.081
631.25	54.306
631.58	56.316
631.91	55.090
632.24	55.685
632.57	54.617
632.90	56.004
633.23	58.027
633.56	57.534
633.89	58.092
634.22	58.558
634.55	56.452
634.88	57.174
635.20	58.520
635.53	58.885
635.86	59.172
636.19	58.025
636.52	56.541
636.85	56.526
637.18	58.397
637.51	57.430
637.83	57.437
638.16	59.320
638.49	57.964
638.82	61.033
639.15	57.579
639.48	60.071
639.81	59.219
640.13	59.141
640.46	58.281
640.79	59.168
641.12	58.136
641.45	58.991
641.77	59.709
642.10	59.438
642.43	63.016
642.76	60.795
643.09	60.807
643.41	58.345
643.74	63.597
644.07	64.012
644.40	61.095
644.73	61.562
645.05	62.556
645.38	61.715
645.71	62.064
646.04	62.901
646.36	61.815
646.69	62.400
647.02	64.000
647.35	60.630
647.67	62.885
648.00	64.007
648.33	57.744
648.66	61.970
648.98	59.710
649.31	57.625
649.64	56.570
649.96	59.033
650.29	59.143
650.62	60.972
650.94	60.843
651.27	63.955
651.60	61.189
651.92	60.983
652.25	63.465
652.58	59.149
652.90	59.581
653.23	59.527
653.56	60.386
653.88	59.471
654.21	59.677
654.54	59.004
654.86	58.702
655.19	55.541
655.52	47.104
655.84	36.199
656.17	42.162
656.49	59.742
656.82	67.572
657.15	53.584
657.47	40.372
657.80	30.377
658.13	24.353
658.45	33.785
658.78	40.499
659.10	41.375
659.43	42.127
659.75	44.303
660.08	46.053
660.41	50.181
660.73	58.218
661.06	59.610
661.38	61.670
661.71	61.331
662.03	63.688
662.36	62.476
662.68	62.756
663.01	60.541
663.33	61.698
663.66	64.892
663.98	63.095
664.31	63.060
664.63	61.494
664.96	64.916
665.28	64.218
665.61	60.566
665.93	62.830
666.26	58.692
666.58	62.202
666.91	63.127
667.23	64.659
667.56	65.092
667.88	65.145
668.21	64.754
668.53	64.315
668.86	63.527
669.18	65.173
669.50	62.810
669.83	63.039
670.15	64.449
670.48	61.133
670.80	64.741
671.13	63.745
671.45	62.525
671.77	58.813
672.10	61.041
672.42	57.072
672.75	57.753
673.07	58.188
673.39	57.188
673.72	58.304
674.04	59.140
674.37	58.076
674.69	58.550
675.01	58.209
675.34	60.078
675.66	60.547
675.98	63.314
676.31	63.200
676.63	60.437
676.95	60.714
677.28	63.083
677.60	58.954
677.92	59.921
678.25	58.915
678.57	57.914
678.89	61.121
679.22	61.581
679.54	58.541
679.86	58.639
680.18	57.469
680.51	55.390
680.83	54.561
681.15	56.846
681.48	56.771
681.80	56.743
682.12	58.651
682.44	56.216
682.77	58.719
683.09	57.476
683.41	59.592
683.73	59.252
684.06	60.119
684.38	60.853
684.70	58.453
685.02	53.993
685.34	57.746
685.67	56.913
685.99	55.993
686.31	52.388
686.63	54.146
686.96	55.229
687.28	53.523
687.60	54.949
687.92	54.271
688.24	54.655
688.56	55.338
688.89	54.876
689.21	56.262
689.53	60.277
689.85	57.520
690.17	59.417
690.49	60.081
690.82	59.034
691.14	57.778
691.46	59.959
691.78	58.090
692.10	59.542
692.42	55.354
692.74	58.527
693.06	55.426
693.39	54.348
693.71	57.367
694.03	57.791
694.35	56.827
694.67	53.157
694.99	60.089
695.31	60.360
695.63	59.955
695.95	58.371
696.27	59.292
696.59	61.098
696.91	61.519
697.23	59.502
697.56	56.017
697.88	53.892
698.20	56.226
698.52	51.946
698.84	58.316
699.16	55.224
699.48	58.051
699.80	58.170
700.12	58.661
700.44	59.346
700.76	59.427
701.08	61.619
701.40	60.260
701.72	66.578
702.04	64.499
702.36	62.903
702.68	64.096
703.00	55.890
703.32	57.816
703.64	58.186
703.96	59.896
704.28	61.376
704.60	63.099
704.91	59.384
705.23	62.784
705.55	64.095
705.87	60.317
706.19	68.339
706.51	69.906
706.83	63.717
707.15	62.032
707.47	57.627
707.79	60.000
708.11	54.875
708.43	57.079
708.74	56.109
709.06	55.581
709.38	58.313
709.70	59.401
710.02	59.239
710.34	57.459
710.66	59.722
710.98	61.202
711.29	60.167
711.61	57.939
711.93	62.310
712.25	62.651
712.57	60.772
712.89	65.152
713.20	65.815
713.52	63.240
713.84	63.142
714.16	60.290
714.48	59.942
714.80	58.537
715.11	55.319
715.43	58.101
715.75	55.493
716.07	57.225
716.39	56.286
716.70	59.813
717.02	68.013
717.34	62.950
717.66	67.708
717.97	73.106
718.29	65.493
718.61	59.122
718.93	58.824
719.24	62.752
719.56	58.966
719.88	56.051
720.20	59.032
720.51	56.536
720.83	61.204
721.15	61.565
721.46	63.356
721.78	62.369
722.10	60.069
722.42	59.866
722.73	61.372
723.05	63.158
723.37	59.717
723.68	59.375
724.00	65.909
724.32	64.639
724.63	66.154
724.95	68.235
725.27	65.056
725.58	59.926
725.90	56.338
726.22	61.986
726.53	60.201
726.85	58.306
727.16	61.745
727.48	54.485
727.80	59.712
728.11	61.429
728.43	59.420
728.74	62.238
729.06	61.649
729.38	64.912
729.69	63.000
730.01	61.842
730.32	61.745
730.64	60.465
730.96	52.853
731.27	53.823
731.59	54.598
731.90	50.139
732.22	54.857
732.53	52.137
732.85	57.310
733.16	57.831
733.48	59.875
733.80	54.783
734.11	56.135
734.43	51.462
734.74	53.619
735.06	54.497
735.37	51.289
735.69	51.884
736.00	54.434
736.32	49.697
736.63	51.735
736.95	56.211
737.26	53.049
737.58	55.215
737.89	53.313
738.21	58.609
738.52	60.535
738.83	59.707
739.15	54.355
739.46	56.552
739.78	59.864
740.09	55.102
740.41	56.442
740.72	56.508
741.04	61.888
741.35	62.500
741.66	56.917
741.98	60.086
742.29	64.352
742.61	59.292
742.92	58.475
743.23	54.800
743.55	56.226
743.86	56.078
744.18	62.712
744.49	63.636
744.80	64.977
745.12	65.625
745.43	65.888
745.74	61.778
746.06	53.070
746.37	64.651
746.68	66.814
747.00	63.677
747.31	66.387
747.62	53.689
747.94	63.519
748.25	59.922
748.56	62.712
748.88	63.393
749.19	63.256
749.50	58.904
749.82	62.140
750.13	59.684
750.44	55.667
750.75	55.034
751.07	56.579
751.38	51.815
751.69	56.902
752.01	52.098
752.32	51.163
752.63	56.040
752.94	58.741
753.26	59.766
753.57	60.311
753.88	55.805
754.19	57.762
754.51	56.146
754.82	52.685
755.13	55.743
755.44	57.407
755.75	56.014
756.07	57.192
756.38	48.693
756.69	51.875
757.00	49.852
757.31	51.268
757.63	48.760
757.94	50.798
758.25	47.343
758.56	44.851
758.87	46.867
759.18	52.326
759.50	54.711
759.81	49.852
760.12	51.966
760.43	49.580
760.74	49.873
761.05	50.398
761.36	48.177
761.67	47.709
761.99	49.859
762.30	51.447
762.61	52.431
762.92	54.924
763.23	60.000
763.54	53.846
763.85	59.922
764.16	50.694
764.47	50.338
764.78	50.163
765.10	48.780
765.41	46.591
765.72	46.685
766.03	49.245
766.34	53.659
766.65	56.654
766.96	51.822
767.27	58.879
767.58	59.901
767.89	70.166
768.20	71.951
768.51	57.143
768.82	55.702
769.13	56.863
769.44	49.248
769.75	47.940
770.06	56.723
770.37	53.070
770.68	51.556
770.99	58.051
771.30	61.088
771.61	55.000
771.92	51.908
772.23	55.242
772.54	56.889
772.85	58.416
773.16	56.522
773.47	53.333
773.78	56.931
774.09	68.182
774.39	59.394
774.70	65.294
775.01	57.895
775.32	60.248
775.63	64.384
775.94	69.753
776.25	75.172
776.56	82.443
776.87	71.756
777.18	71.970
777.48	77.165
777.79	80.769
778.10	64.394
778.41	67.910
778.72	67.669
779.03	58.333
779.34	67.568
779.65	66.460
779.95	67.081
780.26	55.357
780.57	74.830
780.88	72.340
781.19	74.167
781.50	64.497
781.80	66.120
782.11	62.963
782.42	55.172
782.73	64.972
783.04	63.226
783.34	70.543
783.65	59.184
783.96	63.871
784.27	54.305
784.57	57.237
784.88	65.217
785.19	70.000
785.50	75.862
785.81	76.744
786.11	61.481
786.42	70.866
786.73	77.477
787.04	77.358
787.34	67.480
787.65	60.606
787.96	65.152
788.26	79.528
788.57	71.533
788.88	73.239
789.19	59.542
789.49	70.270
789.80	66.406
790.11	66.942
790.41	70.370
790.72	66.667
791.03	75.000
791.33	79.798
791.64	81.053
791.95	86.316
792.25	71.875
792.56	76.000
792.87	92.683
793.17	77.273
793.48	83.529
793.79	87.356
794.09	75.000
794.40	78.448
794.70	71.429
795.01	56.923
795.32	58.015
795.62	69.231
795.93	56.303
796.23	77.236
796.54	71.429
796.85	89.773
797.15	81.818
797.46	90.244
797.76	80.000
798.07	88.000
798.37	93.750
798.68	96.250
798.99	100.000
799.29	85.333
799.60	72.093
799.90	81.579
800.21	100.000
800.51	85.915
800.82	120.690
801.12	100.000
801.43	98.667
801.73	93.103
802.04	93.506
802.34	109.589
802.65	129.412
802.95	117.391
803.26	106.452
803.56	125.000
803.87	98.507
804.17	90.476
804.48	105.660
804.78	76.389
805.09	100.000
805.39	103.175
805.70	98.246
806.00	81.429
806.30	96.875
806.61	81.176
806.91	83.333
807.22	63.043
807.52	72.368
807.83	97.368
808.13	91.304
808.43	104.839
808.74	94.521
809.04	101.786
809.35	100.000
809.65	92.424
809.95	119.608
810.26	125.926
810.56	115.625
810.86	112.245
811.17	110.526
811.47	119.565
811.77	108.621
812.08	110.345
812.38	114.286
812.69	154.762
812.99	117.778
813.29	134.286
813.59	148.387
813.90	108.621
814.20	93.443
814.50	126.000
814.81	108.772
815.11	101.852
815.41	112.500
815.72	110.714
816.02	128.000
816.32	153.659
816.62	110.345
816.93	166.667
817.23	134.146
817.53	121.429
817.84	137.778
818.14	97.619
818.44	129.167
818.74	113.208
819.04	112.821
819.35	160.606
819.65	119.231
819.95	107.407
820.25	119.149
820.56	143.243
820.86	121.053
821.16	108.511
821.46	144.737
821.76	96.364
822.07	100.000
822.37	134.211
822.67	120.930
822.97	139.474
823.27	115.217
823.57	131.250
823.88	153.846
824.18	136.364
824.48	173.913
824.78	166.667
825.08	169.565
825.38	200.000
825.69	152.941
825.99	106.383
826.29	125.000
826.59	137.143
826.89	170.000
827.19	131.429
827.49	174.194
827.79	223.077
828.09	123.810
828.39	130.556
828.70	137.838
829.00	250.000
829.30	275.000
829.60	130.556
829.90	161.290
830.20	127.273
830.50	143.243
830.80	237.500
831.10	211.538
831.40	152.381
831.70	208.333
832.00	146.667
832.30	200.000
832.60	195.833
832.90	193.939
833.20	240.000
833.50	136.842
833.80	132.353
834.10	128.947
834.40	163.158
834.70	133.333
835.00	188.000
835.30	140.541
835.60	162.500
835.90	156.757
836.20	211.538
836.50	145.455
836.80	114.634
837.10	208.696
837.40	423.077
837.70	173.684
838.00	176.667
838.30	195.833
838.60	196.000
838.90	460.000
839.19	275.000
839.49	153.333
839.79	155.172
840.09	188.462
840.39	293.333
840.69	242.105
840.99	171.429
841.29	160.870
841.59	225.000
841.88	176.000
842.18	366.667
842.48	160.714
842.78	188.889
843.08	307.692
843.38	222.727
843.68	307.143
843.97	500.000
844.27	152.174
844.57	1700.000
844.87	307.143
845.17	272.222
845.47	133.333
845.76	208.333
846.06	557.143
846.36	217.647
846.66	361.538
846.96	262.500
847.25	269.231
847.55	200.000
847.85	272.222
848.15	740.000
848.44	381.818
848.74	195.238
849.04	187.500
849.34	200.000
849.63	318.750
849.93	293.750
850.23	1266.667
850.53	600.000
850.82	263.636
851.12	258.824
851.42	195.833
851.71	250.000
852.01	0.000
852.31	223.529
852.61	520.000
852.90	204.167
853.20	455.556
853.50	-2700.000
853.79	192.000
854.09	162.500
854.39	131.034
854.68	158.621
854.98	204.762
855.28	148.387
855.57	257.143
855.87	250.000
856.17	166.667
856.46	252.632
856.76	180.645
857.05	317.647
857.35	345.455
857.65	284.615
857.94	210.000
858.24	388.889
858.53	378.571
858.83	657.143
859.13	221.739
859.42	411.111
859.72	412.500
860.01	275.000
860.31	875.000
860.60	480.000
860.90	537.500
861.20	246.154
861.49	542.857
861.79	-3500.000
862.08	514.286
862.38	511.111
862.67	250.000
862.97	370.000
863.26	153.333
863.56	1025.000
863.85	361.538
864.15	282.353
864.44	205.556
864.74	350.000
865.03	236.364
865.33	362.500
865.62	313.333
865.92	683.333
866.21	900.000
866.51	680.000
866.80	238.889
867.10	1000.000
867.39	3600.000
867.69	700.000
867.98	1050.000
868.27	214.286
868.57	260.000
868.86	1375.000
869.16	200.000
869.45	3900.000
869.75	-483.333
870.04	975.000
870.33	680.000
870.63	450.000
870.92	247.059
871.22	1100.000
871.51	471.429
871.80	400.000
872.10	315.385
>>>>>End Processed Spectral Data<<<<<
