SpectraSuite Data File
++++++++++++++++++++++++++++++++++++
Date: Tue May 12 16:31:56 PDT 2015
User: schluterlab
Dark Spectrum Present: Yes
Reference Spectrum Present: Yes
Number of Sampled Component Spectra: 1
Spectrometers: USB2E3373
Integration Time (usec): 3000 (USB2E3373)
Spectra Averaged: 3 (USB2E3373)
Boxcar Smoothing: 0 (USB2E3373)
Correct for Electrical Dark: No (USB2E3373)
Strobe/Lamp Enabled: No (USB2E3373)
Correct for Detector Non-linearity: No (USB2E3373)
Correct for Stray Light: No (USB2E3373)
Number of Pixels in Processed Spectrum: 2048
>>>>>Begin Processed Spectral Data<<<<<
178.53	0.000
178.91	-258.333
179.29	-850.000
179.67	-3300.000
180.04	-126.667
180.42	450.000
180.80	2050.000
181.18	0.000
181.56	-250.000
181.94	0.000
182.31	933.333
182.69	-3000.000
183.07	557.143
183.45	-3400.000
183.83	-1250.000
184.20	410.000
184.58	457.143
184.96	-176.923
185.34	-300.000
185.72	1950.000
186.09	-775.000
186.47	-3400.000
186.85	1066.667
187.23	760.000
187.61	2350.000
187.98	462.500
188.36	264.286
188.74	308.333
189.12	300.000
189.49	875.000
189.87	0.000
190.25	525.000
190.63	2300.000
191.00	-250.000
191.38	-3800.000
191.76	-900.000
192.14	475.000
192.51	-2600.000
192.89	1850.000
193.27	833.333
193.65	-800.000
194.02	-760.000
194.40	457.143
194.78	-135.714
195.15	266.667
195.53	-2700.000
195.91	-480.000
196.29	4000.000
196.66	231.250
197.04	775.000
197.42	-1250.000
197.79	525.000
198.17	283.333
198.55	0.000
198.92	471.429
199.30	1033.333
199.68	1800.000
200.05	500.000
200.43	-466.667
200.81	166.667
201.18	3300.000
201.56	358.333
201.94	-950.000
202.31	-325.000
202.69	-420.000
203.07	2900.000
203.44	-600.000
203.82	325.000
204.19	720.000
204.57	-1350.000
204.95	-625.000
205.32	-600.000
205.70	516.667
206.08	650.000
206.45	-666.667
206.83	377.778
207.20	200.000
207.58	275.000
207.96	640.000
208.33	0.000
208.71	542.857
209.08	660.000
209.46	-2900.000
209.84	-725.000
210.21	880.000
210.59	-720.000
210.96	250.000
211.34	-875.000
211.71	400.000
212.09	1100.000
212.46	1650.000
212.84	-350.000
213.22	422.222
213.59	-2400.000
213.97	200.000
214.34	1000.000
214.72	933.333
215.09	866.667
215.47	-2800.000
215.84	-260.000
216.22	-362.500
216.59	0.000
216.97	0.000
217.34	1600.000
217.72	-1400.000
218.09	900.000
218.47	475.000
218.84	900.000
219.22	1233.333
219.59	833.333
219.97	471.429
220.34	433.333
220.72	1850.000
221.09	3500.000
221.47	225.000
221.84	1033.333
222.22	250.000
222.59	250.000
222.97	185.714
223.34	250.000
223.72	-1800.000
224.09	1166.667
224.46	238.462
224.84	-700.000
225.21	355.556
225.59	246.667
225.96	933.333
226.34	-640.000
226.71	-575.000
227.08	-340.000
227.46	0.000
227.83	-433.333
228.21	-1650.000
228.58	300.000
228.95	900.000
229.33	300.000
229.70	1100.000
230.08	269.231
230.45	3100.000
230.82	-850.000
231.20	-700.000
231.57	-933.333
231.95	620.000
232.32	325.000
232.69	500.000
233.07	266.667
233.44	-1650.000
233.81	226.667
234.19	155.556
234.56	200.000
234.93	205.882
235.31	215.000
235.68	268.750
236.05	167.857
236.43	166.667
236.80	235.714
237.17	162.069
237.55	121.875
237.92	90.000
238.29	145.455
238.67	103.125
239.04	92.683
239.41	83.333
239.79	100.000
240.16	102.083
240.53	91.803
240.91	72.464
241.28	81.356
241.65	96.970
242.02	87.324
242.40	80.000
242.77	65.934
243.14	70.886
243.51	75.758
243.89	65.421
244.26	55.140
244.63	61.386
245.00	50.459
245.38	46.610
245.75	50.758
246.12	59.259
246.49	53.901
246.87	43.443
247.24	54.667
247.61	50.000
247.98	52.381
248.36	44.848
248.73	52.551
249.10	48.214
249.47	43.500
249.84	45.274
250.22	50.811
250.59	42.000
250.96	43.460
251.33	41.860
251.70	41.964
252.08	39.496
252.45	41.036
252.82	38.023
253.19	40.316
253.56	40.769
253.94	37.319
254.31	38.372
254.68	41.463
255.05	40.345
255.42	38.686
255.79	40.391
256.16	36.949
256.54	37.987
256.91	41.503
257.28	36.120
257.65	34.169
258.02	39.528
258.39	41.834
258.76	34.203
259.14	31.429
259.51	37.026
259.88	36.778
260.25	33.791
260.62	36.986
260.99	35.537
261.36	37.883
261.73	35.372
262.10	38.220
262.47	34.000
262.85	34.133
263.22	34.447
263.59	34.015
263.96	35.088
264.33	35.802
264.70	38.084
265.07	34.390
265.44	34.862
265.81	32.547
266.18	37.300
266.55	33.333
266.92	33.781
267.29	33.114
267.66	32.063
268.03	34.753
268.40	32.347
268.77	35.022
269.14	34.490
269.51	34.521
269.88	34.490
270.25	33.477
270.62	33.906
270.99	34.888
271.36	32.520
271.73	34.172
272.10	30.505
272.47	31.944
272.84	29.940
273.21	29.959
273.58	35.223
273.95	30.390
274.32	34.047
274.69	32.874
275.06	33.698
275.43	31.801
275.80	33.962
276.17	31.618
276.54	32.523
276.91	33.022
277.28	31.934
277.65	32.841
278.02	31.801
278.39	30.576
278.76	32.586
279.13	28.648
279.50	32.364
279.87	28.305
280.23	31.860
280.60	33.394
280.97	30.345
281.34	29.868
281.71	32.000
282.08	30.256
282.45	30.574
282.82	29.599
283.19	30.843
283.56	28.926
283.92	30.619
284.29	29.617
284.66	29.076
285.03	31.177
285.40	28.099
285.77	28.395
286.14	30.186
286.51	29.755
286.87	26.741
287.24	27.177
287.61	31.155
287.98	27.313
288.35	29.037
288.72	27.314
289.08	30.781
289.45	29.878
289.82	28.281
290.19	28.697
290.56	29.549
290.93	28.777
291.29	26.519
291.66	28.249
292.03	26.367
292.40	27.100
292.77	24.234
293.13	27.817
293.50	26.721
293.87	23.577
294.24	26.294
294.60	26.649
294.97	25.734
295.34	25.896
295.71	24.704
296.08	24.933
296.44	25.921
296.81	24.442
297.18	23.954
297.55	25.246
297.91	22.906
298.28	25.362
298.65	24.663
299.02	25.090
299.38	23.741
299.75	24.512
300.12	25.803
300.48	26.932
300.85	25.745
301.22	24.884
301.59	22.877
301.95	24.271
302.32	24.214
302.69	24.208
303.05	26.487
303.42	22.758
303.79	25.135
304.15	22.552
304.52	24.419
304.89	24.733
305.25	23.804
305.62	26.226
305.99	22.826
306.35	24.947
306.72	25.286
307.09	24.741
307.45	24.182
307.82	24.588
308.19	24.948
308.55	24.600
308.92	26.300
309.29	25.247
309.65	25.966
310.02	26.471
310.38	24.028
310.75	25.940
311.12	24.808
311.48	27.124
311.85	26.145
312.22	26.457
312.58	26.433
312.95	27.767
313.31	27.247
313.68	26.829
314.05	28.755
314.41	28.957
314.78	28.504
315.14	29.384
315.51	29.139
315.87	29.197
316.24	30.439
316.61	28.290
316.97	29.450
317.34	31.357
317.70	30.114
318.07	30.961
318.43	31.195
318.80	30.998
319.16	30.857
319.53	30.973
319.89	32.168
320.26	33.333
320.62	33.883
320.99	34.223
321.35	32.839
321.72	35.579
322.08	34.441
322.45	33.515
322.81	33.852
323.18	35.346
323.54	35.279
323.91	36.537
324.27	35.809
324.64	36.332
325.00	37.500
325.37	36.256
325.73	38.027
326.10	38.194
326.46	38.150
326.83	37.440
327.19	39.116
327.56	39.137
327.92	40.082
328.29	40.344
328.65	41.353
329.01	40.547
329.38	41.371
329.74	41.332
330.11	42.919
330.47	42.285
330.84	41.156
331.20	43.147
331.56	44.473
331.93	43.456
332.29	41.837
332.66	43.707
333.02	44.244
333.38	43.717
333.75	44.120
334.11	44.295
334.48	43.932
334.84	43.159
335.20	44.825
335.57	42.653
335.93	45.585
336.29	43.781
336.66	45.712
337.02	43.456
337.38	44.196
337.75	44.426
338.11	43.713
338.47	44.539
338.84	43.522
339.20	44.242
339.56	44.071
339.93	42.726
340.29	43.193
340.65	45.013
341.02	42.800
341.38	43.268
341.74	44.186
342.11	43.907
342.47	44.053
342.83	44.627
343.20	44.462
343.56	41.938
343.92	43.105
344.28	44.577
344.65	44.662
345.01	43.651
345.37	42.228
345.73	44.524
346.10	43.665
346.46	42.903
346.82	41.512
347.19	42.968
347.55	42.389
347.91	42.145
348.27	42.060
348.63	43.671
349.00	44.021
349.36	43.346
349.72	42.508
350.08	42.158
350.45	43.564
350.81	43.425
351.17	42.142
351.53	43.110
351.89	42.890
352.26	42.026
352.62	42.609
352.98	43.021
353.34	42.296
353.70	41.667
354.07	43.385
354.43	41.859
354.79	42.065
355.15	42.726
355.51	41.616
355.87	42.319
356.24	43.418
356.60	41.857
356.96	43.139
357.32	41.974
357.68	42.291
358.04	41.565
358.40	42.129
358.77	43.351
359.13	42.643
359.49	41.512
359.85	42.964
360.21	40.936
360.57	42.117
360.93	41.631
361.29	41.198
361.66	44.892
362.02	41.122
362.38	41.631
362.74	42.534
363.10	42.146
363.46	42.334
363.82	42.076
364.18	42.745
364.54	42.561
364.90	41.566
365.26	41.221
365.62	41.091
365.98	39.986
366.35	41.517
366.71	42.679
367.07	41.775
367.43	39.355
367.79	40.891
368.15	40.570
368.51	41.971
368.87	41.644
369.23	41.303
369.59	40.931
369.95	42.308
370.31	41.410
370.67	40.458
371.03	41.877
371.39	41.551
371.75	40.963
372.11	41.061
372.47	41.849
372.83	40.789
373.19	41.124
373.55	41.100
373.91	40.677
374.27	39.881
374.63	40.475
374.99	41.105
375.35	40.927
375.71	40.435
376.07	41.313
376.42	39.834
376.78	40.848
377.14	40.564
377.50	40.886
377.86	40.487
378.22	40.585
378.58	39.770
378.94	39.891
379.30	39.903
379.66	40.397
380.02	40.938
380.38	39.871
380.74	40.542
381.09	40.245
381.45	40.058
381.81	40.012
382.17	40.049
382.53	39.472
382.89	39.976
383.25	40.616
383.61	39.481
383.97	38.572
384.32	39.120
384.68	40.166
385.04	40.387
385.40	40.036
385.76	38.912
386.12	39.889
386.48	39.271
386.83	40.220
387.19	38.163
387.55	39.635
387.91	38.741
388.27	40.274
388.62	39.437
388.98	38.601
389.34	39.679
389.70	38.502
390.06	39.085
390.42	38.927
390.77	39.373
391.13	40.193
391.49	38.959
391.85	39.077
392.20	39.035
392.56	39.367
392.92	37.619
393.28	38.285
393.64	37.959
393.99	37.463
394.35	37.257
394.71	37.937
395.07	38.078
395.42	37.354
395.78	38.927
396.14	39.157
396.50	38.869
396.85	38.293
397.21	37.786
397.57	37.717
397.92	36.626
398.28	37.176
398.64	37.929
399.00	36.237
399.35	37.574
399.71	37.086
400.07	36.872
400.42	36.716
400.78	37.243
401.14	37.405
401.49	37.385
401.85	37.370
402.21	37.317
402.57	37.582
402.92	36.970
403.28	37.053
403.63	36.904
403.99	37.394
404.35	38.511
404.70	37.685
405.06	35.654
405.42	35.966
405.77	35.943
406.13	36.171
406.49	35.475
406.84	35.195
407.20	36.986
407.55	36.431
407.91	36.758
408.27	36.689
408.62	36.783
408.98	35.659
409.34	36.295
409.69	36.341
410.05	36.076
410.40	35.689
410.76	35.146
411.11	36.078
411.47	36.852
411.83	36.028
412.18	35.266
412.54	35.916
412.89	35.870
413.25	36.317
413.60	35.572
413.96	35.907
414.31	35.596
414.67	36.189
415.03	35.313
415.38	35.079
415.74	35.313
416.09	36.165
416.45	37.039
416.80	36.626
417.16	35.455
417.51	36.115
417.87	34.981
418.22	35.298
418.58	35.414
418.93	35.515
419.29	35.182
419.64	34.706
420.00	35.501
420.35	35.714
420.71	35.648
421.06	34.844
421.42	36.327
421.77	36.646
422.12	35.502
422.48	36.415
422.83	35.268
423.19	35.691
423.54	35.710
423.90	36.240
424.25	35.498
424.61	35.868
424.96	34.839
425.31	35.796
425.67	36.644
426.02	35.109
426.38	34.306
426.73	36.090
427.09	36.121
427.44	36.466
427.79	35.735
428.15	35.828
428.50	36.743
428.85	36.508
429.21	36.953
429.56	34.895
429.92	35.803
430.27	36.478
430.62	34.998
430.98	34.980
431.33	34.929
431.68	35.506
432.04	36.265
432.39	35.456
432.74	37.002
433.10	35.604
433.45	37.852
433.80	36.680
434.16	35.260
434.51	37.203
434.86	36.745
435.22	36.143
435.57	37.463
435.92	37.962
436.28	36.982
436.63	36.737
436.98	37.387
437.34	36.473
437.69	36.226
438.04	36.452
438.39	36.953
438.75	36.470
439.10	36.535
439.45	36.405
439.81	37.883
440.16	36.819
440.51	36.205
440.86	37.607
441.22	36.959
441.57	37.270
441.92	37.167
442.27	36.959
442.63	36.382
442.98	36.153
443.33	36.476
443.68	36.419
444.03	37.182
444.39	37.806
444.74	37.215
445.09	37.599
445.44	37.354
445.79	37.573
446.15	36.895
446.50	37.395
446.85	37.052
447.20	36.915
447.55	37.466
447.91	38.412
448.26	37.540
448.61	37.811
448.96	38.998
449.31	38.119
449.66	38.206
450.02	38.898
450.37	37.812
450.72	37.906
451.07	37.522
451.42	38.056
451.77	38.087
452.12	38.344
452.47	38.335
452.83	38.366
453.18	40.120
453.53	38.721
453.88	38.343
454.23	38.757
454.58	38.228
454.93	37.216
455.28	38.678
455.63	37.648
455.98	38.071
456.34	38.845
456.69	38.232
457.04	38.484
457.39	39.029
457.74	38.345
458.09	37.282
458.44	37.842
458.79	38.674
459.14	37.643
459.49	38.052
459.84	38.424
460.19	38.644
460.54	37.265
460.89	37.953
461.24	36.999
461.59	38.322
461.94	37.884
462.29	38.787
462.64	38.505
462.99	38.708
463.34	38.561
463.69	38.899
464.04	39.896
464.39	38.237
464.74	37.397
465.09	38.770
465.44	37.758
465.79	38.596
466.14	36.672
466.49	37.547
466.84	38.796
467.19	38.489
467.54	38.438
467.89	38.380
468.24	39.027
468.59	37.381
468.94	37.983
469.29	38.424
469.64	38.714
469.99	38.625
470.34	39.279
470.68	38.828
471.03	39.159
471.38	39.801
471.73	38.798
472.08	40.574
472.43	40.286
472.78	39.245
473.13	38.173
473.48	37.836
473.83	39.223
474.17	39.757
474.52	38.270
474.87	38.658
475.22	38.778
475.57	38.405
475.92	38.171
476.27	36.888
476.61	38.177
476.96	38.192
477.31	39.692
477.66	39.238
478.01	37.958
478.36	38.568
478.70	37.816
479.05	38.703
479.40	38.194
479.75	38.679
480.10	37.948
480.45	38.469
480.79	37.604
481.14	37.470
481.49	37.466
481.84	36.631
482.19	37.380
482.53	37.286
482.88	37.679
483.23	38.295
483.58	38.779
483.92	38.803
484.27	37.714
484.62	37.606
484.97	36.541
485.31	35.612
485.66	33.737
486.01	32.999
486.36	32.562
486.70	32.648
487.05	33.746
487.40	34.212
487.75	35.062
488.09	34.915
488.44	36.393
488.79	36.515
489.13	36.991
489.48	37.155
489.83	37.823
490.17	36.375
490.52	38.028
490.87	37.457
491.22	37.544
491.56	37.549
491.91	36.873
492.26	38.441
492.60	38.132
492.95	38.287
493.30	38.626
493.64	37.736
493.99	37.791
494.34	38.144
494.68	38.158
495.03	37.988
495.37	37.416
495.72	39.021
496.07	37.736
496.41	37.576
496.76	36.260
497.11	37.961
497.45	37.747
497.80	37.859
498.14	37.540
498.49	38.951
498.84	37.897
499.18	37.340
499.53	37.988
499.87	36.568
500.22	37.863
500.56	37.419
500.91	38.961
501.26	37.850
501.60	37.067
501.95	37.276
502.29	37.467
502.64	37.362
502.98	36.994
503.33	37.238
503.67	36.777
504.02	37.080
504.36	38.100
504.71	38.836
505.06	37.870
505.40	37.857
505.75	37.325
506.09	37.517
506.44	38.158
506.78	38.705
507.13	38.100
507.47	37.797
507.82	38.151
508.16	38.951
508.51	37.778
508.85	38.984
509.19	38.179
509.54	38.184
509.88	38.339
510.23	38.431
510.57	37.162
510.92	38.062
511.26	38.755
511.61	38.552
511.95	37.880
512.30	38.650
512.64	38.318
512.98	39.108
513.33	38.166
513.67	38.685
514.02	38.597
514.36	39.616
514.70	39.147
515.05	39.531
515.39	40.241
515.74	40.897
516.08	40.087
516.42	40.328
516.77	38.293
517.11	39.467
517.46	38.631
517.80	39.978
518.14	40.676
518.49	38.479
518.83	39.341
519.17	38.325
519.52	40.743
519.86	39.510
520.20	39.890
520.55	40.079
520.89	40.115
521.23	39.486
521.58	40.046
521.92	39.650
522.26	39.929
522.61	40.939
522.95	40.420
523.29	40.234
523.64	40.578
523.98	40.904
524.32	39.216
524.66	40.174
525.01	40.769
525.35	39.658
525.69	40.638
526.04	40.750
526.38	40.612
526.72	40.095
527.06	40.331
527.41	40.508
527.75	41.388
528.09	40.036
528.43	40.879
528.78	41.145
529.12	41.601
529.46	40.503
529.80	39.720
530.15	39.835
530.49	38.929
530.83	40.463
531.17	40.283
531.51	40.098
531.86	38.889
532.20	39.679
532.54	41.180
532.88	40.600
533.22	39.427
533.57	40.574
533.91	38.170
534.25	38.604
534.59	40.292
534.93	39.590
535.27	38.873
535.62	38.623
535.96	37.707
536.30	40.463
536.64	40.124
536.98	38.389
537.32	40.812
537.66	39.222
538.01	39.257
538.35	39.613
538.69	39.199
539.03	38.433
539.37	38.532
539.71	39.321
540.05	38.031
540.39	39.308
540.73	39.430
541.07	38.519
541.42	38.495
541.76	38.841
542.10	38.163
542.44	39.152
542.78	38.578
543.12	38.405
543.46	38.095
543.80	38.910
544.14	38.452
544.48	38.443
544.82	38.165
545.16	38.191
545.50	39.336
545.84	38.889
546.18	39.662
546.52	38.885
546.86	39.781
547.20	38.566
547.54	37.935
547.88	38.382
548.22	37.462
548.56	38.480
548.90	37.485
549.24	37.903
549.58	39.497
549.92	39.096
550.26	39.351
550.60	39.920
550.94	39.824
551.28	39.931
551.62	39.931
551.96	39.932
552.30	38.695
552.64	38.964
552.98	38.724
553.32	38.604
553.66	38.371
554.00	38.353
554.34	39.547
554.68	39.382
555.02	39.036
555.36	38.431
555.69	39.267
556.03	38.471
556.37	38.368
556.71	39.765
557.05	36.763
557.39	38.267
557.73	40.836
558.07	38.900
558.41	39.479
558.75	39.466
559.08	40.529
559.42	40.301
559.76	40.699
560.10	39.160
560.44	37.757
560.78	38.875
561.12	38.589
561.45	38.173
561.79	38.390
562.13	38.471
562.47	38.741
562.81	37.866
563.15	38.526
563.48	37.267
563.82	39.177
564.16	37.376
564.50	36.528
564.84	38.116
565.17	38.087
565.51	38.485
565.85	38.125
566.19	38.155
566.52	36.522
566.86	38.062
567.20	37.472
567.54	37.009
567.88	36.881
568.21	35.796
568.55	35.603
568.89	34.854
569.23	34.254
569.56	34.105
569.90	32.519
570.24	31.891
570.57	32.122
570.91	30.858
571.25	30.753
571.59	30.429
571.92	29.763
572.26	30.323
572.60	30.519
572.93	30.794
573.27	31.304
573.61	30.319
573.95	29.631
574.28	30.247
574.62	29.576
574.96	29.114
575.29	29.092
575.63	29.164
575.97	29.041
576.30	29.587
576.64	29.847
576.98	29.092
577.31	29.093
577.65	29.363
577.98	28.632
578.32	28.234
578.66	29.082
578.99	29.306
579.33	29.499
579.67	29.218
580.00	29.030
580.34	28.945
580.67	28.814
581.01	29.010
581.35	28.523
581.68	27.957
582.02	28.043
582.35	28.007
582.69	28.435
583.02	28.689
583.36	29.087
583.70	29.675
584.03	30.450
584.37	29.606
584.70	29.734
585.04	29.479
585.37	28.697
585.71	29.775
586.04	28.239
586.38	29.351
586.72	29.627
587.05	29.439
587.39	29.709
587.72	29.080
588.06	29.898
588.39	30.143
588.73	29.883
589.06	30.143
589.40	30.861
589.73	31.039
590.07	31.572
590.40	31.777
590.73	32.501
591.07	32.068
591.40	32.415
591.74	32.670
592.07	32.404
592.41	32.334
592.74	31.344
593.08	30.469
593.41	30.521
593.75	29.693
594.08	30.551
594.41	30.824
594.75	30.582
595.08	30.727
595.42	30.941
595.75	30.833
596.09	31.213
596.42	31.500
596.75	32.652
597.09	32.398
597.42	31.061
597.75	31.481
598.09	32.212
598.42	31.457
598.76	31.457
599.09	31.372
599.42	30.761
599.76	30.902
600.09	30.949
600.42	30.490
600.76	30.591
601.09	30.135
601.42	30.271
601.76	30.827
602.09	31.236
602.42	31.165
602.76	31.992
603.09	31.448
603.42	31.376
603.76	31.200
604.09	30.908
604.42	30.847
604.76	31.490
605.09	31.837
605.42	31.369
605.75	31.307
606.09	31.370
606.42	31.041
606.75	31.597
607.09	30.557
607.42	31.699
607.75	31.170
608.08	32.006
608.42	32.131
608.75	31.279
609.08	31.808
609.41	32.091
609.75	33.196
610.08	32.149
610.41	32.499
610.74	32.641
611.07	32.879
611.41	33.040
611.74	33.174
612.07	33.141
612.40	33.480
612.73	33.849
613.07	33.452
613.40	32.331
613.73	33.999
614.06	32.900
614.39	33.485
614.72	31.743
615.06	32.493
615.39	33.218
615.72	32.333
616.05	33.601
616.38	33.587
616.71	34.183
617.05	33.278
617.38	33.652
617.71	33.915
618.04	35.053
618.37	34.019
618.70	34.296
619.03	34.249
619.36	35.050
619.69	34.828
620.03	37.965
620.36	35.581
620.69	36.718
621.02	36.549
621.35	36.032
621.68	36.873
622.01	38.007
622.34	36.052
622.67	36.938
623.00	36.419
623.33	35.560
623.66	35.662
623.99	35.753
624.32	36.450
624.65	35.023
624.99	35.835
625.32	36.005
625.65	36.345
625.98	36.123
626.31	38.279
626.64	36.902
626.97	38.409
627.30	37.422
627.63	37.755
627.96	37.793
628.29	40.099
628.62	38.580
628.95	39.184
629.28	40.403
629.61	39.895
629.94	40.363
630.26	39.688
630.59	40.160
630.92	39.283
631.25	40.888
631.58	41.080
631.91	40.913
632.24	41.108
632.57	40.079
632.90	41.201
633.23	42.288
633.56	42.044
633.89	41.908
634.22	42.842
634.55	42.366
634.88	44.797
635.20	44.170
635.53	43.786
635.86	42.617
636.19	43.098
636.52	41.514
636.85	42.826
637.18	41.170
637.51	42.793
637.83	43.135
638.16	44.080
638.49	43.593
638.82	43.545
639.15	42.421
639.48	44.076
639.81	44.689
640.13	43.067
640.46	43.995
640.79	45.124
641.12	44.357
641.45	46.701
641.77	44.122
642.10	45.248
642.43	46.230
642.76	45.455
643.09	46.830
643.41	44.039
643.74	46.475
644.07	48.820
644.40	46.006
644.73	46.096
645.05	47.697
645.38	47.320
645.71	46.434
646.04	47.176
646.36	49.922
646.69	47.840
647.02	48.480
647.35	47.087
647.67	46.029
648.00	50.000
648.33	46.617
648.66	46.364
648.98	45.072
649.31	42.240
649.64	43.707
649.96	45.661
650.29	43.429
650.62	46.539
650.94	46.386
651.27	45.774
651.60	46.322
651.92	46.083
652.25	45.984
652.58	42.695
652.90	45.060
653.23	46.233
653.56	44.362
653.88	43.759
654.21	43.402
654.54	43.777
654.86	44.838
655.19	42.744
655.52	34.412
655.84	24.145
656.17	27.395
656.49	38.518
656.82	43.800
657.15	34.937
657.47	26.637
657.80	20.200
658.13	16.295
658.45	21.694
658.78	26.346
659.10	27.282
659.43	27.864
659.75	30.018
660.08	31.955
660.41	36.661
660.73	40.652
661.06	46.096
661.38	46.167
661.71	47.482
662.03	48.859
662.36	48.000
662.68	48.045
663.01	47.207
663.33	47.358
663.66	50.099
663.98	49.206
664.31	49.813
664.63	49.042
664.96	51.220
665.28	45.574
665.61	49.434
665.93	48.679
666.26	48.785
666.58	50.642
666.91	48.069
667.23	48.996
667.56	52.361
667.88	49.793
668.21	49.180
668.53	50.605
668.86	47.896
669.18	52.749
669.50	50.413
669.83	51.335
670.15	49.896
670.48	47.656
670.80	48.606
671.13	47.410
671.45	51.102
671.77	47.124
672.10	47.397
672.42	43.914
672.75	44.937
673.07	43.561
673.39	42.652
673.72	44.983
674.04	49.104
674.37	46.824
674.69	46.283
675.01	45.336
675.34	45.930
675.66	47.852
675.98	45.759
676.31	47.200
676.63	46.322
676.95	48.016
677.28	48.073
677.60	47.284
677.92	45.635
678.25	47.674
678.57	47.486
678.89	47.920
679.22	43.750
679.54	45.730
679.86	43.281
680.18	44.815
680.51	42.454
680.83	41.554
681.15	42.461
681.48	43.750
681.80	45.009
682.12	43.945
682.44	43.243
682.77	46.085
683.09	46.602
683.41	48.367
683.73	48.425
684.06	48.016
684.38	45.349
684.70	44.604
685.02	41.840
685.34	43.134
685.67	43.891
685.99	42.036
686.31	39.291
686.63	40.325
686.96	41.013
687.28	41.946
687.60	41.980
687.92	40.704
688.24	44.310
688.56	42.527
688.89	40.535
689.21	42.967
689.53	44.664
689.85	45.732
690.17	44.272
690.49	46.774
690.82	47.479
691.14	44.242
691.46	45.791
691.78	46.199
692.10	44.275
692.42	42.831
692.74	46.705
693.06	43.023
693.39	43.281
693.71	46.365
694.03	46.746
694.35	45.382
694.67	46.232
694.99	47.894
695.31	46.396
695.63	47.059
695.95	45.475
696.27	49.115
696.59	49.642
696.91	44.557
697.23	48.869
697.56	43.154
697.88	41.317
698.20	42.075
698.52	41.440
698.84	45.791
699.16	42.857
699.48	45.127
699.80	45.534
700.12	46.651
700.44	45.093
700.76	47.971
701.08	53.264
701.40	47.273
701.72	53.209
702.04	51.762
702.36	52.419
702.68	49.734
703.00	46.366
703.32	50.868
703.64	49.370
703.96	45.052
704.28	48.942
704.60	49.577
704.91	47.899
705.23	47.159
705.55	51.039
705.87	53.651
706.19	54.232
706.51	59.875
706.83	50.147
707.15	50.267
707.47	49.153
707.79	48.046
708.11	44.898
708.43	44.270
708.74	43.665
709.06	43.721
709.38	44.665
709.70	47.411
710.02	49.185
710.34	46.409
710.66	46.389
710.98	47.268
711.29	48.189
711.61	48.189
711.93	49.240
712.25	53.012
712.57	52.090
712.89	47.879
713.20	53.035
713.52	47.975
713.84	50.453
714.16	42.029
714.48	47.839
714.80	44.444
715.11	42.287
715.43	44.413
715.75	46.479
716.07	51.156
716.39	45.714
716.70	49.533
717.02	53.872
717.34	53.957
717.66	54.514
717.97	60.227
718.29	53.169
718.61	47.297
718.93	54.325
719.24	52.685
719.56	48.276
719.88	44.904
720.20	49.032
720.51	44.771
720.83	50.502
721.15	50.680
721.46	49.315
721.78	45.645
722.10	51.736
722.42	52.508
722.73	47.653
723.05	51.228
723.37	51.237
723.68	49.609
724.00	54.167
724.32	54.753
724.63	52.308
724.95	51.373
725.27	47.955
725.58	50.735
725.90	45.070
726.22	46.918
726.53	47.826
726.85	50.489
727.16	52.349
727.48	44.518
727.80	50.719
728.11	48.929
728.43	48.188
728.74	47.552
729.06	49.462
729.38	51.228
729.69	49.000
730.01	48.355
730.32	48.322
730.64	45.515
730.96	45.646
731.27	37.920
731.59	39.943
731.90	41.783
732.22	44.857
732.53	40.456
732.85	46.199
733.16	45.482
733.48	46.082
733.80	45.217
734.11	47.239
734.43	40.351
734.74	41.555
735.06	43.915
735.37	39.948
735.69	44.348
736.00	46.789
736.32	43.333
736.63	42.902
736.95	43.478
737.26	40.549
737.58	46.933
737.89	41.566
738.21	45.364
738.52	42.809
738.83	47.253
739.15	46.341
739.46	47.586
739.78	47.279
740.09	45.190
740.41	43.865
740.72	46.667
741.04	46.154
741.35	47.266
741.66	49.407
741.98	54.506
742.29	45.370
742.61	47.345
742.92	47.881
743.23	50.000
743.55	48.302
743.86	54.118
744.18	49.153
744.49	52.479
744.80	56.221
745.12	55.804
745.43	54.673
745.74	53.333
746.06	50.000
746.37	55.814
746.68	53.540
747.00	53.812
747.31	51.261
747.62	48.361
747.94	50.644
748.25	44.747
748.56	54.661
748.88	53.125
749.19	51.628
749.50	52.055
749.82	51.029
750.13	49.802
750.44	43.333
750.75	47.651
751.07	47.039
751.38	47.195
751.69	44.444
752.01	45.105
752.32	46.512
752.63	46.309
752.94	44.406
753.26	54.297
753.57	51.362
753.88	47.566
754.19	44.765
754.51	44.850
754.82	43.289
755.13	42.568
755.44	49.630
755.75	48.797
756.07	47.945
756.38	41.176
756.69	41.563
757.00	45.401
757.31	42.817
757.63	41.047
757.94	38.830
758.25	38.406
758.56	36.842
758.87	41.855
759.18	40.698
759.50	44.681
759.81	43.323
760.12	40.730
760.43	40.056
760.74	39.241
761.05	36.340
761.36	39.323
761.67	39.623
761.99	40.845
762.30	41.479
762.61	45.139
762.92	43.182
763.23	47.170
763.54	46.923
763.85	43.580
764.16	43.750
764.47	44.257
764.78	40.065
765.10	44.207
765.41	38.920
765.72	37.293
766.03	39.577
766.34	42.509
766.65	48.289
766.96	49.798
767.27	47.664
767.58	50.495
767.89	56.354
768.20	62.805
768.51	44.388
768.82	50.439
769.13	45.098
769.44	41.353
769.75	44.569
770.06	46.639
770.37	45.614
770.68	44.000
770.99	46.610
771.30	45.607
771.61	43.846
771.92	41.985
772.23	43.952
772.54	47.111
772.85	50.495
773.16	57.609
773.47	50.556
773.78	54.455
774.09	52.273
774.39	55.758
774.70	48.235
775.01	50.658
775.32	54.037
775.63	65.753
775.94	53.086
776.25	57.931
776.56	64.885
776.87	60.305
777.18	61.364
777.48	62.992
777.79	55.385
778.10	66.667
778.41	58.955
778.72	55.639
779.03	53.205
779.34	57.432
779.65	54.658
779.95	53.416
780.26	55.952
780.57	59.864
780.88	57.447
781.19	62.500
781.50	51.479
781.80	53.552
782.11	52.381
782.42	49.425
782.73	50.282
783.04	53.548
783.34	56.589
783.65	57.143
783.96	58.065
784.27	54.305
784.57	50.658
784.88	58.696
785.19	58.333
785.50	55.172
785.81	68.992
786.11	61.481
786.42	52.756
786.73	60.360
787.04	68.868
787.34	55.285
787.65	59.091
787.96	60.606
788.26	61.417
788.57	54.745
788.88	51.408
789.19	56.489
789.49	56.757
789.80	60.156
790.11	57.025
790.41	62.037
790.72	58.333
791.03	65.385
791.33	56.566
791.64	67.368
791.95	63.158
792.25	68.750
792.56	55.000
792.87	68.293
793.17	78.409
793.48	70.588
793.79	56.322
794.09	76.136
794.40	68.103
794.70	64.286
795.01	54.615
795.32	52.672
795.62	53.846
795.93	60.504
796.23	52.033
796.54	68.367
796.85	61.364
797.15	83.117
797.46	84.146
797.76	81.250
798.07	84.000
798.37	85.000
798.68	76.250
798.99	85.366
799.29	77.333
799.60	52.326
799.90	78.947
800.21	86.364
800.51	84.507
800.82	87.931
801.12	83.077
801.43	82.667
801.73	75.862
802.04	84.416
802.34	80.822
802.65	107.843
802.95	115.217
803.26	93.548
803.56	111.667
803.87	88.060
804.17	88.889
804.48	79.245
804.78	73.611
805.09	81.818
805.39	84.127
805.70	101.754
806.00	60.000
806.30	85.938
806.61	76.471
806.91	60.000
807.22	68.478
807.52	77.632
807.83	85.526
808.13	69.565
808.43	100.000
808.74	64.384
809.04	82.143
809.35	86.765
809.65	84.848
809.95	92.157
810.26	83.333
810.56	96.875
810.86	118.367
811.17	87.719
811.47	95.652
811.77	75.862
812.08	77.586
812.38	107.143
812.69	121.429
812.99	97.778
813.29	114.286
813.59	132.258
813.90	84.483
814.20	101.639
814.50	84.000
814.81	66.667
815.11	109.259
815.41	75.000
815.72	119.643
816.02	110.000
816.32	87.805
816.62	91.379
816.93	133.333
817.23	131.707
817.53	89.286
817.84	88.889
818.14	95.238
818.44	112.500
818.74	124.528
819.04	94.872
819.35	124.242
819.65	111.538
819.95	103.704
820.25	102.128
820.56	135.135
820.86	100.000
821.16	91.489
821.46	126.316
821.76	100.000
822.07	66.667
822.37	100.000
822.67	120.930
822.97	100.000
823.27	106.522
823.57	115.625
823.88	133.333
824.18	112.121
824.48	147.826
824.78	113.889
825.08	217.391
825.38	120.690
825.69	117.647
825.99	93.617
826.29	91.667
826.59	114.286
826.89	123.333
827.19	97.143
827.49	125.806
827.79	165.385
828.09	95.238
828.39	113.889
828.70	86.486
829.00	164.286
829.30	168.750
829.60	122.222
829.90	138.710
830.20	106.061
830.50	137.838
830.80	183.333
831.10	184.615
831.40	161.905
831.70	158.333
832.00	153.333
832.30	178.261
832.60	166.667
832.90	121.212
833.20	215.000
833.50	142.105
833.80	105.882
834.10	110.526
834.40	131.579
834.70	110.000
835.00	200.000
835.30	75.676
835.60	106.250
835.90	118.919
836.20	130.769
836.50	109.091
836.80	131.707
837.10	143.478
837.40	369.231
837.70	131.579
838.00	160.000
838.30	166.667
838.60	124.000
838.90	340.000
839.19	206.250
839.49	156.667
839.79	134.483
840.09	153.846
840.39	253.333
840.69	173.684
840.99	166.667
841.29	147.826
841.59	200.000
841.88	152.000
842.18	255.556
842.48	164.286
842.78	151.852
843.08	246.154
843.38	177.273
843.68	242.857
843.97	428.571
844.27	173.913
844.57	1300.000
844.87	342.857
845.17	200.000
845.47	176.190
845.76	154.167
846.06	357.143
846.36	164.706
846.66	315.385
846.96	162.500
847.25	261.538
847.55	168.421
847.85	200.000
848.15	580.000
848.44	300.000
848.74	152.381
849.04	187.500
849.34	211.765
849.63	175.000
849.93	193.750
850.23	966.667
850.53	437.500
850.82	227.273
851.12	164.706
851.42	216.667
851.71	231.250
852.01	0.000
852.31	194.118
852.61	350.000
852.90	154.167
853.20	322.222
853.50	-1800.000
853.79	176.000
854.09	103.125
854.39	106.897
854.68	148.276
854.98	233.333
855.28	148.387
855.57	242.857
855.87	216.667
856.17	118.519
856.46	231.579
856.76	119.355
857.05	170.588
857.35	254.545
857.65	315.385
857.94	205.000
858.24	400.000
858.53	271.429
858.83	457.143
859.13	200.000
859.42	377.778
859.72	362.500
860.01	266.667
860.31	875.000
860.60	420.000
860.90	450.000
861.20	300.000
861.49	414.286
861.79	-3000.000
862.08	528.571
862.38	366.667
862.67	185.714
862.97	310.000
863.26	126.667
863.56	750.000
863.85	292.308
864.15	247.059
864.44	200.000
864.74	325.000
865.03	263.636
865.33	237.500
865.62	213.333
865.92	600.000
866.21	800.000
866.51	780.000
866.80	183.333
867.10	833.333
867.39	3800.000
867.69	640.000
867.98	750.000
868.27	180.952
868.57	240.000
868.86	775.000
869.16	114.286
869.45	3400.000
869.75	-433.333
870.04	800.000
870.33	600.000
870.63	437.500
870.92	111.765
871.22	725.000
871.51	471.429
871.80	283.333
872.10	269.231
>>>>>End Processed Spectral Data<<<<<
