SpectraSuite Data File
++++++++++++++++++++++++++++++++++++
Date: Tue May 12 17:24:11 PDT 2015
User: schluterlab
Dark Spectrum Present: Yes
Reference Spectrum Present: Yes
Number of Sampled Component Spectra: 1
Spectrometers: USB2E3373
Integration Time (usec): 3000 (USB2E3373)
Spectra Averaged: 3 (USB2E3373)
Boxcar Smoothing: 0 (USB2E3373)
Correct for Electrical Dark: No (USB2E3373)
Strobe/Lamp Enabled: No (USB2E3373)
Correct for Detector Non-linearity: No (USB2E3373)
Correct for Stray Light: No (USB2E3373)
Number of Pixels in Processed Spectrum: 2048
>>>>>Begin Processed Spectral Data<<<<<
178.53	0.000
178.91	-250.000
179.29	-500.000
179.67	-3000.000
180.04	-140.000
180.42	700.000
180.80	1850.000
181.18	0.000
181.56	-287.500
181.94	0.000
182.31	933.333
182.69	-2500.000
183.07	528.571
183.45	-4000.000
183.83	-1550.000
184.20	360.000
184.58	357.143
184.96	-261.538
185.34	-175.000
185.72	1650.000
186.09	-550.000
186.47	-2300.000
186.85	733.333
187.23	820.000
187.61	1650.000
187.98	487.500
188.36	257.143
188.74	366.667
189.12	375.000
189.49	875.000
189.87	0.000
190.25	500.000
190.63	2100.000
191.00	-233.333
191.38	-2800.000
191.76	-775.000
192.14	500.000
192.51	-2700.000
192.89	1400.000
193.27	1000.000
193.65	-933.333
194.02	-740.000
194.40	600.000
194.78	-221.429
195.15	253.333
195.53	-2400.000
195.91	-640.000
196.29	4600.000
196.66	193.750
197.04	775.000
197.42	-1450.000
197.79	625.000
198.17	358.333
198.55	0.000
198.92	528.571
199.30	1000.000
199.68	2050.000
200.05	633.333
200.43	-500.000
200.81	200.000
201.18	3100.000
201.56	250.000
201.94	-600.000
202.31	-287.500
202.69	-620.000
203.07	2200.000
203.44	-383.333
203.82	291.667
204.19	680.000
204.57	-1050.000
204.95	-875.000
205.32	-800.000
205.70	533.333
206.08	575.000
206.45	-733.333
206.83	222.222
207.20	215.789
207.58	383.333
207.96	760.000
208.33	0.000
208.71	542.857
209.08	660.000
209.46	-2700.000
209.84	-775.000
210.21	860.000
210.59	-540.000
210.96	341.667
211.34	-1000.000
211.71	236.364
212.09	675.000
212.46	1500.000
212.84	-383.333
213.22	411.111
213.59	-2800.000
213.97	280.000
214.34	750.000
214.72	1066.667
215.09	733.333
215.47	-3400.000
215.84	-330.000
216.22	-387.500
216.59	0.000
216.97	0.000
217.34	1200.000
217.72	-1550.000
218.09	1066.667
218.47	387.500
218.84	1075.000
219.22	1033.333
219.59	733.333
219.97	585.714
220.34	355.556
220.72	1500.000
221.09	2600.000
221.47	233.333
221.84	1200.000
222.22	250.000
222.59	261.111
222.97	228.571
223.34	256.250
223.72	-2250.000
224.09	1233.333
224.46	276.923
224.84	-925.000
225.21	377.778
225.59	260.000
225.96	1100.000
226.34	-600.000
226.71	-600.000
227.08	-460.000
227.46	0.000
227.83	-400.000
228.21	-1550.000
228.58	383.333
228.95	650.000
229.33	344.444
229.70	925.000
230.08	353.846
230.45	3100.000
230.82	-875.000
231.20	-1266.667
231.57	-1133.333
231.95	840.000
232.32	266.667
232.69	483.333
233.07	216.667
233.44	-1700.000
233.81	226.667
234.19	162.963
234.56	225.000
234.93	164.706
235.31	185.000
235.68	275.000
236.05	157.143
236.43	144.444
236.80	307.143
237.17	182.759
237.55	109.375
237.92	135.000
238.29	157.576
238.67	131.250
239.04	126.829
239.41	85.417
239.79	100.000
240.16	102.083
240.53	91.803
240.91	85.507
241.28	103.390
241.65	81.818
242.02	85.915
242.40	90.000
242.77	79.121
243.14	67.089
243.51	75.758
243.89	64.486
244.26	58.879
244.63	73.267
245.00	68.807
245.38	59.322
245.75	56.818
246.12	77.778
246.49	58.156
246.87	59.016
247.24	60.000
247.61	53.750
247.98	62.585
248.36	59.394
248.73	56.633
249.10	58.929
249.47	55.500
249.84	52.239
250.22	57.297
250.59	55.000
250.96	49.367
251.33	48.372
251.70	52.232
252.08	52.941
252.45	51.793
252.82	52.471
253.19	46.245
253.56	55.000
253.94	51.812
254.31	54.651
254.68	50.871
255.05	50.345
255.42	52.190
255.79	51.466
256.16	49.831
256.54	53.247
256.91	49.673
257.28	49.498
257.65	47.649
258.02	51.032
258.39	48.424
258.76	47.246
259.14	46.857
259.51	49.854
259.88	52.888
260.25	48.626
260.62	47.671
260.99	45.179
261.36	45.961
261.73	46.809
262.10	48.953
262.47	44.250
262.85	46.667
263.22	47.815
263.59	47.315
263.96	48.872
264.33	47.407
264.70	50.860
265.07	48.293
265.44	45.413
265.81	47.642
266.18	45.995
266.55	47.281
266.92	45.190
267.29	44.518
267.66	46.861
268.03	47.534
268.40	46.089
268.77	47.137
269.14	45.770
269.51	45.880
269.88	42.449
270.25	40.173
270.62	47.425
270.99	46.856
271.36	44.715
271.73	44.025
272.10	42.828
272.47	41.270
272.84	42.914
273.21	42.562
273.58	47.166
273.95	44.353
274.32	42.412
274.69	44.685
275.06	44.627
275.43	43.103
275.80	43.208
276.17	43.199
276.54	41.682
276.91	44.590
277.28	41.606
277.65	45.018
278.02	45.404
278.39	42.446
278.76	40.517
279.13	44.662
279.50	43.455
279.87	43.017
280.23	42.541
280.60	45.073
280.97	42.069
281.34	41.749
281.71	43.826
282.08	43.761
282.45	39.865
282.82	42.140
283.19	41.653
283.56	39.504
283.92	44.300
284.29	40.100
284.66	40.840
285.03	41.791
285.40	40.331
285.77	39.660
286.14	42.105
286.51	38.037
286.87	38.766
287.24	37.688
287.61	40.426
287.98	40.597
288.35	39.556
288.72	40.668
289.08	40.691
289.45	38.720
289.82	40.625
290.19	37.482
290.56	39.010
290.93	36.835
291.29	39.227
291.66	36.441
292.03	35.764
292.40	37.398
292.77	35.515
293.13	36.805
293.50	36.032
293.87	34.959
294.24	36.783
294.60	36.070
294.97	35.105
295.34	36.653
295.71	35.611
296.08	34.133
296.44	33.799
296.81	35.236
297.18	34.221
297.55	33.251
297.91	32.882
298.28	33.696
298.65	32.393
299.02	32.690
299.38	33.813
299.75	32.439
300.12	32.683
300.48	32.553
300.85	32.420
301.22	32.791
301.59	31.722
301.95	33.139
302.32	32.363
302.69	32.353
303.05	32.548
303.42	31.614
303.79	31.419
304.15	32.233
304.52	31.184
304.89	32.623
305.25	31.702
305.62	32.623
305.99	30.543
306.35	31.789
306.72	32.050
307.09	31.263
307.45	31.362
307.82	32.202
308.19	31.959
308.55	30.900
308.92	31.403
309.29	31.953
309.65	31.715
310.02	31.846
310.38	32.403
310.75	31.533
311.12	31.130
311.48	32.722
311.85	31.775
312.22	32.092
312.58	31.487
312.95	33.786
313.31	32.959
313.68	33.208
314.05	33.242
314.41	33.799
314.78	34.186
315.14	35.355
315.51	34.721
315.87	33.394
316.24	35.201
316.61	34.378
316.97	35.138
317.34	35.849
317.70	36.348
318.07	35.231
318.43	36.643
318.80	37.653
319.16	36.801
319.53	36.991
319.89	37.814
320.26	39.385
320.62	39.286
320.99	40.038
321.35	39.054
321.72	40.797
322.08	40.997
322.45	41.054
322.81	41.263
323.18	42.185
323.54	42.073
323.91	43.699
324.27	44.209
324.64	43.858
325.00	45.086
325.37	45.784
325.73	45.194
326.10	46.810
326.46	45.087
326.83	46.240
327.19	46.265
327.56	48.323
327.92	49.180
328.29	48.527
328.65	49.658
329.01	49.102
329.38	49.069
329.74	48.249
330.11	50.912
330.47	49.275
330.84	49.698
331.20	49.831
331.56	49.655
331.93	51.583
332.29	49.320
332.66	51.190
333.02	50.687
333.38	52.269
333.75	51.793
334.11	50.671
334.48	50.598
334.84	50.591
335.20	51.583
335.57	50.714
335.93	50.463
336.29	49.751
336.66	52.401
337.02	50.556
337.38	51.591
337.75	51.605
338.11	51.224
338.47	50.466
338.84	49.619
339.20	51.515
339.56	50.378
339.93	50.585
340.29	50.840
340.65	51.132
341.02	52.132
341.38	49.507
341.74	51.827
342.11	50.668
342.47	50.123
342.83	52.174
343.20	50.849
343.56	49.166
343.92	50.206
344.28	50.797
344.65	51.671
345.01	50.238
345.37	49.279
345.73	50.317
346.10	50.916
346.46	50.957
346.82	50.000
347.19	50.850
347.55	50.273
347.91	50.076
348.27	49.497
348.63	50.396
349.00	49.505
349.36	50.895
349.72	49.847
350.08	49.845
350.45	50.952
350.81	49.388
351.17	49.076
351.53	49.731
351.89	49.883
352.26	48.148
352.62	49.170
352.98	49.540
353.34	50.693
353.70	49.235
354.07	50.615
354.43	49.693
354.79	49.431
355.15	50.077
355.51	49.773
355.87	50.301
356.24	49.731
356.60	49.087
356.96	48.218
357.32	49.209
357.68	48.605
358.04	50.152
358.40	49.325
358.77	49.361
359.13	48.574
359.49	50.556
359.85	48.846
360.21	49.926
360.57	49.124
360.93	50.216
361.29	50.000
361.66	50.708
362.02	49.148
362.38	49.134
362.74	48.266
363.10	49.439
363.46	47.721
363.82	48.597
364.18	49.289
364.54	49.857
364.90	47.992
365.26	49.271
365.62	49.517
365.98	47.557
366.35	48.276
366.71	48.786
367.07	48.805
367.43	48.220
367.79	49.202
368.15	47.286
368.51	49.070
368.87	49.185
369.23	49.688
369.59	47.808
369.95	48.531
370.31	48.049
370.67	47.328
371.03	48.249
371.39	47.022
371.75	47.872
372.11	47.791
372.47	48.493
372.83	48.063
373.19	48.047
373.55	48.660
373.91	47.376
374.27	47.751
374.63	48.203
374.99	47.911
375.35	47.648
375.71	48.219
376.07	47.414
376.42	47.315
376.78	49.711
377.14	48.755
377.50	48.190
377.86	47.470
378.22	47.715
378.58	48.850
378.94	48.461
379.30	48.029
379.66	47.923
380.02	47.977
380.38	47.600
380.74	48.039
381.09	47.079
381.45	46.590
381.81	47.104
382.17	47.314
382.53	47.271
382.89	47.309
383.25	46.359
383.61	46.225
383.97	46.611
384.32	46.896
384.68	47.950
385.04	47.011
385.40	47.331
385.76	47.396
386.12	46.630
386.48	46.869
386.83	46.699
387.19	46.525
387.55	46.408
387.91	46.536
388.27	45.687
388.62	45.540
388.98	45.190
389.34	45.449
389.70	46.462
390.06	46.707
390.42	46.391
390.77	46.130
391.13	45.081
391.49	45.009
391.85	45.785
392.20	45.292
392.56	45.998
392.92	44.975
393.28	45.291
393.64	44.381
393.99	44.991
394.35	45.144
394.71	44.150
395.07	44.100
395.42	45.023
395.78	45.959
396.14	47.108
396.50	45.487
396.85	44.512
397.21	46.149
397.57	45.129
397.92	43.732
398.28	44.732
398.64	44.968
399.00	44.254
399.35	43.639
399.71	44.205
400.07	44.863
400.42	43.582
400.78	43.695
401.14	43.922
401.49	44.124
401.85	43.337
402.21	43.820
402.57	45.003
402.92	44.424
403.28	42.363
403.63	42.731
403.99	44.270
404.35	44.021
404.70	44.654
405.06	42.280
405.42	43.208
405.77	43.330
406.13	42.137
406.49	41.671
406.84	43.373
407.20	43.322
407.55	42.831
407.91	44.544
408.27	43.117
408.62	42.578
408.98	42.756
409.34	42.256
409.69	42.564
410.05	41.980
410.40	41.225
410.76	42.416
411.11	42.536
411.47	42.840
411.83	42.004
412.18	42.210
412.54	42.763
412.89	40.708
413.25	41.904
413.60	42.056
413.96	42.250
414.31	41.499
414.67	42.644
415.03	41.443
415.38	41.956
415.74	41.377
416.09	42.661
416.45	42.728
416.80	43.810
417.16	42.139
417.51	42.166
417.87	41.239
418.22	42.102
418.58	41.783
418.93	41.166
419.29	40.604
419.64	41.187
420.00	42.482
420.35	41.580
420.71	41.307
421.06	41.260
421.42	42.084
421.77	42.199
422.12	40.904
422.48	41.757
422.83	41.574
423.19	41.307
423.54	41.196
423.90	41.336
424.25	42.212
424.61	41.091
424.96	41.446
425.31	42.310
425.67	41.863
426.02	41.279
426.38	41.424
426.73	41.006
427.09	41.163
427.44	41.643
427.79	42.882
428.15	41.780
428.50	42.171
428.85	42.446
429.21	40.897
429.56	41.027
429.92	41.372
430.27	40.348
430.62	40.382
430.98	41.267
431.33	40.222
431.68	40.593
432.04	40.404
432.39	41.603
432.74	42.506
433.10	40.864
433.45	41.758
433.80	42.526
434.16	41.093
434.51	40.557
434.86	42.188
435.22	41.113
435.57	41.375
435.92	42.003
436.28	41.935
436.63	41.329
436.98	41.723
437.34	42.180
437.69	40.817
438.04	41.075
438.39	41.156
438.75	41.370
439.10	41.123
439.45	40.531
439.81	41.296
440.16	41.112
440.51	40.822
440.86	42.849
441.22	40.530
441.57	41.995
441.92	40.967
442.27	41.134
442.63	40.346
442.98	39.871
443.33	40.546
443.68	40.895
444.03	41.282
444.39	40.772
444.74	40.528
445.09	41.074
445.44	41.073
445.79	41.277
446.15	40.684
446.50	40.032
446.85	40.637
447.20	39.900
447.55	40.348
447.91	41.023
448.26	39.457
448.61	41.183
448.96	41.285
449.31	40.704
449.66	42.082
450.02	39.816
450.37	41.421
450.72	41.818
451.07	40.663
451.42	40.960
451.77	40.836
452.12	41.237
452.47	40.462
452.83	40.958
453.18	41.261
453.53	41.208
453.88	41.029
454.23	40.790
454.58	41.142
454.93	41.079
455.28	42.289
455.63	41.371
455.98	40.271
456.34	40.912
456.69	40.854
457.04	40.215
457.39	41.600
457.74	40.372
458.09	41.269
458.44	40.033
458.79	40.902
459.14	40.153
459.49	40.204
459.84	40.707
460.19	40.621
460.54	39.886
460.89	40.938
461.24	40.435
461.59	40.420
461.94	40.130
462.29	40.217
462.64	41.520
462.99	41.715
463.34	41.802
463.69	41.621
464.04	40.818
464.39	39.782
464.74	40.270
465.09	40.221
465.44	39.064
465.79	39.521
466.14	38.792
466.49	40.803
466.84	39.576
467.19	40.129
467.54	39.399
467.89	40.258
468.24	40.012
468.59	40.417
468.94	40.036
469.29	40.440
469.64	40.514
469.99	40.810
470.34	39.532
470.68	39.793
471.03	40.961
471.38	40.265
471.73	39.778
472.08	41.226
472.43	40.534
472.78	41.037
473.13	39.737
473.48	39.425
473.83	40.165
474.17	39.635
474.52	39.929
474.87	39.056
475.22	39.577
475.57	39.664
475.92	38.835
476.27	38.520
476.61	38.767
476.96	39.289
477.31	40.360
477.66	39.989
478.01	39.195
478.36	39.598
478.70	38.908
479.05	38.494
479.40	38.988
479.75	38.928
480.10	38.771
480.45	37.862
480.79	38.848
481.14	38.421
481.49	38.518
481.84	38.171
482.19	38.166
482.53	38.032
482.88	37.858
483.23	38.701
483.58	38.869
483.92	38.620
484.27	38.142
484.62	38.540
484.97	37.865
485.31	37.321
485.66	36.057
486.01	35.100
486.36	35.358
486.70	35.098
487.05	35.066
487.40	35.494
487.75	35.399
488.09	36.449
488.44	36.488
488.79	37.209
489.13	37.327
489.48	38.234
489.83	38.032
490.17	37.820
490.52	38.501
490.87	37.888
491.22	37.722
491.56	37.725
491.91	37.948
492.26	37.372
492.60	39.134
492.95	37.744
493.30	37.853
493.64	37.781
493.99	38.104
494.34	37.382
494.68	37.450
495.03	37.315
495.37	38.406
495.72	37.716
496.07	37.287
496.41	37.576
496.76	37.442
497.11	37.275
497.45	37.747
497.80	38.601
498.14	37.957
498.49	37.419
498.84	39.346
499.18	37.477
499.53	37.712
499.87	38.230
500.22	38.185
500.56	37.419
500.91	38.497
501.26	37.758
501.60	37.842
501.95	36.962
502.29	36.933
502.64	37.142
502.98	36.639
503.33	37.817
503.67	37.174
504.02	36.677
504.36	37.104
504.71	37.275
505.06	38.292
505.40	37.295
505.75	36.342
506.09	37.378
506.44	37.547
506.78	38.091
507.13	37.227
507.47	37.797
507.82	37.810
508.16	38.413
508.51	37.101
508.85	36.847
509.19	37.249
509.54	37.061
509.88	37.245
510.23	37.108
510.57	36.486
510.92	38.112
511.26	37.500
511.61	36.534
511.95	37.232
512.30	37.000
512.64	37.902
512.98	37.007
513.33	37.602
513.67	37.545
514.02	38.078
514.36	37.591
514.70	38.080
515.05	37.773
515.39	38.432
515.74	38.218
516.08	37.854
516.42	39.071
516.77	37.813
517.11	37.333
517.46	37.769
517.80	37.466
518.14	38.479
518.49	37.927
518.83	36.429
519.17	38.048
519.52	38.230
519.86	37.875
520.20	37.041
520.55	37.309
520.89	37.586
521.23	38.435
521.58	37.694
521.92	37.493
522.26	37.796
522.61	39.097
522.95	38.619
523.29	38.480
523.64	37.052
523.98	38.850
524.32	37.140
524.66	36.696
525.01	38.521
525.35	37.714
525.69	38.712
526.04	37.537
526.38	37.552
526.72	37.291
527.06	37.256
527.41	38.392
527.75	38.344
528.09	36.544
528.43	37.340
528.78	37.329
529.12	37.628
529.46	36.762
529.80	36.799
530.15	36.594
530.49	36.643
530.83	36.868
531.17	37.146
531.51	37.032
531.86	36.655
532.20	37.206
532.54	36.535
532.88	36.914
533.22	36.380
533.57	36.486
533.91	35.373
534.25	36.238
534.59	36.667
534.93	35.950
535.27	35.401
535.62	36.464
535.96	36.111
536.30	37.904
536.64	35.652
536.98	36.941
537.32	37.000
537.66	35.459
538.01	36.780
538.35	36.993
538.69	35.680
539.03	35.883
539.37	35.316
539.71	36.049
540.05	35.692
540.39	37.358
540.73	36.899
541.07	36.198
541.42	37.002
541.76	36.252
542.10	35.203
542.44	35.661
542.78	35.746
543.12	35.890
543.46	36.090
543.80	35.840
544.14	36.409
544.48	35.219
544.82	36.514
545.16	36.855
545.50	35.956
545.84	36.301
546.18	37.906
546.52	36.459
546.86	35.525
547.20	35.078
547.54	35.465
547.88	35.523
548.22	35.519
548.56	34.355
548.90	34.460
549.24	34.744
549.58	35.309
549.92	36.673
550.26	35.429
550.60	36.327
550.94	37.585
551.28	36.552
551.62	36.000
551.96	35.405
552.30	35.135
552.64	35.987
552.98	35.438
553.32	34.571
553.66	35.244
554.00	35.972
554.34	35.885
554.68	35.551
555.02	36.049
555.36	34.840
555.69	35.602
556.03	35.159
556.37	35.054
556.71	36.375
557.05	34.535
557.39	35.733
557.73	36.253
558.07	36.150
558.41	35.093
558.75	36.525
559.08	35.883
559.42	36.936
559.76	36.208
560.10	35.100
560.44	35.899
560.78	34.399
561.12	34.647
561.45	34.919
561.79	34.020
562.13	34.365
562.47	34.458
562.81	35.068
563.15	34.260
563.48	33.975
563.82	35.496
564.16	34.639
564.50	34.057
564.84	33.678
565.17	34.343
565.51	34.729
565.85	34.238
566.19	34.405
566.52	33.995
566.86	35.318
567.20	33.202
567.54	33.461
567.88	34.585
568.21	32.501
568.55	33.220
568.89	32.117
569.23	32.701
569.56	32.588
569.90	31.189
570.24	31.312
570.57	31.213
570.91	30.452
571.25	30.635
571.59	29.752
571.92	30.221
572.26	30.027
572.60	29.547
572.93	30.679
573.27	29.868
573.61	30.157
573.95	30.030
574.28	29.472
574.62	29.483
574.96	29.363
575.29	28.843
575.63	28.905
575.97	29.090
576.30	29.461
576.64	29.409
576.98	29.139
577.31	29.362
577.65	29.196
577.98	28.901
578.32	28.665
578.66	28.577
578.99	28.739
579.33	29.477
579.67	29.379
580.00	29.099
580.34	28.610
580.67	28.837
581.01	28.879
581.35	28.941
581.68	28.373
582.02	28.560
582.35	28.543
582.69	29.027
583.02	28.994
583.36	28.728
583.70	29.490
584.03	29.779
584.37	29.202
584.70	29.062
585.04	28.646
585.37	28.562
585.71	28.854
586.04	28.329
586.38	29.184
586.72	29.215
587.05	29.233
587.39	29.482
587.72	29.178
588.06	29.128
588.39	29.376
588.73	29.610
589.06	29.443
589.40	30.329
589.73	30.449
590.07	30.645
590.40	31.289
590.73	31.326
591.07	31.347
591.40	30.818
591.74	30.601
592.07	29.908
592.41	30.975
592.74	30.172
593.08	30.111
593.41	29.623
593.75	29.312
594.08	29.443
594.41	29.847
594.75	30.137
595.08	30.041
595.42	29.756
595.75	29.648
596.09	30.448
596.42	30.371
596.75	31.010
597.09	30.664
597.42	30.694
597.75	30.629
598.09	30.406
598.42	29.906
598.76	29.684
599.09	30.673
599.42	29.170
599.76	29.986
600.09	29.729
600.42	29.662
600.76	29.946
601.09	29.582
601.42	29.285
601.76	29.717
602.09	30.059
602.42	29.279
602.76	29.639
603.09	29.977
603.42	29.835
603.76	29.429
604.09	29.135
604.42	30.358
604.76	30.739
605.09	29.673
605.42	30.354
605.75	29.688
606.09	30.375
606.42	29.763
606.75	30.393
607.09	29.491
607.42	30.213
607.75	29.857
608.08	29.569
608.42	31.082
608.75	29.611
609.08	30.092
609.41	30.818
609.75	30.815
610.08	30.351
610.41	30.391
610.74	30.216
611.07	31.332
611.41	31.233
611.74	30.880
612.07	30.732
612.40	31.774
612.73	32.102
613.07	30.968
613.40	31.679
613.73	31.603
614.06	30.300
614.39	30.606
614.72	30.437
615.06	29.822
615.39	31.584
615.72	29.864
616.05	30.035
616.38	30.746
616.71	30.222
617.05	30.588
617.38	31.573
617.71	31.271
618.04	31.239
618.37	30.739
618.70	30.831
619.03	32.051
619.36	32.035
619.69	31.464
620.03	32.355
620.36	31.728
620.69	33.206
621.02	32.337
621.35	32.450
621.68	32.965
622.01	33.284
622.34	32.411
622.67	32.584
623.00	32.539
623.33	30.972
623.66	32.136
623.99	33.151
624.32	31.707
624.65	32.061
624.99	32.928
625.32	31.997
625.65	31.034
625.98	32.636
626.31	33.234
626.64	31.511
626.97	32.594
627.30	34.161
627.63	33.203
627.96	33.255
628.29	34.818
628.62	32.849
628.95	34.131
629.28	35.320
629.61	33.656
629.94	33.621
630.26	33.795
630.59	34.929
630.92	33.274
631.25	33.545
631.58	34.812
631.91	35.775
632.24	34.305
632.57	33.301
632.90	36.646
633.23	35.362
633.56	36.249
633.89	35.584
634.22	35.737
634.55	34.086
634.88	36.802
635.20	36.771
635.53	37.050
635.86	35.794
636.19	35.802
636.52	34.811
636.85	33.225
637.18	37.053
637.51	35.754
637.83	34.783
638.16	36.577
638.49	37.844
638.82	34.390
639.15	35.370
639.48	36.967
639.81	34.188
640.13	36.074
640.46	35.398
640.79	36.931
641.12	36.877
641.45	37.257
641.77	35.535
642.10	37.483
642.43	36.700
642.76	35.227
643.09	36.744
643.41	36.606
643.74	38.129
644.07	36.873
644.40	36.538
644.73	38.739
645.05	40.862
645.38	37.825
645.71	37.633
646.04	40.916
646.36	38.654
646.69	36.320
647.02	39.520
647.35	37.165
647.67	37.763
648.00	37.948
648.33	38.195
648.66	37.121
648.98	36.957
649.31	34.278
649.64	37.621
649.96	35.420
650.29	35.571
650.62	38.292
650.94	39.157
651.27	41.467
651.60	35.055
651.92	37.942
652.25	37.323
652.58	36.170
652.90	36.677
653.23	36.189
653.56	36.647
653.88	34.949
654.21	36.804
654.54	36.457
654.86	38.053
655.19	35.752
655.52	30.664
655.84	24.267
656.17	28.091
656.49	40.479
656.82	45.744
657.15	36.803
657.47	27.850
657.80	20.404
658.13	16.125
658.45	22.058
658.78	26.603
659.10	26.915
659.43	27.453
659.75	28.484
660.08	30.075
660.41	32.033
660.73	35.634
661.06	36.336
661.38	38.671
661.71	38.669
662.03	39.163
662.36	38.286
662.68	36.127
663.01	39.459
663.33	36.981
663.66	40.039
663.98	41.270
664.31	41.978
664.63	38.506
664.96	41.651
665.28	38.041
665.61	38.868
665.93	40.566
666.26	37.196
666.58	39.633
666.91	38.610
667.23	39.357
667.56	40.041
667.88	39.212
668.21	39.959
668.53	38.911
668.86	39.679
669.18	40.326
669.50	37.603
669.83	42.916
670.15	40.748
670.48	37.891
670.80	37.052
671.13	37.052
671.45	39.679
671.77	38.961
672.10	36.445
672.42	36.513
672.75	35.127
673.07	36.884
673.39	34.505
673.72	35.986
674.04	38.889
674.37	38.294
674.69	38.476
675.01	35.634
675.34	35.465
675.66	37.891
675.98	37.081
676.31	37.000
676.63	36.978
676.95	39.484
677.28	38.945
677.60	36.821
677.92	38.294
678.25	35.659
678.57	36.313
678.89	38.879
679.22	38.787
679.54	35.409
679.86	36.998
680.18	35.677
680.51	34.163
680.83	34.122
681.15	36.395
681.48	34.201
681.80	36.252
682.12	36.159
682.44	36.937
682.77	34.698
683.09	37.670
683.41	36.735
683.73	38.583
684.06	34.524
684.38	38.760
684.70	35.432
685.02	34.375
685.34	35.387
685.67	36.013
685.99	35.304
686.31	34.823
686.63	33.008
686.96	35.621
687.28	33.221
687.60	35.154
687.92	35.511
688.24	35.862
688.56	33.986
688.89	33.461
689.21	36.031
689.53	37.747
689.85	36.382
690.17	37.670
690.49	36.694
690.82	35.084
691.14	37.576
691.46	36.345
691.78	38.402
692.10	37.786
692.42	33.394
692.74	36.628
693.06	37.016
693.39	36.166
693.71	36.149
694.03	36.489
694.35	39.759
694.67	34.827
694.99	36.364
695.31	39.865
695.63	36.199
695.95	38.235
696.27	38.717
696.59	38.425
696.91	37.468
697.23	37.330
697.56	34.025
697.88	32.335
698.20	38.302
698.52	32.101
698.84	36.961
699.16	37.100
699.48	36.441
699.80	38.562
700.12	38.799
700.44	38.785
700.76	34.606
701.08	36.554
701.40	40.779
701.72	40.107
702.04	43.631
702.36	41.398
702.68	39.628
703.00	36.591
703.32	37.221
703.64	38.287
703.96	39.583
704.28	36.772
704.60	37.183
704.91	38.655
705.23	38.636
705.55	40.950
705.87	38.095
706.19	44.828
706.51	43.260
706.83	41.888
707.15	41.176
707.47	39.467
707.79	37.011
708.11	37.868
708.43	35.730
708.74	34.389
709.06	37.442
709.38	39.950
709.70	35.422
710.02	37.500
710.34	41.713
710.66	39.167
710.98	35.519
711.29	38.997
711.61	38.997
711.93	41.641
712.25	43.373
712.57	36.656
712.89	41.515
713.20	42.812
713.52	38.318
713.84	37.462
714.16	37.681
714.48	37.176
714.80	37.127
715.11	34.043
715.43	40.782
715.75	40.282
716.07	37.861
716.39	38.286
716.70	34.891
717.02	42.088
717.34	42.806
717.66	39.931
717.97	45.833
718.29	39.789
718.61	41.554
718.93	43.253
719.24	43.960
719.56	40.345
719.88	37.898
720.20	39.355
720.51	39.216
720.83	38.127
721.15	35.714
721.46	41.438
721.78	45.296
722.10	38.889
722.42	37.793
722.73	41.516
723.05	41.754
723.37	43.110
723.68	41.406
724.00	40.530
724.32	41.445
724.63	40.769
724.95	43.137
725.27	43.866
725.58	41.912
725.90	38.380
726.22	39.726
726.53	40.134
726.85	41.368
727.16	41.611
727.48	38.870
727.80	40.647
728.11	40.357
728.43	41.667
728.74	37.762
729.06	37.276
729.38	40.702
729.69	43.667
730.01	40.789
730.32	38.926
730.64	40.199
730.96	37.538
731.27	35.474
731.59	33.621
731.90	40.111
732.22	36.857
732.53	34.758
732.85	38.889
733.16	34.940
733.48	36.050
733.80	38.261
734.11	41.104
734.43	35.673
734.74	34.048
735.06	37.831
735.37	31.701
735.69	40.000
736.00	40.367
736.32	34.545
736.63	35.016
736.95	34.783
737.26	38.415
737.58	38.037
737.89	37.349
738.21	38.411
738.52	39.130
738.83	40.659
739.15	41.115
739.46	38.966
739.78	42.857
740.09	34.111
740.41	36.810
740.72	40.000
741.04	37.413
741.35	42.187
741.66	39.130
741.98	45.064
742.29	44.907
742.61	38.938
742.92	39.831
743.23	40.000
743.55	43.396
743.86	36.863
744.18	39.407
744.49	41.736
744.80	41.475
745.12	42.857
745.43	44.860
745.74	48.444
746.06	42.544
746.37	41.860
746.68	41.593
747.00	45.740
747.31	45.798
747.62	36.885
747.94	46.781
748.25	46.304
748.56	41.949
748.88	40.625
749.19	45.116
749.50	43.836
749.82	39.506
750.13	39.921
750.44	35.000
750.75	38.926
751.07	39.474
751.38	35.974
751.69	36.364
752.01	42.308
752.32	35.216
752.63	42.282
752.94	41.958
753.26	44.141
753.57	42.412
753.88	38.202
754.19	39.711
754.51	36.545
754.82	37.584
755.13	40.203
755.44	40.370
755.75	38.832
756.07	43.493
756.38	35.294
756.69	40.000
757.00	37.982
757.31	35.775
757.63	34.711
757.94	31.649
758.25	34.541
758.56	32.723
758.87	36.090
759.18	40.116
759.50	37.082
759.81	38.279
760.12	37.921
760.43	36.134
760.74	34.684
761.05	32.626
761.36	33.854
761.67	34.771
761.99	34.648
762.30	38.907
762.61	34.375
762.92	35.606
763.23	42.264
763.54	37.692
763.85	37.743
764.16	40.625
764.47	37.500
764.78	37.459
765.10	32.622
765.41	31.250
765.72	34.530
766.03	35.347
766.34	37.631
766.65	40.304
766.96	40.486
767.27	43.925
767.58	46.535
767.89	50.276
768.20	52.439
768.51	43.878
768.82	39.474
769.13	37.255
769.44	34.962
769.75	34.831
770.06	43.697
770.37	39.035
770.68	36.000
770.99	47.034
771.30	43.933
771.61	39.231
771.92	37.405
772.23	36.290
772.54	40.889
772.85	43.564
773.16	42.935
773.47	41.111
773.78	40.594
774.09	46.023
774.39	46.667
774.70	45.294
775.01	40.132
775.32	44.099
775.63	44.521
775.94	40.741
776.25	51.724
776.56	48.092
776.87	58.015
777.18	53.788
777.48	59.055
777.79	57.692
778.10	55.303
778.41	55.224
778.72	41.353
779.03	48.077
779.34	52.703
779.65	49.068
779.95	48.447
780.26	44.048
780.57	52.381
780.88	54.610
781.19	53.333
781.50	43.195
781.80	46.448
782.11	43.915
782.42	46.552
782.73	44.633
783.04	49.032
783.34	50.388
783.65	40.136
783.96	50.323
784.27	38.411
784.57	46.053
784.88	48.551
785.19	55.000
785.50	50.862
785.81	69.767
786.11	51.852
786.42	52.756
786.73	64.865
787.04	63.208
787.34	49.593
787.65	57.576
787.96	52.273
788.26	51.181
788.57	54.015
788.88	48.592
789.19	38.168
789.49	50.000
789.80	53.906
790.11	58.678
790.41	58.333
790.72	52.778
791.03	49.038
791.33	57.576
791.64	66.316
791.95	61.053
792.25	50.000
792.56	64.000
792.87	64.634
793.17	55.682
793.48	60.000
793.79	63.218
794.09	68.182
794.40	62.931
794.70	57.143
795.01	49.231
795.32	54.962
795.62	52.137
795.93	59.664
796.23	57.724
796.54	64.286
796.85	65.909
797.15	67.532
797.46	65.854
797.76	66.250
798.07	69.333
798.37	71.250
798.68	78.750
798.99	71.951
799.29	73.333
799.60	52.326
799.90	67.105
800.21	83.333
800.51	74.648
800.82	81.034
801.12	73.846
801.43	73.333
801.73	75.862
802.04	67.532
802.34	71.233
802.65	84.314
802.95	95.652
803.26	93.548
803.56	93.333
803.87	59.701
804.17	76.190
804.48	83.019
804.78	68.056
805.09	80.303
805.39	84.127
805.70	91.228
806.00	58.571
806.30	81.250
806.61	60.000
806.91	67.778
807.22	58.696
807.52	69.737
807.83	76.316
808.13	73.913
808.43	85.484
808.74	82.192
809.04	85.714
809.35	82.353
809.65	78.788
809.95	96.078
810.26	87.037
810.56	96.875
810.86	73.469
811.17	84.211
811.47	93.478
811.77	93.103
812.08	79.310
812.38	95.238
812.69	107.143
812.99	97.778
813.29	117.143
813.59	145.161
813.90	74.138
814.20	85.246
814.50	92.000
814.81	64.912
815.11	96.296
815.41	78.571
815.72	114.286
816.02	90.000
816.32	114.634
816.62	84.483
816.93	151.515
817.23	143.902
817.53	96.429
817.84	104.444
818.14	107.143
818.44	87.500
818.74	94.340
819.04	89.744
819.35	124.242
819.65	96.154
819.95	100.000
820.25	108.511
820.56	143.243
820.86	131.579
821.16	63.830
821.46	107.895
821.76	92.727
822.07	97.619
822.37	81.579
822.67	113.953
822.97	94.737
823.27	102.174
823.57	128.125
823.88	110.256
824.18	133.333
824.48	139.130
824.78	125.000
825.08	213.043
825.38	131.034
825.69	152.941
825.99	97.872
826.29	113.889
826.59	114.286
826.89	163.333
827.19	120.000
827.49	145.161
827.79	142.308
828.09	97.619
828.39	113.889
828.70	97.297
829.00	150.000
829.30	200.000
829.60	127.778
829.90	122.581
830.20	90.909
830.50	140.541
830.80	187.500
831.10	142.308
831.40	200.000
831.70	166.667
832.00	110.000
832.30	121.739
832.60	195.833
832.90	175.758
833.20	230.000
833.50	110.526
833.80	94.118
834.10	123.684
834.40	152.632
834.70	116.667
835.00	136.000
835.30	100.000
835.60	146.875
835.90	113.514
836.20	150.000
836.50	145.455
836.80	97.561
837.10	186.957
837.40	276.923
837.70	173.684
838.00	136.667
838.30	158.333
838.60	140.000
838.90	340.000
839.19	168.750
839.49	123.333
839.79	106.897
840.09	176.923
840.39	233.333
840.69	178.947
840.99	180.952
841.29	126.087
841.59	200.000
841.88	148.000
842.18	388.889
842.48	139.286
842.78	166.667
843.08	207.692
843.38	172.727
843.68	278.571
843.97	500.000
844.27	186.957
844.57	1700.000
844.87	285.714
845.17	238.889
845.47	128.571
845.76	162.500
846.06	414.286
846.36	205.882
846.66	215.385
846.96	225.000
847.25	230.769
847.55	205.263
847.85	172.222
848.15	540.000
848.44	263.636
848.74	161.905
849.04	183.333
849.34	217.647
849.63	262.500
849.93	250.000
850.23	933.333
850.53	375.000
850.82	281.818
851.12	188.235
851.42	145.833
851.71	243.750
852.01	0.000
852.31	247.059
852.61	370.000
852.90	166.667
853.20	322.222
853.50	-3100.000
853.79	176.000
854.09	143.750
854.39	120.690
854.68	172.414
854.98	176.190
855.28	187.097
855.57	350.000
855.87	205.556
856.17	125.926
856.46	200.000
856.76	161.290
857.05	217.647
857.35	227.273
857.65	300.000
857.94	170.000
858.24	411.111
858.53	285.714
858.83	700.000
859.13	191.304
859.42	411.111
859.72	437.500
860.01	150.000
860.31	900.000
860.60	420.000
860.90	362.500
861.20	176.923
861.49	571.429
861.79	-3100.000
862.08	485.714
862.38	466.667
862.67	185.714
862.97	370.000
863.26	163.333
863.56	700.000
863.85	215.385
864.15	252.941
864.44	183.333
864.74	333.333
865.03	290.909
865.33	337.500
865.62	260.000
865.92	700.000
866.21	1025.000
866.51	560.000
866.80	200.000
867.10	1000.000
867.39	2600.000
867.69	600.000
867.98	800.000
868.27	252.381
868.57	266.667
868.86	775.000
869.16	180.952
869.45	3800.000
869.75	-566.667
870.04	675.000
870.33	720.000
870.63	475.000
870.92	211.765
871.22	750.000
871.51	628.571
871.80	375.000
872.10	361.538
>>>>>End Processed Spectral Data<<<<<
