SpectraSuite Data File
++++++++++++++++++++++++++++++++++++
Date: Tue May 12 17:12:47 PDT 2015
User: schluterlab
Dark Spectrum Present: Yes
Reference Spectrum Present: Yes
Number of Sampled Component Spectra: 1
Spectrometers: USB2E3373
Integration Time (usec): 3000 (USB2E3373)
Spectra Averaged: 3 (USB2E3373)
Boxcar Smoothing: 0 (USB2E3373)
Correct for Electrical Dark: No (USB2E3373)
Strobe/Lamp Enabled: No (USB2E3373)
Correct for Detector Non-linearity: No (USB2E3373)
Correct for Stray Light: No (USB2E3373)
Number of Pixels in Processed Spectrum: 2048
>>>>>Begin Processed Spectral Data<<<<<
178.53	0.000
178.91	-175.000
179.29	-750.000
179.67	-3200.000
180.04	-140.000
180.42	750.000
180.80	1700.000
181.18	0.000
181.56	-300.000
181.94	0.000
182.31	1200.000
182.69	-1900.000
183.07	485.714
183.45	-3100.000
183.83	-1250.000
184.20	310.000
184.58	442.857
184.96	-200.000
185.34	-225.000
185.72	1450.000
186.09	-750.000
186.47	-2600.000
186.85	1066.667
187.23	560.000
187.61	1850.000
187.98	575.000
188.36	250.000
188.74	316.667
189.12	316.667
189.49	850.000
189.87	0.000
190.25	512.500
190.63	3200.000
191.00	-183.333
191.38	-2800.000
191.76	-675.000
192.14	600.000
192.51	-3200.000
192.89	1450.000
193.27	833.333
193.65	-866.667
194.02	-580.000
194.40	471.429
194.78	-214.286
195.15	213.333
195.53	-3000.000
195.91	-600.000
196.29	4300.000
196.66	250.000
197.04	900.000
197.42	-750.000
197.79	550.000
198.17	275.000
198.55	0.000
198.92	357.143
199.30	1333.333
199.68	1850.000
200.05	600.000
200.43	-483.333
200.81	222.222
201.18	3100.000
201.56	250.000
201.94	-700.000
202.31	-287.500
202.69	-460.000
203.07	4300.000
203.44	-366.667
203.82	341.667
204.19	720.000
204.57	-850.000
204.95	-650.000
205.32	-720.000
205.70	600.000
206.08	500.000
206.45	-900.000
206.83	477.778
207.20	168.421
207.58	225.000
207.96	600.000
208.33	0.000
208.71	657.143
209.08	820.000
209.46	-2400.000
209.84	-550.000
210.21	720.000
210.59	-460.000
210.96	258.333
211.34	-1000.000
211.71	281.818
212.09	850.000
212.46	1650.000
212.84	-433.333
213.22	400.000
213.59	-3000.000
213.97	230.000
214.34	825.000
214.72	1100.000
215.09	1033.333
215.47	-2500.000
215.84	-340.000
216.22	-400.000
216.59	0.000
216.97	0.000
217.34	1700.000
217.72	-1350.000
218.09	1133.333
218.47	425.000
218.84	725.000
219.22	1066.667
219.59	633.333
219.97	585.714
220.34	455.556
220.72	1900.000
221.09	3900.000
221.47	175.000
221.84	1366.667
222.22	320.000
222.59	255.556
222.97	235.714
223.34	231.250
223.72	-1350.000
224.09	1300.000
224.46	292.308
224.84	-675.000
225.21	433.333
225.59	253.333
225.96	1366.667
226.34	-620.000
226.71	-475.000
227.08	-480.000
227.46	0.000
227.83	-566.667
228.21	-1650.000
228.58	366.667
228.95	800.000
229.33	388.889
229.70	1025.000
230.08	284.615
230.45	3300.000
230.82	-875.000
231.20	-900.000
231.57	-533.333
231.95	300.000
232.32	250.000
232.69	466.667
233.07	316.667
233.44	-1500.000
233.81	260.000
234.19	144.444
234.56	218.750
234.93	223.529
235.31	220.000
235.68	243.750
236.05	167.857
236.43	133.333
236.80	200.000
237.17	175.862
237.55	159.375
237.92	125.000
238.29	148.485
238.67	137.500
239.04	102.439
239.41	83.333
239.79	87.500
240.16	104.167
240.53	85.246
240.91	79.710
241.28	84.746
241.65	68.182
242.02	74.648
242.40	85.714
242.77	60.440
243.14	78.481
243.51	71.717
243.89	66.355
244.26	70.093
244.63	68.317
245.00	60.550
245.38	45.763
245.75	57.576
246.12	57.778
246.49	52.482
246.87	61.475
247.24	55.333
247.61	48.750
247.98	59.184
248.36	54.545
248.73	52.551
249.10	50.595
249.47	47.500
249.84	45.274
250.22	48.649
250.59	48.500
250.96	45.570
251.33	48.372
251.70	48.214
252.08	47.899
252.45	45.418
252.82	43.346
253.19	43.874
253.56	44.231
253.94	44.203
254.31	44.961
254.68	47.735
255.05	42.414
255.42	41.606
255.79	47.557
256.16	47.797
256.54	47.403
256.91	45.098
257.28	43.478
257.65	39.498
258.02	43.953
258.39	43.553
258.76	40.580
259.14	40.286
259.51	46.939
259.88	47.416
260.25	42.582
260.62	40.548
260.99	38.843
261.36	44.568
261.73	44.681
262.10	41.361
262.47	40.750
262.85	40.533
263.22	42.416
263.59	39.130
263.96	42.607
264.33	40.741
264.70	42.506
265.07	42.195
265.44	37.385
265.81	39.623
266.18	42.792
266.55	40.189
266.92	39.821
267.29	42.544
267.66	39.462
268.03	37.892
268.40	40.592
268.77	40.308
269.14	39.262
269.51	42.316
269.88	38.776
270.25	34.773
270.62	40.773
270.99	40.568
271.36	39.837
271.73	37.945
272.10	38.384
272.47	37.103
272.84	37.725
273.21	36.983
273.58	39.271
273.95	36.550
274.32	40.272
274.69	38.189
275.06	39.891
275.43	36.015
275.80	37.925
276.17	39.706
276.54	38.505
276.91	38.806
277.28	35.766
277.65	35.055
278.02	35.846
278.39	37.230
278.76	36.897
279.13	37.367
279.50	36.182
279.87	33.706
280.23	35.912
280.60	37.591
280.97	36.897
281.34	34.983
281.71	36.522
282.08	34.530
282.45	35.135
282.82	34.950
283.19	35.612
283.56	33.388
283.92	37.459
284.29	35.108
284.66	32.269
285.03	37.479
285.40	34.380
285.77	34.105
286.14	37.461
286.51	34.356
286.87	32.753
287.24	33.634
287.61	34.347
287.98	33.433
288.35	33.185
288.72	33.080
289.08	33.333
289.45	32.317
289.82	33.125
290.19	32.943
290.56	31.150
290.93	31.367
291.29	31.077
291.66	31.780
292.03	30.996
292.40	30.759
292.77	31.476
293.13	30.670
293.50	28.475
293.87	28.184
294.24	30.490
294.60	30.417
294.97	30.769
295.34	30.146
295.71	28.647
296.08	30.133
296.44	29.352
296.81	27.543
297.18	26.743
297.55	27.956
297.91	28.325
298.28	27.174
298.65	26.258
299.02	28.347
299.38	27.938
299.75	25.732
300.12	25.573
300.48	27.869
300.85	26.698
301.22	26.163
301.59	25.708
301.95	26.371
302.32	25.960
302.69	25.339
303.05	26.487
303.42	26.233
303.79	24.052
304.15	25.413
304.52	24.313
304.89	24.840
305.25	24.694
305.62	26.119
305.99	26.304
306.35	24.421
306.72	24.454
307.09	25.052
307.45	23.654
307.82	23.765
308.19	24.536
308.55	24.300
308.92	25.221
309.29	24.655
309.65	25.074
310.02	24.442
310.38	22.931
310.75	23.240
311.12	23.563
311.48	24.903
311.85	24.523
312.22	23.782
312.58	22.157
312.95	24.078
313.31	23.876
313.68	22.326
314.05	24.542
314.41	23.277
314.78	23.390
315.14	23.033
315.51	24.409
315.87	22.901
316.24	22.876
316.61	23.277
316.97	22.294
317.34	24.708
317.70	22.125
318.07	23.754
318.43	23.199
318.80	23.730
319.16	22.290
319.53	23.451
319.89	23.566
320.26	24.302
320.62	23.993
320.99	23.070
321.35	22.820
321.72	24.478
322.08	23.176
322.45	22.434
322.81	22.690
323.18	22.025
323.54	23.606
323.91	24.025
324.27	23.165
324.64	22.318
325.00	23.448
325.37	23.187
325.73	22.513
326.10	24.524
326.46	23.121
326.83	23.040
327.19	23.052
327.56	23.163
327.92	23.361
328.29	23.486
328.65	23.459
329.01	23.353
329.38	23.096
329.74	22.459
330.11	24.153
330.47	23.188
330.84	22.433
331.20	22.673
331.56	25.130
331.93	23.182
332.29	22.789
332.66	23.810
333.02	22.079
333.38	22.688
333.75	23.603
334.11	23.574
334.48	23.590
334.84	23.142
335.20	23.867
335.57	22.670
335.93	23.549
336.29	22.222
336.66	23.585
337.02	22.241
337.38	22.270
337.75	23.480
338.11	22.532
338.47	22.523
338.84	22.100
339.20	22.078
339.56	22.456
339.93	21.739
340.29	21.345
340.65	23.303
341.02	22.204
341.38	21.593
341.74	22.591
342.11	22.204
342.47	22.067
342.83	23.052
343.20	21.665
343.56	20.572
343.92	20.974
344.28	21.930
344.65	21.027
345.01	20.635
345.37	20.753
345.73	20.159
346.10	21.116
346.46	21.372
346.82	20.448
347.19	23.338
347.55	20.375
347.91	20.846
348.27	21.146
348.63	21.835
349.00	21.554
349.36	21.712
349.72	21.789
350.08	20.885
350.45	21.097
350.81	22.018
351.17	20.801
351.53	21.401
351.89	20.357
352.26	21.164
352.62	20.437
352.98	21.933
353.34	21.186
353.70	19.801
354.07	20.923
354.43	20.814
354.79	20.957
355.15	19.985
355.51	20.091
355.87	21.160
356.24	21.478
356.60	21.309
356.96	20.091
357.32	21.929
357.68	21.366
358.04	20.669
358.40	19.490
358.77	20.436
359.13	19.820
359.49	22.016
359.85	20.477
360.21	20.208
360.57	21.460
360.93	20.418
361.29	20.274
361.66	21.029
362.02	20.455
362.38	20.130
362.74	20.948
363.10	20.196
363.46	19.337
363.82	20.056
364.18	20.697
364.54	20.029
364.90	20.549
365.26	19.778
365.62	19.268
365.98	19.615
366.35	19.931
366.71	20.125
367.07	20.137
367.43	20.081
367.79	19.282
368.15	18.996
368.51	20.813
368.87	19.973
369.23	19.612
369.59	20.229
369.95	21.189
370.31	20.192
370.67	20.402
371.03	19.748
371.39	20.499
371.75	20.028
372.11	19.375
372.47	20.205
372.83	19.714
373.19	19.671
373.55	19.863
373.91	20.166
374.27	19.709
374.63	19.864
374.99	19.879
375.35	20.228
375.71	20.185
376.07	19.231
376.42	18.990
376.78	20.745
377.14	19.921
377.50	20.037
377.86	18.962
378.22	19.561
378.58	20.036
378.94	19.372
379.30	20.012
379.66	19.386
380.02	20.469
380.38	19.438
380.74	19.666
381.09	19.393
381.45	19.249
381.81	19.563
382.17	19.231
382.53	18.596
382.89	18.687
383.25	19.420
383.61	18.617
383.97	19.556
384.32	19.831
384.68	19.905
385.04	20.047
385.40	19.692
385.76	19.075
386.12	19.604
386.48	20.000
386.83	19.254
387.19	20.082
387.55	19.670
387.91	19.400
388.27	19.334
388.62	19.953
388.98	19.417
389.34	18.917
389.70	18.986
390.06	19.817
390.42	19.432
390.77	19.226
391.13	19.734
391.49	18.572
391.85	19.569
392.20	19.309
392.56	19.295
392.92	19.147
393.28	18.217
393.64	18.750
393.99	19.798
394.35	18.364
394.71	18.938
395.07	19.221
395.42	19.906
395.78	20.111
396.14	20.120
396.50	19.675
396.85	19.512
397.21	19.374
397.57	19.964
397.92	18.140
398.28	18.643
398.64	19.546
399.00	18.760
399.35	19.324
399.71	18.764
400.07	18.779
400.42	18.328
400.78	19.179
401.14	19.495
401.49	18.548
401.85	18.424
402.21	18.571
402.57	19.270
402.92	18.788
403.28	18.019
403.63	19.659
403.99	18.938
404.35	19.226
404.70	18.960
405.06	19.034
405.42	18.612
405.77	18.578
406.13	18.764
406.49	18.192
406.84	18.725
407.20	18.779
407.55	19.938
407.91	19.145
408.27	18.739
408.62	19.456
408.98	19.160
409.34	18.703
409.69	18.046
410.05	17.710
410.40	18.257
410.76	18.317
411.11	19.372
411.47	17.963
411.83	18.219
412.18	19.022
412.54	18.739
412.89	18.112
413.25	18.700
413.60	18.400
413.96	17.893
414.31	18.713
414.67	19.243
415.03	18.199
415.38	19.621
415.74	18.572
416.09	19.176
416.45	18.811
416.80	18.409
417.16	18.778
417.51	19.108
417.87	18.523
418.22	18.165
418.58	18.854
418.93	18.858
419.29	18.176
419.64	18.958
420.00	18.675
420.35	18.293
420.71	18.145
421.06	17.716
421.42	17.962
421.77	18.545
422.12	18.137
422.48	18.182
422.83	18.862
423.19	18.521
423.54	18.596
423.90	18.800
424.25	18.437
424.61	18.862
424.96	18.238
425.31	18.227
425.67	17.957
426.02	18.172
426.38	17.795
426.73	17.640
427.09	19.098
427.44	18.008
427.79	18.010
428.15	19.328
428.50	19.314
428.85	18.636
429.21	17.936
429.56	18.445
429.92	18.100
430.27	17.852
430.62	17.474
430.98	17.914
431.33	17.692
431.68	17.037
432.04	17.589
432.39	18.386
432.74	18.267
433.10	17.996
433.45	18.265
433.80	18.478
434.16	18.497
434.51	17.647
434.86	18.454
435.22	18.152
435.57	18.198
435.92	19.067
436.28	19.182
436.63	18.693
436.98	18.806
437.34	18.037
437.69	17.581
438.04	18.495
438.39	18.097
438.75	17.762
439.10	18.079
439.45	18.146
439.81	18.855
440.16	18.602
440.51	18.468
440.86	18.348
441.22	17.911
441.57	18.215
441.92	18.509
442.27	17.732
442.63	17.581
442.98	17.780
443.33	18.050
443.68	18.058
444.03	18.096
444.39	18.126
444.74	18.064
445.09	17.483
445.44	17.906
445.79	17.495
446.15	18.211
446.50	17.563
446.85	18.426
447.20	17.313
447.55	17.292
447.91	17.901
448.26	18.317
448.61	18.463
448.96	18.028
449.31	17.987
449.66	17.663
450.02	17.774
450.37	18.878
450.72	18.127
451.07	18.732
451.42	18.672
451.77	18.213
452.12	18.321
452.47	18.530
452.83	17.803
453.18	18.438
453.53	18.769
453.88	18.743
454.23	18.245
454.58	18.007
454.93	17.842
455.28	19.033
455.63	18.617
455.98	18.613
456.34	18.845
456.69	18.780
457.04	18.616
457.39	18.686
457.74	18.581
458.09	17.013
458.44	17.853
458.79	17.984
459.14	18.221
459.49	18.630
459.84	17.880
460.19	18.192
460.54	18.462
460.89	18.977
461.24	17.698
461.59	19.444
461.94	18.203
462.29	18.307
462.64	18.405
462.99	17.466
463.34	18.989
463.69	18.935
464.04	19.171
464.39	18.203
464.74	17.937
465.09	18.630
465.44	18.444
465.79	17.637
466.14	18.124
466.49	18.394
466.84	18.729
467.19	19.332
467.54	18.378
467.89	18.369
468.24	17.950
468.59	18.333
468.94	17.874
469.29	18.693
469.64	18.650
469.99	19.537
470.34	17.710
470.68	17.448
471.03	18.546
471.38	18.278
471.73	18.419
472.08	18.265
472.43	19.367
472.78	18.438
473.13	18.335
473.48	17.421
473.83	18.551
474.17	18.359
474.52	18.246
474.87	17.055
475.22	18.332
475.57	17.838
475.92	18.242
476.27	17.138
476.61	18.338
476.96	18.286
477.31	18.355
477.66	18.948
478.01	17.638
478.36	18.486
478.70	17.717
479.05	17.207
479.40	18.651
479.75	18.669
480.10	18.441
480.45	18.114
480.79	18.018
481.14	17.166
481.49	17.429
481.84	17.766
482.19	17.555
482.53	18.314
482.88	18.190
483.23	17.591
483.58	17.639
483.92	18.236
484.27	17.594
484.62	18.209
484.97	17.803
485.31	16.952
485.66	16.447
486.01	16.257
486.36	16.017
486.70	16.357
487.05	16.386
487.40	16.833
487.75	17.246
488.09	17.443
488.44	16.858
488.79	17.425
489.13	17.357
489.48	17.859
489.83	17.723
490.17	17.341
490.52	17.916
490.87	17.672
491.22	18.528
491.56	17.743
491.91	17.652
492.26	17.728
492.60	17.768
492.95	17.037
493.30	17.834
493.64	18.104
493.99	18.023
494.34	17.167
494.68	17.884
495.03	17.602
495.37	18.460
495.72	18.368
496.07	17.610
496.41	17.941
496.76	17.222
497.11	17.781
497.45	17.799
497.80	18.397
498.14	17.707
498.49	17.688
498.84	18.972
499.18	17.459
499.53	18.374
499.87	17.251
500.22	17.964
500.56	17.734
500.91	18.275
501.26	18.098
501.60	17.623
501.95	17.294
502.29	18.222
502.64	17.336
502.98	17.430
503.33	17.194
503.67	17.660
504.02	17.376
504.36	17.240
504.71	17.597
505.06	18.114
505.40	17.501
505.75	17.399
506.09	18.385
506.44	17.481
506.78	18.478
507.13	17.984
507.47	18.535
507.82	18.054
508.16	18.520
508.51	18.068
508.85	18.471
509.19	18.502
509.54	18.311
509.88	18.150
510.23	19.461
510.57	17.375
510.92	17.882
511.26	18.173
511.61	17.676
511.95	18.417
512.30	18.700
512.64	17.705
512.98	18.298
513.33	18.238
513.67	18.643
514.02	17.922
514.36	18.224
514.70	18.133
515.05	17.528
515.39	18.640
515.74	18.043
516.08	18.464
516.42	19.235
516.77	18.987
517.11	18.827
517.46	17.942
517.80	18.296
518.14	18.986
518.49	18.798
518.83	17.308
519.17	19.024
519.52	18.405
519.86	18.692
520.20	18.849
520.55	18.033
520.89	18.793
521.23	18.400
521.58	18.072
521.92	18.542
522.26	18.661
522.61	18.835
522.95	18.859
523.29	18.889
523.64	18.555
523.98	18.662
524.32	18.397
524.66	18.551
525.01	18.166
525.35	18.032
525.69	19.025
526.04	19.453
526.38	18.305
526.72	18.616
527.06	18.628
527.41	19.287
527.75	18.503
528.09	17.760
528.43	19.158
528.78	18.426
529.12	19.747
529.46	18.235
529.80	18.283
530.15	18.975
530.49	17.870
530.83	19.683
531.17	17.835
531.51	18.700
531.86	18.418
532.20	18.850
532.54	17.640
532.88	18.988
533.22	19.317
533.57	18.548
533.91	18.357
534.25	17.542
534.59	18.713
534.93	18.714
535.27	17.302
535.62	17.795
535.96	17.671
536.30	18.647
536.64	18.261
536.98	18.062
537.32	18.375
537.66	18.176
538.01	18.204
538.35	18.653
538.69	18.507
539.03	17.910
539.37	17.112
539.71	18.395
540.05	18.338
540.39	19.119
540.73	18.228
541.07	16.750
541.42	16.978
541.76	19.174
542.10	18.866
542.44	18.454
542.78	18.188
543.12	18.098
543.46	17.669
543.80	18.233
544.14	17.833
544.48	17.822
544.82	18.532
545.16	18.094
545.50	18.193
545.84	18.750
546.18	19.766
546.52	19.344
546.86	18.182
547.20	17.894
547.54	17.796
547.88	17.883
548.22	17.911
548.56	17.855
548.90	18.149
549.24	17.877
549.58	18.299
549.92	17.551
550.26	18.120
550.60	18.962
550.94	19.539
551.28	20.138
551.62	18.966
551.96	18.514
552.30	16.678
552.64	18.964
552.98	16.946
553.32	18.310
553.66	17.655
554.00	18.082
554.34	18.242
554.68	18.145
555.02	17.990
555.36	18.218
555.69	18.979
556.03	18.471
556.37	17.718
556.71	18.644
557.05	17.497
557.39	18.267
557.73	18.464
558.07	18.310
558.41	18.232
558.75	17.784
559.08	20.157
559.42	18.683
559.76	18.888
560.10	17.894
560.44	18.580
560.78	18.734
561.12	17.419
561.45	17.647
561.79	17.291
562.13	17.751
562.47	17.197
562.81	18.217
563.15	18.423
563.48	17.391
563.82	18.091
564.16	17.848
564.50	17.842
564.84	17.933
565.17	17.528
565.51	19.520
565.85	18.322
566.19	18.095
566.52	17.690
566.86	18.681
567.20	17.697
567.54	17.576
567.88	18.466
568.21	17.274
568.55	17.656
568.89	17.609
569.23	17.299
569.56	17.332
569.90	17.176
570.24	16.695
570.57	16.742
570.91	16.568
571.25	16.756
571.59	16.441
571.92	16.362
572.26	15.472
572.60	16.273
572.93	16.619
573.27	15.997
573.61	16.161
573.95	16.160
574.28	16.432
574.62	16.069
574.96	15.755
575.29	15.712
575.63	15.972
575.97	16.261
576.30	15.844
576.64	15.763
576.98	15.997
577.31	16.193
577.65	16.264
577.98	16.067
578.32	15.412
578.66	15.883
578.99	16.048
579.33	15.652
579.67	15.717
580.00	15.891
580.34	16.138
580.67	16.264
581.01	16.392
581.35	15.941
581.68	15.805
582.02	15.555
582.35	15.593
582.69	16.002
583.02	15.824
583.36	16.262
583.70	16.532
584.03	16.431
584.37	16.305
584.70	16.347
585.04	15.822
585.37	15.780
585.71	16.112
586.04	15.645
586.38	15.921
586.72	15.856
587.05	16.289
587.39	16.485
587.72	16.345
588.06	16.389
588.39	15.967
588.73	16.208
589.06	16.049
589.40	16.651
589.73	16.388
590.07	16.953
590.40	17.317
590.73	17.003
591.07	17.040
591.40	16.727
591.74	16.761
592.07	17.013
592.41	16.507
592.74	16.661
593.08	16.341
593.41	16.098
593.75	15.783
594.08	16.569
594.41	16.259
594.75	17.021
595.08	16.289
595.42	16.754
595.75	16.683
596.09	17.136
596.42	16.715
596.75	17.508
597.09	17.293
597.42	16.490
597.75	16.471
598.09	16.824
598.42	16.809
598.76	16.615
599.09	17.028
599.42	16.436
599.76	16.418
600.09	16.203
600.42	15.953
600.76	16.247
601.09	16.189
601.42	16.438
601.76	16.899
602.09	16.483
602.42	16.488
602.76	17.116
603.09	16.742
603.42	17.394
603.76	15.871
604.09	16.830
604.42	16.723
604.76	16.792
605.09	16.653
605.42	17.066
605.75	16.660
606.09	16.947
606.42	16.610
606.75	16.168
607.09	16.107
607.42	16.955
607.75	16.521
608.08	16.653
608.42	17.114
608.75	16.474
609.08	16.542
609.41	17.136
609.75	17.216
610.08	17.716
610.41	17.435
610.74	16.970
611.07	17.190
611.41	17.285
611.74	16.826
612.07	16.474
612.40	16.813
612.73	16.725
613.07	17.030
613.40	17.644
613.73	16.975
614.06	16.500
614.39	17.222
614.72	17.378
615.06	15.875
615.39	16.881
615.72	16.167
616.05	17.629
616.38	16.591
616.71	16.983
617.05	17.024
617.38	17.865
617.71	17.154
618.04	16.657
618.37	17.399
618.70	16.744
619.03	16.911
619.36	17.965
619.69	17.348
620.03	18.852
620.36	17.598
620.69	18.774
621.02	17.799
621.35	16.977
621.68	17.330
622.01	18.598
622.34	17.189
622.67	18.188
623.00	17.767
623.33	18.016
623.66	17.831
623.99	18.836
624.32	17.615
624.65	17.380
624.99	17.309
625.32	17.435
625.65	17.793
625.98	17.643
626.31	18.323
626.64	17.768
626.97	18.210
627.30	18.944
627.63	18.917
627.96	17.214
628.29	19.059
628.62	16.938
628.95	18.883
629.28	19.720
629.61	18.717
629.94	17.459
630.26	18.631
630.59	19.504
630.92	18.296
631.25	18.495
631.58	18.708
631.91	19.125
632.24	19.145
632.57	17.780
632.90	19.876
633.23	19.412
633.56	19.494
633.89	19.400
634.22	18.515
634.55	18.710
634.88	20.372
635.20	20.179
635.53	19.861
635.86	19.351
636.19	19.978
636.52	19.351
636.85	19.417
637.18	19.393
637.51	19.665
637.83	17.735
638.16	20.399
638.49	20.719
638.82	21.831
639.15	18.684
639.48	20.853
639.81	19.902
640.13	19.877
640.46	20.101
640.79	20.416
641.12	18.373
641.45	21.216
641.77	20.872
642.10	20.080
642.43	22.902
642.76	20.170
643.09	21.182
643.41	19.776
643.74	22.590
644.07	22.566
644.40	20.266
644.73	22.072
645.05	23.180
645.38	20.368
645.71	21.548
646.04	21.832
646.36	21.596
646.69	20.000
647.02	21.440
647.35	20.157
647.67	21.070
648.00	22.964
648.33	21.504
648.66	21.818
648.98	18.406
649.31	19.298
649.64	18.672
649.96	18.350
650.29	19.714
650.62	20.471
650.94	22.289
651.27	21.372
651.60	21.440
651.92	19.048
652.25	20.787
652.58	21.135
652.90	19.611
653.23	19.645
653.56	20.920
653.88	21.292
654.21	19.795
654.54	21.083
654.86	21.829
655.19	19.129
655.52	17.376
655.84	14.388
656.17	16.651
656.49	23.871
656.82	26.725
657.15	21.015
657.47	16.093
657.80	11.993
658.13	9.729
658.45	13.265
658.78	16.053
659.10	16.491
659.43	16.756
659.75	17.222
660.08	17.481
660.41	18.240
660.73	19.824
661.06	22.222
661.38	22.147
661.71	21.942
662.03	20.722
662.36	22.476
662.68	21.229
663.01	23.784
663.33	21.509
663.66	20.907
663.98	22.024
664.31	24.440
664.63	22.605
664.96	22.889
665.28	22.411
665.61	20.943
665.93	22.453
666.26	21.121
666.58	23.853
666.91	22.973
667.23	23.896
667.56	22.382
667.88	22.614
668.21	23.156
668.53	21.573
668.86	23.046
669.18	22.200
669.50	21.074
669.83	25.257
670.15	22.245
670.48	20.508
670.80	22.311
671.13	20.518
671.45	22.044
671.77	23.191
672.10	22.801
672.42	20.066
672.75	21.203
673.07	20.827
673.39	21.086
673.72	20.761
674.04	22.222
674.37	23.049
674.69	21.190
675.01	20.149
675.34	19.961
675.66	23.242
675.98	21.105
676.31	23.200
676.63	20.080
676.95	21.627
677.28	21.704
677.60	22.334
677.92	20.040
678.25	22.093
678.57	21.601
678.89	21.338
679.22	20.588
679.54	21.352
679.86	22.164
680.18	19.156
680.51	19.071
680.83	20.101
681.15	22.530
681.48	21.181
681.80	21.191
682.12	21.626
682.44	19.279
682.77	22.064
683.09	25.243
683.41	23.673
683.73	20.079
684.06	23.214
684.38	23.837
684.70	21.942
685.02	19.444
685.34	20.951
685.67	20.900
685.99	21.839
686.31	20.185
686.63	20.488
686.96	21.078
687.28	21.644
687.60	20.307
687.92	20.268
688.24	23.448
688.56	20.996
688.89	20.841
689.21	20.617
689.53	21.146
689.85	21.545
690.17	20.583
690.49	24.194
690.82	22.689
691.14	20.404
691.46	22.587
691.78	21.248
692.10	21.374
692.42	18.693
692.74	21.899
693.06	20.155
693.39	20.158
693.71	21.415
694.03	22.880
694.35	21.486
694.67	21.385
694.99	21.508
695.31	25.676
695.63	21.493
695.95	23.077
696.27	25.664
696.59	21.957
696.91	21.519
697.23	24.208
697.56	19.917
697.88	20.559
698.20	23.208
698.52	19.650
698.84	23.819
699.16	24.307
699.48	22.881
699.80	24.183
700.12	24.018
700.44	25.935
700.76	25.537
701.08	22.454
701.40	22.857
701.72	28.877
702.04	25.474
702.36	25.269
702.68	24.734
703.00	22.807
703.32	26.055
703.64	26.700
703.96	24.219
704.28	24.868
704.60	24.789
704.91	23.529
705.23	24.432
705.55	26.113
705.87	23.492
706.19	26.959
706.51	31.348
706.83	24.189
707.15	24.064
707.47	25.424
707.79	24.598
708.11	20.408
708.43	23.371
708.74	23.303
709.06	23.721
709.38	23.077
709.70	21.798
710.02	23.370
710.34	25.967
710.66	25.000
710.98	25.956
711.29	25.905
711.61	25.070
711.93	21.277
712.25	24.096
712.57	24.759
712.89	25.152
713.20	26.198
713.52	26.168
713.84	23.867
714.16	22.319
714.48	22.190
714.80	21.951
715.11	20.479
715.43	22.905
715.75	24.789
716.07	25.723
716.39	26.000
716.70	20.249
717.02	24.242
717.34	23.741
717.66	28.819
717.97	25.000
718.29	30.282
718.61	26.689
718.93	26.298
719.24	26.846
719.56	26.207
719.88	21.975
720.20	29.355
720.51	26.144
720.83	27.759
721.15	27.211
721.46	25.685
721.78	29.268
722.10	28.125
722.42	24.080
722.73	27.437
723.05	27.719
723.37	29.682
723.68	30.078
724.00	28.409
724.32	28.517
724.63	27.692
724.95	31.373
725.27	32.714
725.58	29.412
725.90	21.479
726.22	26.370
726.53	26.756
726.85	27.687
727.16	25.503
727.48	25.914
727.80	25.180
728.11	27.143
728.43	28.623
728.74	25.874
729.06	24.373
729.38	27.018
729.69	23.000
730.01	29.276
730.32	28.859
730.64	29.236
730.96	23.724
731.27	20.795
731.59	23.276
731.90	25.348
732.22	28.857
732.53	21.368
732.85	26.901
733.16	25.000
733.48	22.257
733.80	24.058
734.11	26.687
734.43	22.222
734.74	22.788
735.06	26.455
735.37	22.423
735.69	24.348
736.00	26.300
736.32	21.515
736.63	21.136
736.95	23.913
737.26	23.780
737.58	25.767
737.89	26.506
738.21	25.828
738.52	26.421
738.83	33.333
739.15	25.784
739.46	24.483
739.78	24.830
740.09	24.198
740.41	24.233
740.72	25.714
741.04	29.371
741.35	24.219
741.66	25.692
741.98	32.618
742.29	29.167
742.61	24.336
742.92	30.085
743.23	27.200
743.55	24.906
743.86	24.706
744.18	26.271
744.49	32.231
744.80	28.571
745.12	30.804
745.43	30.841
745.74	27.111
746.06	26.316
746.37	31.628
746.68	30.973
747.00	27.803
747.31	29.412
747.62	23.361
747.94	28.755
748.25	27.626
748.56	27.542
748.88	27.232
749.19	25.116
749.50	29.224
749.82	28.395
750.13	28.063
750.44	24.000
750.75	25.839
751.07	27.303
751.38	23.102
751.69	25.253
752.01	26.224
752.32	28.904
752.63	27.852
752.94	27.622
753.26	27.734
753.57	31.518
753.88	23.221
754.19	29.964
754.51	22.924
754.82	24.161
755.13	26.014
755.44	27.037
755.75	31.615
756.07	25.685
756.38	23.856
756.69	25.313
757.00	24.629
757.31	25.634
757.63	23.416
757.94	22.872
758.25	24.638
758.56	24.027
758.87	22.807
759.18	26.744
759.50	22.492
759.81	27.893
760.12	24.719
760.43	23.529
760.74	25.823
761.05	22.812
761.36	21.354
761.67	24.528
761.99	24.507
762.30	25.080
762.61	25.000
762.92	29.545
763.23	25.660
763.54	28.077
763.85	24.125
764.16	28.472
764.47	26.689
764.78	25.407
765.10	22.866
765.41	24.716
765.72	25.691
766.03	20.242
766.34	23.693
766.65	28.517
766.96	26.316
767.27	34.579
767.58	27.228
767.89	35.359
768.20	33.537
768.51	28.571
768.82	35.088
769.13	26.667
769.44	27.820
769.75	26.592
770.06	24.790
770.37	23.246
770.68	23.111
770.99	31.356
771.30	30.544
771.61	29.231
771.92	29.389
772.23	29.032
772.54	30.667
772.85	36.139
773.16	29.348
773.47	32.778
773.78	30.198
774.09	36.364
774.39	33.333
774.70	26.471
775.01	29.605
775.32	33.540
775.63	39.041
775.94	42.593
776.25	35.862
776.56	35.878
776.87	39.695
777.18	34.091
777.48	40.945
777.79	43.077
778.10	43.939
778.41	45.522
778.72	36.842
779.03	34.615
779.34	42.568
779.65	36.025
779.95	33.540
780.26	35.714
780.57	36.735
780.88	41.844
781.19	44.167
781.50	41.420
781.80	37.158
782.11	39.153
782.42	31.609
782.73	36.723
783.04	32.903
783.34	35.659
783.65	33.333
783.96	32.903
784.27	31.126
784.57	33.553
784.88	39.855
785.19	34.167
785.50	45.690
785.81	41.085
786.11	30.370
786.42	33.858
786.73	32.432
787.04	39.623
787.34	35.772
787.65	50.000
787.96	40.909
788.26	45.669
788.57	40.876
788.88	35.915
789.19	44.275
789.49	40.541
789.80	34.375
790.11	32.231
790.41	38.889
790.72	44.444
791.03	44.231
791.33	47.475
791.64	43.158
791.95	42.105
792.25	43.750
792.56	49.000
792.87	43.902
793.17	56.818
793.48	56.471
793.79	54.023
794.09	46.591
794.40	53.448
794.70	43.651
795.01	35.385
795.32	38.931
795.62	44.444
795.93	42.857
796.23	39.024
796.54	48.980
796.85	44.318
797.15	54.545
797.46	62.195
797.76	35.000
798.07	54.667
798.37	63.750
798.68	68.750
798.99	53.659
799.29	49.333
799.60	37.209
799.90	57.895
800.21	50.000
800.51	66.197
800.82	62.069
801.12	80.000
801.43	56.000
801.73	65.517
802.04	57.143
802.34	57.534
802.65	74.510
802.95	69.565
803.26	70.968
803.56	73.333
803.87	67.164
804.17	69.841
804.48	66.038
804.78	66.667
805.09	63.636
805.39	61.905
805.70	59.649
806.00	48.571
806.30	54.687
806.61	58.824
806.91	55.556
807.22	47.826
807.52	56.579
807.83	72.368
808.13	47.826
808.43	69.355
808.74	54.795
809.04	60.714
809.35	61.765
809.65	60.606
809.95	70.588
810.26	81.481
810.56	78.125
810.86	87.755
811.17	66.667
811.47	84.783
811.77	75.862
812.08	56.897
812.38	78.571
812.69	73.810
812.99	82.222
813.29	77.143
813.59	138.710
813.90	87.931
814.20	95.082
814.50	84.000
814.81	63.158
815.11	59.259
815.41	87.500
815.72	80.357
816.02	88.000
816.32	80.488
816.62	79.310
816.93	96.970
817.23	107.317
817.53	82.143
817.84	88.889
818.14	100.000
818.44	79.167
818.74	84.906
819.04	87.179
819.35	93.939
819.65	96.154
819.95	124.074
820.25	102.128
820.56	108.108
820.86	94.737
821.16	46.809
821.46	97.368
821.76	78.182
822.07	78.571
822.37	94.737
822.67	102.326
822.97	84.211
823.27	100.000
823.57	109.375
823.88	107.692
824.18	100.000
824.48	143.478
824.78	111.111
825.08	160.870
825.38	120.690
825.69	117.647
825.99	72.340
826.29	69.444
826.59	97.143
826.89	120.000
827.19	111.429
827.49	132.258
827.79	134.615
828.09	92.857
828.39	72.222
828.70	83.784
829.00	157.143
829.30	193.750
829.60	83.333
829.90	93.548
830.20	100.000
830.50	108.108
830.80	183.333
831.10	184.615
831.40	157.143
831.70	145.833
832.00	100.000
832.30	169.565
832.60	162.500
832.90	124.242
833.20	155.000
833.50	131.579
833.80	123.529
834.10	134.211
834.40	131.579
834.70	93.333
835.00	136.000
835.30	86.486
835.60	134.375
835.90	124.324
836.20	130.769
836.50	172.727
836.80	85.366
837.10	121.739
837.40	246.154
837.70	142.105
838.00	123.333
838.30	183.333
838.60	136.000
838.90	230.000
839.19	200.000
839.49	133.333
839.79	117.241
840.09	142.308
840.39	120.000
840.69	163.158
840.99	109.524
841.29	182.609
841.59	160.000
841.88	164.000
842.18	277.778
842.48	96.429
842.78	129.630
843.08	200.000
843.38	109.091
843.68	257.143
843.97	485.714
844.27	134.783
844.57	1050.000
844.87	214.286
845.17	238.889
845.47	133.333
845.76	141.667
846.06	471.429
846.36	211.765
846.66	253.846
846.96	212.500
847.25	261.538
847.55	194.737
847.85	144.444
848.15	400.000
848.44	218.182
848.74	147.619
849.04	150.000
849.34	141.176
849.63	237.500
849.93	212.500
850.23	966.667
850.53	387.500
850.82	272.727
851.12	158.824
851.42	154.167
851.71	193.750
852.01	0.000
852.31	176.471
852.61	360.000
852.90	129.167
853.20	277.778
853.50	-1600.000
853.79	136.000
854.09	134.375
854.39	124.138
854.68	137.931
854.98	209.524
855.28	100.000
855.57	207.143
855.87	211.111
856.17	137.037
856.46	178.947
856.76	122.581
857.05	241.176
857.35	254.545
857.65	192.308
857.94	155.000
858.24	322.222
858.53	264.286
858.83	614.286
859.13	156.522
859.42	233.333
859.72	375.000
860.01	266.667
860.31	975.000
860.60	290.000
860.90	400.000
861.20	192.308
861.49	342.857
861.79	-3300.000
862.08	442.857
862.38	288.889
862.67	207.143
862.97	290.000
863.26	133.333
863.56	575.000
863.85	276.923
864.15	182.353
864.44	161.111
864.74	316.667
865.03	290.909
865.33	387.500
865.62	253.333
865.92	500.000
866.21	750.000
866.51	640.000
866.80	183.333
867.10	700.000
867.39	2800.000
867.69	600.000
867.98	875.000
868.27	190.476
868.57	206.667
868.86	850.000
869.16	142.857
869.45	3500.000
869.75	-283.333
870.04	500.000
870.33	520.000
870.63	350.000
870.92	170.588
871.22	600.000
871.51	414.286
871.80	333.333
872.10	276.923
>>>>>End Processed Spectral Data<<<<<
