SpectraSuite Data File
++++++++++++++++++++++++++++++++++++
Date: Wed May 13 21:51:50 PDT 2015
User: schluterlab
Dark Spectrum Present: Yes
Reference Spectrum Present: Yes
Number of Sampled Component Spectra: 1
Spectrometers: USB2E3373
Integration Time (usec): 3000 (USB2E3373)
Spectra Averaged: 3 (USB2E3373)
Boxcar Smoothing: 0 (USB2E3373)
Correct for Electrical Dark: No (USB2E3373)
Strobe/Lamp Enabled: No (USB2E3373)
Correct for Detector Non-linearity: No (USB2E3373)
Correct for Stray Light: No (USB2E3373)
Number of Pixels in Processed Spectrum: 2048
>>>>>Begin Processed Spectral Data<<<<<
178.53	0.000
178.91	600.000
179.29	150.000
179.67	-1150.000
180.04	-466.667
180.42	180.000
180.80	2000.000
181.18	316.667
181.56	-300.000
181.94	-200.000
182.31	-27.273
182.69	130.769
183.07	-220.000
183.45	266.667
183.83	255.556
184.20	285.714
184.58	-366.667
184.96	533.333
185.34	100.000
185.72	0.000
186.09	-1300.000
186.47	-200.000
186.85	140.000
187.23	-250.000
187.61	750.000
187.98	2400.000
188.36	37.500
188.74	0.000
189.12	-118.182
189.49	10.000
189.87	116.667
190.25	360.000
190.63	1000.000
191.00	-340.000
191.38	360.000
191.76	450.000
192.14	133.333
192.51	-78.947
192.89	533.333
193.27	350.000
193.65	-280.000
194.02	145.455
194.40	200.000
194.78	-100.000
195.15	300.000
195.53	-200.000
195.91	-50.000
196.29	-266.667
196.66	0.000
197.04	350.000
197.42	60.000
197.79	-100.000
198.17	-162.500
198.55	-233.333
198.92	200.000
199.30	-433.333
199.68	-20.000
200.05	550.000
200.43	200.000
200.81	-1200.000
201.18	-220.000
201.56	-200.000
201.94	750.000
202.31	-13.043
202.69	-128.571
203.07	-500.000
203.44	-240.000
203.82	-533.333
204.19	-130.000
204.57	0.000
204.95	-150.000
205.32	0.000
205.70	-450.000
206.08	-75.000
206.45	-233.333
206.83	425.000
207.20	-66.667
207.58	-120.000
207.96	-2000.000
208.33	-285.714
208.71	-2400.000
209.08	212.500
209.46	400.000
209.84	0.000
210.21	180.000
210.59	2200.000
210.96	460.000
211.34	700.000
211.71	-1350.000
212.09	-233.333
212.46	-130.000
212.84	-166.667
213.22	-200.000
213.59	-500.000
213.97	-650.000
214.34	-850.000
214.72	-38.462
215.09	225.000
215.47	111.111
215.84	650.000
216.22	-137.500
216.59	-550.000
216.97	666.667
217.34	211.111
217.72	0.000
218.09	633.333
218.47	-300.000
218.84	-28.571
219.22	12.500
219.59	-500.000
219.97	-350.000
220.34	-112.500
220.72	-140.000
221.09	0.000
221.47	-100.000
221.84	-1000.000
222.22	0.000
222.59	500.000
222.97	-233.333
223.34	-100.000
223.72	-1600.000
224.09	-1000.000
224.46	-118.182
224.84	-62.500
225.21	-157.143
225.59	-550.000
225.96	-150.000
226.34	-100.000
226.71	-200.000
227.08	600.000
227.46	-75.000
227.83	-500.000
228.21	-37.500
228.58	-425.000
228.95	-17.647
229.33	-43.750
229.70	-125.000
230.08	-92.308
230.45	-212.500
230.82	-100.000
231.20	71.429
231.57	-75.000
231.95	1700.000
232.32	0.000
232.69	-58.824
233.07	-400.000
233.44	-73.913
233.81	-700.000
234.19	-8.333
234.56	-100.000
234.93	0.000
235.31	-36.842
235.68	-92.308
236.05	-38.462
236.43	-11.111
236.80	3.030
237.17	-46.667
237.55	-11.765
237.92	-41.379
238.29	-55.556
238.67	-11.111
239.04	-35.484
239.41	-12.766
239.79	27.660
240.16	6.977
240.53	5.357
240.91	14.286
241.28	8.929
241.65	9.677
242.02	10.526
242.40	10.145
242.77	4.348
243.14	12.821
243.51	14.894
243.89	22.115
244.26	27.358
244.63	19.231
245.00	19.792
245.38	17.647
245.75	22.951
246.12	12.030
246.49	27.642
246.87	6.723
247.24	21.622
247.61	23.179
247.98	14.744
248.36	23.669
248.73	23.596
249.10	19.192
249.47	16.129
249.84	24.737
250.22	23.383
250.59	18.692
250.96	25.455
251.33	13.876
251.70	26.778
252.08	17.573
252.45	21.811
252.82	22.814
253.19	19.455
253.56	24.101
253.94	22.776
254.31	25.000
254.68	24.497
255.05	26.073
255.42	21.329
255.79	20.552
256.16	26.183
256.54	20.000
256.91	23.734
257.28	25.157
257.65	24.522
258.02	23.754
258.39	28.363
258.76	21.512
259.14	22.443
259.51	20.506
259.88	24.661
260.25	25.278
260.62	22.191
260.99	23.607
261.36	23.575
261.73	22.716
262.10	24.427
262.47	21.975
262.85	25.373
263.22	24.615
263.59	23.377
263.96	23.358
264.33	23.077
264.70	23.721
265.07	22.685
265.44	25.977
265.81	25.629
266.18	26.879
266.55	22.271
266.92	23.305
267.29	24.486
267.66	25.690
268.03	26.749
268.40	25.424
268.77	24.793
269.14	25.306
269.51	27.721
269.88	24.847
270.25	26.907
270.62	24.180
270.99	23.622
271.36	22.421
271.73	23.896
272.10	24.571
272.47	26.104
272.84	24.803
273.21	23.288
273.58	26.434
273.95	21.887
274.32	25.933
274.69	24.226
275.06	24.912
275.43	23.164
275.80	23.582
276.17	23.020
276.54	23.801
276.91	24.390
277.28	24.368
277.65	26.049
278.02	25.179
278.39	21.314
278.76	25.585
279.13	22.985
279.50	23.103
279.87	25.362
280.23	25.586
280.60	23.702
280.97	23.214
281.34	24.132
281.71	23.577
282.08	23.077
282.45	25.410
282.82	23.323
283.19	26.067
283.56	24.688
283.92	24.465
284.29	23.401
284.66	23.888
285.03	21.824
285.40	22.810
285.77	24.024
286.14	23.100
286.51	24.588
286.87	22.923
287.24	20.796
287.61	24.699
287.98	22.500
288.35	22.802
288.72	23.386
289.08	23.362
289.45	22.761
289.82	22.239
290.19	22.581
290.56	22.869
290.93	20.442
291.29	22.298
291.66	22.131
292.03	23.161
292.40	21.534
292.77	20.616
293.13	22.594
293.50	21.830
293.87	20.667
294.24	20.899
294.60	21.326
294.97	21.296
295.34	21.108
295.71	19.448
296.08	21.204
296.44	20.791
296.81	19.001
297.18	21.250
297.55	20.519
297.91	20.870
298.28	20.581
298.65	19.458
299.02	20.391
299.38	19.509
299.75	19.231
300.12	18.837
300.48	19.298
300.85	18.707
301.22	18.931
301.59	18.192
301.95	19.396
302.32	18.670
302.69	18.418
303.05	18.272
303.42	20.114
303.79	17.455
304.15	18.620
304.52	17.849
304.89	18.826
305.25	18.551
305.62	19.306
305.99	19.260
306.35	19.227
306.72	18.515
307.09	19.187
307.45	17.998
307.82	18.737
308.19	16.823
308.55	19.038
308.92	19.057
309.29	18.018
309.65	17.982
310.02	18.191
310.38	19.106
310.75	16.963
311.12	17.493
311.48	17.409
311.85	17.815
312.22	18.569
312.58	17.681
312.95	16.915
313.31	18.365
313.68	18.225
314.05	18.998
314.41	18.732
314.78	19.070
315.14	18.704
315.51	19.029
315.87	19.555
316.24	19.376
316.61	18.082
316.97	18.241
317.34	17.469
317.70	18.376
318.07	18.722
318.43	17.977
318.80	17.888
319.16	18.833
319.53	18.280
319.89	20.054
320.26	19.316
320.62	18.999
320.99	18.217
321.35	17.212
321.72	18.094
322.08	19.373
322.45	19.889
322.81	19.963
323.18	18.068
323.54	18.412
323.91	18.248
324.27	19.262
324.64	17.857
325.00	18.023
325.37	18.942
325.73	18.519
326.10	18.839
326.46	19.147
326.83	18.689
327.19	19.024
327.56	19.420
327.92	18.906
328.29	19.199
328.65	20.596
329.01	18.470
329.38	20.174
329.74	19.485
330.11	19.026
330.47	17.882
330.84	18.321
331.20	19.129
331.56	19.565
331.93	18.777
332.29	19.983
332.66	18.390
333.02	19.374
333.38	17.632
333.75	18.771
334.11	18.490
334.48	18.134
334.84	17.580
335.20	19.640
335.57	19.495
335.93	18.127
336.29	17.688
336.66	18.291
337.02	18.435
337.38	17.755
337.75	18.088
338.11	17.592
338.47	18.065
338.84	17.440
339.20	17.989
339.56	18.259
339.93	18.842
340.29	18.019
340.65	18.221
341.02	17.554
341.38	19.257
341.74	16.807
342.11	16.598
342.47	17.657
342.83	17.810
343.20	17.851
343.56	17.989
343.92	18.522
344.28	17.857
344.65	17.551
345.01	18.321
345.37	18.832
345.73	18.301
346.10	18.218
346.46	17.073
346.82	17.014
347.19	17.089
347.55	17.528
347.91	16.758
348.27	17.350
348.63	18.269
349.00	17.846
349.36	17.425
349.72	17.633
350.08	16.225
350.45	17.384
350.81	17.371
351.17	18.245
351.53	16.496
351.89	16.124
352.26	15.985
352.62	17.442
352.98	16.693
353.34	17.633
353.70	18.224
354.07	17.961
354.43	16.563
354.79	17.949
355.15	17.857
355.51	16.705
355.87	16.654
356.24	16.934
356.60	16.419
356.96	16.807
357.32	17.492
357.68	17.494
358.04	16.990
358.40	17.907
358.77	17.508
359.13	16.498
359.49	17.335
359.85	16.907
360.21	16.114
360.57	16.654
360.93	16.388
361.29	17.839
361.66	17.312
362.02	16.234
362.38	16.617
362.74	16.026
363.10	16.920
363.46	15.994
363.82	17.886
364.18	17.041
364.54	16.265
364.90	17.213
365.26	15.853
365.62	16.903
365.98	16.157
366.35	17.376
366.71	16.619
367.07	16.938
367.43	16.934
367.79	16.748
368.15	16.948
368.51	16.456
368.87	16.748
369.23	16.797
369.59	16.490
369.95	16.183
370.31	16.876
370.67	16.510
371.03	17.372
371.39	16.537
371.75	16.643
372.11	16.809
372.47	16.222
372.83	17.614
373.19	16.763
373.55	16.040
373.91	16.902
374.27	16.044
374.63	16.856
374.99	15.877
375.35	17.192
375.71	15.761
376.07	17.341
376.42	17.112
376.78	17.635
377.14	17.831
377.50	16.232
377.86	16.534
378.22	16.814
378.58	17.465
378.94	17.437
379.30	17.177
379.66	16.646
380.02	16.605
380.38	16.867
380.74	17.932
381.09	16.707
381.45	16.505
381.81	16.636
382.17	16.446
382.53	16.923
382.89	16.405
383.25	16.235
383.61	17.494
383.97	15.937
384.32	16.572
384.68	17.150
385.04	16.005
385.40	17.435
385.76	17.518
386.12	16.720
386.48	15.987
386.83	16.521
387.19	16.841
387.55	17.106
387.91	16.359
388.27	16.400
388.62	16.604
388.98	17.209
389.34	17.231
389.70	15.873
390.06	16.250
390.42	17.590
390.77	16.208
391.13	16.793
391.49	16.129
391.85	16.358
392.20	16.165
392.56	17.270
392.92	17.554
393.28	16.676
393.64	15.902
393.99	15.789
394.35	16.728
394.71	16.346
395.07	15.283
395.42	16.941
395.78	16.216
396.14	16.867
396.50	16.550
396.85	17.081
397.21	16.167
397.57	17.019
397.92	16.407
398.28	16.300
398.64	16.879
399.00	16.629
399.35	17.083
399.71	16.366
400.07	16.325
400.42	16.176
400.78	16.677
401.14	16.370
401.49	15.878
401.85	16.708
402.21	16.842
402.57	17.167
402.92	17.522
403.28	16.260
403.63	16.863
403.99	15.931
404.35	15.898
404.70	15.831
405.06	17.029
405.42	15.892
405.77	16.302
406.13	16.000
406.49	15.159
406.84	16.606
407.20	15.749
407.55	16.883
407.91	15.420
408.27	16.344
408.62	16.329
408.98	15.536
409.34	16.894
409.69	17.154
410.05	16.418
410.40	15.642
410.76	16.727
411.11	16.418
411.47	16.390
411.83	16.220
412.18	16.247
412.54	16.855
412.89	15.799
413.25	15.870
413.60	15.737
413.96	16.167
414.31	16.153
414.67	16.000
415.03	15.020
415.38	16.248
415.74	16.439
416.09	16.523
416.45	15.858
416.80	15.570
417.16	16.059
417.51	16.410
417.87	15.873
418.22	15.966
418.58	16.032
418.93	15.756
419.29	16.436
419.64	16.858
420.00	16.698
420.35	16.198
420.71	16.027
421.06	16.236
421.42	16.910
421.77	16.474
422.12	14.900
422.48	16.085
422.83	17.307
423.19	15.526
423.54	17.256
423.90	15.499
424.25	16.233
424.61	15.712
424.96	16.144
425.31	16.096
425.67	16.520
426.02	17.020
426.38	16.169
426.73	15.516
427.09	15.885
427.44	16.089
427.79	16.390
428.15	16.636
428.50	15.770
428.85	16.421
429.21	15.363
429.56	16.897
429.92	16.398
430.27	16.053
430.62	16.789
430.98	15.970
431.33	16.497
431.68	16.241
432.04	16.056
432.39	15.531
432.74	16.309
433.10	17.548
433.45	16.391
433.80	16.264
434.16	15.838
434.51	15.924
434.86	15.901
435.22	16.582
435.57	16.400
435.92	15.802
436.28	15.495
436.63	16.282
436.98	15.452
437.34	16.667
437.69	15.525
438.04	16.016
438.39	16.812
438.75	16.150
439.10	16.657
439.45	15.920
439.81	16.502
440.16	17.681
440.51	16.468
440.86	16.005
441.22	15.720
441.57	16.540
441.92	16.174
442.27	14.935
442.63	15.985
442.98	16.146
443.33	17.212
443.68	14.918
444.03	16.493
444.39	17.005
444.74	16.289
445.09	16.355
445.44	16.394
445.79	15.694
446.15	16.306
446.50	15.804
446.85	16.195
447.20	16.466
447.55	16.452
447.91	16.292
448.26	15.666
448.61	16.053
448.96	16.686
449.31	16.448
449.66	16.484
450.02	16.430
450.37	16.804
450.72	16.188
451.07	16.176
451.42	15.596
451.77	15.642
452.12	16.162
452.47	15.365
452.83	15.507
453.18	17.250
453.53	15.889
453.88	16.988
454.23	15.946
454.58	16.054
454.93	16.292
455.28	15.864
455.63	15.845
455.98	16.494
456.34	15.957
456.69	16.805
457.04	16.780
457.39	15.755
457.74	16.218
458.09	16.647
458.44	15.276
458.79	16.420
459.14	15.843
459.49	16.159
459.84	16.404
460.19	15.126
460.54	16.667
460.89	15.878
461.24	16.030
461.59	16.304
461.94	16.877
462.29	15.441
462.64	16.293
462.99	16.298
463.34	17.403
463.69	16.302
464.04	15.966
464.39	16.534
464.74	16.400
465.09	16.367
465.44	15.657
465.79	17.539
466.14	16.192
466.49	16.598
466.84	16.916
467.19	16.497
467.54	16.980
467.89	16.530
468.24	16.349
468.59	15.806
468.94	16.603
469.29	16.788
469.64	16.248
469.99	17.241
470.34	16.453
470.68	16.059
471.03	15.797
471.38	17.038
471.73	15.432
472.08	16.564
472.43	16.491
472.78	16.227
473.13	15.633
473.48	15.134
473.83	16.635
474.17	16.732
474.52	16.699
474.87	15.742
475.22	16.787
475.57	16.843
475.92	16.140
476.27	16.142
476.61	16.082
476.96	16.562
477.31	16.181
477.66	16.158
478.01	16.154
478.36	16.131
478.70	16.327
479.05	16.482
479.40	16.485
479.75	15.940
480.10	16.726
480.45	16.282
480.79	16.575
481.14	16.312
481.49	16.823
481.84	16.117
482.19	16.674
482.53	15.810
482.88	16.587
483.23	15.159
483.58	16.588
483.92	16.051
484.27	16.102
484.62	16.023
484.97	16.591
485.31	16.233
485.66	16.386
486.01	16.823
486.36	16.782
486.70	16.657
487.05	16.743
487.40	16.369
487.75	16.365
488.09	15.796
488.44	16.018
488.79	16.162
489.13	16.382
489.48	16.204
489.83	17.106
490.17	15.570
490.52	16.971
490.87	16.134
491.22	16.769
491.56	16.723
491.91	16.419
492.26	16.006
492.60	16.402
492.95	16.910
493.30	16.909
493.64	16.307
493.99	16.425
494.34	16.281
494.68	16.659
495.03	15.711
495.37	16.350
495.72	16.291
496.07	16.707
496.41	16.565
496.76	16.362
497.11	16.667
497.45	16.877
497.80	16.557
498.14	17.028
498.49	16.339
498.84	16.549
499.18	15.630
499.53	16.100
499.87	16.012
500.22	16.675
500.56	16.449
500.91	16.600
501.26	15.813
501.60	16.225
501.95	16.195
502.29	16.262
502.64	16.972
502.98	16.956
503.33	15.766
503.67	16.796
504.02	16.422
504.36	16.543
504.71	15.701
505.06	16.811
505.40	16.701
505.75	16.429
506.09	17.476
506.44	16.431
506.78	17.115
507.13	16.632
507.47	15.854
507.82	16.379
508.16	16.201
508.51	16.632
508.85	16.122
509.19	16.508
509.54	17.319
509.88	16.667
510.23	16.211
510.57	17.320
510.92	16.756
511.26	16.612
511.61	16.795
511.95	16.593
512.30	15.991
512.64	17.140
512.98	16.676
513.33	16.338
513.67	15.673
514.02	17.104
514.36	16.517
514.70	16.917
515.05	17.262
515.39	16.804
515.74	16.637
516.08	15.988
516.42	16.014
516.77	17.458
517.11	16.696
517.46	16.267
517.80	17.373
518.14	16.105
518.49	16.878
518.83	16.527
519.17	17.229
519.52	17.129
519.86	17.547
520.20	15.403
520.55	16.231
520.89	16.129
521.23	16.474
521.58	17.193
521.92	16.782
522.26	15.940
522.61	17.324
522.95	16.904
523.29	17.333
523.64	16.529
523.98	16.518
524.32	16.761
524.66	16.753
525.01	17.431
525.35	16.919
525.69	17.230
526.04	17.524
526.38	17.463
526.72	17.028
527.06	16.505
527.41	16.744
527.75	16.222
528.09	16.746
528.43	17.096
528.78	16.473
529.12	17.076
529.46	17.083
529.80	17.346
530.15	16.152
530.49	17.520
530.83	17.400
531.17	17.466
531.51	15.644
531.86	16.802
532.20	16.609
532.54	16.345
532.88	16.678
533.22	16.902
533.57	17.351
533.91	17.484
534.25	17.188
534.59	16.281
534.93	17.602
535.27	17.898
535.62	16.382
535.96	17.306
536.30	17.620
536.64	15.106
536.98	15.767
537.32	16.940
537.66	16.714
538.01	16.505
538.35	16.298
538.69	17.191
539.03	17.114
539.37	16.231
539.71	16.917
540.05	16.194
540.39	16.311
540.73	16.830
541.07	16.531
541.42	17.172
541.76	16.441
542.10	16.994
542.44	15.731
542.78	17.280
543.12	16.173
543.46	16.517
543.80	16.090
544.14	17.343
544.48	16.987
544.82	17.081
545.16	17.782
545.50	17.151
545.84	16.830
546.18	17.391
546.52	16.373
546.86	16.396
547.20	16.297
547.54	16.583
547.88	16.329
548.22	16.612
548.56	16.744
548.90	17.118
549.24	17.569
549.58	16.085
549.92	16.875
550.26	16.974
550.60	16.216
550.94	16.493
551.28	16.578
551.62	16.617
551.96	16.837
552.30	16.667
552.64	15.607
552.98	16.690
553.32	16.438
553.66	16.581
554.00	16.703
554.34	16.190
554.68	18.419
555.02	16.168
555.36	17.322
555.69	16.606
556.03	16.440
556.37	16.074
556.71	17.309
557.05	16.531
557.39	15.750
557.73	17.322
558.07	15.599
558.41	16.048
558.75	16.782
559.08	15.638
559.42	16.994
559.76	16.743
560.10	17.141
560.44	17.097
560.78	16.331
561.12	16.748
561.45	17.075
561.79	15.543
562.13	16.948
562.47	16.500
562.81	16.162
563.15	16.218
563.48	16.036
563.82	17.031
564.16	16.791
564.50	16.825
564.84	16.149
565.17	17.682
565.51	16.912
565.85	16.589
566.19	17.020
566.52	16.579
566.86	16.372
567.20	17.471
567.54	16.868
567.88	16.629
568.21	16.839
568.55	16.641
568.89	15.852
569.23	17.003
569.56	16.896
569.90	16.641
570.24	16.137
570.57	17.230
570.91	16.811
571.25	16.720
571.59	17.258
571.92	16.750
572.26	16.721
572.60	16.292
572.93	16.745
573.27	16.216
573.61	16.902
573.95	16.579
574.28	16.963
574.62	16.416
574.96	16.560
575.29	16.650
575.63	16.702
575.97	16.440
576.30	16.300
576.64	16.662
576.98	16.246
577.31	17.032
577.65	16.501
577.98	16.884
578.32	16.796
578.66	16.577
578.99	16.714
579.33	16.392
579.67	16.293
580.00	16.348
580.34	16.335
580.67	16.487
581.01	16.581
581.35	16.781
581.68	17.017
582.02	17.315
582.35	16.906
582.69	16.676
583.02	16.663
583.36	16.137
583.70	16.603
584.03	16.527
584.37	16.148
584.70	16.538
585.04	16.542
585.37	16.379
585.71	16.498
586.04	16.491
586.38	16.364
586.72	16.493
587.05	17.033
587.39	17.024
587.72	16.835
588.06	16.881
588.39	16.121
588.73	16.546
589.06	16.360
589.40	15.927
589.73	15.954
590.07	16.551
590.40	16.282
590.73	16.329
591.07	16.381
591.40	16.087
591.74	16.185
592.07	16.568
592.41	16.517
592.74	16.551
593.08	16.513
593.41	17.020
593.75	16.279
594.08	16.753
594.41	16.307
594.75	16.529
595.08	16.131
595.42	15.963
595.75	16.667
596.09	15.858
596.42	15.972
596.75	16.498
597.09	17.061
597.42	17.003
597.75	17.067
598.09	16.621
598.42	16.421
598.76	16.625
599.09	17.007
599.42	17.032
599.76	16.673
600.09	16.378
600.42	16.384
600.76	16.371
601.09	16.648
601.42	16.111
601.76	16.100
602.09	16.417
602.42	16.508
602.76	15.856
603.09	16.304
603.42	16.873
603.76	16.758
604.09	16.364
604.42	16.367
604.76	16.194
605.09	15.904
605.42	16.509
605.75	15.803
606.09	15.894
606.42	17.207
606.75	15.628
607.09	15.869
607.42	15.981
607.75	15.624
608.08	16.546
608.42	16.729
608.75	15.862
609.08	15.875
609.41	15.946
609.75	15.633
610.08	16.568
610.41	16.084
610.74	16.554
611.07	15.782
611.41	16.633
611.74	16.615
612.07	16.258
612.40	16.811
612.73	16.740
613.07	15.632
613.40	16.024
613.73	16.522
614.06	16.142
614.39	15.564
614.72	16.546
615.06	16.667
615.39	15.673
615.72	15.767
616.05	15.935
616.38	15.979
616.71	16.077
617.05	16.093
617.38	16.266
617.71	16.299
618.04	15.539
618.37	15.584
618.70	15.395
619.03	16.357
619.36	15.018
619.69	15.643
620.03	15.618
620.36	15.031
620.69	15.275
621.02	15.000
621.35	14.391
621.68	14.833
622.01	15.777
622.34	15.781
622.67	16.601
623.00	16.793
623.33	16.230
623.66	15.613
623.99	16.279
624.32	15.627
624.65	16.024
624.99	15.430
625.32	16.804
625.65	15.659
625.98	16.035
626.31	15.918
626.64	16.509
626.97	16.782
627.30	16.938
627.63	15.484
627.96	14.805
628.29	16.372
628.62	16.538
628.95	16.132
629.28	15.665
629.61	17.129
629.94	16.151
630.26	16.552
630.59	15.784
630.92	15.663
631.25	15.448
631.58	16.916
631.91	16.119
632.24	15.258
632.57	13.556
632.90	15.169
633.23	14.988
633.56	17.506
633.89	16.148
634.22	16.608
634.55	15.347
634.88	15.686
635.20	16.375
635.53	15.504
635.86	14.872
636.19	16.377
636.52	15.000
636.85	17.491
637.18	14.738
637.51	15.356
637.83	15.535
638.16	14.133
638.49	14.286
638.82	16.209
639.15	16.223
639.48	15.107
639.81	15.833
640.13	15.352
640.46	15.819
640.79	14.532
641.12	14.349
641.45	14.265
641.77	15.169
642.10	14.977
642.43	16.509
642.76	14.511
643.09	13.259
643.41	14.514
643.74	15.024
644.07	12.945
644.40	16.584
644.73	14.237
645.05	12.740
645.38	13.455
645.71	15.136
646.04	12.963
646.36	14.063
646.69	13.811
647.02	16.029
647.35	15.905
647.67	14.972
648.00	14.312
648.33	16.949
648.66	14.524
648.98	12.578
649.31	15.031
649.64	14.241
649.96	16.588
650.29	14.542
650.62	14.003
650.94	13.621
651.27	14.841
651.60	14.336
651.92	14.875
652.25	16.918
652.58	15.512
652.90	13.131
653.23	13.073
653.56	12.727
653.88	13.652
654.21	12.799
654.54	13.787
654.86	13.659
655.19	13.025
655.52	19.084
655.84	18.349
656.17	22.091
656.49	28.044
656.82	26.672
657.15	18.894
657.47	13.736
657.80	10.029
658.13	10.454
658.45	14.382
658.78	14.576
659.10	14.351
659.43	13.579
659.75	13.985
660.08	12.414
660.41	12.982
660.73	13.361
661.06	13.095
661.38	13.178
661.71	16.803
662.03	16.913
662.36	11.726
662.68	13.978
663.01	16.525
663.33	14.687
663.66	11.086
663.98	15.056
664.31	14.505
664.63	13.288
664.96	14.661
665.28	14.807
665.61	13.175
665.93	14.561
666.26	16.245
666.58	14.561
666.91	13.453
667.23	12.903
667.56	12.644
667.88	11.449
668.21	14.063
668.53	15.172
668.86	10.791
669.18	12.766
669.50	15.207
669.83	14.558
670.15	13.095
670.48	13.563
670.80	16.630
671.13	13.272
671.45	14.840
671.77	14.224
672.10	14.230
672.42	15.840
672.75	13.214
673.07	15.818
673.39	14.739
673.72	13.373
674.04	13.525
674.37	14.431
674.69	10.700
675.01	13.889
675.34	15.317
675.66	16.340
675.98	13.717
676.31	11.765
676.63	15.873
676.95	11.294
677.28	14.450
677.60	14.951
677.92	15.078
678.25	15.835
678.57	16.904
678.89	11.514
679.22	13.043
679.54	13.061
679.86	16.211
680.18	13.846
680.51	13.269
680.83	12.476
681.15	14.735
681.48	15.030
681.80	13.088
682.12	11.458
682.44	12.877
682.77	10.526
683.09	13.393
683.41	11.395
683.73	13.839
684.06	13.496
684.38	12.607
684.70	12.220
685.02	14.876
685.34	15.851
685.67	14.071
685.99	14.057
686.31	15.345
686.63	14.522
686.96	16.512
687.28	14.770
687.60	16.824
687.92	17.121
688.24	13.000
688.56	12.939
688.89	10.245
689.21	11.435
689.53	13.063
689.85	13.483
690.17	14.286
690.49	14.251
690.82	11.456
691.14	14.251
691.46	13.689
691.78	14.066
692.10	13.163
692.42	13.626
692.74	15.652
693.06	11.910
693.39	11.944
693.71	14.889
694.03	15.682
694.35	15.315
694.67	12.750
694.99	17.010
695.31	10.594
695.63	14.390
695.95	13.995
696.27	13.151
696.59	14.247
696.91	10.335
697.23	11.421
697.56	11.990
697.88	16.840
698.20	14.903
698.52	12.383
698.84	12.679
699.16	15.603
699.48	13.580
699.80	17.054
700.12	14.745
700.44	12.394
700.76	10.393
701.08	12.689
701.40	16.467
701.72	11.692
702.04	12.264
702.36	12.195
702.68	10.061
703.00	13.158
703.32	13.370
703.64	13.253
703.96	11.144
704.28	12.651
704.60	14.024
704.91	10.972
705.23	15.506
705.55	11.379
705.87	13.028
706.19	12.454
706.51	9.859
706.83	12.102
707.15	13.110
707.47	12.397
707.79	14.213
708.11	14.396
708.43	14.467
708.74	11.968
709.06	10.695
709.38	12.680
709.70	14.715
710.02	9.657
710.34	11.667
710.66	11.401
710.98	14.861
711.29	11.364
711.61	10.000
711.93	12.258
712.25	13.287
712.57	10.175
712.89	6.960
713.20	13.121
713.52	10.949
713.84	14.839
714.16	11.650
714.48	10.127
714.80	12.780
715.11	17.442
715.43	11.491
715.75	17.081
716.07	13.554
716.39	11.111
716.70	15.468
717.02	7.059
717.34	11.742
717.66	6.897
717.97	6.746
718.29	11.024
718.61	9.871
718.93	8.140
719.24	9.594
719.56	10.487
719.88	13.806
720.20	9.091
720.51	11.719
720.83	13.230
721.15	8.943
721.46	11.069
721.78	14.343
722.10	7.171
722.42	8.871
722.73	11.969
723.05	13.469
723.37	15.966
723.68	8.800
724.00	6.809
724.32	11.297
724.63	10.700
724.95	8.547
725.27	13.924
725.58	13.169
725.90	11.715
726.22	14.855
726.53	7.451
726.85	9.854
727.16	13.333
727.48	13.793
727.80	13.281
728.11	11.475
728.43	14.453
728.74	13.095
729.06	5.600
729.38	13.439
729.69	16.014
730.01	12.268
730.32	13.653
730.64	9.470
730.96	17.832
731.27	10.033
731.59	13.968
731.90	9.709
732.22	8.654
732.53	10.811
732.85	12.416
733.16	14.191
733.48	11.149
733.80	11.149
734.11	17.905
734.43	13.622
734.74	16.817
735.06	15.562
735.37	12.158
735.69	7.767
736.00	12.541
736.32	14.184
736.63	11.724
736.95	14.384
737.26	7.241
737.58	13.889
737.89	12.027
738.21	11.744
738.52	11.027
738.83	15.102
739.15	7.595
739.46	9.728
739.78	11.972
740.09	12.329
740.41	11.786
740.72	11.702
741.04	7.600
741.35	7.895
741.66	12.889
741.98	15.865
742.29	16.337
742.61	10.732
742.92	14.474
743.23	8.491
743.55	13.964
743.86	9.865
744.18	11.275
744.49	12.183
744.80	13.265
745.12	8.411
745.43	10.900
745.74	11.712
746.06	13.551
746.37	7.339
746.68	11.058
747.00	11.962
747.31	14.904
747.62	11.009
747.94	11.790
748.25	11.009
748.56	14.667
748.88	13.615
749.19	12.381
749.50	6.311
749.82	7.042
750.13	7.917
750.44	10.769
750.75	7.380
751.07	13.523
751.38	10.993
751.69	13.127
752.01	14.063
752.32	9.615
752.63	13.433
752.94	16.000
753.26	11.715
753.57	9.583
753.88	7.692
754.19	7.968
754.51	15.789
754.82	8.425
755.13	6.087
755.44	10.569
755.75	8.800
756.07	7.011
756.38	12.230
756.69	12.969
757.00	11.215
757.31	14.887
757.63	14.198
757.94	14.124
758.25	14.815
758.56	11.685
758.87	15.476
759.18	14.511
759.50	11.785
759.81	15.050
760.12	12.923
760.43	8.036
760.74	14.972
761.05	13.260
761.36	10.602
761.67	9.366
761.99	9.966
762.30	9.854
762.61	9.877
762.92	12.393
763.23	12.295
763.54	13.420
763.85	15.102
764.16	4.878
764.47	10.400
764.78	13.929
765.10	12.131
765.41	13.070
765.72	12.112
766.03	12.871
766.34	12.308
766.65	9.623
766.96	10.329
767.27	11.881
767.58	1.124
767.89	14.198
768.20	3.315
768.51	12.563
768.82	12.019
769.13	11.504
769.44	15.481
769.75	8.120
770.06	12.108
770.37	7.843
770.68	10.194
770.99	9.223
771.30	12.605
771.61	9.796
771.92	12.863
772.23	12.613
772.54	1.657
772.85	10.465
773.16	14.815
773.47	4.734
773.78	11.494
774.09	10.000
774.39	9.938
774.70	6.803
775.01	6.897
775.32	7.857
775.63	6.015
775.94	-5.263
776.25	0.000
776.56	2.479
776.87	8.730
777.18	-3.604
777.48	5.405
777.79	3.937
778.10	9.174
778.41	7.018
778.72	0.840
779.03	2.817
779.34	22.297
779.65	8.451
779.95	9.272
780.26	3.597
780.57	12.230
780.88	11.268
781.19	-4.202
781.50	10.067
781.80	9.357
782.11	4.651
782.42	16.981
782.73	14.379
783.04	6.897
783.34	0.000
783.65	7.383
783.96	6.154
784.27	12.143
784.57	2.128
784.88	-4.808
785.19	14.545
785.50	8.182
785.81	-5.714
786.11	8.403
786.42	9.735
786.73	11.321
787.04	3.670
787.34	-4.950
787.65	17.500
787.96	11.570
788.26	13.768
788.57	7.143
788.88	8.943
789.19	2.400
789.49	3.817
789.80	12.879
790.11	6.604
790.41	7.921
790.72	17.021
791.03	-3.261
791.33	-11.765
791.64	8.642
791.95	6.522
792.25	17.045
792.56	20.513
792.87	-8.974
793.17	-12.821
793.48	-10.714
793.79	-6.250
794.09	11.538
794.40	14.583
794.70	11.712
795.01	-1.562
795.32	-0.870
795.62	-1.087
795.93	2.830
796.23	4.040
796.54	-1.220
796.85	5.952
797.15	-15.152
797.46	-4.348
797.76	-2.632
798.07	-1.136
798.37	-8.537
798.68	3.226
798.99	4.054
799.29	18.072
799.60	3.846
799.90	1.538
800.21	9.091
800.51	-4.000
800.82	-8.000
801.12	-27.083
801.43	-13.333
801.73	9.459
802.04	18.571
802.34	-9.836
802.65	11.940
802.95	-1.818
803.26	0.000
803.56	4.615
803.87	18.868
804.17	-4.839
804.48	11.765
804.78	-26.829
805.09	13.043
805.39	-7.353
805.70	-42.553
806.00	-1.754
806.30	1.282
806.61	5.263
806.91	13.514
807.22	6.579
807.52	6.818
807.83	-13.559
808.13	-1.515
808.43	3.333
808.74	-18.966
809.04	-11.111
809.35	-8.163
809.65	-10.000
809.95	-44.898
810.26	5.634
810.56	-22.917
810.86	-12.245
811.17	25.000
811.47	-25.532
811.77	-6.250
812.08	13.208
812.38	-28.125
812.69	9.091
812.99	-21.951
813.29	-16.216
813.59	-48.649
813.90	-18.182
814.20	7.273
814.50	10.000
814.81	-10.909
815.11	-10.526
815.41	6.977
815.72	-7.500
816.02	-28.571
816.32	-32.432
816.62	14.583
816.93	4.444
817.23	-8.889
817.53	-36.111
817.84	-18.919
818.14	-2.439
818.44	14.000
818.74	10.204
819.04	0.000
819.35	-11.111
819.65	-6.818
819.95	-94.444
820.25	-18.182
820.56	-26.190
820.86	-27.778
821.16	-22.727
821.46	-23.913
821.76	-8.621
822.07	-17.391
822.37	-21.212
822.67	-12.195
822.97	-13.514
823.27	-51.429
823.57	-10.345
823.88	-29.412
824.18	-25.000
824.48	-20.000
824.78	-4.762
825.08	7.143
825.38	-3.704
825.69	-25.806
825.99	-29.268
826.29	-7.407
826.59	-31.250
826.89	9.677
827.19	-43.478
827.49	-36.111
827.79	-13.043
828.09	-12.903
828.39	-10.417
828.70	-37.500
829.00	-3.448
829.30	-13.514
829.60	-62.500
829.90	-11.111
830.20	-31.250
830.50	-27.273
830.80	-158.824
831.10	-68.182
831.40	-41.176
831.70	-26.923
832.00	-27.273
832.30	-5.882
832.60	-10.811
832.90	2500.000
833.20	-10.714
833.50	-90.000
833.80	-21.053
834.10	-25.000
834.40	-63.636
834.70	-46.667
835.00	-90.000
835.30	-50.000
835.60	-57.143
835.90	-14.286
836.20	-44.000
836.50	-12.500
836.80	-57.895
837.10	27.027
837.40	-23.333
837.70	-26.087
838.00	4.167
838.30	-15.789
838.60	-210.000
838.90	-200.000
839.19	-83.333
839.49	-61.538
839.79	-21.053
840.09	-200.000
840.39	-120.000
840.69	-72.727
840.99	-28.571
841.29	-66.667
841.59	-84.615
841.88	-60.000
842.18	-42.857
842.48	-33.333
842.78	-171.429
843.08	-135.714
843.38	-137.500
843.68	-81.250
843.97	14.286
844.27	-144.444
844.57	-163.636
844.87	-80.000
845.17	-40.909
845.47	700.000
845.76	-73.333
846.06	-158.333
846.36	-1500.000
846.66	-47.368
846.96	-36.364
847.25	-161.111
847.55	-211.111
847.85	-52.381
848.15	-84.615
848.44	-333.333
848.74	-125.000
849.04	-92.308
849.34	-375.000
849.63	-163.636
849.93	-192.857
850.23	0.000
850.53	-187.500
850.82	-55.556
851.12	-120.000
851.42	-70.588
851.71	-137.500
852.01	-35.294
852.31	-38.462
852.61	800.000
852.90	47.059
853.20	-46.667
853.50	-81.250
853.79	-207.143
854.09	-425.000
854.39	-80.000
854.68	-12.500
854.98	-57.143
855.28	16.000
855.57	-29.167
855.87	-37.500
856.17	-52.000
856.46	-34.375
856.76	0.000
857.05	-8.000
857.35	-41.667
857.65	-52.941
857.94	-166.667
858.24	-108.333
858.53	-10.000
858.83	-127.273
859.13	0.000
859.42	-107.143
859.72	-162.500
860.01	-45.833
860.31	-287.500
860.60	-18.750
860.90	-183.333
861.20	-250.000
861.49	-100.000
861.79	-50.000
862.08	375.000
862.38	-133.333
862.67	457.143
862.97	300.000
863.26	-81.818
863.56	-100.000
863.85	15.789
864.15	-58.824
864.44	-100.000
864.74	-90.000
865.03	-144.444
865.33	-7.143
865.62	135.714
865.92	-26.316
866.21	-66.667
866.51	-72.727
866.80	-100.000
867.10	-137.500
867.39	12.500
867.69	-113.333
867.98	-100.000
868.27	-47.059
868.57	0.000
868.86	1300.000
869.16	-300.000
869.45	-371.429
869.75	750.000
870.04	-40.000
870.33	-2800.000
870.63	-57.895
870.92	-116.667
871.22	-1300.000
871.51	-171.429
871.80	-100.000
872.10	-200.000
>>>>>End Processed Spectral Data<<<<<
