SpectraSuite Data File
++++++++++++++++++++++++++++++++++++
Date: Tue May 12 16:45:57 PDT 2015
User: schluterlab
Dark Spectrum Present: Yes
Reference Spectrum Present: Yes
Number of Sampled Component Spectra: 1
Spectrometers: USB2E3373
Integration Time (usec): 3000 (USB2E3373)
Spectra Averaged: 3 (USB2E3373)
Boxcar Smoothing: 0 (USB2E3373)
Correct for Electrical Dark: No (USB2E3373)
Strobe/Lamp Enabled: No (USB2E3373)
Correct for Detector Non-linearity: No (USB2E3373)
Correct for Stray Light: No (USB2E3373)
Number of Pixels in Processed Spectrum: 2048
>>>>>Begin Processed Spectral Data<<<<<
178.53	0.000
178.91	-233.333
179.29	-700.000
179.67	-2800.000
180.04	-173.333
180.42	750.000
180.80	1400.000
181.18	0.000
181.56	-312.500
181.94	0.000
182.31	1100.000
182.69	-3100.000
183.07	557.143
183.45	-4100.000
183.83	-1450.000
184.20	420.000
184.58	500.000
184.96	-223.077
185.34	-175.000
185.72	1500.000
186.09	-675.000
186.47	-2300.000
186.85	1000.000
187.23	820.000
187.61	1650.000
187.98	412.500
188.36	264.286
188.74	250.000
189.12	325.000
189.49	625.000
189.87	0.000
190.25	375.000
190.63	2000.000
191.00	-266.667
191.38	-4100.000
191.76	-600.000
192.14	550.000
192.51	-3600.000
192.89	1650.000
193.27	1200.000
193.65	-1166.667
194.02	-600.000
194.40	600.000
194.78	-192.857
195.15	273.333
195.53	-3500.000
195.91	-620.000
196.29	3900.000
196.66	268.750
197.04	1075.000
197.42	-1700.000
197.79	650.000
198.17	341.667
198.55	0.000
198.92	414.286
199.30	1166.667
199.68	1600.000
200.05	600.000
200.43	-516.667
200.81	188.889
201.18	2800.000
201.56	225.000
201.94	-800.000
202.31	-225.000
202.69	-380.000
203.07	3500.000
203.44	-616.667
203.82	325.000
204.19	520.000
204.57	-1100.000
204.95	-600.000
205.32	-600.000
205.70	600.000
206.08	875.000
206.45	-633.333
206.83	322.222
207.20	168.421
207.58	366.667
207.96	540.000
208.33	0.000
208.71	585.714
209.08	700.000
209.46	-2700.000
209.84	-600.000
210.21	820.000
210.59	-400.000
210.96	341.667
211.34	-825.000
211.71	345.455
212.09	775.000
212.46	1550.000
212.84	-533.333
213.22	355.556
213.59	-3400.000
213.97	310.000
214.34	800.000
214.72	1300.000
215.09	933.333
215.47	-3700.000
215.84	-330.000
216.22	-350.000
216.59	0.000
216.97	0.000
217.34	1250.000
217.72	-1250.000
218.09	1066.667
218.47	412.500
218.84	925.000
219.22	1200.000
219.59	666.667
219.97	457.143
220.34	344.444
220.72	1200.000
221.09	3400.000
221.47	241.667
221.84	900.000
222.22	300.000
222.59	227.778
222.97	164.286
223.34	275.000
223.72	-1850.000
224.09	900.000
224.46	176.923
224.84	-800.000
225.21	433.333
225.59	300.000
225.96	1400.000
226.34	-720.000
226.71	-825.000
227.08	-420.000
227.46	0.000
227.83	-683.333
228.21	-1700.000
228.58	341.667
228.95	900.000
229.33	444.444
229.70	1100.000
230.08	269.231
230.45	3000.000
230.82	-875.000
231.20	-733.333
231.57	-1200.000
231.95	720.000
232.32	291.667
232.69	516.667
233.07	325.000
233.44	-1550.000
233.81	180.000
234.19	185.185
234.56	212.500
234.93	270.588
235.31	255.000
235.68	268.750
236.05	167.857
236.43	166.667
236.80	300.000
237.17	186.207
237.55	171.875
237.92	145.000
238.29	163.636
238.67	143.750
239.04	156.098
239.41	122.917
239.79	117.500
240.16	129.167
240.53	96.721
240.91	113.043
241.28	110.169
241.65	103.030
242.02	112.676
242.40	117.143
242.77	83.516
243.14	98.734
243.51	83.838
243.89	87.850
244.26	82.243
244.63	89.109
245.00	85.321
245.38	78.814
245.75	81.818
246.12	77.037
246.49	80.142
246.87	76.230
247.24	74.667
247.61	78.125
247.98	72.109
248.36	73.939
248.73	73.469
249.10	79.167
249.47	73.500
249.84	70.647
250.22	78.378
250.59	70.000
250.96	62.025
251.33	67.907
251.70	69.196
252.08	69.748
252.45	63.347
252.82	65.779
253.19	69.565
253.56	67.692
253.94	64.130
254.31	70.543
254.68	64.808
255.05	63.793
255.42	64.964
255.79	62.866
256.16	66.780
256.54	62.338
256.91	70.261
257.28	66.221
257.65	58.307
258.02	63.422
258.39	61.605
258.76	60.000
259.14	62.857
259.51	64.723
259.88	65.957
260.25	62.912
260.62	61.644
260.99	62.259
261.36	63.231
261.73	63.032
262.10	61.780
262.47	59.750
262.85	58.933
263.22	63.239
263.59	61.381
263.96	59.148
264.33	58.272
264.70	64.865
265.07	61.707
265.44	57.569
265.81	58.255
266.18	58.810
266.55	60.047
266.92	59.284
267.29	60.088
267.66	59.865
268.03	56.951
268.40	58.140
268.77	57.269
269.14	57.484
269.51	59.911
269.88	55.510
270.25	56.803
270.62	62.232
270.99	58.824
271.36	57.520
271.73	59.329
272.10	59.798
272.47	57.937
272.84	55.888
273.21	58.058
273.58	59.312
273.95	57.700
274.32	57.588
274.69	58.858
275.06	56.648
275.43	57.280
275.80	54.717
276.17	56.801
276.54	54.579
276.91	59.328
277.28	56.022
277.65	57.380
278.02	56.801
278.39	54.676
278.76	56.897
279.13	53.915
279.50	55.091
279.87	55.866
280.23	54.696
280.60	56.387
280.97	54.483
281.34	55.941
281.71	55.130
282.08	56.923
282.45	53.716
282.82	56.187
283.19	53.577
283.56	53.719
283.92	55.375
284.29	55.574
284.66	55.294
285.03	53.566
285.40	53.058
285.77	49.846
286.14	54.180
286.51	50.920
286.87	51.582
287.24	49.249
287.61	51.672
287.98	52.239
288.35	49.481
288.72	50.531
289.08	50.601
289.45	51.829
289.82	49.375
290.19	50.073
290.56	49.054
290.93	48.633
291.29	47.928
291.66	48.446
292.03	47.826
292.40	47.696
292.77	47.493
293.13	47.218
293.50	46.424
293.87	44.444
294.24	49.650
294.60	48.721
294.97	47.692
295.34	44.223
295.71	43.627
296.08	46.000
296.44	45.362
296.81	42.060
297.18	42.966
297.55	44.828
297.91	42.857
298.28	43.961
298.65	43.804
299.02	43.667
299.38	43.885
299.75	40.122
300.12	42.775
300.48	43.326
300.85	43.027
301.22	41.860
301.59	40.330
301.95	41.774
302.32	42.142
302.69	40.611
303.05	41.526
303.42	39.574
303.79	40.303
304.15	41.474
304.52	41.121
304.89	40.192
305.25	40.712
305.62	41.471
305.99	40.000
306.35	40.947
306.72	41.103
307.09	38.923
307.45	40.549
307.82	41.872
308.19	38.969
308.55	40.400
308.92	40.236
309.29	40.533
309.65	39.445
310.02	40.771
310.38	39.980
310.75	38.862
311.12	40.230
311.48	41.409
311.85	40.363
312.22	40.401
312.58	39.747
312.95	40.777
313.31	39.513
313.68	38.931
314.05	40.385
314.41	39.479
314.78	39.678
315.14	39.810
315.51	39.830
315.87	38.686
316.24	40.336
316.61	38.944
316.97	37.615
317.34	39.084
317.70	38.982
318.07	39.680
318.43	39.631
318.80	40.193
319.16	38.811
319.53	39.115
319.89	38.351
320.26	38.547
320.62	39.286
320.99	39.657
321.35	37.477
321.72	39.564
322.08	36.750
322.45	39.146
322.81	38.792
323.18	39.876
323.54	40.331
323.91	40.163
324.27	38.462
324.64	38.927
325.00	39.483
325.37	39.460
325.73	39.123
326.10	40.099
326.46	37.490
326.83	37.680
327.19	39.679
327.56	38.339
327.92	38.525
328.29	38.953
328.65	38.784
329.01	39.008
329.38	38.917
329.74	38.685
330.11	37.706
330.47	39.045
330.84	36.928
331.20	37.902
331.56	38.946
331.93	39.778
332.29	37.500
332.66	38.605
333.02	37.199
333.38	39.005
333.75	38.198
334.11	38.339
334.48	37.949
334.84	37.078
335.20	37.981
335.57	35.684
335.93	37.174
336.29	36.567
336.66	38.851
337.02	37.211
337.38	36.887
337.75	36.740
338.11	38.228
338.47	36.833
338.84	35.817
339.20	35.931
339.56	36.669
339.93	36.204
340.29	36.134
340.65	36.798
341.02	36.203
341.38	35.961
341.74	35.465
342.11	36.394
342.47	35.767
342.83	37.982
343.20	36.540
343.56	35.266
343.92	35.921
344.28	35.088
344.65	36.756
345.01	34.841
345.37	34.856
345.73	34.206
346.10	36.016
346.46	36.683
346.82	34.414
347.19	35.317
347.55	36.066
347.91	34.517
348.27	34.392
348.63	34.573
349.00	34.044
349.36	35.486
349.72	35.780
350.08	35.559
350.45	35.415
350.81	36.009
351.17	34.284
351.53	34.873
351.89	34.110
352.26	34.618
352.62	34.766
352.98	35.199
353.34	35.747
353.70	34.021
354.07	34.846
354.43	34.716
354.79	33.257
355.15	34.150
355.51	33.988
355.87	34.111
356.24	33.795
356.60	34.094
356.96	33.813
357.32	34.589
357.68	34.802
358.04	34.043
358.40	33.133
358.77	35.687
359.13	34.159
359.49	34.322
359.85	33.656
360.21	34.250
360.57	33.869
360.93	33.838
361.29	33.911
361.66	34.526
362.02	33.736
362.38	33.478
362.74	34.890
363.10	33.590
363.46	32.873
363.82	33.240
364.18	33.713
364.54	34.120
364.90	33.735
365.26	34.421
365.62	33.149
365.98	32.897
366.35	34.000
366.71	34.698
367.07	33.857
367.43	33.512
367.79	31.915
368.15	32.768
368.51	33.563
368.87	32.201
369.23	34.234
369.59	33.311
369.95	35.315
370.31	32.033
370.67	32.130
371.03	33.403
371.39	32.271
371.75	32.868
372.11	33.039
372.47	33.767
372.83	32.971
373.19	32.899
373.55	33.677
373.91	33.564
374.27	33.730
374.63	33.017
374.99	32.480
375.35	32.728
375.71	32.652
376.07	33.554
376.42	31.586
376.78	33.590
377.14	33.945
377.50	33.458
377.86	32.799
378.22	34.004
378.58	32.930
378.94	33.011
379.30	33.535
379.66	32.390
380.02	33.842
380.38	32.319
380.74	33.333
381.09	33.645
381.45	32.081
381.81	33.215
382.17	32.784
382.53	32.633
382.89	32.584
383.25	31.794
383.61	32.161
383.97	33.173
384.32	33.213
384.68	33.036
385.04	32.298
385.40	31.673
385.76	31.656
386.12	32.468
386.48	32.340
386.83	33.130
387.19	32.155
387.55	32.509
387.91	33.083
388.27	33.551
388.62	32.688
388.98	31.429
389.34	31.053
389.70	31.604
390.06	32.500
390.42	32.141
390.77	32.432
391.13	31.563
391.49	32.970
391.85	33.169
392.20	32.718
392.56	32.975
392.92	32.173
393.28	31.334
393.64	31.479
393.99	32.069
394.35	32.549
394.71	31.242
395.07	32.178
395.42	31.850
395.78	32.758
396.14	32.470
396.50	32.551
396.85	32.439
397.21	31.889
397.57	32.457
397.92	31.485
398.28	31.440
398.64	31.821
399.00	31.320
399.35	31.186
399.71	31.236
400.07	32.420
400.42	31.104
400.78	32.082
401.14	31.356
401.49	32.200
401.85	32.851
402.21	30.931
402.57	31.119
402.92	31.212
403.28	31.086
403.63	31.195
403.99	32.268
404.35	32.415
404.70	32.959
405.06	30.938
405.42	31.837
405.77	31.918
406.13	31.453
406.49	30.472
406.84	30.739
407.20	31.164
407.55	31.508
407.91	32.100
408.27	32.141
408.62	31.461
408.98	30.869
409.34	30.976
409.69	31.176
410.05	31.604
410.40	31.154
410.76	30.910
411.11	31.280
411.47	31.235
411.83	31.049
412.18	30.374
412.54	31.652
412.89	30.914
413.25	30.901
413.60	31.250
413.96	31.119
414.31	30.874
414.67	31.844
415.03	31.162
415.38	31.546
415.74	31.080
416.09	30.856
416.45	32.256
416.80	31.238
417.16	31.190
417.51	31.656
417.87	31.289
418.22	31.470
418.58	31.338
418.93	30.458
419.29	29.513
419.64	30.648
420.00	30.907
420.35	30.952
420.71	30.338
421.06	29.900
421.42	30.052
421.77	30.205
422.12	30.871
422.48	31.073
422.83	30.804
423.19	30.994
423.54	30.115
423.90	31.144
424.25	30.380
424.61	30.992
424.96	30.096
425.31	30.706
425.67	31.594
426.02	31.352
426.38	30.280
426.73	31.232
427.09	31.317
427.44	29.600
427.79	31.847
428.15	31.173
428.50	31.829
428.85	30.747
429.21	31.010
429.56	30.558
429.92	31.129
430.27	29.898
430.62	29.711
430.98	30.689
431.33	30.141
431.68	29.827
432.04	30.471
432.39	30.790
432.74	31.148
433.10	31.229
433.45	31.074
433.80	31.715
434.16	30.636
434.51	31.424
434.86	31.355
435.22	30.416
435.57	31.180
435.92	31.531
436.28	31.567
436.63	31.226
436.98	31.419
437.34	31.164
437.69	30.179
438.04	30.538
438.39	32.049
438.75	30.457
439.10	30.491
439.45	30.413
439.81	30.885
440.16	30.875
440.51	31.194
440.86	31.168
441.22	30.736
441.57	30.761
441.92	31.491
442.27	30.825
442.63	29.827
442.98	31.358
443.33	30.584
443.68	31.791
444.03	30.584
444.39	31.262
444.74	30.952
445.09	30.753
445.44	30.340
445.79	30.848
446.15	31.474
446.50	30.327
446.85	31.026
447.20	30.746
447.55	31.158
447.91	31.220
448.26	31.416
448.61	31.620
448.96	30.991
449.31	31.518
449.66	31.229
450.02	31.172
450.37	30.650
450.72	31.185
451.07	32.286
451.42	31.239
451.77	31.214
452.12	30.686
452.47	32.017
452.83	32.394
453.18	31.291
453.53	31.557
453.88	32.571
454.23	31.784
454.58	32.226
454.93	30.963
455.28	31.212
455.63	31.856
455.98	30.344
456.34	32.462
456.69	32.256
457.04	32.160
457.39	31.086
457.74	32.151
458.09	31.275
458.44	31.544
458.79	31.034
459.14	31.533
459.49	31.710
459.84	31.413
460.19	31.186
460.54	32.479
460.89	32.569
461.24	30.928
461.59	31.576
461.94	31.915
462.29	31.751
462.64	32.726
462.99	31.734
463.34	31.886
463.69	32.365
464.04	32.412
464.39	32.112
464.74	30.891
465.09	31.515
465.44	31.284
465.79	31.628
466.14	31.055
466.49	32.067
466.84	31.605
467.19	32.396
467.54	31.592
467.89	31.338
468.24	31.500
468.59	31.726
468.94	32.971
469.29	32.498
469.64	32.412
469.99	32.134
470.34	31.562
470.68	30.828
471.03	33.356
471.38	31.921
471.73	32.201
472.08	33.007
472.43	32.154
472.78	32.394
473.13	31.101
473.48	31.968
473.83	32.450
474.17	32.280
474.52	32.346
474.87	30.984
475.22	31.696
475.57	31.847
475.92	30.915
476.27	30.196
476.61	31.153
476.96	31.452
477.31	31.671
477.66	32.313
478.01	30.841
478.36	31.102
478.70	31.365
479.05	31.851
479.40	31.597
479.75	32.026
480.10	31.462
480.45	31.513
480.79	31.060
481.14	32.145
481.49	30.787
481.84	30.959
482.19	31.223
482.53	30.874
482.88	31.496
483.23	30.807
483.58	31.777
483.92	32.176
484.27	31.036
484.62	31.027
484.97	31.048
485.31	29.159
485.66	28.598
486.01	27.976
486.36	27.761
486.70	27.717
487.05	28.548
487.40	28.751
487.75	29.149
488.09	29.801
488.44	29.637
488.79	29.747
489.13	30.907
489.48	30.843
489.83	30.442
490.17	30.595
490.52	30.835
490.87	30.819
491.22	31.206
491.56	31.489
491.91	30.780
492.26	32.116
492.60	31.481
492.95	31.763
493.30	31.392
493.64	31.491
493.99	31.932
494.34	30.480
494.68	31.828
495.03	31.881
495.37	30.752
495.72	31.795
496.07	30.638
496.41	31.147
496.76	30.688
497.11	31.577
497.45	30.776
497.80	31.464
498.14	31.530
498.49	31.616
498.84	31.308
499.18	30.256
499.53	31.328
499.87	31.402
500.22	30.585
500.56	30.919
500.91	31.865
501.26	30.593
501.60	30.601
501.95	31.048
502.29	30.044
502.64	30.745
502.98	30.414
503.33	30.290
503.67	30.773
504.02	30.273
504.36	30.317
504.71	31.126
505.06	31.112
505.40	30.931
505.75	31.151
506.09	30.891
506.44	30.827
506.78	31.049
507.13	31.992
507.47	30.762
507.82	31.144
508.16	31.504
508.51	31.498
508.85	31.339
509.19	31.131
509.54	30.664
509.88	31.974
510.23	30.490
510.57	29.923
510.92	31.469
511.26	31.426
511.61	31.265
511.95	31.060
512.30	31.450
512.64	30.997
512.98	30.753
513.33	31.557
513.67	30.761
514.02	31.740
514.36	30.633
514.70	30.720
515.05	31.433
515.39	31.634
515.74	32.203
516.08	31.808
516.42	32.186
516.77	31.413
517.11	30.933
517.46	32.166
517.80	31.240
518.14	32.845
518.49	32.359
518.83	31.319
519.17	33.167
519.52	32.277
519.86	31.662
520.20	32.110
520.55	31.034
520.89	31.667
521.23	32.185
521.58	31.153
521.92	31.662
522.26	31.043
522.61	32.739
522.95	32.793
523.29	32.807
523.64	31.734
523.98	31.455
524.32	31.084
524.66	31.478
525.01	31.302
525.35	31.998
525.69	31.668
526.04	32.421
526.38	31.489
526.72	30.489
527.06	30.988
527.41	32.527
527.75	31.710
528.09	31.848
528.43	32.337
528.78	31.306
529.12	32.330
529.46	31.210
529.80	30.199
530.15	31.762
530.49	30.806
530.83	31.749
531.17	31.058
531.51	31.944
531.86	30.797
532.20	30.655
532.54	30.634
532.88	31.230
533.22	31.444
533.57	32.093
533.91	31.119
534.25	30.641
534.59	31.053
534.93	31.115
535.27	29.824
535.62	30.688
535.96	31.383
536.30	32.785
536.64	30.621
536.98	30.585
537.32	31.625
537.66	29.911
538.01	30.341
538.35	31.815
538.69	30.522
539.03	28.856
539.37	30.522
539.71	30.679
540.05	30.462
540.39	31.698
540.73	30.000
541.07	30.176
541.42	29.851
541.76	30.333
542.10	30.395
542.44	30.549
542.78	29.704
543.12	29.141
543.46	30.639
543.80	29.825
544.14	30.960
544.48	29.745
544.82	30.092
545.16	30.298
545.50	30.424
545.84	31.124
546.18	32.445
546.52	31.279
546.86	30.690
547.20	30.943
547.54	30.462
547.88	30.292
548.22	30.055
548.56	29.287
548.90	29.893
549.24	30.196
549.58	30.863
549.92	29.666
550.26	31.575
550.60	30.539
550.94	31.615
551.28	30.690
551.62	31.172
551.96	30.946
552.30	29.664
552.64	30.939
552.98	29.575
553.32	29.321
553.66	30.554
554.00	29.794
554.34	30.559
554.68	31.183
555.02	31.297
555.36	30.053
555.69	30.628
556.03	30.637
556.37	29.446
556.71	30.508
557.05	29.685
557.39	30.133
557.73	30.930
558.07	29.980
558.41	30.295
558.75	30.848
559.08	31.523
559.42	32.212
559.76	31.076
560.10	29.938
560.44	29.728
560.78	30.243
561.12	29.434
561.45	29.287
561.79	29.963
562.13	29.248
562.47	30.565
562.81	29.668
563.15	28.895
563.48	28.571
563.82	30.942
564.16	29.913
564.50	28.813
564.84	29.605
565.17	28.580
565.51	30.727
565.85	29.981
566.19	29.940
566.52	28.700
566.86	29.130
567.20	28.820
567.54	28.766
567.88	28.534
568.21	27.808
568.55	28.113
568.89	27.874
569.23	27.351
569.56	27.636
569.90	25.979
570.24	26.610
570.57	26.606
570.91	26.147
571.25	26.364
571.59	25.296
571.92	25.242
572.26	24.690
572.60	25.326
572.93	26.107
573.27	25.617
573.61	25.149
573.95	25.473
574.28	25.254
574.62	24.895
574.96	24.706
575.29	24.202
575.63	24.641
575.97	24.684
576.30	24.348
576.64	25.176
576.98	25.052
577.31	24.972
577.65	24.636
577.98	24.283
578.32	24.141
578.66	23.989
578.99	24.879
579.33	24.718
579.67	24.787
580.00	24.857
580.34	24.497
580.67	24.251
581.01	24.819
581.35	24.111
581.68	23.852
582.02	23.775
582.35	23.942
582.69	24.325
583.02	24.394
583.36	24.953
583.70	25.363
584.03	25.652
584.37	25.139
584.70	25.330
585.04	24.720
585.37	24.301
585.71	24.652
586.04	24.463
586.38	24.731
586.72	25.302
587.05	24.987
587.39	24.855
587.72	25.006
588.06	25.205
588.39	25.256
588.73	24.380
589.06	25.941
589.40	25.759
589.73	25.074
590.07	26.802
590.40	26.969
590.73	26.441
591.07	27.211
591.40	26.387
591.74	25.974
592.07	25.749
592.41	25.779
592.74	25.925
593.08	25.163
593.41	25.045
593.75	24.802
594.08	25.685
594.41	25.872
594.75	25.685
595.08	25.789
595.42	25.708
595.75	25.699
596.09	25.860
596.42	25.528
596.75	26.242
597.09	26.166
597.42	25.551
597.75	25.923
598.09	26.057
598.42	25.337
598.76	25.212
599.09	25.634
599.42	25.121
599.76	25.271
600.09	24.881
600.42	25.414
600.76	24.915
601.09	25.406
601.42	26.012
601.76	25.743
602.09	26.196
602.42	25.545
602.76	25.047
603.09	25.943
603.42	25.872
603.76	25.741
604.09	25.950
604.42	25.989
604.76	25.958
605.09	26.122
605.42	25.924
605.75	25.819
606.09	25.555
606.42	25.442
606.75	25.107
607.09	24.516
607.42	25.994
607.75	25.597
608.08	25.589
608.42	25.923
608.75	25.503
609.08	26.089
609.41	26.136
609.75	26.053
610.08	25.764
610.41	25.736
610.74	25.974
611.07	26.057
611.41	26.321
611.74	26.673
612.07	26.541
612.40	26.413
612.73	26.610
613.07	26.254
613.40	26.667
613.73	25.861
614.06	26.700
614.39	26.414
614.72	25.967
615.06	26.162
615.39	25.990
615.72	26.089
616.05	26.670
616.38	26.941
616.71	26.424
617.05	26.744
617.38	26.966
617.71	27.278
618.04	26.584
618.37	26.515
618.70	27.540
619.03	26.984
619.36	27.575
619.69	27.639
620.03	28.245
620.36	26.268
620.69	27.969
621.02	28.397
621.35	27.937
621.68	28.614
622.01	29.373
622.34	27.167
622.67	27.809
623.00	28.319
623.33	28.205
623.66	27.545
623.99	27.671
624.32	28.184
624.65	27.123
624.99	27.789
625.32	28.190
625.65	27.310
625.98	26.987
626.31	29.377
626.64	28.398
626.97	27.850
627.30	27.717
627.63	27.865
627.96	28.326
628.29	28.548
628.62	28.486
628.95	30.408
629.28	29.448
629.61	27.417
629.94	29.127
630.26	30.156
630.59	29.787
630.92	28.520
631.25	29.918
631.58	31.244
631.91	30.257
632.24	29.835
632.57	29.764
632.90	31.366
633.23	31.060
633.56	31.085
633.89	30.332
634.22	31.539
634.55	31.183
634.88	31.216
635.20	31.726
635.53	30.197
635.86	31.208
636.19	30.640
636.52	30.162
636.85	29.234
637.18	29.144
637.51	29.609
637.83	31.922
638.16	30.246
638.49	29.461
638.82	30.986
639.15	29.495
639.48	32.227
639.81	30.525
640.13	31.656
640.46	32.743
640.79	31.860
641.12	30.446
641.45	32.988
641.77	33.421
642.10	31.593
642.43	32.432
642.76	31.392
643.09	33.285
643.41	31.837
643.74	33.669
644.07	32.891
644.40	31.805
644.73	34.835
645.05	33.135
645.38	34.150
645.71	31.411
646.04	33.588
646.36	34.116
646.69	32.480
647.02	33.280
647.35	31.024
647.67	30.956
648.00	32.736
648.33	33.684
648.66	31.212
648.98	30.000
649.31	29.420
649.64	31.120
649.96	31.010
650.29	31.286
650.62	31.811
650.94	32.078
651.27	33.812
651.60	32.707
651.92	32.873
652.25	36.063
652.58	31.631
652.90	31.737
653.23	31.315
653.56	29.228
653.88	32.746
654.21	31.232
654.54	31.918
654.86	31.563
655.19	31.135
655.52	26.746
655.84	20.600
656.17	24.298
656.49	34.487
656.82	39.676
657.15	31.789
657.47	24.024
657.80	18.257
658.13	14.488
658.45	19.877
658.78	24.565
659.10	24.566
659.43	24.708
659.75	24.847
660.08	26.378
660.41	28.857
660.73	30.991
661.06	31.231
661.38	34.072
661.71	31.475
662.03	33.650
662.36	32.571
662.68	33.892
663.01	33.694
663.33	31.509
663.66	36.292
663.98	34.722
664.31	35.634
664.63	34.291
664.96	35.460
665.28	33.145
665.61	32.264
665.93	33.962
666.26	33.084
666.58	33.945
666.91	34.556
667.23	31.928
667.56	37.166
667.88	35.270
668.21	33.811
668.53	33.266
668.86	36.473
669.18	34.827
669.50	33.471
669.83	35.524
670.15	31.601
670.48	33.984
670.80	33.267
671.13	35.259
671.45	33.267
671.77	35.065
672.10	33.214
672.42	32.237
672.75	31.487
673.07	31.955
673.39	31.150
673.72	30.796
674.04	33.871
674.37	31.760
674.69	35.688
675.01	30.597
675.34	31.395
675.66	33.203
675.98	32.544
676.31	33.600
676.63	31.412
676.95	35.317
677.28	34.077
677.60	37.223
677.92	31.151
678.25	31.589
678.57	33.333
678.89	33.635
679.22	32.904
679.54	33.274
679.86	33.508
680.18	30.053
680.51	29.519
680.83	29.392
681.15	33.102
681.48	32.812
681.80	30.123
682.12	33.391
682.44	30.270
682.77	31.139
683.09	32.039
683.41	32.449
683.73	34.252
684.06	31.548
684.38	33.333
684.70	30.216
685.02	28.993
685.34	30.810
685.67	30.707
685.99	29.064
686.31	30.663
686.63	28.455
686.96	31.699
687.28	29.530
687.60	29.522
687.92	31.658
688.24	33.448
688.56	32.740
688.89	29.828
689.21	31.985
689.53	32.411
689.85	31.504
690.17	31.068
690.49	32.460
690.82	32.563
691.14	31.717
691.46	34.702
691.78	32.359
692.10	32.061
692.42	31.034
692.74	31.395
693.06	31.202
693.39	30.237
693.71	32.024
694.03	33.531
694.35	36.345
694.67	28.310
694.99	31.707
695.31	31.757
695.63	32.805
695.95	32.127
696.27	36.062
696.59	36.038
696.91	31.139
697.23	33.258
697.56	30.290
697.88	28.543
698.20	33.019
698.52	30.350
698.84	33.060
699.16	32.836
699.48	33.051
699.80	34.423
700.12	35.566
700.44	32.477
700.76	35.561
701.08	31.593
701.40	32.468
701.72	38.503
702.04	33.604
702.36	37.366
702.68	36.436
703.00	31.078
703.32	34.739
703.64	32.997
703.96	33.854
704.28	37.566
704.60	34.648
704.91	35.014
705.23	35.795
705.55	35.608
705.87	34.921
706.19	39.185
706.51	36.991
706.83	34.218
707.15	34.759
707.47	36.562
707.79	31.954
708.11	31.293
708.43	31.461
708.74	30.769
709.06	34.186
709.38	29.280
709.70	31.063
710.02	33.152
710.34	33.702
710.66	36.944
710.98	33.880
711.29	33.426
711.61	35.376
711.93	30.395
712.25	31.928
712.57	37.621
712.89	37.576
713.20	36.741
713.52	35.826
713.84	33.233
714.16	30.145
714.48	29.107
714.80	32.791
715.11	34.574
715.43	32.402
715.75	35.211
716.07	36.705
716.39	33.714
716.70	35.202
717.02	37.710
717.34	36.331
717.66	36.111
717.97	42.045
718.29	39.437
718.61	35.135
718.93	36.332
719.24	37.584
719.56	36.897
719.88	32.803
720.20	39.677
720.51	35.621
720.83	37.793
721.15	36.054
721.46	39.384
721.78	38.328
722.10	38.194
722.42	38.127
722.73	35.379
723.05	38.246
723.37	38.869
723.68	37.109
724.00	35.985
724.32	39.544
724.63	40.385
724.95	33.725
725.27	36.803
725.58	39.706
725.90	30.986
726.22	34.589
726.53	36.789
726.85	35.505
727.16	36.577
727.48	34.551
727.80	35.252
728.11	36.071
728.43	33.333
728.74	37.762
729.06	35.125
729.38	37.193
729.69	37.667
730.01	33.553
730.32	35.570
730.64	36.877
730.96	33.934
731.27	29.358
731.59	29.598
731.90	29.805
732.22	34.000
732.53	30.484
732.85	35.380
733.16	34.036
733.48	31.975
733.80	33.043
734.11	35.583
734.43	30.994
734.74	30.563
735.06	33.069
735.37	31.701
735.69	29.855
736.00	34.862
736.32	29.697
736.63	32.177
736.95	31.677
737.26	35.366
737.58	33.742
737.89	34.639
738.21	36.755
738.52	37.793
738.83	40.659
739.15	35.540
739.46	34.138
739.78	32.653
740.09	33.819
740.41	34.969
740.72	37.460
741.04	38.462
741.35	32.031
741.66	34.783
741.98	42.060
742.29	41.204
742.61	38.053
742.92	36.017
743.23	37.600
743.55	33.208
743.86	31.765
744.18	39.831
744.49	38.843
744.80	39.171
745.12	37.946
745.43	40.187
745.74	42.667
746.06	36.842
746.37	44.186
746.68	38.496
747.00	41.256
747.31	40.756
747.62	34.426
747.94	36.481
748.25	36.965
748.56	41.102
748.88	39.286
749.19	39.070
749.50	33.790
749.82	37.037
750.13	35.968
750.44	36.333
750.75	37.919
751.07	34.868
751.38	35.644
751.69	32.997
752.01	37.413
752.32	36.545
752.63	37.919
752.94	38.462
753.26	32.422
753.57	40.078
753.88	34.457
754.19	38.628
754.51	35.548
754.82	32.886
755.13	36.824
755.44	33.704
755.75	39.175
756.07	33.904
756.38	27.778
756.69	32.813
757.00	35.015
757.31	34.085
757.63	31.956
757.94	30.851
758.25	29.469
758.56	30.206
758.87	33.835
759.18	32.849
759.50	28.267
759.81	32.344
760.12	31.742
760.43	31.933
760.74	34.684
761.05	30.769
761.36	29.687
761.67	32.615
761.99	33.239
762.30	29.260
762.61	30.903
762.92	34.091
763.23	33.962
763.54	32.308
763.85	33.463
764.16	36.806
764.47	33.108
764.78	35.505
765.10	28.659
765.41	33.807
765.72	30.939
766.03	29.305
766.34	31.359
766.65	33.080
766.96	40.081
767.27	39.720
767.58	42.574
767.89	48.066
768.20	48.780
768.51	39.286
768.82	41.667
769.13	33.333
769.44	34.962
769.75	35.955
770.06	32.353
770.37	31.579
770.68	36.889
770.99	37.288
771.30	38.912
771.61	35.000
771.92	30.153
772.23	35.081
772.54	37.778
772.85	38.614
773.16	45.109
773.47	42.222
773.78	41.089
774.09	39.205
774.39	44.242
774.70	41.176
775.01	39.474
775.32	42.236
775.63	57.534
775.94	45.679
776.25	42.759
776.56	56.489
776.87	47.328
777.18	46.212
777.48	51.969
777.79	50.000
778.10	50.758
778.41	46.269
778.72	39.850
779.03	42.949
779.34	49.324
779.65	41.615
779.95	40.994
780.26	36.310
780.57	53.741
780.88	41.135
781.19	50.833
781.50	43.787
781.80	42.077
782.11	38.624
782.42	35.057
782.73	43.503
783.04	45.806
783.34	43.411
783.65	36.054
783.96	43.226
784.27	39.735
784.57	51.974
784.88	47.826
785.19	46.667
785.50	43.966
785.81	55.814
786.11	38.519
786.42	47.244
786.73	53.153
787.04	57.547
787.34	45.528
787.65	50.000
787.96	50.000
788.26	55.118
788.57	55.474
788.88	45.775
789.19	47.328
789.49	50.000
789.80	46.875
790.11	53.719
790.41	49.074
790.72	51.852
791.03	51.923
791.33	54.545
791.64	55.789
791.95	60.000
792.25	52.083
792.56	64.000
792.87	59.756
793.17	51.136
793.48	56.471
793.79	58.621
794.09	59.091
794.40	59.483
794.70	51.587
795.01	37.692
795.32	41.985
795.62	44.444
795.93	47.059
796.23	42.276
796.54	64.286
796.85	51.136
797.15	72.727
797.46	70.732
797.76	62.500
798.07	72.000
798.37	70.000
798.68	76.250
798.99	64.634
799.29	53.333
799.60	45.349
799.90	61.842
800.21	66.667
800.51	46.479
800.82	72.414
801.12	67.692
801.43	73.333
801.73	77.586
802.04	58.442
802.34	67.123
802.65	62.745
802.95	58.696
803.26	88.710
803.56	81.667
803.87	64.179
804.17	73.016
804.48	64.151
804.78	70.833
805.09	74.242
805.39	66.667
805.70	70.175
806.00	67.143
806.30	67.188
806.61	63.529
806.91	62.222
807.22	55.435
807.52	61.842
807.83	80.263
808.13	69.565
808.43	66.129
808.74	71.233
809.04	76.786
809.35	83.824
809.65	63.636
809.95	78.431
810.26	96.296
810.56	92.188
810.86	81.633
811.17	94.737
811.47	82.609
811.77	72.414
812.08	74.138
812.38	100.000
812.69	104.762
812.99	82.222
813.29	65.714
813.59	125.806
813.90	56.897
814.20	85.246
814.50	84.000
814.81	64.912
815.11	94.444
815.41	85.714
815.72	89.286
816.02	94.000
816.32	107.317
816.62	91.379
816.93	115.152
817.23	109.756
817.53	85.714
817.84	86.667
818.14	88.095
818.44	79.167
818.74	88.679
819.04	89.744
819.35	112.121
819.65	111.538
819.95	105.556
820.25	134.043
820.56	91.892
820.86	89.474
821.16	80.851
821.46	113.158
821.76	110.909
822.07	71.429
822.37	100.000
822.67	120.930
822.97	105.263
823.27	113.043
823.57	106.250
823.88	115.385
824.18	81.818
824.48	160.870
824.78	125.000
825.08	182.609
825.38	165.517
825.69	123.529
825.99	89.362
826.29	91.667
826.59	102.857
826.89	146.667
827.19	114.286
827.49	138.710
827.79	146.154
828.09	104.762
828.39	116.667
828.70	89.189
829.00	121.429
829.30	206.250
829.60	100.000
829.90	106.452
830.20	112.121
830.50	110.811
830.80	175.000
831.10	134.615
831.40	147.619
831.70	175.000
832.00	120.000
832.30	126.087
832.60	208.333
832.90	139.394
833.20	150.000
833.50	152.632
833.80	111.765
834.10	107.895
834.40	168.421
834.70	156.667
835.00	160.000
835.30	86.486
835.60	143.750
835.90	110.811
836.20	138.462
836.50	113.636
836.80	87.805
837.10	121.739
837.40	230.769
837.70	105.263
838.00	166.667
838.30	154.167
838.60	124.000
838.90	250.000
839.19	206.250
839.49	160.000
839.79	124.138
840.09	134.615
840.39	206.667
840.69	184.211
840.99	138.095
841.29	165.217
841.59	185.000
841.88	152.000
842.18	344.444
842.48	185.714
842.78	129.630
843.08	223.077
843.38	136.364
843.68	257.143
843.97	500.000
844.27	143.478
844.57	1300.000
844.87	192.857
845.17	272.222
845.47	166.667
845.76	183.333
846.06	442.857
846.36	205.882
846.66	253.846
846.96	225.000
847.25	230.769
847.55	131.579
847.85	227.778
848.15	700.000
848.44	327.273
848.74	142.857
849.04	162.500
849.34	188.235
849.63	231.250
849.93	200.000
850.23	666.667
850.53	487.500
850.82	300.000
851.12	205.882
851.42	204.167
851.71	262.500
852.01	0.000
852.31	182.353
852.61	300.000
852.90	154.167
853.20	366.667
853.50	-2700.000
853.79	196.000
854.09	140.625
854.39	117.241
854.68	155.172
854.98	185.714
855.28	138.710
855.57	221.429
855.87	183.333
856.17	137.037
856.46	126.316
856.76	145.161
857.05	235.294
857.35	145.455
857.65	238.462
857.94	155.000
858.24	411.111
858.53	300.000
858.83	571.429
859.13	186.957
859.42	422.222
859.72	350.000
860.01	308.333
860.31	825.000
860.60	360.000
860.90	450.000
861.20	238.462
861.49	357.143
861.79	-3000.000
862.08	442.857
862.38	311.111
862.67	257.143
862.97	390.000
863.26	163.333
863.56	600.000
863.85	346.154
864.15	235.294
864.44	244.444
864.74	308.333
865.03	290.909
865.33	450.000
865.62	286.667
865.92	533.333
866.21	950.000
866.51	580.000
866.80	233.333
867.10	800.000
867.39	3600.000
867.69	860.000
867.98	875.000
868.27	161.905
868.57	266.667
868.86	800.000
869.16	133.333
869.45	2600.000
869.75	-450.000
870.04	675.000
870.33	520.000
870.63	375.000
870.92	200.000
871.22	775.000
871.51	600.000
871.80	200.000
872.10	353.846
>>>>>End Processed Spectral Data<<<<<
