SpectraSuite Data File
++++++++++++++++++++++++++++++++++++
Date: Tue May 12 15:35:11 PDT 2015
User: schluterlab
Dark Spectrum Present: Yes
Reference Spectrum Present: Yes
Number of Sampled Component Spectra: 1
Spectrometers: USB2E3373
Integration Time (usec): 3000 (USB2E3373)
Spectra Averaged: 3 (USB2E3373)
Boxcar Smoothing: 0 (USB2E3373)
Correct for Electrical Dark: No (USB2E3373)
Strobe/Lamp Enabled: No (USB2E3373)
Correct for Detector Non-linearity: No (USB2E3373)
Correct for Stray Light: No (USB2E3373)
Number of Pixels in Processed Spectrum: 2048
>>>>>Begin Processed Spectral Data<<<<<
178.53	0.000
178.91	-241.667
179.29	-900.000
179.67	-3500.000
180.04	-140.000
180.42	625.000
180.80	1750.000
181.18	0.000
181.56	-362.500
181.94	0.000
182.31	933.333
182.69	-2700.000
183.07	514.286
183.45	-4200.000
183.83	-1750.000
184.20	320.000
184.58	471.429
184.96	-223.077
185.34	-258.333
185.72	1600.000
186.09	-750.000
186.47	-3100.000
186.85	1100.000
187.23	620.000
187.61	1450.000
187.98	450.000
188.36	350.000
188.74	441.667
189.12	316.667
189.49	850.000
189.87	0.000
190.25	525.000
190.63	2800.000
191.00	-233.333
191.38	-3700.000
191.76	-475.000
192.14	562.500
192.51	-3300.000
192.89	2050.000
193.27	933.333
193.65	-1300.000
194.02	-740.000
194.40	557.143
194.78	-157.143
195.15	286.667
195.53	-3200.000
195.91	-540.000
196.29	4600.000
196.66	250.000
197.04	875.000
197.42	-1650.000
197.79	600.000
198.17	308.333
198.55	0.000
198.92	571.429
199.30	1400.000
199.68	1700.000
200.05	750.000
200.43	-633.333
200.81	244.444
201.18	2500.000
201.56	266.667
201.94	-650.000
202.31	-212.500
202.69	-500.000
203.07	2300.000
203.44	-450.000
203.82	383.333
204.19	640.000
204.57	-1400.000
204.95	-900.000
205.32	-680.000
205.70	466.667
206.08	900.000
206.45	-1066.667
206.83	411.111
207.20	200.000
207.58	250.000
207.96	780.000
208.33	0.000
208.71	528.571
209.08	800.000
209.46	-3700.000
209.84	-650.000
210.21	820.000
210.59	-500.000
210.96	316.667
211.34	-700.000
211.71	400.000
212.09	975.000
212.46	1550.000
212.84	-483.333
213.22	488.889
213.59	-2600.000
213.97	270.000
214.34	1075.000
214.72	1366.667
215.09	933.333
215.47	-2700.000
215.84	-260.000
216.22	-487.500
216.59	0.000
216.97	0.000
217.34	1050.000
217.72	-1400.000
218.09	1566.667
218.47	537.500
218.84	1000.000
219.22	1133.333
219.59	1466.667
219.97	457.143
220.34	400.000
220.72	1250.000
221.09	3600.000
221.47	275.000
221.84	1166.667
222.22	290.000
222.59	294.444
222.97	214.286
223.34	218.750
223.72	-1850.000
224.09	1200.000
224.46	346.154
224.84	-800.000
225.21	366.667
225.59	333.333
225.96	1433.333
226.34	-640.000
226.71	-600.000
227.08	-580.000
227.46	0.000
227.83	-616.667
228.21	-2150.000
228.58	391.667
228.95	1175.000
229.33	522.222
229.70	1200.000
230.08	346.154
230.45	4200.000
230.82	-1025.000
231.20	-866.667
231.57	-1233.333
231.95	780.000
232.32	308.333
232.69	666.667
233.07	325.000
233.44	-1900.000
233.81	286.667
234.19	192.593
234.56	243.750
234.93	229.412
235.31	230.000
235.68	356.250
236.05	192.857
236.43	218.519
236.80	357.143
237.17	196.552
237.55	153.125
237.92	157.500
238.29	172.727
238.67	187.500
239.04	151.220
239.41	129.167
239.79	137.500
240.16	145.833
240.53	109.836
240.91	104.348
241.28	125.424
241.65	98.485
242.02	111.268
242.40	118.571
242.77	91.209
243.14	101.266
243.51	97.980
243.89	83.178
244.26	88.785
244.63	89.109
245.00	80.734
245.38	71.186
245.75	79.545
246.12	82.963
246.49	75.887
246.87	85.246
247.24	76.000
247.61	72.500
247.98	80.272
248.36	74.545
248.73	77.041
249.10	74.405
249.47	66.500
249.84	71.144
250.22	73.514
250.59	69.500
250.96	70.042
251.33	67.442
251.70	73.214
252.08	65.966
252.45	67.729
252.82	60.837
253.19	63.636
253.56	61.538
253.94	65.580
254.31	65.891
254.68	63.763
255.05	67.241
255.42	67.883
255.79	62.541
256.16	65.424
256.54	68.182
256.91	63.072
257.28	64.548
257.65	62.069
258.02	58.112
258.39	61.318
258.76	62.609
259.14	58.000
259.51	60.350
259.88	64.438
260.25	54.396
260.62	62.466
260.99	58.953
261.36	61.838
261.73	59.043
262.10	61.518
262.47	60.000
262.85	59.733
263.22	57.841
263.59	60.358
263.96	58.897
264.33	57.037
264.70	59.705
265.07	59.268
265.44	60.092
265.81	56.604
266.18	59.497
266.55	61.466
266.92	59.060
267.29	61.184
267.66	59.417
268.03	55.605
268.40	60.465
268.77	57.930
269.14	57.267
269.51	58.129
269.88	57.551
270.25	57.235
270.62	56.652
270.99	58.824
271.36	57.724
271.73	58.700
272.10	55.556
272.47	55.159
272.84	55.888
273.21	56.818
273.58	56.883
273.95	56.674
274.32	57.004
274.69	58.661
275.06	57.013
275.43	54.023
275.80	57.925
276.17	53.860
276.54	54.579
276.91	56.716
277.28	54.380
277.65	56.089
278.02	53.860
278.39	52.338
278.76	55.690
279.13	56.406
279.50	52.000
279.87	53.073
280.23	55.433
280.60	55.839
280.97	53.276
281.34	51.980
281.71	56.000
282.08	55.214
282.45	52.703
282.82	53.010
283.19	51.828
283.56	52.066
283.92	52.443
284.29	55.075
284.66	52.773
285.03	51.078
285.40	53.058
285.77	50.926
286.14	52.477
286.51	53.067
286.87	51.582
287.24	50.150
287.61	48.936
287.98	51.045
288.35	50.667
288.72	48.103
289.08	50.300
289.45	49.238
289.82	49.062
290.19	49.341
290.56	50.509
290.93	48.921
291.29	47.099
291.66	47.881
292.03	47.826
292.40	46.341
292.77	46.936
293.13	46.362
293.50	46.424
293.87	43.089
294.24	46.294
294.60	46.030
294.97	48.112
295.34	43.958
295.71	45.204
296.08	44.667
296.44	44.473
296.81	43.424
297.18	43.473
297.55	43.842
297.91	42.980
298.28	42.754
298.65	42.577
299.02	43.064
299.38	43.645
299.75	42.927
300.12	40.711
300.48	43.443
300.85	43.862
301.22	42.558
301.59	41.981
301.95	42.824
302.32	42.026
302.69	42.873
303.05	42.761
303.42	38.677
303.79	42.795
304.15	41.144
304.52	39.746
304.89	40.618
305.25	41.602
305.62	40.938
305.99	40.761
306.35	41.053
306.72	40.166
307.09	41.822
307.45	39.916
307.82	39.198
308.19	40.928
308.55	39.300
308.92	40.726
309.29	42.012
309.65	41.031
310.02	42.191
310.38	41.077
310.75	42.141
311.12	40.709
311.48	42.568
311.85	41.889
312.22	42.502
312.58	42.857
312.95	42.718
313.31	43.820
313.68	42.495
314.05	45.147
314.41	43.855
314.78	43.845
315.14	45.877
315.51	46.263
315.87	45.620
316.24	45.472
316.61	44.226
316.97	45.596
317.34	48.158
317.70	45.303
318.07	48.488
318.43	48.770
318.80	48.424
319.16	48.776
319.53	50.177
319.89	50.896
320.26	51.583
320.62	50.641
320.99	51.668
321.35	52.597
321.72	53.795
322.08	54.201
322.45	52.134
322.81	54.529
323.18	55.329
323.54	56.969
323.91	58.386
324.27	57.913
324.64	57.958
325.00	60.603
325.37	60.877
325.73	60.793
326.10	61.889
326.46	63.336
326.83	62.960
327.19	65.863
327.56	65.096
327.92	67.787
328.29	67.267
328.65	69.349
329.01	68.092
329.38	68.274
329.74	67.976
330.11	70.982
330.47	69.650
330.84	68.421
331.20	71.658
331.56	71.675
331.93	73.311
332.29	70.918
332.66	72.619
333.02	71.993
333.38	71.990
333.75	71.143
334.11	73.322
334.48	73.675
334.84	72.213
335.20	72.198
335.57	72.376
335.93	70.816
336.29	71.891
336.66	74.786
337.02	71.343
337.38	72.743
337.75	73.395
338.11	72.996
338.47	73.582
338.84	71.126
339.20	72.294
339.56	74.264
339.93	73.495
340.29	72.101
340.65	72.087
341.02	72.003
341.38	71.264
341.74	73.920
342.11	72.538
342.47	71.452
342.83	74.979
343.20	72.352
343.56	70.294
343.92	72.419
344.28	72.010
344.65	73.187
345.01	71.111
345.37	72.196
345.73	72.698
346.10	70.757
346.46	71.212
346.82	70.833
347.19	71.020
347.55	70.960
347.91	70.166
348.27	70.333
348.63	72.389
349.00	70.678
349.36	72.685
349.72	70.948
350.08	70.963
350.45	70.449
350.81	70.795
351.17	71.495
351.53	71.671
351.89	70.085
352.26	71.731
352.62	70.965
352.98	71.472
353.34	70.031
353.70	70.642
354.07	70.077
354.43	71.429
354.79	69.552
355.15	72.511
355.51	70.317
355.87	71.235
356.24	72.671
356.60	70.320
356.96	70.129
357.32	71.138
357.68	70.999
358.04	68.921
358.40	70.090
358.77	70.173
359.13	70.946
359.49	70.423
359.85	70.737
360.21	69.911
360.57	69.562
360.93	70.130
361.29	70.491
361.66	71.365
362.02	69.318
362.38	69.841
362.74	70.701
363.10	71.529
363.46	69.337
363.82	70.196
364.18	70.839
364.54	71.245
364.90	70.683
365.26	70.437
365.62	70.166
365.98	69.924
366.35	69.655
366.71	71.339
367.07	70.239
367.43	67.898
367.79	69.814
368.15	69.607
368.51	70.159
368.87	69.769
369.23	69.716
369.59	70.061
369.95	70.559
370.31	69.405
370.67	69.119
371.03	70.168
371.39	69.252
371.75	70.621
372.11	71.856
372.47	68.219
372.83	70.156
373.19	69.568
373.55	70.997
373.91	70.442
374.27	69.511
374.63	69.763
374.99	71.563
375.35	71.102
375.71	71.306
376.07	70.690
376.42	69.949
376.78	71.162
377.14	70.577
377.50	69.850
377.86	70.404
378.22	69.470
378.58	70.400
378.94	70.247
379.30	70.831
379.66	70.439
380.02	70.850
380.38	70.960
380.74	70.588
381.09	69.743
381.45	68.671
381.81	70.390
382.17	70.696
382.53	69.226
382.89	70.905
383.25	70.101
383.61	68.934
383.97	69.466
384.32	69.681
384.68	69.816
385.04	69.109
385.40	69.751
385.76	69.982
386.12	69.450
386.48	70.152
386.83	70.171
387.19	70.907
387.55	69.494
387.91	69.342
388.27	70.553
388.62	69.425
388.98	69.913
389.34	68.709
389.70	70.165
390.06	69.817
390.42	69.402
390.77	70.025
391.13	69.644
391.49	68.300
391.85	69.969
392.20	70.322
392.56	69.235
392.92	69.399
393.28	69.899
393.64	68.062
393.99	69.057
394.35	68.687
394.71	68.094
395.07	68.735
395.42	69.731
395.78	69.957
396.14	69.217
396.50	69.254
396.85	69.085
397.21	70.156
397.57	69.038
397.92	67.880
398.28	67.788
398.64	68.354
399.00	68.252
399.35	68.116
399.71	67.494
400.07	68.094
400.42	69.194
400.78	69.501
401.14	68.937
401.49	66.705
401.85	68.192
402.21	68.658
402.57	68.402
402.92	69.030
403.28	68.258
403.63	66.745
403.99	67.069
404.35	68.464
404.70	68.636
405.06	66.592
405.42	67.744
405.77	67.641
406.13	66.649
406.49	67.879
406.84	67.174
407.20	67.523
407.55	67.385
407.91	67.581
408.27	67.738
408.62	67.593
408.98	67.061
409.34	66.628
409.69	68.077
410.05	66.190
410.40	67.020
410.76	66.400
411.11	66.232
411.47	65.247
411.83	64.733
412.18	66.667
412.54	67.027
412.89	66.018
413.25	66.420
413.60	66.764
413.96	66.786
414.31	67.355
414.67	67.163
415.03	66.858
415.38	66.625
415.74	66.835
416.09	66.458
416.45	67.098
416.80	67.223
417.16	65.754
417.51	67.452
417.87	66.145
418.22	65.249
418.58	67.834
418.93	67.103
419.29	66.420
419.64	66.747
420.00	68.079
420.35	67.364
420.71	67.853
421.06	67.746
421.42	67.530
421.77	68.184
422.12	67.144
422.48	65.639
422.83	67.020
423.19	66.685
423.54	67.087
423.90	67.044
424.25	67.309
424.61	67.324
424.96	68.436
425.31	66.721
425.67	68.855
426.02	67.134
426.38	66.569
426.73	67.553
427.09	67.260
427.44	66.517
427.79	67.867
428.15	70.301
428.50	68.857
428.85	68.489
429.21	67.693
429.56	67.597
429.92	68.523
430.27	67.392
430.62	67.597
430.98	67.465
431.33	68.448
431.68	67.012
432.04	67.615
432.39	69.265
432.74	67.974
433.10	69.324
433.45	69.213
433.80	69.443
434.16	69.732
434.51	70.072
434.86	68.590
435.22	69.368
435.57	70.539
435.92	70.689
436.28	69.067
436.63	69.476
436.98	69.876
437.34	69.463
437.69	69.485
438.04	68.763
438.39	69.644
438.75	69.209
439.10	69.077
439.45	68.344
439.81	69.115
440.16	69.125
440.51	69.426
440.86	71.054
441.22	69.643
441.57	71.076
441.92	69.595
442.27	68.093
442.63	69.512
442.98	70.151
443.33	69.095
443.68	69.316
444.03	69.369
444.39	70.151
444.74	68.892
445.09	71.827
445.44	69.447
445.79	70.468
446.15	70.105
446.50	70.042
446.85	69.024
447.20	69.453
447.55	71.996
447.91	69.952
448.26	69.329
448.61	70.536
448.96	71.351
449.31	70.187
449.66	69.712
450.02	69.476
450.37	70.072
450.72	70.193
451.07	70.506
451.42	69.235
451.77	69.931
452.12	69.314
452.47	70.899
452.83	71.211
453.18	70.571
453.53	70.160
453.88	70.229
454.23	69.901
454.58	69.347
454.93	70.325
455.28	71.603
455.63	69.504
455.98	71.010
456.34	72.097
456.69	71.341
457.04	70.107
457.39	70.743
457.74	71.565
458.09	69.118
458.44	70.208
458.79	69.496
459.14	69.449
459.49	69.309
459.84	69.511
460.19	69.096
460.54	68.034
460.89	69.296
461.24	69.187
461.59	70.068
461.94	69.208
462.29	69.794
462.64	70.226
462.99	69.034
463.34	68.244
463.69	69.994
464.04	70.351
464.39	69.891
464.74	68.523
465.09	69.124
465.44	67.954
465.79	68.372
466.14	66.879
466.49	67.878
466.84	68.004
467.19	67.604
467.54	68.168
467.89	69.014
468.24	69.137
468.59	67.202
468.94	67.391
469.29	68.296
469.64	67.267
469.99	68.188
470.34	68.374
470.68	69.034
471.03	68.312
471.38	68.013
471.73	68.125
472.08	69.276
472.43	69.584
472.78	68.246
473.13	67.772
473.48	68.215
473.83	67.373
474.17	67.781
474.52	66.291
474.87	67.311
475.22	66.876
475.57	66.946
475.92	66.684
476.27	67.410
476.61	66.220
476.96	65.517
477.31	68.123
477.66	68.116
478.01	66.271
478.36	67.302
478.70	66.352
479.05	67.469
479.40	66.716
479.75	67.229
480.10	66.651
480.45	66.153
480.79	65.115
481.14	66.619
481.49	64.547
481.84	64.776
482.19	65.459
482.53	65.217
482.88	65.188
483.23	65.133
483.58	65.305
483.92	66.545
484.27	65.240
484.62	65.874
484.97	65.485
485.31	64.911
485.66	65.261
486.01	64.267
486.36	62.265
486.70	62.173
487.05	62.030
487.40	63.082
487.75	62.967
488.09	62.614
488.44	63.098
488.79	63.589
489.13	65.845
489.48	65.202
489.83	63.678
490.17	62.097
490.52	63.351
490.87	63.448
491.22	63.830
491.56	63.417
491.91	62.769
492.26	63.697
492.60	64.510
492.95	63.299
493.30	62.557
493.64	64.106
493.99	63.148
494.34	62.438
494.68	62.638
495.03	63.089
495.37	62.900
495.72	63.730
496.07	63.297
496.41	62.424
496.76	62.178
497.11	62.125
497.45	62.955
497.80	63.670
498.14	61.396
498.49	61.746
498.84	63.224
499.18	61.335
499.53	62.058
499.87	61.635
500.22	62.275
500.56	62.628
500.91	62.106
501.26	62.058
501.60	60.838
501.95	61.738
502.29	60.844
502.64	61.667
502.98	61.227
503.33	60.624
503.67	60.883
504.02	60.725
504.36	60.000
504.71	62.772
505.06	60.957
505.40	62.096
505.75	60.804
506.09	60.149
506.44	60.150
506.78	61.153
507.13	61.318
507.47	61.329
507.82	60.389
508.16	60.804
508.51	60.097
508.85	59.544
509.19	61.038
509.54	60.352
509.88	60.816
510.23	60.490
510.57	59.604
510.92	59.491
511.26	60.392
511.61	59.577
511.95	60.229
512.30	60.100
512.64	58.723
512.98	58.688
513.33	59.016
513.67	59.710
514.02	58.753
514.36	59.242
514.70	59.840
515.05	59.350
515.39	59.594
515.74	61.618
516.08	59.804
516.42	60.765
516.77	59.253
517.11	59.040
517.46	57.381
517.80	58.875
518.14	60.056
518.49	59.151
518.83	58.132
519.17	59.567
519.52	59.093
519.86	57.929
520.20	58.521
520.55	58.677
520.89	58.506
521.23	59.054
521.58	58.003
521.92	58.484
522.26	58.472
522.61	58.645
522.95	60.060
523.29	58.012
523.64	56.936
523.98	59.272
524.32	57.439
524.66	57.565
525.01	57.988
525.35	58.044
525.69	58.519
526.04	58.239
526.38	58.328
526.72	58.294
527.06	57.895
527.41	57.618
527.75	57.821
528.09	56.954
528.43	57.596
528.78	58.020
529.12	59.302
529.46	57.043
529.80	57.418
530.15	57.101
530.49	56.137
530.83	55.941
531.17	56.704
531.51	57.449
531.86	56.461
532.20	56.242
532.54	56.560
532.88	56.402
533.22	56.977
533.57	56.559
533.91	55.594
534.25	55.915
534.59	57.193
534.93	55.916
535.27	53.614
535.62	55.718
535.96	55.260
536.30	57.160
536.64	56.025
536.98	56.514
537.32	54.625
537.66	57.143
538.01	55.170
538.35	54.897
538.69	55.400
539.03	55.597
539.37	55.643
539.71	57.160
540.05	56.246
540.39	56.289
540.73	55.886
541.07	55.458
541.42	55.348
541.76	56.104
542.10	54.871
542.44	55.050
542.78	55.129
543.12	53.620
543.46	54.386
543.80	55.514
544.14	56.099
544.48	54.258
544.82	54.312
545.16	53.552
545.50	54.210
545.84	55.808
546.18	56.697
546.52	55.607
546.86	54.868
547.20	55.039
547.54	53.895
547.88	53.832
548.22	55.373
548.56	52.681
548.90	53.677
549.24	54.643
549.58	54.059
549.92	53.897
550.26	54.834
550.60	54.092
550.94	54.953
551.28	56.345
551.62	54.966
551.96	55.000
552.30	53.593
552.64	55.469
552.98	54.446
553.32	53.521
553.66	54.593
554.00	54.183
554.34	55.526
554.68	54.704
555.02	54.786
555.36	53.391
555.69	53.927
556.03	53.376
556.37	54.685
556.71	53.977
557.05	52.163
557.39	53.133
557.73	53.100
558.07	53.521
558.41	53.735
558.75	52.668
559.08	54.325
559.42	54.331
559.76	53.671
560.10	52.994
560.44	54.015
560.78	52.430
561.12	54.990
561.45	52.566
561.79	52.372
562.13	53.316
562.47	53.407
562.81	54.196
563.15	53.458
563.48	51.118
563.82	53.587
564.16	54.104
564.50	51.718
564.84	52.462
565.17	53.119
565.51	53.695
565.85	53.794
566.19	51.905
566.52	51.986
566.86	52.598
567.20	51.629
567.54	53.166
567.88	51.695
568.21	51.423
568.55	51.946
568.89	50.958
569.23	51.079
569.56	52.077
569.90	50.269
570.24	50.767
570.57	51.233
570.91	50.764
571.25	50.563
571.59	50.000
571.92	49.408
572.26	49.407
572.60	49.042
572.93	49.454
573.27	49.684
573.61	50.217
573.95	50.149
574.28	50.048
574.62	49.534
574.96	49.390
575.29	48.811
575.63	48.881
575.97	48.028
576.30	48.140
576.64	49.209
576.98	49.060
577.31	50.034
577.65	49.584
577.98	48.720
578.32	48.883
578.66	48.814
578.99	48.626
579.33	48.354
579.67	48.050
580.00	48.338
580.34	48.659
580.67	48.456
581.01	49.309
581.35	48.579
581.68	48.807
582.02	48.499
582.35	47.766
582.69	48.459
583.02	48.311
583.36	48.872
583.70	48.167
584.03	49.913
584.37	49.419
584.70	49.092
585.04	48.346
585.37	48.016
585.71	49.034
586.04	48.270
586.38	48.743
586.72	48.906
587.05	48.893
587.39	48.394
587.72	48.963
588.06	48.622
588.39	49.386
588.73	48.515
589.06	48.760
589.40	49.233
589.73	49.131
590.07	49.897
590.40	50.105
590.73	51.157
591.07	49.715
591.40	48.822
591.74	49.472
592.07	49.376
592.41	49.640
592.74	48.993
593.08	48.210
593.41	48.803
593.75	48.170
594.08	48.168
594.41	48.126
594.75	48.630
595.08	49.760
595.42	48.914
595.75	48.996
596.09	49.009
596.42	48.725
596.75	50.321
597.09	49.113
597.42	49.429
597.75	48.114
598.09	48.748
598.42	48.062
598.76	47.803
599.09	48.952
599.42	48.270
599.76	48.847
600.09	47.898
600.42	48.550
600.76	48.368
601.09	48.533
601.42	48.539
601.76	48.729
602.09	48.492
602.42	48.133
602.76	48.273
603.09	49.133
603.42	48.881
603.76	48.192
604.09	47.919
604.42	49.077
604.76	48.044
605.09	47.796
605.42	48.761
605.75	48.125
606.09	47.972
606.42	47.839
606.75	48.309
607.09	47.848
607.42	48.895
607.75	47.134
608.08	48.010
608.42	48.406
608.75	47.582
609.08	48.658
609.41	48.227
609.75	48.031
610.08	48.426
610.41	47.519
610.74	48.355
611.07	49.341
611.41	49.398
611.74	48.614
612.07	48.603
612.40	49.708
612.73	49.675
613.07	49.569
613.40	49.173
613.73	50.175
614.06	47.850
614.39	48.687
614.72	48.569
615.06	47.626
615.39	48.564
615.72	47.047
616.05	48.066
616.38	48.300
616.71	48.508
617.05	48.545
617.38	48.427
617.71	49.156
618.04	48.289
618.37	48.749
618.70	47.691
619.03	48.474
619.36	47.990
619.69	47.691
620.03	50.685
620.36	49.004
620.69	50.255
621.02	49.932
621.35	47.779
621.68	49.189
622.01	51.144
622.34	50.036
622.67	49.438
623.00	47.651
623.33	49.190
623.66	48.703
623.99	50.068
624.32	49.593
624.65	47.465
624.99	50.237
625.32	48.898
625.65	48.069
625.98	47.768
626.31	48.813
626.64	48.292
626.97	47.972
627.30	48.370
627.63	48.666
627.96	49.452
628.29	49.835
628.62	48.503
628.95	49.823
629.28	51.358
629.61	48.858
629.94	47.277
630.26	49.913
630.59	50.621
630.92	49.058
631.25	50.227
631.58	50.723
631.91	49.477
632.24	48.688
632.57	48.723
632.90	51.035
633.23	51.417
633.56	51.001
633.89	50.375
634.22	50.054
634.55	50.215
634.88	50.383
635.20	50.224
635.53	51.336
635.86	49.664
636.19	49.607
636.52	47.784
636.85	49.730
637.18	48.862
637.51	48.827
637.83	51.602
638.16	52.052
638.49	49.820
638.82	51.056
639.15	51.821
639.48	50.948
639.81	50.305
640.13	50.429
640.46	48.420
640.79	49.675
641.12	49.213
641.45	52.393
641.77	50.859
642.10	51.138
642.43	54.481
642.76	50.710
643.09	51.873
643.41	50.351
643.74	52.086
644.07	52.802
644.40	51.036
644.73	53.303
645.05	54.235
645.38	51.761
645.71	51.897
646.04	53.588
646.36	51.956
646.69	51.040
647.02	51.200
647.35	51.654
647.67	52.188
648.00	52.606
648.33	50.376
648.66	51.818
648.98	50.580
649.31	48.313
649.64	48.824
649.96	50.498
650.29	48.429
650.62	51.988
650.94	53.012
651.27	54.226
651.60	51.017
651.92	50.384
652.25	51.339
652.58	49.362
652.90	51.796
653.23	51.994
653.56	52.374
653.88	49.927
654.21	49.853
654.54	49.048
654.86	50.147
655.19	52.770
655.52	45.826
655.84	42.446
656.17	49.257
656.49	70.070
656.82	79.589
657.15	62.976
657.47	46.870
657.80	34.935
658.13	27.678
658.45	37.629
658.78	46.061
659.10	46.636
659.43	46.766
659.75	48.028
660.08	49.248
660.41	50.544
660.73	53.199
661.06	52.252
661.38	54.855
661.71	50.180
662.03	51.901
662.36	50.667
662.68	50.466
663.01	51.171
663.33	49.623
663.66	51.677
663.98	52.381
664.31	51.306
664.63	51.533
664.96	52.720
665.28	49.529
665.61	49.245
665.93	52.453
666.26	52.336
666.58	52.477
666.91	50.772
667.23	53.815
667.56	53.593
667.88	53.320
668.21	53.689
668.53	51.210
668.86	51.703
669.18	52.342
669.50	51.446
669.83	53.388
670.15	51.975
670.48	49.805
670.80	51.992
671.13	50.000
671.45	53.307
671.77	53.803
672.10	51.167
672.42	49.013
672.75	50.791
673.07	50.556
673.39	48.722
673.72	51.903
674.04	51.075
674.37	49.002
674.69	51.673
675.01	50.560
675.34	49.612
675.66	51.953
675.98	48.718
676.31	51.800
676.63	49.503
676.95	51.587
677.28	52.130
677.60	51.509
677.92	47.619
678.25	52.519
678.57	52.700
678.89	51.899
679.22	50.551
679.54	50.534
679.86	49.564
680.18	51.318
680.51	47.761
680.83	47.635
681.15	49.740
681.48	51.042
681.80	46.935
682.12	48.789
682.44	46.847
682.77	49.644
683.09	52.233
683.41	50.612
683.73	48.228
684.06	48.413
684.38	53.101
684.70	50.000
685.02	46.875
685.34	51.056
685.67	48.553
685.99	49.918
686.31	48.074
686.63	48.943
686.96	48.529
687.28	49.161
687.60	48.976
687.92	51.256
688.24	48.966
688.56	47.509
688.89	46.272
689.21	49.133
689.53	51.976
689.85	51.626
690.17	50.097
690.49	48.992
690.82	50.210
691.14	51.313
691.46	50.513
691.78	51.072
692.10	48.473
692.42	44.646
692.74	49.031
693.06	48.837
693.39	49.605
693.71	49.116
694.03	49.704
694.35	51.606
694.67	50.916
694.99	51.663
695.31	52.252
695.63	50.226
695.95	52.941
696.27	51.327
696.59	52.745
696.91	50.127
697.23	50.905
697.56	49.585
697.88	48.303
698.20	48.302
698.52	48.249
698.84	49.692
699.16	53.731
699.48	52.542
699.80	53.159
700.12	49.885
700.44	46.028
700.76	50.835
701.08	53.003
701.40	51.688
701.72	52.139
702.04	52.846
702.36	53.226
702.68	55.053
703.00	48.622
703.32	49.380
703.64	53.401
703.96	53.385
704.28	52.116
704.60	53.521
704.91	52.101
705.23	51.136
705.55	53.116
705.87	53.016
706.19	56.740
706.51	57.367
706.83	51.622
707.15	52.941
707.47	52.542
707.79	51.954
708.11	51.020
708.43	48.090
708.74	49.774
709.06	46.977
709.38	54.094
709.70	52.589
710.02	51.630
710.34	51.381
710.66	47.778
710.98	54.098
711.29	50.975
711.61	51.253
711.93	56.535
712.25	53.916
712.57	57.878
712.89	56.970
713.20	57.188
713.52	53.583
713.84	54.079
714.16	48.406
714.48	50.432
714.80	54.201
715.11	50.798
715.43	51.676
715.75	51.268
716.07	54.046
716.39	49.714
716.70	49.221
717.02	55.892
717.34	52.878
717.66	57.986
717.97	53.788
718.29	54.225
718.61	56.081
718.93	56.055
719.24	55.705
719.56	53.103
719.88	51.274
720.20	53.226
720.51	52.941
720.83	53.512
721.15	57.143
721.46	53.082
721.78	52.962
722.10	55.903
722.42	54.849
722.73	52.708
723.05	52.632
723.37	58.657
723.68	53.516
724.00	56.818
724.32	54.373
724.63	59.615
724.95	58.039
725.27	53.903
725.58	48.529
725.90	60.563
726.22	50.685
726.53	54.849
726.85	55.375
727.16	56.711
727.48	53.488
727.80	58.993
728.11	59.643
728.43	50.362
728.74	52.098
729.06	48.746
729.38	55.088
729.69	56.667
730.01	56.579
730.32	53.691
730.64	59.136
730.96	49.850
731.27	49.541
731.59	51.149
731.90	47.911
732.22	53.429
732.53	50.997
732.85	50.000
733.16	53.614
733.48	52.351
733.80	51.594
734.11	56.442
734.43	54.094
734.74	50.670
735.06	52.381
735.37	47.680
735.69	50.435
736.00	58.716
736.32	49.697
736.63	52.050
736.95	53.106
737.26	55.183
737.58	51.227
737.89	53.313
738.21	56.954
738.52	51.839
738.83	57.509
739.15	54.007
739.46	53.793
739.78	55.442
740.09	48.980
740.41	53.067
740.72	54.921
741.04	54.545
741.35	55.859
741.66	58.893
741.98	55.365
742.29	58.333
742.61	58.407
742.92	55.932
743.23	50.000
743.55	54.717
743.86	54.902
744.18	58.051
744.49	61.157
744.80	60.369
745.12	56.250
745.43	57.944
745.74	56.889
746.06	50.439
746.37	58.140
746.68	57.522
747.00	60.987
747.31	53.782
747.62	53.689
747.94	56.223
748.25	56.420
748.56	53.814
748.88	58.929
749.19	57.674
749.50	56.621
749.82	56.379
750.13	58.893
750.44	50.667
750.75	55.705
751.07	53.947
751.38	51.155
751.69	52.189
752.01	55.594
752.32	51.827
752.63	52.013
752.94	51.399
753.26	56.641
753.57	55.642
753.88	50.562
754.19	57.762
754.51	55.814
754.82	47.987
755.13	50.338
755.44	55.185
755.75	56.014
756.07	54.795
756.38	50.654
756.69	49.063
757.00	53.412
757.31	49.577
757.63	49.587
757.94	50.532
758.25	49.275
758.56	48.284
758.87	51.378
759.18	54.070
759.50	51.064
759.81	50.148
760.12	47.753
760.43	53.782
760.74	51.392
761.05	51.194
761.36	46.875
761.67	51.482
761.99	47.606
762.30	55.949
762.61	45.833
762.92	52.273
763.23	50.943
763.54	51.538
763.85	52.140
764.16	55.556
764.47	52.027
764.78	47.557
765.10	49.695
765.41	49.716
765.72	50.000
766.03	49.245
766.34	56.446
766.65	56.274
766.96	55.870
767.27	60.748
767.58	58.911
767.89	62.983
768.20	61.585
768.51	59.184
768.82	56.579
769.13	54.902
769.44	55.639
769.75	47.566
770.06	57.983
770.37	51.316
770.68	55.556
770.99	60.593
771.30	55.649
771.61	50.769
771.92	53.053
772.23	50.000
772.54	61.778
772.85	57.426
773.16	55.435
773.47	58.889
773.78	57.921
774.09	60.795
774.39	65.455
774.70	59.412
775.01	62.500
775.32	56.522
775.63	54.110
775.94	66.667
776.25	62.759
776.56	77.099
776.87	70.229
777.18	68.182
777.48	83.465
777.79	71.538
778.10	60.606
778.41	72.388
778.72	66.917
779.03	59.615
779.34	62.838
779.65	65.839
779.95	64.596
780.26	61.310
780.57	70.068
780.88	68.794
781.19	75.000
781.50	60.947
781.80	60.656
782.11	60.317
782.42	59.195
782.73	60.452
783.04	56.774
783.34	68.992
783.65	57.143
783.96	61.935
784.27	54.967
784.57	63.158
784.88	63.768
785.19	67.500
785.50	61.207
785.81	66.667
786.11	65.185
786.42	70.079
786.73	76.577
787.04	82.075
787.34	62.602
787.65	60.606
787.96	63.636
788.26	67.717
788.57	72.263
788.88	68.310
789.19	64.122
789.49	64.189
789.80	69.531
790.11	64.463
790.41	62.963
790.72	62.037
791.03	73.077
791.33	78.788
791.64	69.474
791.95	73.684
792.25	68.750
792.56	74.000
792.87	82.927
793.17	84.091
793.48	70.588
793.79	77.011
794.09	67.045
794.40	77.586
794.70	72.222
795.01	63.077
795.32	55.725
795.62	70.085
795.93	68.908
796.23	64.228
796.54	82.653
796.85	88.636
797.15	84.416
797.46	80.488
797.76	61.250
798.07	82.667
798.37	77.500
798.68	90.000
798.99	85.366
799.29	73.333
799.60	66.279
799.90	89.474
800.21	100.000
800.51	80.282
800.82	94.828
801.12	121.538
801.43	98.667
801.73	113.793
802.04	85.714
802.34	90.411
802.65	117.647
802.95	113.043
803.26	112.903
803.56	108.333
803.87	100.000
804.17	92.063
804.48	118.868
804.78	97.222
805.09	92.424
805.39	103.175
805.70	94.737
806.00	77.143
806.30	93.750
806.61	80.000
806.91	66.667
807.22	56.522
807.52	82.895
807.83	92.105
808.13	91.304
808.43	90.323
808.74	79.452
809.04	117.857
809.35	94.118
809.65	109.091
809.95	88.235
810.26	114.815
810.56	90.625
810.86	100.000
811.17	100.000
811.47	126.087
811.77	96.552
812.08	98.276
812.38	119.048
812.69	102.381
812.99	97.778
813.29	137.143
813.59	177.419
813.90	89.655
814.20	90.164
814.50	126.000
814.81	101.754
815.11	116.667
815.41	103.571
815.72	123.214
816.02	90.000
816.32	134.146
816.62	100.000
816.93	160.606
817.23	136.585
817.53	108.929
817.84	122.222
818.14	135.714
818.44	102.083
818.74	98.113
819.04	105.128
819.35	148.485
819.65	121.154
819.95	114.815
820.25	104.255
820.56	129.730
820.86	142.105
821.16	117.021
821.46	144.737
821.76	112.727
822.07	88.095
822.37	113.158
822.67	134.884
822.97	92.105
823.27	115.217
823.57	131.250
823.88	123.077
824.18	106.061
824.48	134.783
824.78	105.556
825.08	165.217
825.38	155.172
825.69	117.647
825.99	80.851
826.29	138.889
826.59	134.286
826.89	163.333
827.19	125.714
827.49	164.516
827.79	173.077
828.09	97.619
828.39	141.667
828.70	110.811
829.00	139.286
829.30	231.250
829.60	122.222
829.90	167.742
830.20	112.121
830.50	159.459
830.80	183.333
831.10	188.462
831.40	171.429
831.70	212.500
832.00	190.000
832.30	173.913
832.60	212.500
832.90	166.667
833.20	215.000
833.50	131.579
833.80	147.059
834.10	134.211
834.40	200.000
834.70	133.333
835.00	160.000
835.30	118.919
835.60	184.375
835.90	135.135
836.20	134.615
836.50	168.182
836.80	92.683
837.10	160.870
837.40	369.231
837.70	184.211
838.00	136.667
838.30	216.667
838.60	188.000
838.90	390.000
839.19	256.250
839.49	173.333
839.79	117.241
840.09	150.000
840.39	240.000
840.69	252.632
840.99	147.619
841.29	204.348
841.59	205.000
841.88	192.000
842.18	344.444
842.48	167.857
842.78	174.074
843.08	246.154
843.38	159.091
843.68	264.286
843.97	442.857
844.27	139.130
844.57	2200.000
844.87	250.000
845.17	227.778
845.47	171.429
845.76	183.333
846.06	514.286
846.36	211.765
846.66	261.538
846.96	250.000
847.25	284.615
847.55	178.947
847.85	138.889
848.15	440.000
848.44	327.273
848.74	209.524
849.04	237.500
849.34	182.353
849.63	218.750
849.93	268.750
850.23	800.000
850.53	462.500
850.82	381.818
851.12	170.588
851.42	187.500
851.71	256.250
852.01	0.000
852.31	223.529
852.61	440.000
852.90	204.167
853.20	266.667
853.50	-2900.000
853.79	164.000
854.09	168.750
854.39	186.207
854.68	172.414
854.98	195.238
855.28	145.161
855.57	250.000
855.87	216.667
856.17	122.222
856.46	189.474
856.76	138.710
857.05	270.588
857.35	281.818
857.65	346.154
857.94	230.000
858.24	533.333
858.53	271.429
858.83	642.857
859.13	191.304
859.42	477.778
859.72	387.500
860.01	266.667
860.31	850.000
860.60	340.000
860.90	412.500
861.20	200.000
861.49	485.714
861.79	-3100.000
862.08	514.286
862.38	488.889
862.67	214.286
862.97	330.000
863.26	163.333
863.56	875.000
863.85	376.923
864.15	323.529
864.44	238.889
864.74	325.000
865.03	336.364
865.33	375.000
865.62	273.333
865.92	533.333
866.21	1000.000
866.51	760.000
866.80	238.889
867.10	1266.667
867.39	3000.000
867.69	720.000
867.98	875.000
868.27	209.524
868.57	266.667
868.86	950.000
869.16	171.429
869.45	2600.000
869.75	-433.333
870.04	1050.000
870.33	740.000
870.63	387.500
870.92	235.294
871.22	750.000
871.51	500.000
871.80	383.333
872.10	284.615
>>>>>End Processed Spectral Data<<<<<
