SpectraSuite Data File
++++++++++++++++++++++++++++++++++++
Date: Tue May 12 16:05:44 PDT 2015
User: schluterlab
Dark Spectrum Present: Yes
Reference Spectrum Present: Yes
Number of Sampled Component Spectra: 1
Spectrometers: USB2E3373
Integration Time (usec): 3000 (USB2E3373)
Spectra Averaged: 3 (USB2E3373)
Boxcar Smoothing: 0 (USB2E3373)
Correct for Electrical Dark: No (USB2E3373)
Strobe/Lamp Enabled: No (USB2E3373)
Correct for Detector Non-linearity: No (USB2E3373)
Correct for Stray Light: No (USB2E3373)
Number of Pixels in Processed Spectrum: 2048
>>>>>Begin Processed Spectral Data<<<<<
178.53	0.000
178.91	-275.000
179.29	-775.000
179.67	-4400.000
180.04	-180.000
180.42	900.000
180.80	1850.000
181.18	0.000
181.56	-362.500
181.94	0.000
182.31	1233.333
182.69	-4300.000
183.07	657.143
183.45	-4000.000
183.83	-1800.000
184.20	430.000
184.58	528.571
184.96	-261.538
185.34	-225.000
185.72	1500.000
186.09	-750.000
186.47	-3000.000
186.85	1200.000
187.23	740.000
187.61	1500.000
187.98	562.500
188.36	235.714
188.74	350.000
189.12	400.000
189.49	950.000
189.87	0.000
190.25	575.000
190.63	3700.000
191.00	-216.667
191.38	-3600.000
191.76	-675.000
192.14	562.500
192.51	-2400.000
192.89	2150.000
193.27	1033.333
193.65	-833.333
194.02	-660.000
194.40	485.714
194.78	-257.143
195.15	286.667
195.53	-2800.000
195.91	-640.000
196.29	3400.000
196.66	268.750
197.04	975.000
197.42	-1600.000
197.79	625.000
198.17	366.667
198.55	0.000
198.92	628.571
199.30	1166.667
199.68	2200.000
200.05	783.333
200.43	-450.000
200.81	266.667
201.18	4500.000
201.56	341.667
201.94	-975.000
202.31	-400.000
202.69	-680.000
203.07	4300.000
203.44	-533.333
203.82	316.667
204.19	680.000
204.57	-1200.000
204.95	-550.000
205.32	-860.000
205.70	583.333
206.08	925.000
206.45	-800.000
206.83	344.444
207.20	221.053
207.58	250.000
207.96	820.000
208.33	0.000
208.71	557.143
209.08	760.000
209.46	-3700.000
209.84	-925.000
210.21	1180.000
210.59	-640.000
210.96	300.000
211.34	-925.000
211.71	400.000
212.09	1000.000
212.46	1650.000
212.84	-450.000
213.22	433.333
213.59	-3000.000
213.97	320.000
214.34	800.000
214.72	1300.000
215.09	1300.000
215.47	-2500.000
215.84	-330.000
216.22	-387.500
216.59	0.000
216.97	0.000
217.34	1700.000
217.72	-2050.000
218.09	1600.000
218.47	437.500
218.84	675.000
219.22	1233.333
219.59	933.333
219.97	600.000
220.34	344.444
220.72	1250.000
221.09	4000.000
221.47	325.000
221.84	933.333
222.22	290.000
222.59	272.222
222.97	250.000
223.34	275.000
223.72	-1650.000
224.09	1266.667
224.46	346.154
224.84	-675.000
225.21	355.556
225.59	286.667
225.96	1400.000
226.34	-660.000
226.71	-625.000
227.08	-640.000
227.46	0.000
227.83	-500.000
228.21	-1650.000
228.58	391.667
228.95	1150.000
229.33	288.889
229.70	1275.000
230.08	353.846
230.45	3700.000
230.82	-850.000
231.20	-966.667
231.57	-1133.333
231.95	520.000
232.32	391.667
232.69	566.667
233.07	383.333
233.44	-1250.000
233.81	300.000
234.19	185.185
234.56	256.250
234.93	252.941
235.31	210.000
235.68	306.250
236.05	139.286
236.43	148.148
236.80	257.143
237.17	162.069
237.55	128.125
237.92	95.000
238.29	124.242
238.67	131.250
239.04	117.073
239.41	85.417
239.79	122.500
240.16	89.583
240.53	70.492
240.91	72.464
241.28	93.220
241.65	72.727
242.02	67.606
242.40	68.571
242.77	57.143
243.14	62.025
243.51	65.657
243.89	53.271
244.26	50.467
244.63	55.446
245.00	62.385
245.38	53.390
245.75	53.030
246.12	48.148
246.49	52.482
246.87	40.164
247.24	43.333
247.61	43.750
247.98	47.619
248.36	38.182
248.73	43.878
249.10	42.857
249.47	40.500
249.84	36.318
250.22	40.541
250.59	46.500
250.96	38.819
251.33	33.023
251.70	39.732
252.08	36.975
252.45	32.669
252.82	35.741
253.19	34.783
253.56	36.154
253.94	34.058
254.31	33.721
254.68	33.101
255.05	35.172
255.42	33.212
255.79	31.922
256.16	32.881
256.54	36.364
256.91	32.680
257.28	36.120
257.65	27.586
258.02	32.743
258.39	30.372
258.76	34.783
259.14	28.857
259.51	34.985
259.88	32.523
260.25	31.319
260.62	32.877
260.99	29.752
261.36	30.084
261.73	30.319
262.10	32.461
262.47	31.750
262.85	28.800
263.22	30.077
263.59	26.343
263.96	32.832
264.33	27.901
264.70	32.678
265.07	30.488
265.44	29.817
265.81	29.953
266.18	28.833
266.55	29.078
266.92	29.083
267.29	30.482
267.66	29.372
268.03	27.354
268.40	27.907
268.77	31.938
269.14	27.983
269.51	29.399
269.88	30.408
270.25	25.918
270.62	27.468
270.99	29.006
271.36	30.285
271.73	26.415
272.10	26.869
272.47	25.794
272.84	25.948
273.21	28.512
273.58	28.543
273.95	26.489
274.32	27.626
274.69	27.559
275.06	26.776
275.43	26.820
275.80	26.981
276.17	26.471
276.54	26.542
276.91	29.664
277.28	27.007
277.65	26.937
278.02	27.757
278.39	27.338
278.76	26.897
279.13	26.690
279.50	26.727
279.87	25.698
280.23	25.967
280.60	27.555
280.97	26.897
281.34	24.752
281.71	27.478
282.08	27.863
282.45	26.351
282.82	26.254
283.19	26.550
283.56	24.463
283.92	27.199
284.29	23.461
284.66	25.378
285.03	25.041
285.40	25.124
285.77	24.537
286.14	25.697
286.51	25.613
286.87	24.209
287.24	23.724
287.61	25.988
287.98	24.776
288.35	24.444
288.72	24.431
289.08	26.426
289.45	24.238
289.82	25.000
290.19	24.012
290.56	24.309
290.93	23.453
291.29	23.066
291.66	23.446
292.03	24.264
292.40	23.306
292.77	21.866
293.13	24.251
293.50	22.132
293.87	20.867
294.24	23.497
294.60	22.746
294.97	24.056
295.34	21.912
295.71	23.259
296.08	22.133
296.44	22.363
296.81	21.960
297.18	20.532
297.55	22.414
297.91	20.443
298.28	19.565
298.65	20.736
299.02	20.386
299.38	21.103
299.75	21.463
300.12	21.101
300.48	20.726
300.85	21.097
301.22	20.930
301.59	19.340
301.95	19.253
302.32	21.537
302.69	21.154
303.05	21.324
303.42	19.843
303.79	21.343
304.15	19.472
304.52	19.662
304.89	21.322
305.25	19.466
305.62	21.322
305.99	20.652
306.35	18.842
306.72	19.875
307.09	18.944
307.45	19.747
307.82	19.342
308.19	19.897
308.55	21.100
308.92	20.608
309.29	21.992
309.65	21.804
310.02	20.690
310.38	19.442
310.75	20.154
311.12	20.115
311.48	21.525
311.85	20.897
312.22	19.484
312.58	20.991
312.95	22.136
313.31	22.566
313.68	20.826
314.05	21.978
314.41	21.322
314.78	21.212
315.14	21.517
315.51	24.219
315.87	22.172
316.24	21.569
316.61	23.187
316.97	22.294
317.34	23.899
317.70	22.827
318.07	24.644
318.43	24.429
318.80	24.956
319.16	24.825
319.53	23.717
319.89	23.477
320.26	26.257
320.62	26.465
320.99	25.453
321.35	26.623
321.72	27.704
322.08	26.685
322.45	28.065
322.81	27.264
323.18	28.952
323.54	28.136
323.91	29.828
324.27	29.001
324.64	28.806
325.00	30.948
325.37	30.523
325.73	30.270
326.10	31.234
326.46	30.471
326.83	31.520
327.19	32.771
327.56	32.109
327.92	34.016
328.29	33.388
328.65	34.247
329.01	34.731
329.38	34.433
329.74	34.415
330.11	33.797
330.47	34.356
330.84	34.858
331.20	34.602
331.56	36.356
331.93	35.843
332.29	33.248
332.66	35.459
333.02	35.911
333.38	35.602
333.75	36.447
334.11	35.403
334.48	35.641
334.84	35.895
335.20	36.612
335.57	35.432
335.93	35.071
336.29	36.899
336.66	38.079
337.02	36.527
337.38	36.629
337.75	36.824
338.11	37.890
338.47	36.494
338.84	36.494
339.20	35.844
339.56	36.585
339.93	37.207
340.29	36.387
340.65	37.469
341.02	37.168
341.38	36.289
341.74	36.960
342.11	36.311
342.47	36.341
342.83	37.572
343.20	37.833
343.56	34.710
343.92	36.664
344.28	37.241
344.65	37.490
345.01	36.746
345.37	37.260
345.73	36.429
346.10	36.892
346.46	37.560
346.82	36.265
347.19	38.022
347.55	35.988
347.91	37.311
348.27	35.786
348.63	37.975
349.00	38.005
349.36	37.899
349.72	37.080
350.08	38.587
350.45	37.548
350.81	38.456
351.17	36.826
351.53	37.259
351.89	37.141
352.26	36.735
352.62	36.727
352.98	38.037
353.34	38.367
353.70	37.385
354.07	38.385
354.43	38.018
354.79	36.902
355.15	37.825
355.51	36.858
355.87	37.349
356.24	38.337
356.60	37.367
356.96	39.879
357.32	38.583
357.68	38.693
358.04	37.994
358.40	38.456
358.77	37.716
359.13	37.613
359.49	38.547
359.85	40.060
360.21	37.593
360.57	38.248
360.93	38.095
361.29	38.456
361.66	39.597
362.02	37.855
362.38	39.466
362.74	39.703
363.10	38.640
363.46	38.260
363.82	38.850
364.18	39.118
364.54	39.628
364.90	38.086
365.26	39.486
365.62	38.950
365.98	38.059
366.35	38.897
366.71	39.903
367.07	39.590
367.43	39.154
367.79	39.428
368.15	38.195
368.51	38.939
368.87	39.606
369.23	39.293
369.59	39.380
369.95	39.301
370.31	38.261
370.67	39.556
371.03	39.566
371.39	40.720
371.75	38.800
372.11	38.681
372.47	39.110
372.83	39.293
373.19	39.273
373.55	40.756
373.91	39.503
374.27	39.484
374.63	39.593
374.99	39.353
375.35	40.659
375.71	40.633
376.07	40.119
376.42	38.299
376.78	40.141
377.14	40.564
377.50	39.825
377.86	39.398
378.22	40.951
378.58	40.799
378.94	40.072
379.30	40.752
379.66	40.337
380.02	41.056
380.38	39.520
380.74	40.715
381.09	41.180
381.45	40.058
381.81	39.835
382.17	39.988
382.53	40.192
382.89	40.154
383.25	40.142
383.61	39.251
383.97	39.112
384.32	40.506
384.68	41.058
385.04	40.211
385.40	39.442
385.76	39.672
386.12	41.002
386.48	41.398
386.83	40.831
387.19	40.518
387.55	40.695
387.91	40.531
388.27	40.750
388.62	40.317
388.98	39.883
389.34	39.203
389.70	39.623
390.06	40.427
390.42	40.901
390.77	40.971
391.13	39.710
391.49	40.169
391.85	41.600
392.20	40.405
392.56	40.323
392.92	40.090
393.28	38.677
393.64	40.138
393.99	40.486
394.35	38.905
394.71	38.359
395.07	39.720
395.42	38.407
395.78	41.209
396.14	39.337
396.50	38.748
396.85	39.207
397.21	38.929
397.57	39.211
397.92	38.533
398.28	39.217
398.64	38.743
399.00	39.284
399.35	38.862
399.71	39.625
400.07	38.242
400.42	38.388
400.78	39.531
401.14	37.757
401.49	38.479
401.85	38.181
402.21	38.254
402.57	39.019
402.92	40.000
403.28	37.947
403.63	38.140
403.99	38.239
404.35	39.097
404.70	39.457
405.06	37.675
405.42	38.420
405.77	38.093
406.13	37.202
406.49	38.147
406.84	36.774
407.20	37.842
407.55	37.600
407.91	39.247
408.27	38.629
408.62	37.966
408.98	37.729
409.34	36.587
409.69	36.901
410.05	36.732
410.40	35.925
410.76	36.577
411.11	37.441
411.47	36.481
411.83	36.848
412.18	37.138
412.54	35.976
412.89	36.932
413.25	36.431
413.60	36.857
413.96	37.463
414.31	36.836
414.67	37.803
415.03	36.590
415.38	36.530
415.74	37.650
416.09	36.852
416.45	37.944
416.80	36.947
417.16	36.410
417.51	36.497
417.87	36.045
418.22	37.120
418.58	37.070
418.93	36.645
419.29	35.983
419.64	36.160
420.00	37.112
420.35	35.947
420.71	36.639
421.06	36.257
421.42	37.018
421.77	37.035
422.12	35.998
422.48	35.850
422.83	36.384
423.19	36.609
423.54	37.191
423.90	37.712
424.25	36.103
424.61	36.100
424.96	36.081
425.31	35.961
425.67	36.195
426.02	35.726
426.38	35.123
426.73	36.379
427.09	36.477
427.44	35.791
427.79	36.878
428.15	36.889
428.50	36.914
428.85	37.449
429.21	35.981
429.56	35.593
429.92	36.748
430.27	35.414
430.62	34.949
430.98	35.529
431.33	35.333
431.68	33.975
432.04	35.541
432.39	36.773
432.74	35.422
433.10	35.659
433.45	36.129
433.80	37.121
434.16	35.628
434.51	35.501
434.86	37.126
435.22	35.927
435.57	35.862
435.92	36.369
436.28	36.002
436.63	36.629
436.98	35.248
437.34	36.130
437.69	35.106
438.04	35.161
438.39	36.077
438.75	36.192
439.10	35.024
439.45	35.105
439.81	36.553
440.16	36.819
440.51	35.811
440.86	35.726
441.22	35.281
441.57	36.273
441.92	36.476
442.27	35.361
442.63	35.620
442.98	34.159
443.33	35.833
443.68	35.815
444.03	34.920
444.39	36.205
444.74	35.248
445.09	35.492
445.44	36.291
445.79	35.770
446.15	35.474
446.50	34.863
446.85	35.707
447.20	34.826
447.55	36.270
447.91	35.482
448.26	35.570
448.61	36.650
448.96	36.002
449.31	36.469
449.66	35.548
450.02	34.684
450.37	36.202
450.72	35.978
451.07	36.242
451.42	36.159
451.77	35.166
452.12	36.132
452.47	36.452
452.83	36.394
453.18	35.976
453.53	35.169
453.88	35.486
454.23	34.922
454.58	35.082
454.93	35.745
455.28	35.435
455.63	36.052
455.98	35.307
456.34	36.109
456.69	35.732
457.04	35.143
457.39	35.029
457.74	36.205
458.09	34.531
458.44	34.885
458.79	35.915
459.14	35.079
459.49	35.221
459.84	35.380
460.19	35.198
460.54	35.499
460.89	35.288
461.24	34.593
461.59	35.488
461.94	34.338
462.29	35.355
462.64	35.239
462.99	35.317
463.34	36.099
463.69	35.632
464.04	36.500
464.39	33.944
464.74	33.118
465.09	34.649
465.44	34.929
465.79	34.894
466.14	34.499
466.49	34.455
466.84	33.556
467.19	35.208
467.54	33.934
467.89	35.446
468.24	33.932
468.59	34.821
468.94	33.937
469.29	35.125
469.64	34.019
469.99	34.961
470.34	34.472
470.68	35.034
471.03	34.623
471.38	33.642
471.73	34.226
472.08	35.551
472.43	36.065
472.78	35.339
473.13	33.542
473.48	34.291
473.83	34.688
474.17	34.954
474.52	33.709
474.87	33.997
475.22	34.723
475.57	33.578
475.92	33.265
476.27	32.753
476.61	33.834
476.96	34.326
477.31	34.499
477.66	34.568
478.01	33.161
478.36	33.780
478.70	33.896
479.05	33.577
479.40	33.284
479.75	34.062
480.10	34.414
480.45	32.586
480.79	34.147
481.14	33.333
481.49	33.989
481.84	33.773
482.19	33.974
482.53	33.421
482.88	33.289
483.23	33.875
483.58	34.022
483.92	34.049
484.27	33.476
484.62	33.447
484.97	33.190
485.31	33.380
485.66	32.999
486.01	32.924
486.36	32.639
486.70	32.517
487.05	32.081
487.40	32.146
487.75	32.676
488.09	32.784
488.44	32.345
488.79	32.246
489.13	33.595
489.48	33.240
489.83	32.736
490.17	32.040
490.52	32.989
490.87	33.448
491.22	33.245
491.56	32.806
491.91	32.706
492.26	32.606
492.60	32.756
492.95	33.077
493.30	32.575
493.64	32.075
493.99	32.826
494.34	32.362
494.68	32.271
495.03	33.094
495.37	33.318
495.72	33.380
496.07	33.243
496.41	32.754
496.76	33.094
497.11	32.562
497.45	32.004
497.80	32.994
498.14	32.178
498.49	32.498
498.84	33.364
499.18	31.856
499.53	33.486
499.87	32.974
500.22	33.072
500.56	32.033
500.91	33.673
501.26	33.073
501.60	32.332
501.95	32.706
502.29	32.489
502.64	32.510
502.98	31.970
503.33	32.160
503.67	32.759
504.02	32.736
504.36	32.443
504.71	33.018
505.06	32.098
505.40	32.756
505.75	32.788
506.09	32.198
506.44	33.788
506.78	32.845
507.13	32.865
507.47	32.411
507.82	33.139
508.16	32.827
508.51	32.512
508.85	32.669
509.19	33.725
509.54	33.105
509.88	33.317
510.23	33.676
510.57	31.660
510.92	33.367
511.26	33.183
511.61	32.250
511.95	33.400
512.30	32.100
512.64	33.489
512.98	33.778
513.33	33.299
513.67	33.040
514.02	33.662
514.36	32.658
514.70	33.280
515.05	32.605
515.39	33.991
515.74	34.609
516.08	33.932
516.42	34.208
516.77	33.120
517.11	33.760
517.46	33.782
517.80	33.315
518.14	34.197
518.49	33.462
518.83	32.967
519.17	33.777
519.52	34.025
519.86	33.569
520.20	33.589
520.55	33.239
520.89	34.598
521.23	34.054
521.58	34.137
521.92	34.227
522.26	33.472
522.61	34.641
522.95	34.474
523.29	33.450
523.64	34.566
523.98	35.153
524.32	33.910
524.66	33.101
525.01	34.497
525.35	33.942
525.69	34.738
526.04	34.325
526.38	33.961
526.72	34.308
527.06	33.708
527.41	34.462
527.75	34.571
528.09	34.016
528.43	35.143
528.78	34.824
529.12	35.099
529.46	34.892
529.80	35.339
530.15	34.414
530.49	33.995
530.83	35.405
531.17	34.379
531.51	35.622
531.86	34.300
532.20	35.352
532.54	34.338
532.88	34.916
533.22	34.552
533.57	36.425
533.91	34.324
534.25	33.756
534.59	34.211
534.93	33.618
535.27	34.035
535.62	34.831
535.96	34.456
536.30	35.527
536.64	35.031
536.98	34.739
537.32	35.688
537.66	34.566
538.01	35.480
538.35	36.681
538.69	34.405
539.03	34.266
539.37	34.345
539.71	35.741
540.05	34.646
540.39	34.906
540.73	35.823
541.07	34.755
541.42	35.448
541.76	35.388
542.10	35.265
542.44	34.975
542.78	35.116
543.12	35.031
543.46	34.712
543.80	34.900
544.14	35.975
544.48	34.307
544.82	34.557
545.16	35.216
545.50	35.280
545.84	36.679
546.18	36.216
546.52	35.607
546.86	35.654
547.20	35.788
547.54	34.642
547.88	35.584
548.22	35.276
548.56	35.828
548.90	35.409
549.24	36.576
549.58	34.601
549.92	35.953
550.26	36.376
550.60	34.731
550.94	36.906
551.28	36.483
551.62	37.448
551.96	36.622
552.30	36.058
552.64	35.728
552.98	35.438
553.32	34.635
553.66	35.635
554.00	35.586
554.34	36.352
554.68	36.425
555.02	36.660
555.36	35.239
555.69	35.995
556.03	36.178
556.37	35.245
556.71	36.245
557.05	34.731
557.39	35.800
557.73	36.995
558.07	36.016
558.41	37.217
558.75	36.389
559.08	36.312
559.42	35.361
559.76	36.992
560.10	36.476
560.44	36.430
560.78	36.765
561.12	35.410
561.45	36.295
561.79	35.830
562.13	36.197
562.47	36.275
562.81	35.914
563.15	36.134
563.48	35.901
563.82	37.056
564.16	36.629
564.50	36.106
564.84	36.292
565.17	35.354
565.51	36.823
565.85	38.310
566.19	37.262
566.52	36.402
566.86	38.529
567.20	36.011
567.54	37.555
567.88	37.611
568.21	36.845
568.55	36.770
568.89	37.318
569.23	36.928
569.56	37.021
569.90	37.154
570.24	37.342
570.57	37.541
570.91	36.911
571.25	36.121
571.59	36.069
571.92	35.845
572.26	36.038
572.60	35.907
572.93	36.458
573.27	36.301
573.61	36.600
573.95	37.226
574.28	37.058
574.62	36.469
574.96	36.686
575.29	36.156
575.63	36.372
575.97	36.173
576.30	36.624
576.64	36.779
576.98	36.406
577.31	36.753
577.65	37.568
577.98	36.983
578.32	36.625
578.66	37.150
578.99	37.445
579.33	36.987
579.67	36.995
580.00	36.414
580.34	36.857
580.67	37.181
581.01	37.459
581.35	37.706
581.68	37.071
582.02	37.479
582.35	37.460
582.69	37.855
583.02	37.851
583.36	37.250
583.70	37.399
584.03	38.504
584.37	37.885
584.70	38.343
585.04	37.283
585.37	37.647
585.71	38.472
586.04	37.508
586.38	37.826
586.72	37.503
587.05	38.240
587.39	38.584
587.72	38.278
588.06	38.689
588.39	38.204
588.73	38.518
589.06	38.722
589.40	39.343
589.73	38.119
590.07	39.224
590.40	39.373
590.73	39.809
591.07	39.583
591.40	39.441
591.74	38.880
592.07	39.060
592.41	39.568
592.74	39.070
593.08	38.900
593.41	38.809
593.75	39.063
594.08	38.466
594.41	39.068
594.75	39.486
595.08	39.609
595.42	40.092
595.75	39.289
596.09	38.929
596.42	39.403
596.75	40.304
597.09	40.404
597.42	40.163
597.75	39.473
598.09	39.188
598.42	39.453
598.76	38.975
599.09	39.389
599.42	39.343
599.76	39.824
600.09	38.915
600.42	40.021
600.76	39.497
601.09	40.766
601.42	39.352
601.76	39.742
602.09	40.655
602.42	39.113
602.76	39.810
603.09	40.309
603.42	40.220
603.76	39.877
604.09	39.739
604.42	39.774
604.76	40.300
605.09	40.816
605.42	40.675
605.75	40.189
606.09	40.283
606.42	39.872
606.75	40.731
607.09	39.874
607.42	39.614
607.75	40.844
608.08	40.049
608.42	41.233
608.75	41.036
609.08	41.179
609.41	40.227
609.75	41.346
610.08	41.007
610.41	41.195
610.74	41.385
611.07	41.428
611.41	42.076
611.74	40.870
612.07	42.245
612.40	41.569
612.73	41.937
613.07	42.321
613.40	42.406
613.73	41.388
614.06	40.900
614.39	42.172
614.72	40.331
615.06	40.752
615.39	41.782
615.72	41.239
616.05	43.144
616.38	41.350
616.71	42.214
617.05	41.625
617.38	40.955
617.71	43.251
618.04	42.288
618.37	42.079
618.70	42.379
619.03	42.002
619.36	41.834
619.69	42.744
620.03	42.531
620.36	42.068
620.69	43.742
621.02	43.071
621.35	42.335
621.68	42.404
622.01	43.026
622.34	42.243
622.67	42.767
623.00	42.750
623.33	43.522
623.66	42.382
623.99	44.110
624.32	42.412
624.65	41.145
624.99	43.746
625.32	42.685
625.65	42.552
625.98	42.678
626.31	43.769
626.64	42.749
626.97	42.387
627.30	43.323
627.63	44.035
627.96	43.427
628.29	44.307
628.62	42.857
628.95	44.504
629.28	45.136
629.61	44.552
629.94	44.685
630.26	43.068
630.59	44.947
630.92	43.498
631.25	44.243
631.58	46.095
631.91	43.768
632.24	44.898
632.57	44.990
632.90	46.066
633.23	46.065
633.56	45.205
633.89	44.587
634.22	45.640
634.55	44.086
634.88	44.797
635.20	44.843
635.53	46.690
635.86	45.861
636.19	44.557
636.52	44.432
636.85	45.092
637.18	45.070
637.51	45.251
637.83	44.165
638.16	47.479
638.49	45.509
638.82	45.892
639.15	45.123
639.48	47.156
639.81	46.032
640.13	46.135
640.46	46.903
640.79	46.424
641.12	46.325
641.45	45.666
641.77	45.707
642.10	45.114
642.43	47.226
642.76	45.455
643.09	46.254
643.41	47.265
643.74	46.331
644.07	47.640
644.40	46.598
644.73	47.447
645.05	47.103
645.38	49.923
645.71	45.979
646.04	48.855
646.36	48.357
646.69	47.680
647.02	49.120
647.35	46.142
647.67	46.515
648.00	46.091
648.33	47.669
648.66	48.182
648.98	45.507
649.31	45.344
649.64	47.580
649.96	45.804
650.29	45.857
650.62	46.834
650.94	49.096
651.27	51.037
651.60	48.513
651.92	48.233
652.25	51.654
652.58	46.809
652.90	49.102
653.23	49.040
653.56	48.220
653.88	49.486
654.21	45.455
654.54	45.681
654.86	47.788
655.19	48.417
655.52	42.845
655.84	40.200
656.17	47.764
656.49	68.330
656.82	79.292
657.15	63.562
657.47	47.455
657.80	35.062
658.13	27.661
658.45	37.294
658.78	45.447
659.10	45.486
659.43	46.387
659.75	49.124
660.08	49.436
660.41	51.906
660.73	52.698
661.06	51.351
661.38	50.596
661.71	50.540
662.03	50.380
662.36	48.952
662.68	49.534
663.01	49.009
663.33	49.623
663.66	49.310
663.98	49.206
664.31	49.813
664.63	52.490
664.96	50.281
665.28	48.964
665.61	47.925
665.93	50.566
666.26	51.963
666.58	51.193
666.91	48.842
667.23	49.197
667.56	52.567
667.88	51.452
668.21	50.205
668.53	51.210
668.86	52.705
669.18	52.138
669.50	49.793
669.83	52.567
670.15	49.896
670.48	48.437
670.80	52.191
671.13	48.207
671.45	52.104
671.77	49.536
672.10	50.269
672.42	47.204
672.75	49.051
673.07	49.603
673.39	49.201
673.72	48.962
674.04	49.821
674.37	48.639
674.69	51.115
675.01	46.828
675.34	49.031
675.66	50.781
675.98	52.071
676.31	49.600
676.63	47.117
676.95	50.000
677.28	47.667
677.60	47.686
677.92	49.603
678.25	49.225
678.57	52.142
678.89	52.441
679.22	50.735
679.54	49.822
679.86	49.738
680.18	52.021
680.51	48.756
680.83	49.493
681.15	49.047
681.48	48.958
681.80	49.387
682.12	50.000
682.44	49.009
682.77	47.509
683.09	51.650
683.41	54.082
683.73	49.213
684.06	48.214
684.38	52.326
684.70	49.820
685.02	48.437
685.34	51.585
685.67	51.768
685.99	49.918
686.31	50.693
686.63	49.756
686.96	48.856
687.28	48.322
687.60	51.195
687.92	48.576
688.24	51.034
688.56	48.754
688.89	48.184
689.21	50.096
689.53	50.593
689.85	50.000
690.17	49.320
690.49	51.411
690.82	54.622
691.14	53.333
691.46	51.745
691.78	50.682
692.10	52.863
692.42	49.183
692.74	49.806
693.06	51.550
693.39	50.000
693.71	50.491
694.03	52.465
694.35	54.819
694.67	49.287
694.99	51.441
695.31	53.829
695.63	50.452
695.95	52.489
696.27	51.991
696.59	53.938
696.91	50.380
697.23	52.036
697.56	49.793
697.88	48.703
698.20	49.057
698.52	49.222
698.84	49.692
699.16	53.518
699.48	51.059
699.80	53.377
700.12	52.656
700.44	52.103
700.76	51.790
701.08	55.875
701.40	53.247
701.72	53.476
702.04	53.659
702.36	55.376
702.68	54.787
703.00	51.880
703.32	50.620
703.64	54.912
703.96	51.562
704.28	53.704
704.60	56.056
704.91	54.062
705.23	56.250
705.55	56.677
705.87	58.095
706.19	55.799
706.51	57.680
706.83	54.572
707.15	54.545
707.47	51.332
707.79	54.023
708.11	50.794
708.43	53.034
708.74	50.226
709.06	55.116
709.38	55.087
709.70	56.131
710.02	55.163
710.34	52.762
710.66	54.444
710.98	48.361
711.29	55.153
711.61	54.875
711.93	55.319
712.25	54.518
712.57	52.733
712.89	57.879
713.20	57.188
713.52	54.829
713.84	56.495
714.16	52.174
714.48	52.738
714.80	52.575
715.11	51.862
715.43	54.190
715.75	54.930
716.07	54.624
716.39	55.714
716.70	51.090
717.02	57.912
717.34	56.115
717.66	59.028
717.97	60.227
718.29	53.873
718.61	51.014
718.93	57.439
719.24	61.074
719.56	52.414
719.88	52.229
720.20	59.355
720.51	54.575
720.83	55.853
721.15	55.102
721.46	56.164
721.78	57.491
722.10	56.597
722.42	56.856
722.73	57.040
723.05	62.105
723.37	56.184
723.68	61.719
724.00	58.712
724.32	61.977
724.63	59.231
724.95	60.784
725.27	56.877
725.58	61.029
725.90	52.113
726.22	52.397
726.53	55.184
726.85	54.397
727.16	59.396
727.48	56.811
727.80	61.151
728.11	56.429
728.43	56.159
728.74	55.594
729.06	55.197
729.38	55.789
729.69	59.000
730.01	60.197
730.32	56.040
730.64	59.136
730.96	53.754
731.27	48.930
731.59	52.586
731.90	53.760
732.22	50.571
732.53	54.986
732.85	54.386
733.16	54.518
733.48	56.426
733.80	55.362
734.11	59.509
734.43	54.094
734.74	55.228
735.06	58.995
735.37	52.062
735.69	57.971
736.00	57.187
736.32	53.333
736.63	56.467
736.95	53.416
737.26	53.354
737.58	55.215
737.89	56.024
738.21	52.649
738.52	55.184
738.83	61.905
739.15	58.537
739.46	54.483
739.78	56.463
740.09	53.936
740.41	53.988
740.72	58.413
741.04	58.741
741.35	60.547
741.66	53.360
741.98	62.661
742.29	57.870
742.61	58.850
742.92	57.203
743.23	58.000
743.55	57.736
743.86	56.863
744.18	57.203
744.49	60.744
744.80	66.820
745.12	58.036
745.43	67.757
745.74	58.667
746.06	58.333
746.37	61.860
746.68	63.274
747.00	61.435
747.31	57.983
747.62	54.098
747.94	59.227
748.25	56.031
748.56	64.831
748.88	61.161
749.19	59.535
749.50	57.078
749.82	58.848
750.13	61.265
750.44	56.000
750.75	59.060
751.07	56.908
751.38	52.145
751.69	57.239
752.01	57.692
752.32	56.146
752.63	58.054
752.94	55.944
753.26	57.812
753.57	55.253
753.88	51.685
754.19	56.318
754.51	52.492
754.82	51.007
755.13	50.000
755.44	58.519
755.75	56.014
756.07	51.712
756.38	51.961
756.69	53.750
757.00	55.490
757.31	51.268
757.63	52.066
757.94	56.117
758.25	50.483
758.56	52.632
758.87	50.627
759.18	58.721
759.50	55.927
759.81	57.864
760.12	52.247
760.43	49.020
760.74	50.380
761.05	49.602
761.36	51.562
761.67	54.447
761.99	54.648
762.30	54.019
762.61	52.431
762.92	58.333
763.23	55.094
763.54	54.615
763.85	52.918
764.16	53.472
764.47	51.351
764.78	53.746
765.10	51.220
765.41	49.432
765.72	50.000
766.03	50.755
766.34	59.582
766.65	58.935
766.96	63.158
767.27	60.748
767.58	58.416
767.89	70.166
768.20	73.171
768.51	53.061
768.82	60.088
769.13	52.941
769.44	53.759
769.75	59.176
770.06	62.185
770.37	56.140
770.68	54.222
770.99	58.898
771.30	54.812
771.61	62.692
771.92	59.160
772.23	57.258
772.54	55.556
772.85	60.891
773.16	62.500
773.47	63.333
773.78	67.327
774.09	68.750
774.39	64.242
774.70	56.471
775.01	62.500
775.32	62.112
775.63	63.014
775.94	68.519
776.25	64.138
776.56	74.046
776.87	74.809
777.18	68.939
777.48	73.228
777.79	70.000
778.10	72.727
778.41	67.164
778.72	63.910
779.03	67.308
779.34	66.216
779.65	63.975
779.95	61.491
780.26	61.310
780.57	68.027
780.88	66.667
781.19	80.833
781.50	66.272
781.80	62.295
782.11	67.725
782.42	60.345
782.73	57.627
783.04	59.355
783.34	63.566
783.65	63.946
783.96	62.581
784.27	61.589
784.57	61.842
784.88	70.290
785.19	72.500
785.50	66.379
785.81	75.969
786.11	66.667
786.42	59.055
786.73	80.180
787.04	69.811
787.34	68.293
787.65	71.970
787.96	66.667
788.26	75.591
788.57	67.153
788.88	75.352
789.19	76.336
789.49	67.568
789.80	60.156
790.11	65.289
790.41	74.074
790.72	63.889
791.03	75.962
791.33	82.828
791.64	86.316
791.95	81.053
792.25	66.667
792.56	77.000
792.87	96.341
793.17	75.000
793.48	85.882
793.79	75.862
794.09	81.818
794.40	79.310
794.70	71.429
795.01	65.385
795.32	67.939
795.62	70.940
795.93	82.353
796.23	78.049
796.54	75.510
796.85	89.773
797.15	90.909
797.46	87.805
797.76	76.250
798.07	89.333
798.37	91.250
798.68	86.250
798.99	87.805
799.29	78.667
799.60	72.093
799.90	96.053
800.21	110.606
800.51	91.549
800.82	112.069
801.12	110.769
801.43	102.667
801.73	100.000
802.04	74.026
802.34	75.342
802.65	88.235
802.95	106.522
803.26	114.516
803.56	108.333
803.87	86.567
804.17	87.302
804.48	111.321
804.78	80.556
805.09	96.970
805.39	103.175
805.70	110.526
806.00	98.571
806.30	98.437
806.61	95.294
806.91	86.667
807.22	77.174
807.52	82.895
807.83	97.368
808.13	107.246
808.43	106.452
808.74	82.192
809.04	101.786
809.35	102.941
809.65	106.061
809.95	103.922
810.26	124.074
810.56	107.813
810.86	116.327
811.17	122.807
811.47	117.391
811.77	98.276
812.08	82.759
812.38	121.429
812.69	145.238
812.99	111.111
813.29	140.000
813.59	170.968
813.90	106.897
814.20	88.525
814.50	96.000
814.81	89.474
815.11	120.370
815.41	94.643
815.72	101.786
816.02	100.000
816.32	119.512
816.62	105.172
816.93	151.515
817.23	117.073
817.53	98.214
817.84	140.000
818.14	126.190
818.44	125.000
818.74	107.547
819.04	153.846
819.35	160.606
819.65	113.462
819.95	124.074
820.25	140.426
820.56	118.919
820.86	139.474
821.16	87.234
821.46	147.368
821.76	112.727
822.07	97.619
822.37	128.947
822.67	134.884
822.97	102.632
823.27	134.783
823.57	128.125
823.88	133.333
824.18	139.394
824.48	195.652
824.78	122.222
825.08	195.652
825.38	158.621
825.69	114.706
825.99	100.000
826.29	113.889
826.59	140.000
826.89	156.667
827.19	162.857
827.49	158.065
827.79	200.000
828.09	104.762
828.39	125.000
828.70	121.622
829.00	192.857
829.30	268.750
829.60	97.222
829.90	180.645
830.20	130.303
830.50	159.459
830.80	170.833
831.10	226.923
831.40	185.714
831.70	195.833
832.00	153.333
832.30	208.696
832.60	195.833
832.90	154.545
833.20	180.000
833.50	139.474
833.80	141.176
834.10	144.737
834.40	226.316
834.70	150.000
835.00	220.000
835.30	121.622
835.60	150.000
835.90	135.135
836.20	176.923
836.50	163.636
836.80	112.195
837.10	234.783
837.40	315.385
837.70	221.053
838.00	166.667
838.30	175.000
838.60	164.000
838.90	460.000
839.19	218.750
839.49	133.333
839.79	124.138
840.09	188.462
840.39	226.667
840.69	215.789
840.99	109.524
841.29	195.652
841.59	275.000
841.88	184.000
842.18	411.111
842.48	192.857
842.78	148.148
843.08	284.615
843.38	195.455
843.68	285.714
843.97	728.571
844.27	143.478
844.57	1850.000
844.87	314.286
845.17	266.667
845.47	128.571
845.76	191.667
846.06	514.286
846.36	223.529
846.66	353.846
846.96	268.750
847.25	315.385
847.55	221.053
847.85	222.222
848.15	620.000
848.44	345.455
848.74	195.238
849.04	229.167
849.34	223.529
849.63	237.500
849.93	281.250
850.23	1133.333
850.53	537.500
850.82	409.091
851.12	229.412
851.42	241.667
851.71	262.500
852.01	0.000
852.31	188.235
852.61	480.000
852.90	200.000
853.20	444.444
853.50	-2100.000
853.79	184.000
854.09	150.000
854.39	165.517
854.68	186.207
854.98	252.381
855.28	135.484
855.57	264.286
855.87	222.222
856.17	174.074
856.46	168.421
856.76	167.742
857.05	235.294
857.35	318.182
857.65	307.692
857.94	210.000
858.24	466.667
858.53	300.000
858.83	657.143
859.13	182.609
859.42	355.556
859.72	350.000
860.01	341.667
860.31	950.000
860.60	410.000
860.90	462.500
861.20	315.385
861.49	500.000
861.79	-3500.000
862.08	671.429
862.38	433.333
862.67	221.429
862.97	450.000
863.26	140.000
863.56	950.000
863.85	315.385
864.15	241.176
864.44	177.778
864.74	416.667
865.03	381.818
865.33	487.500
865.62	233.333
865.92	766.667
866.21	1050.000
866.51	860.000
866.80	261.111
867.10	866.667
867.39	3800.000
867.69	800.000
867.98	950.000
868.27	209.524
868.57	266.667
868.86	1325.000
869.16	185.714
869.45	3000.000
869.75	-466.667
870.04	800.000
870.33	700.000
870.63	437.500
870.92	205.882
871.22	1100.000
871.51	571.429
871.80	450.000
872.10	338.462
>>>>>End Processed Spectral Data<<<<<
