SpectraSuite Data File
++++++++++++++++++++++++++++++++++++
Date: Tue May 12 16:59:51 PDT 2015
User: schluterlab
Dark Spectrum Present: Yes
Reference Spectrum Present: Yes
Number of Sampled Component Spectra: 1
Spectrometers: USB2E3373
Integration Time (usec): 3000 (USB2E3373)
Spectra Averaged: 3 (USB2E3373)
Boxcar Smoothing: 0 (USB2E3373)
Correct for Electrical Dark: No (USB2E3373)
Strobe/Lamp Enabled: No (USB2E3373)
Correct for Detector Non-linearity: No (USB2E3373)
Correct for Stray Light: No (USB2E3373)
Number of Pixels in Processed Spectrum: 2048
>>>>>Begin Processed Spectral Data<<<<<
178.53	0.000
178.91	-225.000
179.29	-825.000
179.67	-3700.000
180.04	-106.667
180.42	550.000
180.80	1550.000
181.18	0.000
181.56	-375.000
181.94	0.000
182.31	1366.667
182.69	-2900.000
183.07	414.286
183.45	-3600.000
183.83	-1500.000
184.20	400.000
184.58	442.857
184.96	-292.308
185.34	-200.000
185.72	1400.000
186.09	-825.000
186.47	-3000.000
186.85	1000.000
187.23	740.000
187.61	1600.000
187.98	437.500
188.36	264.286
188.74	316.667
189.12	358.333
189.49	925.000
189.87	0.000
190.25	575.000
190.63	2800.000
191.00	-166.667
191.38	-4200.000
191.76	-550.000
192.14	512.500
192.51	-3800.000
192.89	2200.000
193.27	1266.667
193.65	-1133.333
194.02	-680.000
194.40	600.000
194.78	-157.143
195.15	240.000
195.53	-3100.000
195.91	-660.000
196.29	3700.000
196.66	262.500
197.04	1000.000
197.42	-1500.000
197.79	775.000
198.17	300.000
198.55	0.000
198.92	471.429
199.30	1166.667
199.68	1600.000
200.05	550.000
200.43	-450.000
200.81	250.000
201.18	4400.000
201.56	325.000
201.94	-600.000
202.31	-350.000
202.69	-620.000
203.07	3600.000
203.44	-633.333
203.82	275.000
204.19	840.000
204.57	-1300.000
204.95	-825.000
205.32	-640.000
205.70	666.667
206.08	775.000
206.45	-933.333
206.83	400.000
207.20	215.789
207.58	316.667
207.96	940.000
208.33	0.000
208.71	614.286
209.08	860.000
209.46	-2800.000
209.84	-825.000
210.21	820.000
210.59	-440.000
210.96	291.667
211.34	-975.000
211.71	381.818
212.09	1125.000
212.46	1700.000
212.84	-483.333
213.22	444.444
213.59	-2800.000
213.97	400.000
214.34	750.000
214.72	1066.667
215.09	866.667
215.47	-3200.000
215.84	-300.000
216.22	-400.000
216.59	0.000
216.97	0.000
217.34	1100.000
217.72	-1850.000
218.09	1466.667
218.47	537.500
218.84	975.000
219.22	1400.000
219.59	1100.000
219.97	471.429
220.34	355.556
220.72	1850.000
221.09	3200.000
221.47	300.000
221.84	1100.000
222.22	340.000
222.59	238.889
222.97	185.714
223.34	256.250
223.72	-1650.000
224.09	1300.000
224.46	261.538
224.84	-950.000
225.21	344.444
225.59	293.333
225.96	1400.000
226.34	-760.000
226.71	-500.000
227.08	-560.000
227.46	0.000
227.83	-400.000
228.21	-1900.000
228.58	383.333
228.95	725.000
229.33	377.778
229.70	900.000
230.08	400.000
230.45	3900.000
230.82	-1025.000
231.20	-966.667
231.57	-1266.667
231.95	780.000
232.32	375.000
232.69	683.333
233.07	300.000
233.44	-1600.000
233.81	233.333
234.19	200.000
234.56	268.750
234.93	247.059
235.31	235.000
235.68	293.750
236.05	196.429
236.43	166.667
236.80	371.429
237.17	217.241
237.55	162.500
237.92	162.500
238.29	172.727
238.67	171.875
239.04	160.976
239.41	120.833
239.79	135.000
240.16	131.250
240.53	95.082
240.91	100.000
241.28	113.559
241.65	112.121
242.02	123.944
242.40	121.429
242.77	90.110
243.14	108.861
243.51	107.071
243.89	91.589
244.26	86.916
244.63	95.050
245.00	89.908
245.38	80.508
245.75	89.394
246.12	94.815
246.49	83.688
246.87	87.705
247.24	80.667
247.61	82.500
247.98	80.272
248.36	75.758
248.73	75.000
249.10	76.786
249.47	81.000
249.84	72.139
250.22	81.081
250.59	76.500
250.96	72.996
251.33	72.093
251.70	79.018
252.08	74.370
252.45	67.729
252.82	66.920
253.19	72.727
253.56	73.077
253.94	71.014
254.31	73.643
254.68	70.732
255.05	68.966
255.42	71.168
255.79	73.290
256.16	69.153
256.54	74.026
256.91	75.163
257.28	72.575
257.65	67.712
258.02	66.667
258.39	67.622
258.76	68.986
259.14	65.714
259.51	70.845
259.88	74.164
260.25	67.033
260.62	68.493
260.99	69.146
261.36	66.017
261.73	69.149
262.10	67.801
262.47	68.750
262.85	67.733
263.22	66.067
263.59	70.077
263.96	65.664
264.33	67.407
264.70	67.076
265.07	69.024
265.44	66.514
265.81	66.509
266.18	66.133
266.55	68.085
266.92	68.680
267.29	68.202
267.66	67.265
268.03	66.143
268.40	67.442
268.77	64.758
269.14	65.510
269.51	67.706
269.88	65.714
270.25	59.611
270.62	64.592
270.99	65.720
271.36	63.618
271.73	62.264
272.10	60.202
272.47	61.508
272.84	61.477
273.21	65.083
273.58	65.385
273.95	62.218
274.32	61.673
274.69	64.567
275.06	64.663
275.43	62.069
275.80	63.962
276.17	63.419
276.54	61.308
276.91	65.672
277.28	62.774
277.65	62.915
278.02	61.029
278.39	61.871
278.76	60.345
279.13	61.032
279.50	63.455
279.87	60.149
280.23	60.037
280.60	64.964
280.97	61.207
281.34	61.881
281.71	59.826
282.08	60.684
282.45	62.162
282.82	61.706
283.19	58.188
283.56	59.835
283.92	63.844
284.29	59.567
284.66	60.504
285.03	58.872
285.40	58.843
285.77	58.333
286.14	58.669
286.51	59.202
286.87	55.696
287.24	56.907
287.61	56.079
287.98	55.075
288.35	57.037
288.72	55.842
289.08	56.757
289.45	55.640
289.82	56.250
290.19	55.344
290.56	58.224
290.93	53.381
291.29	53.591
291.66	51.695
292.03	52.875
292.40	52.033
292.77	51.671
293.13	53.638
293.50	49.528
293.87	47.967
294.24	51.329
294.60	52.355
294.97	53.427
295.34	51.129
295.71	51.248
296.08	50.400
296.44	49.174
296.81	48.139
297.18	47.782
297.55	49.754
297.91	49.261
298.28	47.826
298.65	46.994
299.02	46.803
299.38	48.201
299.75	45.610
300.12	46.789
300.48	47.541
300.85	49.464
301.22	47.674
301.59	45.283
301.95	46.324
302.32	47.846
302.69	47.398
303.05	47.924
303.42	45.516
303.79	46.804
304.15	44.774
304.52	45.877
304.89	44.776
305.25	47.497
305.62	45.522
305.99	46.304
306.35	46.000
306.72	46.826
307.09	45.238
307.45	44.879
307.82	45.576
308.19	46.392
308.55	44.700
308.92	46.909
309.29	46.055
309.65	44.896
310.02	46.552
310.38	44.467
310.75	46.095
311.12	45.881
311.48	47.683
311.85	45.515
312.22	46.705
312.58	46.356
312.95	45.728
313.31	47.097
313.68	47.280
314.05	47.070
314.41	47.486
314.78	48.674
315.14	49.005
315.51	50.520
315.87	48.266
316.24	49.300
316.61	48.881
316.97	50.459
317.34	50.584
317.70	50.307
318.07	52.046
318.43	50.088
318.80	51.664
319.16	50.437
319.53	53.186
319.89	52.330
320.26	54.935
320.62	54.212
320.99	53.861
321.35	52.783
321.72	55.503
322.08	56.879
322.45	54.859
322.81	55.352
323.18	57.460
323.54	57.230
323.91	59.746
324.27	56.676
324.64	58.737
325.00	60.862
325.37	60.708
325.73	62.901
326.10	62.883
326.46	61.519
326.83	62.000
327.19	63.936
327.56	62.220
327.92	63.770
328.29	64.157
328.65	65.240
329.01	65.526
329.38	65.567
329.74	63.706
330.11	66.030
330.47	67.349
330.84	65.056
331.20	64.382
331.56	66.408
331.93	65.783
332.29	64.966
332.66	67.687
333.02	65.292
333.38	65.620
333.75	64.053
334.11	66.107
334.48	66.239
334.84	64.696
335.20	65.184
335.57	65.995
335.93	67.368
336.29	62.023
336.66	65.695
337.02	65.184
337.38	64.058
337.75	65.456
338.11	67.595
338.47	66.638
338.84	64.945
339.20	65.455
339.56	64.256
339.93	65.217
340.29	62.269
340.65	64.627
341.02	63.475
341.38	65.025
341.74	65.947
342.11	66.110
342.47	64.151
342.83	64.561
343.20	64.026
343.56	61.557
343.92	65.566
344.28	65.152
344.65	63.570
345.01	63.492
345.37	63.702
345.73	64.603
346.10	63.028
346.46	63.636
346.82	62.423
347.19	63.601
347.55	63.466
347.91	62.764
348.27	63.439
348.63	64.241
349.00	63.899
349.36	64.514
349.72	64.067
350.08	63.121
350.45	64.204
350.81	63.226
351.17	61.633
351.53	62.895
351.89	63.092
352.26	63.341
352.62	63.047
352.98	63.650
353.34	63.097
353.70	61.850
354.07	63.692
354.43	62.212
354.79	64.161
355.15	62.098
355.51	62.009
355.87	63.554
356.24	62.279
356.60	62.938
356.96	63.685
357.32	61.869
357.68	61.894
358.04	62.234
358.40	61.544
358.77	62.359
359.13	63.063
359.49	63.232
359.85	62.621
360.21	60.847
360.57	63.066
360.93	62.915
361.29	62.121
361.66	64.952
362.02	60.938
362.38	64.069
362.74	63.057
363.10	62.342
363.46	61.740
363.82	62.553
364.18	63.371
364.54	63.305
364.90	62.918
365.26	63.012
365.62	62.776
365.98	61.803
366.35	61.724
366.71	62.526
367.07	63.345
367.43	62.189
367.79	61.902
368.15	61.194
368.51	63.956
368.87	61.889
369.23	63.617
369.59	62.778
369.95	63.846
370.31	62.286
370.67	62.457
371.03	62.955
371.39	64.127
371.75	62.177
372.11	62.339
372.47	61.644
372.83	63.086
373.19	63.537
373.55	62.337
373.91	61.809
374.27	62.963
374.63	62.576
374.99	64.151
375.35	64.449
375.71	63.061
376.07	63.263
376.42	61.509
376.78	62.364
377.14	63.172
377.50	62.547
377.86	63.229
378.22	62.706
378.58	64.831
378.94	63.005
379.30	63.069
379.66	63.034
380.02	63.167
380.38	62.295
380.74	62.918
381.09	63.143
381.45	62.081
381.81	62.648
382.17	62.271
382.53	62.148
382.89	63.631
383.25	64.002
383.61	62.767
383.97	61.608
384.32	62.447
384.68	63.518
385.04	63.482
385.40	63.108
385.76	62.668
386.12	63.142
386.48	62.918
386.83	64.976
387.19	62.544
387.55	62.839
387.91	63.395
388.27	63.831
388.62	61.972
388.98	62.507
389.34	61.987
389.70	62.677
390.06	62.927
390.42	62.862
390.77	62.654
391.13	62.824
391.49	62.008
391.85	63.569
392.20	62.813
392.56	62.903
392.92	61.651
393.28	62.332
393.64	62.099
393.99	62.715
394.35	62.390
394.71	61.037
395.07	62.226
395.42	61.534
395.78	62.431
396.14	64.337
396.50	62.335
396.85	62.012
397.21	62.635
397.57	60.909
397.92	61.121
398.28	62.162
398.64	63.118
399.00	61.304
399.35	61.084
399.71	61.700
400.07	61.530
400.42	62.149
400.78	61.584
401.14	62.478
401.49	60.541
401.85	61.587
402.21	61.394
402.57	61.281
402.92	61.576
403.28	61.456
403.63	60.565
403.99	61.158
404.35	62.075
404.70	61.961
405.06	60.809
405.42	61.879
405.77	60.805
406.13	60.521
406.49	60.091
406.84	60.350
407.20	60.845
407.55	61.231
407.91	60.881
408.27	61.067
408.62	60.142
408.98	59.728
409.34	59.147
409.69	61.730
410.05	59.392
410.40	60.365
410.76	59.588
411.11	60.130
411.47	59.506
411.83	58.817
412.18	61.051
412.54	60.601
412.89	58.702
413.25	60.091
413.60	60.456
413.96	59.605
414.31	60.685
414.67	61.204
415.03	58.940
415.38	60.252
415.74	60.265
416.09	60.337
416.45	60.504
416.80	61.450
417.16	59.580
417.51	60.255
417.87	59.574
418.22	59.903
418.58	61.847
418.93	60.143
419.29	59.704
419.64	60.327
420.00	61.337
420.35	60.163
420.71	59.860
421.06	60.388
421.42	59.067
421.77	59.300
422.12	60.915
422.48	59.373
422.83	60.156
423.19	59.341
423.54	59.024
423.90	60.589
424.25	60.154
424.61	59.837
424.96	60.079
425.31	60.427
425.67	60.774
426.02	58.833
426.38	59.685
426.73	61.481
427.09	59.727
427.44	60.608
427.79	60.263
428.15	60.813
428.50	60.171
428.85	59.788
429.21	59.373
429.56	59.023
429.92	59.473
430.27	59.458
430.62	58.737
430.98	58.882
431.33	59.879
431.68	58.025
432.04	59.338
432.39	60.593
432.74	59.953
433.10	60.133
433.45	60.482
433.80	61.224
434.16	59.432
434.51	61.455
434.86	60.425
435.22	60.292
435.57	60.877
435.92	60.330
436.28	60.714
436.63	60.778
436.98	60.304
437.34	59.989
437.69	59.406
438.04	59.516
438.39	60.362
438.75	60.134
439.10	60.658
439.45	60.882
439.81	61.365
440.16	59.879
440.51	60.755
440.86	61.937
441.22	60.173
441.57	60.682
441.92	60.958
442.27	61.443
442.63	59.959
442.98	60.668
443.33	60.793
443.68	60.513
444.03	60.320
444.39	61.252
444.74	59.524
445.09	60.769
445.44	60.521
445.79	60.526
446.15	60.526
446.50	61.129
446.85	61.305
447.20	60.647
447.55	60.576
447.91	62.280
448.26	60.543
448.61	61.470
448.96	61.874
449.31	61.056
449.66	61.794
450.02	60.616
450.37	62.188
450.72	63.196
451.07	60.791
451.42	62.004
451.77	60.137
452.12	61.656
452.47	62.819
452.83	63.042
453.18	62.222
453.53	61.101
453.88	61.486
454.23	61.592
454.58	61.422
454.93	61.496
455.28	61.995
455.63	63.061
455.98	60.462
456.34	62.067
456.69	62.561
457.04	61.337
457.39	61.200
457.74	62.218
458.09	60.752
458.44	61.501
458.79	61.432
459.14	61.920
459.49	60.362
459.84	63.370
460.19	61.299
460.54	61.311
460.89	62.207
461.24	60.481
461.59	62.358
461.94	62.470
462.29	63.101
462.64	61.369
462.99	61.804
463.34	60.920
463.69	61.645
464.04	62.119
464.39	60.389
464.74	59.613
465.09	60.534
465.44	59.304
465.79	61.187
466.14	59.141
466.49	61.639
466.84	60.033
467.19	59.988
467.54	59.640
467.89	60.094
468.24	61.378
468.59	60.893
468.94	60.266
469.29	60.232
469.64	60.064
469.99	60.861
470.34	60.974
470.68	59.241
471.03	60.107
471.38	61.854
471.73	61.137
472.08	61.057
472.43	61.701
472.78	60.691
473.13	58.636
473.48	60.452
473.83	61.425
474.17	59.939
474.52	59.597
474.87	58.556
475.22	60.194
475.57	59.286
475.92	59.172
476.27	59.140
476.61	58.552
476.96	60.240
477.31	60.566
477.66	61.514
478.01	59.515
478.36	59.990
478.70	59.007
479.05	60.513
479.40	59.276
479.75	59.881
480.10	59.245
480.45	59.290
480.79	59.770
481.14	59.249
481.49	58.646
481.84	59.543
482.19	58.996
482.53	59.596
482.88	59.229
483.23	58.863
483.58	59.695
483.92	59.598
484.27	58.390
484.62	59.338
484.97	58.278
485.31	57.970
485.66	59.067
486.01	57.757
486.36	57.325
486.70	56.567
487.05	57.645
487.40	57.028
487.75	57.495
488.09	57.784
488.44	58.062
488.79	57.897
489.13	58.641
489.48	58.410
489.83	59.299
490.17	57.225
490.52	58.699
490.87	57.802
491.22	58.954
491.56	57.795
491.91	58.199
492.26	57.951
492.60	59.043
492.95	57.499
493.30	59.418
493.64	57.727
493.99	57.379
494.34	58.225
494.68	58.566
495.03	57.925
495.37	58.082
495.72	57.669
496.07	58.131
496.41	56.994
496.76	57.577
497.11	57.584
497.45	56.730
497.80	57.785
498.14	58.206
498.49	57.985
498.84	57.009
499.18	56.536
499.53	57.740
499.87	57.098
500.22	58.498
500.56	57.707
500.91	58.302
501.26	57.832
501.60	57.650
501.95	56.944
502.29	56.800
502.64	56.595
502.98	56.336
503.33	57.149
503.67	58.190
504.02	55.844
504.36	57.240
504.71	56.575
505.06	57.250
505.40	56.341
505.75	56.221
506.09	57.723
506.44	56.673
506.78	57.609
507.13	56.714
507.47	56.914
507.82	57.372
508.16	57.178
508.51	58.164
508.85	55.935
509.19	57.073
509.54	56.152
509.88	56.937
510.23	56.765
510.57	55.454
510.92	57.493
511.26	58.283
511.61	55.441
511.95	55.948
512.30	56.250
512.64	56.231
512.98	57.406
513.33	57.941
513.67	57.017
514.02	56.779
514.36	56.438
514.70	56.053
515.05	57.272
515.39	57.895
515.74	57.354
516.08	55.991
516.42	58.033
516.77	56.213
517.11	55.520
517.46	56.627
517.80	56.636
518.14	56.845
518.49	56.009
518.83	55.604
519.17	56.961
519.52	56.472
519.86	56.240
520.20	55.781
520.55	56.133
520.89	55.690
521.23	56.542
521.58	55.020
521.92	56.618
522.26	56.043
522.61	57.873
522.95	56.877
523.29	56.257
523.64	55.260
523.98	56.103
524.32	55.133
524.66	55.478
525.01	55.740
525.35	54.508
525.69	55.810
526.04	56.157
526.38	56.033
526.72	55.788
527.06	55.766
527.41	55.018
527.75	55.752
528.09	54.666
528.43	55.705
528.78	56.231
529.12	56.773
529.46	55.815
529.80	55.140
530.15	55.569
530.49	56.077
530.83	54.966
531.17	55.351
531.51	56.039
531.86	53.744
532.20	53.461
532.54	54.802
532.88	55.903
533.22	54.235
533.57	56.437
533.91	54.487
534.25	54.414
534.59	55.497
534.93	54.437
535.27	53.728
535.62	54.317
535.96	54.255
536.30	56.368
536.64	53.789
536.98	54.626
537.32	53.937
537.66	54.145
538.01	54.427
538.35	54.398
538.69	53.155
539.03	52.674
539.37	53.277
539.71	55.185
540.05	54.831
540.39	53.711
540.73	53.481
541.07	53.639
541.42	53.545
541.76	54.747
542.10	53.514
542.44	52.805
542.78	54.688
543.12	52.577
543.46	53.822
543.80	53.885
544.14	54.489
544.48	54.197
544.82	53.578
545.16	52.338
545.50	51.998
545.84	52.967
546.18	54.031
546.52	54.623
546.86	54.868
547.20	53.101
547.54	53.008
547.88	52.798
548.22	53.188
548.56	52.033
548.90	52.135
549.24	53.190
549.58	52.835
549.92	53.438
550.26	53.414
550.60	52.628
550.94	54.138
551.28	53.655
551.62	54.345
551.96	52.838
552.30	53.461
552.64	54.239
552.98	52.384
553.32	51.665
553.66	52.117
554.00	51.544
554.34	53.462
554.68	51.747
555.02	51.799
555.36	51.662
555.69	51.702
556.03	52.420
556.37	51.498
556.71	52.673
557.05	50.393
557.39	52.800
557.73	52.426
558.07	52.716
558.41	51.953
558.75	52.052
559.08	53.753
559.42	53.185
559.76	53.100
560.10	49.966
560.44	51.692
560.78	50.831
561.12	53.274
561.45	51.252
561.79	51.248
562.13	51.232
562.47	52.239
562.81	52.375
563.15	51.713
563.48	49.255
563.82	52.402
564.16	51.679
564.50	50.392
564.84	51.125
565.17	50.030
565.51	52.586
565.85	51.511
566.19	50.476
566.52	50.722
566.86	53.065
567.20	51.517
567.54	51.255
567.88	51.330
568.21	49.975
568.55	50.535
568.89	51.369
569.23	49.957
569.56	51.438
569.90	50.305
570.24	49.847
570.57	49.935
570.91	49.891
571.25	48.903
571.59	48.928
571.92	49.381
572.26	48.464
572.60	48.875
572.93	49.540
573.27	48.851
573.61	48.511
573.95	48.630
574.28	48.861
574.62	48.766
574.96	48.011
575.29	47.521
575.63	47.939
575.97	47.760
576.30	47.887
576.64	47.482
576.98	47.829
577.31	48.578
577.65	48.792
577.98	48.451
578.32	47.982
578.66	48.425
578.99	47.535
579.33	48.038
579.67	47.496
580.00	48.154
580.34	47.899
580.67	47.427
581.01	48.365
581.35	47.963
581.68	47.016
582.02	47.749
582.35	47.867
582.69	47.710
583.02	47.643
583.36	48.007
583.70	48.282
584.03	49.068
584.37	48.637
584.70	47.897
585.04	48.085
585.37	46.912
585.71	48.921
586.04	47.660
586.38	47.977
586.72	48.082
587.05	48.507
587.39	47.560
587.72	47.743
588.06	47.355
588.39	48.260
588.73	47.807
589.06	48.205
589.40	48.826
589.73	47.853
590.07	48.730
590.40	48.780
590.73	48.770
591.07	48.880
591.40	48.224
591.74	48.214
592.07	47.712
592.41	47.162
592.74	47.382
593.08	47.949
593.41	47.457
593.75	47.174
594.08	47.367
594.41	47.019
594.75	47.603
595.08	48.045
595.42	47.893
595.75	47.384
596.09	48.523
596.42	46.941
596.75	48.357
597.09	47.709
597.42	46.980
597.75	47.627
598.09	47.558
598.42	46.920
598.76	46.608
599.09	47.665
599.42	46.055
599.76	47.320
600.09	46.136
600.42	46.409
600.76	46.261
601.09	47.187
601.42	46.498
601.76	47.261
602.09	47.277
602.42	46.876
602.76	46.755
603.09	47.398
603.42	47.046
603.76	46.312
604.09	46.001
604.42	46.441
604.76	46.859
605.09	45.959
605.42	46.160
605.75	45.835
606.09	46.289
606.42	46.674
606.75	46.794
607.09	46.506
607.42	47.007
607.75	46.377
608.08	45.979
608.42	46.309
608.75	45.614
609.08	46.238
609.41	46.909
609.75	47.024
610.08	47.257
610.41	45.850
610.74	46.061
611.07	47.158
611.41	46.293
611.74	47.084
612.07	46.050
612.40	46.248
612.73	46.680
613.07	46.832
613.40	47.018
613.73	46.031
614.06	46.300
614.39	46.162
614.72	45.153
615.06	44.609
615.39	46.337
615.72	45.450
616.05	47.112
616.38	45.611
616.71	45.307
617.05	45.360
617.38	46.404
617.71	46.232
618.04	46.831
618.37	46.693
618.70	46.998
619.03	46.215
619.36	46.985
619.69	46.438
620.03	47.880
620.36	47.013
620.69	48.148
621.02	46.603
621.35	44.628
621.68	47.050
622.01	46.863
622.34	46.686
622.67	47.191
623.00	46.562
623.33	47.166
623.66	47.106
623.99	46.096
624.32	45.732
624.65	46.083
624.99	46.721
625.32	46.493
625.65	46.483
625.98	45.119
626.31	45.846
626.64	46.545
626.97	44.759
627.30	46.661
627.63	47.331
627.96	45.853
628.29	46.700
628.62	46.536
628.95	46.809
629.28	48.028
629.61	48.067
629.94	45.981
630.26	46.967
630.59	47.074
630.92	46.099
631.25	46.328
631.58	46.866
631.91	45.480
632.24	45.675
632.57	44.401
632.90	48.240
633.23	46.485
633.56	46.365
633.89	46.195
634.22	46.071
634.55	47.204
634.88	46.550
635.20	46.973
635.53	48.432
635.86	46.756
636.19	45.230
636.52	46.270
636.85	45.092
637.18	47.021
637.51	45.698
637.83	45.767
638.16	46.542
638.49	46.108
638.82	46.831
639.15	43.478
639.48	48.460
639.81	47.253
640.13	45.031
640.46	45.133
640.79	46.684
641.12	46.194
641.45	49.030
641.77	46.896
642.10	46.319
642.43	45.946
642.76	46.023
643.09	47.406
643.41	44.741
643.74	46.331
644.07	47.493
644.40	47.781
644.73	48.649
645.05	46.360
645.38	47.167
645.71	45.524
646.04	47.023
646.36	47.887
646.69	46.080
647.02	47.520
647.35	45.039
647.67	45.867
648.00	45.765
648.33	45.113
648.66	48.182
648.98	44.203
649.31	44.399
649.64	45.643
649.96	45.804
650.29	45.429
650.62	47.275
650.94	47.139
651.27	48.804
651.60	44.444
651.92	46.390
652.25	48.661
652.58	44.681
652.90	46.257
653.23	47.267
653.56	47.478
653.88	44.053
654.21	46.628
654.54	45.388
654.86	45.575
655.19	45.383
655.52	41.397
655.84	39.024
656.17	46.228
656.49	66.310
656.82	75.617
657.15	60.193
657.47	45.105
657.80	33.441
658.13	26.262
658.45	35.421
658.78	42.874
659.10	43.186
659.43	43.168
659.75	45.443
660.08	45.865
660.41	46.461
660.73	47.679
661.06	45.195
661.38	45.656
661.71	44.964
662.03	45.247
662.36	46.286
662.68	43.017
663.01	45.946
663.33	45.849
663.66	45.365
663.98	45.833
664.31	45.522
664.63	46.743
664.96	46.904
665.28	44.821
665.61	44.528
665.93	47.736
666.26	46.542
666.58	48.073
666.91	45.753
667.23	47.390
667.56	45.996
667.88	48.340
668.21	44.877
668.53	47.379
668.86	44.289
669.18	45.621
669.50	45.455
669.83	48.049
670.15	46.985
670.48	43.555
670.80	49.004
671.13	43.227
671.45	46.092
671.77	46.011
672.10	47.935
672.42	42.599
672.75	45.411
673.07	45.310
673.39	42.492
673.72	45.329
674.04	42.832
674.37	43.920
674.69	43.866
675.01	42.724
675.34	44.767
675.66	46.875
675.98	45.562
676.31	44.600
676.63	43.539
676.95	45.635
677.28	46.450
677.60	46.881
677.92	42.063
678.25	46.318
678.57	45.251
678.89	46.474
679.22	45.772
679.54	43.594
679.86	44.328
680.18	45.167
680.51	43.449
680.83	44.257
681.15	45.061
681.48	44.097
681.80	42.732
682.12	42.734
682.44	42.342
682.77	41.815
683.09	46.019
683.41	42.653
683.73	44.291
684.06	44.841
684.38	47.093
684.70	44.604
685.02	41.667
685.34	45.246
685.67	44.373
685.99	44.828
686.31	40.832
686.63	43.577
686.96	42.647
687.28	41.275
687.60	43.345
687.92	44.389
688.24	43.103
688.56	44.306
688.89	41.491
689.21	42.582
689.53	44.862
689.85	42.886
690.17	43.689
690.49	44.758
690.82	43.908
691.14	43.434
691.46	44.148
691.78	45.224
692.10	44.847
692.42	42.650
692.74	45.930
693.06	43.605
693.39	43.281
693.71	43.615
694.03	42.998
694.35	46.787
694.67	41.548
694.99	43.459
695.31	45.270
695.63	46.833
695.95	45.475
696.27	46.239
696.59	41.527
696.91	45.316
697.23	45.475
697.56	42.324
697.88	41.717
698.20	42.453
698.52	42.996
698.84	43.121
699.16	47.974
699.48	43.432
699.80	44.662
700.12	47.113
700.44	43.925
700.76	46.062
701.08	45.692
701.40	45.455
701.72	50.802
702.04	47.967
702.36	44.355
702.68	48.404
703.00	41.103
703.32	43.424
703.64	44.584
703.96	45.573
704.28	44.180
704.60	46.761
704.91	45.658
705.23	44.034
705.55	48.368
705.87	46.349
706.19	47.962
706.51	51.724
706.83	47.198
707.15	43.583
707.47	44.068
707.79	45.287
708.11	44.218
708.43	42.921
708.74	44.118
709.06	44.419
709.38	46.650
709.70	43.052
710.02	44.565
710.34	48.066
710.66	43.611
710.98	45.355
711.29	45.404
711.61	44.568
711.93	44.681
712.25	45.181
712.57	47.267
712.89	46.364
713.20	48.243
713.52	45.794
713.84	46.526
714.16	41.739
714.48	45.245
714.80	43.902
715.11	42.819
715.43	46.089
715.75	49.014
716.07	45.087
716.39	46.000
716.70	46.417
717.02	47.138
717.34	48.201
717.66	46.875
717.97	53.030
718.29	46.831
718.61	41.554
718.93	45.675
719.24	48.322
719.56	47.931
719.88	43.631
720.20	47.742
720.51	46.078
720.83	46.823
721.15	47.959
721.46	47.260
721.78	46.690
722.10	47.222
722.42	49.833
722.73	46.570
723.05	51.228
723.37	45.936
723.68	46.094
724.00	48.106
724.32	46.388
724.63	49.231
724.95	55.294
725.27	46.468
725.58	50.000
725.90	45.423
726.22	44.521
726.53	49.833
726.85	44.625
727.16	47.315
727.48	45.183
727.80	46.403
728.11	45.714
728.43	48.188
728.74	46.503
729.06	44.444
729.38	49.123
729.69	51.000
730.01	49.342
730.32	47.651
730.64	47.841
730.96	46.246
731.27	38.838
731.59	43.678
731.90	41.504
732.22	44.286
732.53	40.456
732.85	45.906
733.16	46.386
733.48	47.649
733.80	44.928
734.11	46.012
734.43	42.690
734.74	43.700
735.06	44.180
735.37	40.979
735.69	42.319
736.00	45.566
736.32	47.879
736.63	44.479
736.95	43.789
737.26	44.512
737.58	46.319
737.89	42.470
738.21	46.689
738.52	48.495
738.83	49.817
739.15	43.554
739.46	42.759
739.78	45.238
740.09	44.315
740.41	46.319
740.72	43.175
741.04	46.503
741.35	46.875
741.66	49.012
741.98	46.781
742.29	50.000
742.61	48.673
742.92	47.458
743.23	47.200
743.55	48.302
743.86	46.275
744.18	51.271
744.49	50.413
744.80	54.378
745.12	54.018
745.43	50.935
745.74	48.000
746.06	46.930
746.37	53.488
746.68	51.327
747.00	51.570
747.31	46.639
747.62	42.623
747.94	49.785
748.25	47.471
748.56	51.271
748.88	47.321
749.19	55.349
749.50	46.119
749.82	48.560
750.13	45.850
750.44	40.667
750.75	48.322
751.07	44.737
751.38	46.865
751.69	43.434
752.01	43.706
752.32	45.847
752.63	43.960
752.94	45.455
753.26	45.313
753.57	44.358
753.88	41.199
754.19	50.903
754.51	44.518
754.82	42.953
755.13	42.230
755.44	51.111
755.75	47.766
756.07	47.260
756.38	48.039
756.69	42.813
757.00	43.323
757.31	43.099
757.63	39.394
757.94	43.617
758.25	39.855
758.56	39.588
758.87	43.860
759.18	46.802
759.50	45.289
759.81	43.620
760.12	44.101
760.43	43.697
760.74	42.785
761.05	43.501
761.36	42.187
761.67	44.474
761.99	46.197
762.30	42.444
762.61	45.139
762.92	45.455
763.23	47.547
763.54	45.000
763.85	43.191
764.16	44.097
764.47	46.959
764.78	45.277
765.10	44.512
765.41	43.750
765.72	43.923
766.03	42.598
766.34	44.251
766.65	47.148
766.96	48.178
767.27	56.075
767.58	51.980
767.89	55.249
768.20	56.098
768.51	48.469
768.82	48.246
769.13	46.275
769.44	45.865
769.75	43.446
770.06	48.739
770.37	44.298
770.68	44.889
770.99	49.153
771.30	48.954
771.61	47.308
771.92	50.000
772.23	48.387
772.54	50.667
772.85	49.010
773.16	52.717
773.47	48.333
773.78	50.000
774.09	58.523
774.39	55.152
774.70	50.588
775.01	48.684
775.32	53.416
775.63	47.945
775.94	58.025
776.25	55.862
776.56	55.725
776.87	67.176
777.18	58.333
777.48	73.228
777.79	60.769
778.10	53.030
778.41	60.448
778.72	66.165
779.03	49.359
779.34	50.000
779.65	62.733
779.95	61.491
780.26	51.190
780.57	64.626
780.88	53.191
781.19	55.000
781.50	52.071
781.80	54.098
782.11	53.439
782.42	53.448
782.73	58.757
783.04	49.677
783.34	53.488
783.65	48.299
783.96	60.000
784.27	56.954
784.57	51.316
784.88	58.696
785.19	49.167
785.50	50.862
785.81	68.217
786.11	53.333
786.42	52.756
786.73	62.162
787.04	65.094
787.34	57.724
787.65	63.636
787.96	58.333
788.26	61.417
788.57	70.073
788.88	61.268
789.19	57.252
789.49	60.811
789.80	67.187
790.11	61.983
790.41	66.667
790.72	60.185
791.03	64.423
791.33	66.667
791.64	63.158
791.95	73.684
792.25	63.542
792.56	67.000
792.87	79.268
793.17	70.455
793.48	64.706
793.79	64.368
794.09	70.455
794.40	59.483
794.70	62.698
795.01	56.923
795.32	59.542
795.62	57.265
795.93	56.303
796.23	57.724
796.54	67.347
796.85	76.136
797.15	76.623
797.46	79.268
797.76	71.250
798.07	68.000
798.37	76.250
798.68	81.250
798.99	78.049
799.29	66.667
799.60	52.326
799.90	59.211
800.21	71.212
800.51	78.873
800.82	89.655
801.12	78.462
801.43	89.333
801.73	81.034
802.04	72.727
802.34	73.973
802.65	94.118
802.95	78.261
803.26	80.645
803.56	101.667
803.87	85.075
804.17	79.365
804.48	86.792
804.78	79.167
805.09	78.788
805.39	76.190
805.70	103.509
806.00	60.000
806.30	98.437
806.61	69.412
806.91	65.556
807.22	64.130
807.52	63.158
807.83	88.158
808.13	84.058
808.43	91.935
808.74	69.863
809.04	96.429
809.35	95.588
809.65	78.788
809.95	103.922
810.26	107.407
810.56	96.875
810.86	81.633
811.17	96.491
811.47	108.696
811.77	101.724
812.08	91.379
812.38	90.476
812.69	107.143
812.99	82.222
813.29	117.143
813.59	135.484
813.90	77.586
814.20	93.443
814.50	90.000
814.81	75.439
815.11	112.963
815.41	105.357
815.72	114.286
816.02	102.000
816.32	112.195
816.62	98.276
816.93	112.121
817.23	97.561
817.53	76.786
817.84	73.333
818.14	109.524
818.44	89.583
818.74	111.321
819.04	105.128
819.35	148.485
819.65	117.308
819.95	103.704
820.25	95.745
820.56	132.432
820.86	123.684
821.16	76.596
821.46	144.737
821.76	110.909
822.07	97.619
822.37	128.947
822.67	130.233
822.97	92.105
823.27	82.609
823.57	125.000
823.88	107.692
824.18	121.212
824.48	152.174
824.78	113.889
825.08	152.174
825.38	137.931
825.69	126.471
825.99	85.106
826.29	94.444
826.59	131.429
826.89	130.000
827.19	108.571
827.49	148.387
827.79	169.231
828.09	104.762
828.39	119.444
828.70	108.108
829.00	221.429
829.30	168.750
829.60	108.333
829.90	170.968
830.20	121.212
830.50	156.757
830.80	150.000
831.10	165.385
831.40	147.619
831.70	220.833
832.00	130.000
832.30	147.826
832.60	158.333
832.90	157.576
833.20	175.000
833.50	134.211
833.80	108.824
834.10	100.000
834.40	168.421
834.70	120.000
835.00	164.000
835.30	135.135
835.60	159.375
835.90	132.432
836.20	142.308
836.50	136.364
836.80	104.878
837.10	130.435
837.40	323.077
837.70	178.947
838.00	153.333
838.30	183.333
838.60	160.000
838.90	380.000
839.19	206.250
839.49	123.333
839.79	155.172
840.09	184.615
840.39	226.667
840.69	194.737
840.99	119.048
841.29	186.957
841.59	205.000
841.88	168.000
842.18	344.444
842.48	139.286
842.78	159.259
843.08	253.846
843.38	168.182
843.68	235.714
843.97	471.429
844.27	160.870
844.57	1650.000
844.87	314.286
845.17	227.778
845.47	142.857
845.76	183.333
846.06	500.000
846.36	194.118
846.66	330.769
846.96	200.000
847.25	207.692
847.55	221.053
847.85	211.111
848.15	560.000
848.44	336.364
848.74	180.952
849.04	183.333
849.34	205.882
849.63	312.500
849.93	293.750
850.23	1200.000
850.53	475.000
850.82	336.364
851.12	176.471
851.42	175.000
851.71	250.000
852.01	0.000
852.31	235.294
852.61	440.000
852.90	170.833
853.20	322.222
853.50	-2800.000
853.79	152.000
854.09	171.875
854.39	158.621
854.68	144.828
854.98	180.952
855.28	129.032
855.57	271.429
855.87	216.667
856.17	181.481
856.46	231.579
856.76	106.452
857.05	317.647
857.35	336.364
857.65	284.615
857.94	160.000
858.24	366.667
858.53	185.714
858.83	485.714
859.13	217.391
859.42	488.889
859.72	375.000
860.01	308.333
860.31	800.000
860.60	400.000
860.90	437.500
861.20	315.385
861.49	342.857
861.79	-2900.000
862.08	357.143
862.38	322.222
862.67	192.857
862.97	370.000
863.26	176.667
863.56	825.000
863.85	300.000
864.15	282.353
864.44	194.444
864.74	408.333
865.03	363.636
865.33	400.000
865.62	253.333
865.92	383.333
866.21	875.000
866.51	580.000
866.80	233.333
867.10	1333.333
867.39	3700.000
867.69	760.000
867.98	875.000
868.27	190.476
868.57	206.667
868.86	950.000
869.16	133.333
869.45	2100.000
869.75	-416.667
870.04	1025.000
870.33	660.000
870.63	412.500
870.92	235.294
871.22	1000.000
871.51	442.857
871.80	358.333
872.10	300.000
>>>>>End Processed Spectral Data<<<<<
