SpectraSuite Data File
++++++++++++++++++++++++++++++++++++
Date: Wed May 13 21:45:15 PDT 2015
User: schluterlab
Dark Spectrum Present: Yes
Reference Spectrum Present: Yes
Number of Sampled Component Spectra: 1
Spectrometers: USB2E3373
Integration Time (usec): 3000 (USB2E3373)
Spectra Averaged: 3 (USB2E3373)
Boxcar Smoothing: 0 (USB2E3373)
Correct for Electrical Dark: No (USB2E3373)
Strobe/Lamp Enabled: No (USB2E3373)
Correct for Detector Non-linearity: No (USB2E3373)
Correct for Stray Light: No (USB2E3373)
Number of Pixels in Processed Spectrum: 2048
>>>>>Begin Processed Spectral Data<<<<<
178.53	0.000
178.91	150.000
179.29	158.333
179.67	-600.000
180.04	-600.000
180.42	220.000
180.80	1000.000
181.18	300.000
181.56	-400.000
181.94	-150.000
182.31	27.273
182.69	115.385
183.07	-160.000
183.45	200.000
183.83	155.556
184.20	157.143
184.58	0.000
184.96	-100.000
185.34	171.429
185.72	0.000
186.09	-200.000
186.47	-220.000
186.85	120.000
187.23	200.000
187.61	-150.000
187.98	400.000
188.36	125.000
188.74	0.000
189.12	-9.091
189.49	130.000
189.87	91.667
190.25	420.000
190.63	1400.000
191.00	-160.000
191.38	220.000
191.76	175.000
192.14	191.667
192.51	5.263
192.89	300.000
193.27	150.000
193.65	-220.000
194.02	90.909
194.40	170.000
194.78	-700.000
195.15	240.000
195.53	-120.000
195.91	-12.500
196.29	0.000
196.66	0.000
197.04	500.000
197.42	-60.000
197.79	-60.000
198.17	-75.000
198.55	-200.000
198.92	200.000
199.30	-266.667
199.68	80.000
200.05	-200.000
200.43	150.000
200.81	-800.000
201.18	-160.000
201.56	-133.333
201.94	150.000
202.31	17.391
202.69	-142.857
203.07	-333.333
203.44	-200.000
203.82	-133.333
204.19	-70.000
204.57	0.000
204.95	-183.333
205.32	0.000
205.70	-250.000
206.08	-175.000
206.45	-183.333
206.83	425.000
207.20	-533.333
207.58	-80.000
207.96	-900.000
208.33	-185.714
208.71	-1300.000
209.08	162.500
209.46	300.000
209.84	0.000
210.21	170.000
210.59	2000.000
210.96	280.000
211.34	1000.000
211.71	-600.000
212.09	-233.333
212.46	-140.000
212.84	-300.000
213.22	-125.000
213.59	-900.000
213.97	-500.000
214.34	-950.000
214.72	7.692
215.09	75.000
215.47	88.889
215.84	450.000
216.22	-162.500
216.59	-150.000
216.97	466.667
217.34	177.778
217.72	0.000
218.09	233.333
218.47	-300.000
218.84	-128.571
219.22	-212.500
219.59	-233.333
219.97	-325.000
220.34	-62.500
220.72	40.000
221.09	0.000
221.47	-200.000
221.84	-1100.000
222.22	0.000
222.59	400.000
222.97	-200.000
223.34	-83.333
223.72	-2100.000
224.09	-800.000
224.46	27.273
224.84	-50.000
225.21	14.286
225.59	-350.000
225.96	-183.333
226.34	-90.000
226.71	-100.000
227.08	150.000
227.46	-100.000
227.83	-500.000
228.21	-50.000
228.58	-425.000
228.95	-11.765
229.33	12.500
229.70	-50.000
230.08	-30.769
230.45	-200.000
230.82	-50.000
231.20	157.143
231.57	-150.000
231.95	600.000
232.32	25.000
232.69	-11.765
233.07	-1100.000
233.44	-47.826
233.81	-750.000
234.19	-16.667
234.56	-53.333
234.93	20.000
235.31	5.263
235.68	-61.538
236.05	-30.769
236.43	11.111
236.80	-21.212
237.17	-40.000
237.55	-35.294
237.92	-10.345
238.29	-44.444
238.67	13.889
239.04	-32.258
239.41	4.255
239.79	14.894
240.16	23.256
240.53	-1.786
240.91	3.571
241.28	-1.786
241.65	6.452
242.02	14.474
242.40	13.043
242.77	0.000
243.14	16.667
243.51	22.340
243.89	8.654
244.26	10.377
244.63	2.885
245.00	22.917
245.38	15.126
245.75	9.016
246.12	15.038
246.49	-0.813
246.87	-4.202
247.24	19.595
247.61	11.921
247.98	12.821
248.36	15.385
248.73	11.798
249.10	13.636
249.47	5.914
249.84	12.632
250.22	15.423
250.59	16.822
250.96	13.182
251.33	8.612
251.70	14.226
252.08	13.808
252.45	13.992
252.82	17.871
253.19	11.673
253.56	16.547
253.94	17.082
254.31	12.676
254.68	15.101
255.05	13.201
255.42	12.238
255.79	15.337
256.16	18.927
256.54	9.524
256.91	12.975
257.28	12.893
257.65	14.013
258.02	14.370
258.39	17.544
258.76	15.116
259.14	11.364
259.51	10.955
259.88	15.176
260.25	13.333
260.62	10.955
260.99	14.589
261.36	17.098
261.73	13.580
262.10	12.977
262.47	15.062
262.85	14.179
263.22	15.897
263.59	12.727
263.96	13.139
264.33	12.019
264.70	16.047
265.07	17.361
265.44	14.023
265.81	14.645
266.18	14.806
266.55	15.284
266.92	13.136
267.29	13.992
267.66	13.800
268.03	14.609
268.40	13.347
268.77	15.496
269.14	16.531
269.51	19.097
269.88	12.220
270.25	14.407
270.62	14.549
270.99	14.173
271.36	16.270
271.73	13.454
272.10	15.238
272.47	15.355
272.84	13.780
273.21	14.286
273.58	14.139
273.95	12.075
274.32	16.604
274.69	15.118
275.06	16.078
275.43	15.066
275.80	13.830
276.17	14.549
276.54	13.677
276.91	14.460
277.28	14.440
277.65	14.860
278.02	16.607
278.39	13.144
278.76	17.726
279.13	13.551
279.50	13.448
279.87	12.319
280.23	13.153
280.60	13.841
280.97	16.396
281.34	16.246
281.71	14.959
282.08	13.846
282.45	14.754
282.82	16.613
283.19	15.396
283.56	13.438
283.92	13.914
284.29	13.573
284.66	13.509
285.03	13.518
285.40	13.595
285.77	13.964
286.14	13.830
286.51	16.042
286.87	13.077
287.24	13.127
287.61	15.211
287.98	14.706
288.35	13.562
288.72	14.060
289.08	15.527
289.45	12.922
289.82	12.859
290.19	14.867
290.56	12.500
290.93	13.260
291.29	12.996
291.66	13.934
292.03	14.441
292.40	13.863
292.77	12.985
293.13	14.923
293.50	14.118
293.87	13.067
294.24	13.889
294.60	11.573
294.97	13.889
295.34	11.478
295.71	10.775
296.08	12.042
296.44	12.628
296.81	12.180
297.18	13.000
297.55	12.264
297.91	11.553
298.28	12.954
298.65	12.562
299.02	12.454
299.38	11.779
299.75	13.822
300.12	11.977
300.48	12.749
300.85	11.085
301.22	11.382
301.59	11.737
301.95	11.963
302.32	11.669
302.69	10.621
303.05	10.742
303.42	11.705
303.79	12.829
304.15	10.953
304.52	12.043
304.89	10.299
305.25	10.648
305.62	10.846
305.99	12.296
306.35	12.435
306.72	11.394
307.09	11.887
307.45	10.756
307.82	10.947
308.19	10.763
308.55	10.952
308.92	12.770
309.29	11.111
309.65	10.589
310.02	11.928
310.38	13.110
310.75	11.144
311.12	11.370
311.48	10.584
311.85	11.024
312.22	12.476
312.58	10.918
312.95	12.239
313.31	12.213
313.68	11.450
314.05	11.909
314.41	11.335
314.78	13.093
315.14	11.389
315.51	12.750
315.87	12.419
316.24	12.489
316.61	12.694
316.97	12.500
317.34	12.210
317.70	12.132
318.07	12.866
318.43	11.924
318.80	11.693
319.16	12.202
319.53	12.455
319.89	11.834
320.26	11.553
320.62	11.214
320.99	12.403
321.35	11.880
321.72	12.416
322.08	12.269
322.45	12.766
322.81	12.754
323.18	12.343
323.54	13.267
323.91	13.460
324.27	12.781
324.64	11.760
325.00	11.811
325.37	12.372
325.73	12.542
326.10	12.195
326.46	12.793
326.83	13.188
327.19	12.683
327.56	13.215
327.92	11.826
328.29	14.608
328.65	13.585
329.01	11.785
329.38	12.870
329.74	13.991
330.11	12.985
330.47	13.108
330.84	11.913
331.20	12.724
331.56	12.228
331.93	12.231
332.29	14.509
332.66	11.610
333.02	12.858
333.38	13.158
333.75	12.799
334.11	12.760
334.48	12.642
334.84	11.572
335.20	14.065
335.57	12.097
335.93	11.512
336.29	13.222
336.66	12.564
337.02	12.783
337.38	12.794
337.75	12.834
338.11	11.785
338.47	11.130
338.84	12.543
339.20	12.787
339.56	11.945
339.93	12.187
340.29	12.468
340.65	11.891
341.02	11.398
341.38	12.162
341.74	11.261
342.11	12.139
342.47	11.548
342.83	11.275
343.20	12.521
343.56	12.020
343.92	11.942
344.28	12.175
344.65	12.082
345.01	11.138
345.37	12.664
345.73	12.663
346.10	11.717
346.46	11.626
346.82	12.119
347.19	11.392
347.55	11.955
347.91	10.990
348.27	11.199
348.63	11.458
349.00	11.399
349.36	11.224
349.72	12.452
350.08	11.622
350.45	11.120
350.81	11.972
351.17	13.164
351.53	11.862
351.89	10.723
352.26	11.506
352.62	11.318
352.98	11.661
353.34	12.158
353.70	11.760
354.07	10.980
354.43	11.586
354.79	12.099
355.15	11.801
355.51	12.149
355.87	10.790
356.24	11.396
356.60	11.493
356.96	12.126
357.32	12.074
357.68	11.459
358.04	11.094
358.40	11.938
358.77	10.780
359.13	11.284
359.49	11.658
359.85	11.600
360.21	11.334
360.57	10.951
360.93	10.698
361.29	11.843
361.66	11.845
362.02	11.787
362.38	11.743
362.74	10.950
363.10	10.701
363.46	10.807
363.82	11.234
364.18	11.675
364.54	10.868
364.90	11.498
365.26	11.890
365.62	10.866
365.98	11.103
366.35	12.411
366.71	10.913
367.07	11.198
367.43	11.568
367.79	11.397
368.15	11.603
368.51	11.252
368.87	11.165
369.23	11.815
369.59	11.698
369.95	10.595
370.31	11.785
370.67	11.875
371.03	11.136
371.39	11.710
371.75	11.571
372.11	11.254
372.47	11.824
372.83	11.026
373.19	11.007
373.55	11.777
373.91	10.962
374.27	10.719
374.63	10.740
374.99	10.515
375.35	11.438
375.71	10.190
376.07	11.035
376.42	11.029
376.78	11.559
377.14	11.322
377.50	11.799
377.86	11.355
378.22	11.378
378.58	10.467
378.94	11.813
379.30	11.868
379.66	12.145
380.02	11.091
380.38	11.024
380.74	11.656
381.09	11.761
381.45	11.245
381.81	11.152
382.17	11.153
382.53	10.769
382.89	10.796
383.25	10.494
383.61	11.804
383.97	11.375
384.32	10.838
384.68	10.734
385.04	11.057
385.40	10.834
385.76	11.010
386.12	11.104
386.48	11.724
386.83	11.765
387.19	10.919
387.55	12.324
387.91	11.070
388.27	10.481
388.62	11.111
388.98	10.638
389.34	11.967
389.70	11.172
390.06	11.000
390.42	11.662
390.77	11.147
391.13	10.859
391.49	10.816
391.85	10.543
392.20	11.529
392.56	11.111
392.92	10.298
393.28	11.447
393.64	10.642
393.99	10.955
394.35	11.975
394.71	10.705
395.07	9.937
395.42	11.761
395.78	11.326
396.14	11.414
396.50	10.273
396.85	11.791
397.21	10.799
397.57	10.621
397.92	10.659
398.28	11.732
398.64	10.990
399.00	11.942
399.35	11.691
399.71	11.182
400.07	10.482
400.42	11.473
400.78	10.876
401.14	10.484
401.49	11.025
401.85	10.627
402.21	10.712
402.57	11.711
402.92	11.327
403.28	10.944
403.63	11.655
403.99	10.813
404.35	11.035
404.70	10.332
405.06	10.804
405.42	10.364
405.77	10.426
406.13	10.857
406.49	10.665
406.84	10.379
407.20	10.953
407.55	11.039
407.91	10.258
408.27	11.104
408.62	11.725
408.98	11.221
409.34	10.705
409.69	11.436
410.05	10.945
410.40	10.347
410.76	11.191
411.11	11.256
411.47	11.082
411.83	9.981
412.18	11.083
412.54	11.529
412.89	10.345
413.25	10.619
413.60	9.718
413.96	10.549
414.31	11.282
414.67	10.730
415.03	10.690
415.38	10.700
415.74	10.981
416.09	11.302
416.45	11.347
416.80	11.409
417.16	11.741
417.51	10.650
417.87	11.111
418.22	10.472
418.58	10.512
418.93	11.927
419.29	10.825
419.64	10.369
420.00	11.429
420.35	10.879
420.71	10.969
421.06	10.947
421.42	11.253
421.77	11.908
422.12	10.487
422.48	10.742
422.83	10.927
423.19	10.983
423.54	10.660
423.90	10.808
424.25	11.496
424.61	11.460
424.96	11.473
425.31	11.105
425.67	10.700
426.02	11.307
426.38	11.256
426.73	11.179
427.09	10.882
427.44	11.568
427.79	10.629
428.15	11.621
428.50	11.057
428.85	11.501
429.21	10.861
429.56	12.062
429.92	11.296
430.27	11.452
430.62	11.333
430.98	11.211
431.33	10.747
431.68	12.141
432.04	11.380
432.39	10.739
432.74	11.465
433.10	11.970
433.45	11.479
433.80	11.034
434.16	11.087
434.51	10.978
434.86	11.425
435.22	11.828
435.57	11.057
435.92	12.123
436.28	10.571
436.63	11.374
436.98	11.340
437.34	11.233
437.69	10.862
438.04	10.753
438.39	11.021
438.75	11.323
439.10	11.972
439.45	11.017
439.81	11.946
440.16	12.058
440.51	11.296
440.86	11.500
441.22	11.360
441.57	11.280
441.92	11.612
442.27	11.526
442.63	10.980
442.98	11.169
443.33	11.625
443.68	10.912
444.03	11.724
444.39	11.453
444.74	10.933
445.09	10.958
445.44	12.282
445.79	10.893
446.15	11.814
446.50	11.784
446.85	11.438
447.20	11.396
447.55	11.696
447.91	10.449
448.26	11.721
448.61	11.853
448.96	11.617
449.31	11.993
449.66	12.030
450.02	11.882
450.37	12.573
450.72	11.596
451.07	11.223
451.42	11.291
451.77	11.808
452.12	11.468
452.47	11.556
452.83	11.085
453.18	11.076
453.53	11.538
453.88	12.349
454.23	11.805
454.58	11.642
454.93	11.546
455.28	11.432
455.63	11.478
455.98	11.686
456.34	10.871
456.69	11.885
457.04	11.641
457.39	11.064
457.74	12.448
458.09	12.026
458.44	11.105
458.79	11.642
459.14	11.517
459.49	11.646
459.84	11.161
460.19	11.044
460.54	11.800
460.89	11.149
461.24	10.912
461.59	11.232
461.94	12.010
462.29	11.703
462.64	11.807
462.99	12.140
463.34	11.809
463.69	12.113
464.04	11.525
464.39	12.203
464.74	10.934
465.09	12.213
465.44	11.728
465.79	12.363
466.14	11.574
466.49	11.965
466.84	11.715
467.19	11.274
467.54	11.795
467.89	12.194
468.24	11.739
468.59	11.472
468.94	12.005
469.29	12.095
469.64	11.437
469.99	12.897
470.34	11.935
470.68	12.193
471.03	12.200
471.38	12.378
471.73	11.728
472.08	12.096
472.43	11.675
472.78	12.306
473.13	11.148
473.48	11.872
473.83	11.802
474.17	11.849
474.52	11.909
474.87	11.158
475.22	11.232
475.57	11.712
475.92	11.723
476.27	11.538
476.61	12.174
476.96	11.650
477.31	11.489
477.66	12.316
478.01	11.538
478.36	12.044
478.70	12.406
479.05	11.543
479.40	12.376
479.75	11.318
480.10	12.086
480.45	11.918
480.79	12.892
481.14	11.854
481.49	12.284
481.84	12.158
482.19	11.950
482.53	12.381
482.88	12.033
483.23	11.886
483.58	12.902
483.92	12.208
484.27	11.574
484.62	11.496
484.97	12.153
485.31	11.773
485.66	11.259
486.01	11.767
486.36	11.599
486.70	11.160
487.05	12.035
487.40	11.797
487.75	12.374
488.09	12.324
488.44	12.338
488.79	12.415
489.13	11.809
489.48	12.612
489.83	12.908
490.17	12.256
490.52	12.763
490.87	12.146
491.22	12.529
491.56	12.123
491.91	12.146
492.26	12.282
492.60	11.544
492.95	12.196
493.30	12.306
493.64	11.847
493.99	12.609
494.34	11.994
494.68	12.554
495.03	12.253
495.37	12.019
495.72	12.231
496.07	12.567
496.41	11.886
496.76	12.706
497.11	12.864
497.45	11.673
497.80	12.569
498.14	12.242
498.49	12.052
498.84	12.146
499.18	12.145
499.53	12.063
499.87	11.451
500.22	12.394
500.56	13.190
500.91	13.380
501.26	12.217
501.60	12.353
501.95	12.410
502.29	12.379
502.64	12.681
502.98	12.331
503.33	12.944
503.67	12.707
504.02	12.304
504.36	12.630
504.71	12.093
505.06	12.685
505.40	12.887
505.75	13.072
506.09	12.621
506.44	12.399
506.78	12.544
507.13	12.734
507.47	12.513
507.82	12.611
508.16	12.454
508.51	12.500
508.85	12.856
509.19	11.693
509.54	13.780
509.88	13.280
510.23	13.158
510.57	12.977
510.92	11.853
511.26	12.761
511.61	13.063
511.95	12.238
512.30	11.938
512.64	13.053
512.98	12.742
513.33	13.465
513.67	12.266
514.02	12.600
514.36	12.921
514.70	12.587
515.05	12.932
515.39	12.205
515.74	12.729
516.08	12.271
516.42	12.270
516.77	12.244
517.11	12.522
517.46	13.205
517.80	13.499
518.14	12.492
518.49	12.960
518.83	12.649
519.17	12.108
519.52	12.907
519.86	11.900
520.20	12.492
520.55	12.562
520.89	12.903
521.23	13.654
521.58	13.085
521.92	13.451
522.26	13.077
522.61	13.769
522.95	12.565
523.29	13.397
523.64	13.287
523.98	12.516
524.32	13.422
524.66	12.078
525.01	13.106
525.35	13.035
525.69	11.928
526.04	12.378
526.38	13.384
526.72	12.952
527.06	12.637
527.41	11.913
527.75	12.550
528.09	12.457
528.43	13.636
528.78	12.855
529.12	13.066
529.46	11.964
529.80	13.010
530.15	12.548
530.49	12.668
530.83	12.864
531.17	12.740
531.51	11.463
531.86	12.602
532.20	12.957
532.54	13.310
532.88	12.934
533.22	12.929
533.57	13.311
533.91	13.484
534.25	13.411
534.59	13.127
534.93	12.181
535.27	12.548
535.62	12.895
535.96	13.208
536.30	13.364
536.64	11.347
536.98	12.684
537.32	12.313
537.66	12.835
538.01	12.899
538.35	12.707
538.69	12.308
539.03	12.819
539.37	11.938
539.71	11.664
540.05	12.281
540.39	12.801
540.73	12.640
541.07	12.381
541.42	12.929
541.76	12.314
542.10	12.390
542.44	12.890
542.78	12.144
543.12	13.073
543.46	12.163
543.80	13.374
544.14	13.008
544.48	12.077
544.82	12.374
545.16	12.170
545.50	13.167
545.84	12.553
546.18	12.062
546.52	12.068
546.86	12.226
547.20	11.508
547.54	12.866
547.88	13.090
548.22	12.313
548.56	12.742
548.90	12.855
549.24	13.125
549.58	13.025
549.92	13.940
550.26	13.506
550.60	11.712
550.94	12.463
551.28	11.658
551.62	12.180
551.96	13.543
552.30	11.645
552.64	11.582
552.98	13.139
553.32	12.978
553.66	12.472
554.00	11.807
554.34	12.381
554.68	12.603
555.02	12.126
555.36	12.103
555.69	11.580
556.03	12.652
556.37	12.020
556.71	13.034
557.05	11.882
557.39	12.208
557.73	12.708
558.07	12.509
558.41	13.020
558.75	12.779
559.08	11.708
559.42	12.431
559.76	13.456
560.10	11.760
560.44	14.444
560.78	12.806
561.12	12.894
561.45	12.109
561.79	12.311
562.13	13.361
562.47	12.643
562.81	12.626
563.15	12.252
563.48	11.631
563.82	12.107
564.16	13.338
564.50	12.551
564.84	11.824
565.17	13.046
565.51	12.567
565.85	11.726
566.19	11.987
566.52	12.320
566.86	11.947
567.20	11.607
567.54	11.917
567.88	12.374
568.21	11.570
568.55	12.050
568.89	11.266
569.23	11.687
569.56	12.224
569.90	11.350
570.24	11.083
570.57	12.146
570.91	11.751
571.25	11.115
571.59	11.425
571.92	11.646
572.26	11.108
572.60	11.334
572.93	11.590
573.27	11.357
573.61	11.517
573.95	11.634
574.28	11.188
574.62	11.380
574.96	11.344
575.29	10.958
575.63	11.117
575.97	11.114
576.30	11.068
576.64	11.161
576.98	10.974
577.31	11.489
577.65	10.824
577.98	10.884
578.32	10.993
578.66	11.037
578.99	11.221
579.33	11.494
579.67	11.303
580.00	10.708
580.34	11.488
580.67	11.220
581.01	11.031
581.35	11.125
581.68	10.960
582.02	11.045
582.35	10.989
582.69	11.092
583.02	11.116
583.36	11.213
583.70	11.342
584.03	11.539
584.37	10.984
584.70	11.185
585.04	11.217
585.37	11.154
585.71	11.240
586.04	10.952
586.38	10.971
586.72	11.239
587.05	11.337
587.39	11.024
587.72	10.984
588.06	11.245
588.39	11.419
588.73	11.402
589.06	11.478
589.40	11.111
589.73	11.427
590.07	11.484
590.40	11.852
590.73	11.507
591.07	11.575
591.40	11.261
591.74	11.516
592.07	11.593
592.41	11.283
592.74	11.111
593.08	10.940
593.41	11.111
593.75	11.079
594.08	11.226
594.41	11.042
594.75	11.619
595.08	11.240
595.42	11.453
595.75	11.858
596.09	11.778
596.42	11.234
596.75	11.365
597.09	12.147
597.42	11.889
597.75	11.333
598.09	11.885
598.42	11.767
598.76	11.377
599.09	11.845
599.42	11.140
599.76	11.641
600.09	11.446
600.42	11.299
600.76	11.678
601.09	11.299
601.42	11.290
601.76	11.274
602.09	11.512
602.42	12.381
602.76	10.738
603.09	11.335
603.42	11.555
603.76	11.613
604.09	11.067
604.42	11.218
604.76	10.912
605.09	11.554
605.42	12.146
605.75	10.664
606.09	10.969
606.42	11.180
606.75	10.779
607.09	11.613
607.42	11.778
607.75	10.722
608.08	11.722
608.42	11.528
608.75	11.801
609.08	10.926
609.41	10.830
609.75	11.699
610.08	10.897
610.41	11.467
610.74	11.935
611.07	11.774
611.41	12.078
611.74	11.387
612.07	11.985
612.40	12.108
612.73	10.922
613.07	10.976
613.40	11.509
613.73	12.297
614.06	11.830
614.39	11.395
614.72	12.271
615.06	11.278
615.39	10.927
615.72	11.609
616.05	11.881
616.38	12.142
616.71	10.618
617.05	11.978
617.38	11.953
617.71	11.520
618.04	11.395
618.37	11.546
618.70	11.902
619.03	10.997
619.36	11.673
619.69	11.696
620.03	11.378
620.36	11.761
620.69	11.349
621.02	11.462
621.35	11.365
621.68	11.491
622.01	11.812
622.34	11.657
622.67	13.078
623.00	12.082
623.33	12.191
623.66	10.929
623.99	12.828
624.32	12.106
624.65	12.166
624.99	11.242
625.32	11.875
625.65	10.930
625.98	12.480
626.31	13.388
626.64	10.920
626.97	11.332
627.30	12.831
627.63	11.332
627.96	11.342
628.29	11.814
628.62	12.863
628.95	11.623
629.28	12.611
629.61	13.014
629.94	12.669
630.26	12.020
630.59	12.587
630.92	11.647
631.25	11.535
631.58	13.812
631.91	12.195
632.24	12.514
632.57	12.333
632.90	12.019
633.23	11.631
633.56	12.590
633.89	13.038
634.22	14.016
634.55	12.546
634.88	12.990
635.20	14.500
635.53	11.499
635.86	12.436
636.19	13.151
636.52	10.976
636.85	12.425
637.18	10.597
637.51	12.110
637.83	12.272
638.16	10.400
638.49	11.215
638.82	11.373
639.15	12.500
639.48	13.369
639.81	11.528
640.13	12.394
640.46	13.136
640.79	11.655
641.12	12.130
641.45	11.936
641.77	11.340
642.10	12.557
642.43	12.107
642.76	12.618
643.09	12.460
643.41	12.440
643.74	11.793
644.07	12.621
644.40	11.609
644.73	12.542
645.05	11.344
645.38	11.130
645.71	12.925
646.04	10.774
646.36	13.542
646.69	11.713
647.02	12.204
647.35	13.894
647.67	12.384
648.00	10.870
648.33	12.203
648.66	10.851
648.98	12.112
649.31	12.117
649.64	12.676
649.96	14.060
650.29	10.294
650.62	13.180
650.94	12.069
651.27	12.014
651.60	12.413
651.92	11.649
652.25	11.725
652.58	12.211
652.90	11.785
653.23	10.526
653.56	9.752
653.88	10.751
654.21	9.215
654.54	11.130
654.86	12.358
655.19	10.924
655.52	13.024
655.84	10.577
656.17	12.750
656.49	16.847
656.82	16.681
657.15	12.616
657.47	9.129
657.80	6.873
658.13	7.594
658.45	10.896
658.78	10.588
659.10	10.976
659.43	10.996
659.75	11.051
660.08	11.241
660.41	10.041
660.73	12.397
661.06	12.075
661.38	11.434
661.71	13.730
662.03	14.165
662.36	11.726
662.68	14.839
663.01	12.288
663.33	12.311
663.66	9.978
663.98	13.034
664.31	11.868
664.63	10.586
664.96	15.536
665.28	12.661
665.61	14.687
665.93	11.349
666.26	15.190
666.58	9.850
666.91	13.453
667.23	12.673
667.56	12.414
667.88	7.944
668.21	12.500
668.53	11.264
668.86	11.511
669.18	12.530
669.50	14.286
669.83	11.217
670.15	10.952
670.48	10.115
670.80	13.129
671.13	11.442
671.45	11.416
671.77	11.853
672.10	9.942
672.42	10.496
672.75	11.071
673.07	10.182
673.39	11.754
673.72	11.976
674.04	11.885
674.37	12.398
674.69	11.111
675.01	10.684
675.34	12.254
675.66	11.329
675.98	12.832
676.31	8.597
676.63	12.925
676.95	11.059
677.28	10.550
677.60	9.804
677.92	14.856
678.25	14.100
678.57	11.609
678.89	11.301
679.22	12.629
679.54	13.061
679.86	13.086
680.18	11.154
680.51	10.577
680.83	10.136
681.15	11.984
681.48	11.623
681.80	10.020
682.12	11.042
682.44	12.877
682.77	8.632
683.09	7.589
683.41	9.302
683.73	9.152
684.06	12.168
684.38	10.256
684.70	12.016
685.02	9.504
685.34	12.916
685.67	12.008
685.99	12.456
686.31	11.897
686.63	11.581
686.96	12.987
687.28	9.581
687.60	13.043
687.92	10.700
688.24	13.000
688.56	11.404
688.89	8.241
689.21	12.332
689.53	8.333
689.85	11.236
690.17	10.769
690.49	10.386
690.82	10.740
691.14	10.145
691.46	9.977
691.78	12.747
692.10	11.253
692.42	9.890
692.74	11.304
693.06	9.663
693.39	10.070
693.71	12.444
694.03	13.636
694.35	10.360
694.67	10.000
694.99	12.113
695.31	13.178
695.63	10.976
695.95	10.941
696.27	9.589
696.59	8.871
696.91	13.128
697.23	10.152
697.56	14.149
697.88	14.137
698.20	11.879
698.52	10.280
698.84	8.852
699.16	11.584
699.48	15.556
699.80	13.437
700.12	13.137
700.44	11.549
700.76	10.674
701.08	12.387
701.40	10.180
701.72	12.308
702.04	9.434
702.36	12.500
702.68	8.841
703.00	11.404
703.32	6.964
703.64	9.940
703.96	12.610
704.28	10.542
704.60	13.415
704.91	12.539
705.23	12.025
705.55	9.655
705.87	9.859
706.19	8.059
706.51	11.620
706.83	6.369
707.15	9.451
707.47	9.642
707.79	11.168
708.11	11.054
708.43	11.929
708.74	12.766
709.06	10.963
709.38	10.375
709.70	9.910
710.02	12.150
710.34	8.000
710.66	10.423
710.98	8.978
711.29	12.662
711.61	12.581
711.93	10.645
712.25	6.294
712.57	5.263
712.89	10.989
713.20	10.993
713.52	8.394
713.84	10.645
714.16	10.680
714.48	11.076
714.80	9.265
715.11	14.244
715.43	9.938
715.75	10.248
716.07	13.855
716.39	11.785
716.70	14.748
717.02	7.451
717.34	10.227
717.66	6.034
717.97	9.524
718.29	11.024
718.61	6.867
718.93	8.140
719.24	12.546
719.56	12.734
719.88	8.209
720.20	11.858
720.51	8.203
720.83	12.062
721.15	5.691
721.46	8.779
721.78	10.359
722.10	7.171
722.42	10.484
722.73	13.514
723.05	12.245
723.37	10.084
723.68	10.000
724.00	8.085
724.32	10.042
724.63	11.523
724.95	7.265
725.27	12.236
725.58	13.580
725.90	9.623
726.22	11.957
726.53	7.059
726.85	12.774
727.16	10.741
727.48	16.092
727.80	9.766
728.11	10.656
728.43	12.891
728.74	14.286
729.06	8.800
729.38	9.486
729.69	14.591
730.01	9.294
730.32	11.070
730.64	8.712
730.96	13.287
731.27	8.361
731.59	8.889
731.90	10.356
732.22	7.051
732.53	6.419
732.85	7.383
733.16	10.891
733.48	9.459
733.80	8.784
734.11	8.784
734.43	13.313
734.74	12.613
735.06	8.934
735.37	10.942
735.69	5.502
736.00	6.931
736.32	12.411
736.63	11.034
736.95	9.247
737.26	8.276
737.58	9.028
737.89	4.467
738.21	6.762
738.52	11.027
738.83	11.429
739.15	8.439
739.46	8.560
739.78	9.155
740.09	9.247
740.41	4.643
740.72	13.475
741.04	8.800
741.35	6.140
741.66	11.111
741.98	12.981
742.29	13.366
742.61	8.780
742.92	16.667
743.23	8.019
743.55	12.162
743.86	8.969
744.18	10.784
744.49	9.137
744.80	11.224
745.12	8.879
745.43	10.427
745.74	13.514
746.06	11.215
746.37	5.963
746.68	5.288
747.00	12.440
747.31	9.135
747.62	12.385
747.94	13.537
748.25	13.761
748.56	13.333
748.88	9.859
749.19	11.429
749.50	6.796
749.82	10.329
750.13	8.750
750.44	9.231
750.75	7.380
751.07	16.370
751.38	10.993
751.69	9.653
752.01	9.766
752.32	3.462
752.63	14.179
752.94	9.600
753.26	6.276
753.57	10.000
753.88	9.312
754.19	11.952
754.51	7.895
754.82	6.593
755.13	-0.435
755.44	6.098
755.75	8.000
756.07	5.166
756.38	7.914
756.69	14.334
757.00	15.888
757.31	8.414
757.63	8.951
757.94	11.299
758.25	14.550
758.56	9.511
758.87	12.500
759.18	11.672
759.50	9.764
759.81	8.696
760.12	12.615
760.43	11.905
760.74	12.147
761.05	7.735
761.36	9.456
761.67	9.366
761.99	8.247
762.30	9.489
762.61	6.996
762.92	11.111
763.23	12.295
763.54	9.957
763.85	12.653
764.16	10.569
764.47	6.000
764.78	6.786
765.10	10.820
765.41	10.030
765.72	12.422
766.03	10.231
766.34	10.000
766.65	7.531
766.96	8.451
767.27	9.406
767.58	1.124
767.89	13.580
768.20	9.392
768.51	7.538
768.82	11.538
769.13	12.389
769.44	11.715
769.75	3.419
770.06	5.830
770.37	7.843
770.68	12.136
770.99	8.252
771.30	15.546
771.61	7.755
771.92	13.693
772.23	9.009
772.54	4.972
772.85	8.140
773.16	14.815
773.47	4.142
773.78	14.368
774.09	13.125
774.39	9.938
774.70	8.163
775.01	3.448
775.32	2.143
775.63	8.271
775.94	6.015
776.25	2.400
776.56	5.785
776.87	10.317
777.18	3.604
777.48	7.207
777.79	11.024
778.10	7.339
778.41	8.772
778.72	8.403
779.03	4.225
779.34	14.189
779.65	16.197
779.95	2.649
780.26	7.914
780.57	10.072
780.88	7.746
781.19	1.681
781.50	7.383
781.80	8.187
782.11	6.395
782.42	10.063
782.73	13.725
783.04	8.966
783.34	8.397
783.65	6.711
783.96	2.308
784.27	15.000
784.57	10.638
784.88	3.846
785.19	20.000
785.50	0.000
785.81	6.667
786.11	12.605
786.42	6.195
786.73	2.830
787.04	-3.670
787.34	-3.960
787.65	16.667
787.96	0.826
788.26	10.870
788.57	5.556
788.88	13.008
789.19	2.400
789.49	7.634
789.80	15.909
790.11	9.434
790.41	10.891
790.72	6.383
791.03	3.261
791.33	-3.529
791.64	0.000
791.95	10.870
792.25	12.500
792.56	11.538
792.87	2.564
793.17	-5.128
793.48	0.000
793.79	1.250
794.09	12.500
794.40	17.708
794.70	9.910
795.01	7.031
795.32	6.087
795.62	-20.652
795.93	6.604
796.23	7.071
796.54	8.537
796.85	2.381
797.15	6.061
797.46	13.043
797.76	-1.316
798.07	0.000
798.37	2.439
798.68	-4.839
798.99	-6.757
799.29	19.277
799.60	-2.564
799.90	7.692
800.21	28.788
800.51	-2.667
800.82	6.667
801.12	-37.500
801.43	-20.000
801.73	-5.405
802.04	14.286
802.34	4.918
802.65	13.433
802.95	3.636
803.26	-10.345
803.56	-10.769
803.87	11.321
804.17	-6.452
804.48	-4.412
804.78	-19.512
805.09	11.594
805.39	5.882
805.70	-25.532
806.00	-3.509
806.30	19.231
806.61	21.053
806.91	9.459
807.22	11.842
807.52	19.318
807.83	-6.780
808.13	-19.697
808.43	-18.333
808.74	-13.793
809.04	4.762
809.35	-30.612
809.65	-10.000
809.95	-26.531
810.26	14.085
810.56	-6.250
810.86	-8.163
811.17	-7.692
811.47	-23.404
811.77	-4.167
812.08	3.774
812.38	-9.375
812.69	3.636
812.99	4.878
813.29	-13.514
813.59	-8.108
813.90	-12.727
814.20	5.455
814.50	1.667
814.81	3.636
815.11	5.263
815.41	-9.302
815.72	0.000
816.02	-2.857
816.32	2.703
816.62	8.333
816.93	11.111
817.23	-8.889
817.53	-27.778
817.84	-32.432
818.14	-17.073
818.44	12.000
818.74	18.367
819.04	-2.439
819.35	2.778
819.65	4.545
819.95	-44.444
820.25	-15.152
820.56	-16.667
820.86	-50.000
821.16	-20.455
821.46	-17.391
821.76	-3.448
822.07	4.348
822.37	-9.091
822.67	29.268
822.97	5.405
823.27	-42.857
823.57	3.448
823.88	-17.647
824.18	-5.556
824.48	-8.571
824.78	-23.810
825.08	-3.571
825.38	-18.519
825.69	-29.032
825.99	26.829
826.29	-14.815
826.59	-9.375
826.89	-12.903
827.19	-65.217
827.49	-2.778
827.79	0.000
828.09	-19.355
828.39	4.167
828.70	-37.500
829.00	-34.483
829.30	8.108
829.60	-33.333
829.90	-11.111
830.20	-12.500
830.50	-9.091
830.80	-76.471
831.10	-13.636
831.40	-26.471
831.70	-23.077
832.00	30.303
832.30	29.412
832.60	-2.703
832.90	1400.000
833.20	-17.857
833.50	-70.000
833.80	-18.421
834.10	-87.500
834.40	-54.545
834.70	-60.000
835.00	-30.000
835.30	-45.833
835.60	-19.048
835.90	4.762
836.20	8.000
836.50	-29.167
836.80	-10.526
837.10	21.622
837.40	-3.333
837.70	-13.043
838.00	58.333
838.30	-21.053
838.60	-140.000
838.90	-170.000
839.19	-141.667
839.49	-107.692
839.79	-57.895
840.09	-166.667
840.39	-190.000
840.69	-81.818
840.99	23.810
841.29	-20.833
841.59	-38.462
841.88	-33.333
842.18	-50.000
842.48	-3.333
842.78	-200.000
843.08	-14.286
843.38	-150.000
843.68	-43.750
843.97	28.571
844.27	-144.444
844.57	-181.818
844.87	-93.333
845.17	-4.545
845.47	566.667
845.76	-26.667
846.06	-83.333
846.36	-700.000
846.66	-42.105
846.96	-45.455
847.25	-83.333
847.55	-177.778
847.85	-14.286
848.15	30.769
848.44	-266.667
848.74	-50.000
849.04	-46.154
849.34	-325.000
849.63	-100.000
849.93	-135.714
850.23	20.000
850.53	-100.000
850.82	0.000
851.12	-46.667
851.42	-23.529
851.71	-162.500
852.01	-5.882
852.31	-76.923
852.61	750.000
852.90	23.529
853.20	-20.000
853.50	-37.500
853.79	-157.143
854.09	-350.000
854.39	-30.000
854.68	-15.000
854.98	-23.810
855.28	8.000
855.57	8.333
855.87	8.333
856.17	-44.000
856.46	0.000
856.76	15.000
857.05	20.000
857.35	-125.000
857.65	-82.353
857.94	-191.667
858.24	-83.333
858.53	0.000
858.83	-127.273
859.13	32.000
859.42	-107.143
859.72	-125.000
860.01	4.167
860.31	-100.000
860.60	-31.250
860.90	-133.333
861.20	-100.000
861.49	-6.667
861.79	-50.000
862.08	150.000
862.38	-133.333
862.67	314.286
862.97	650.000
863.26	-154.545
863.56	-36.364
863.85	-15.789
864.15	-17.647
864.44	-160.000
864.74	-40.000
865.03	-177.778
865.33	-100.000
865.62	71.429
865.92	-47.368
866.21	-33.333
866.51	-36.364
866.80	-200.000
867.10	-87.500
867.39	-31.250
867.69	-40.000
867.98	-110.000
868.27	0.000
868.57	0.000
868.86	600.000
869.16	-225.000
869.45	-185.714
869.75	600.000
870.04	40.000
870.33	-500.000
870.63	-21.053
870.92	-33.333
871.22	-500.000
871.51	-100.000
871.80	-22.222
872.10	-350.000
>>>>>End Processed Spectral Data<<<<<
