SpectraSuite Data File
++++++++++++++++++++++++++++++++++++
Date: Tue May 12 16:05:53 PDT 2015
User: schluterlab
Dark Spectrum Present: Yes
Reference Spectrum Present: Yes
Number of Sampled Component Spectra: 1
Spectrometers: USB2E3373
Integration Time (usec): 3000 (USB2E3373)
Spectra Averaged: 3 (USB2E3373)
Boxcar Smoothing: 0 (USB2E3373)
Correct for Electrical Dark: No (USB2E3373)
Strobe/Lamp Enabled: No (USB2E3373)
Correct for Detector Non-linearity: No (USB2E3373)
Correct for Stray Light: No (USB2E3373)
Number of Pixels in Processed Spectrum: 2048
>>>>>Begin Processed Spectral Data<<<<<
178.53	0.000
178.91	-266.667
179.29	-550.000
179.67	-3800.000
180.04	-146.667
180.42	800.000
180.80	1650.000
181.18	0.000
181.56	-387.500
181.94	0.000
182.31	1266.667
182.69	-3700.000
183.07	757.143
183.45	-4300.000
183.83	-1700.000
184.20	400.000
184.58	585.714
184.96	-261.538
185.34	-191.667
185.72	1450.000
186.09	-725.000
186.47	-3300.000
186.85	1233.333
187.23	700.000
187.61	1550.000
187.98	462.500
188.36	371.429
188.74	341.667
189.12	425.000
189.49	900.000
189.87	0.000
190.25	600.000
190.63	3700.000
191.00	-225.000
191.38	-3900.000
191.76	-900.000
192.14	562.500
192.51	-2400.000
192.89	1550.000
193.27	833.333
193.65	-1333.333
194.02	-700.000
194.40	614.286
194.78	-228.571
195.15	213.333
195.53	-3000.000
195.91	-560.000
196.29	4800.000
196.66	250.000
197.04	1000.000
197.42	-1200.000
197.79	800.000
198.17	325.000
198.55	0.000
198.92	528.571
199.30	1300.000
199.68	2500.000
200.05	633.333
200.43	-466.667
200.81	250.000
201.18	3400.000
201.56	350.000
201.94	-900.000
202.31	-312.500
202.69	-480.000
203.07	3500.000
203.44	-716.667
203.82	341.667
204.19	680.000
204.57	-1400.000
204.95	-750.000
205.32	-580.000
205.70	550.000
206.08	875.000
206.45	-733.333
206.83	388.889
207.20	215.789
207.58	383.333
207.96	880.000
208.33	0.000
208.71	628.571
209.08	580.000
209.46	-3100.000
209.84	-1050.000
210.21	880.000
210.59	-640.000
210.96	341.667
211.34	-1050.000
211.71	427.273
212.09	850.000
212.46	1800.000
212.84	-800.000
213.22	400.000
213.59	-3100.000
213.97	290.000
214.34	1175.000
214.72	1066.667
215.09	1233.333
215.47	-3700.000
215.84	-240.000
216.22	-500.000
216.59	0.000
216.97	0.000
217.34	1550.000
217.72	-1400.000
218.09	1300.000
218.47	350.000
218.84	975.000
219.22	1300.000
219.59	966.667
219.97	600.000
220.34	555.556
220.72	1500.000
221.09	3700.000
221.47	291.667
221.84	1300.000
222.22	380.000
222.59	244.444
222.97	257.143
223.34	268.750
223.72	-1850.000
224.09	1100.000
224.46	307.692
224.84	-1000.000
225.21	466.667
225.59	266.667
225.96	966.667
226.34	-620.000
226.71	-925.000
227.08	-520.000
227.46	0.000
227.83	-616.667
228.21	-1800.000
228.58	341.667
228.95	1025.000
229.33	366.667
229.70	1275.000
230.08	376.923
230.45	4000.000
230.82	-950.000
231.20	-1100.000
231.57	-1333.333
231.95	900.000
232.32	300.000
232.69	683.333
233.07	250.000
233.44	-1550.000
233.81	273.333
234.19	200.000
234.56	325.000
234.93	205.882
235.31	200.000
235.68	275.000
236.05	200.000
236.43	140.741
236.80	221.429
237.17	175.862
237.55	112.500
237.92	132.500
238.29	139.394
238.67	156.250
239.04	131.707
239.41	108.333
239.79	142.500
240.16	93.750
240.53	86.885
240.91	75.362
241.28	96.610
241.65	68.182
242.02	92.958
242.40	84.286
242.77	68.132
243.14	60.759
243.51	67.677
243.89	65.421
244.26	55.140
244.63	61.386
245.00	55.963
245.38	48.305
245.75	49.242
246.12	54.074
246.49	50.355
246.87	53.279
247.24	49.333
247.61	48.750
247.98	57.823
248.36	46.667
248.73	46.939
249.10	48.214
249.47	43.500
249.84	45.274
250.22	45.405
250.59	46.500
250.96	40.084
251.33	40.465
251.70	40.179
252.08	42.857
252.45	37.450
252.82	37.643
253.19	40.711
253.56	37.308
253.94	36.957
254.31	36.434
254.68	37.631
255.05	40.690
255.42	35.766
255.79	36.482
256.16	42.034
256.54	39.286
256.91	38.562
257.28	36.789
257.65	32.915
258.02	35.103
258.39	34.670
258.76	36.812
259.14	35.714
259.51	35.277
259.88	38.298
260.25	33.516
260.62	31.781
260.99	30.303
261.36	33.148
261.73	31.915
262.10	34.293
262.47	31.750
262.85	35.467
263.22	36.247
263.59	34.271
263.96	35.589
264.33	33.086
264.70	33.661
265.07	35.366
265.44	33.257
265.81	30.660
266.18	32.037
266.55	33.570
266.92	32.438
267.29	35.965
267.66	32.063
268.03	31.166
268.40	31.924
268.77	35.683
269.14	30.369
269.51	30.735
269.88	32.449
270.25	31.533
270.62	33.476
270.99	34.280
271.36	33.943
271.73	29.979
272.10	30.101
272.47	30.952
272.84	29.940
273.21	32.231
273.58	34.615
273.95	29.569
274.32	31.518
274.69	33.268
275.06	30.965
275.43	29.693
275.80	30.943
276.17	31.801
276.54	33.645
276.91	32.836
277.28	31.022
277.65	30.627
278.02	28.676
278.39	30.396
278.76	29.655
279.13	32.384
279.50	32.000
279.87	29.609
280.23	28.913
280.60	33.942
280.97	29.655
281.34	29.208
281.71	28.174
282.08	29.402
282.45	28.547
282.82	29.933
283.19	29.730
283.56	29.256
283.92	28.176
284.29	27.454
284.66	29.580
285.03	29.851
285.40	26.777
285.77	29.630
286.14	29.567
286.51	28.834
286.87	28.006
287.24	26.877
287.61	29.787
287.98	28.657
288.35	27.111
288.72	28.680
289.08	27.177
289.45	29.421
289.82	26.875
290.19	27.379
290.56	27.802
290.93	25.755
291.29	25.967
291.66	24.011
292.03	26.788
292.40	26.965
292.77	26.045
293.13	26.248
293.50	26.721
293.87	24.797
294.24	26.573
294.60	25.841
294.97	26.573
295.34	26.428
295.71	27.595
296.08	26.533
296.44	24.524
296.81	23.573
297.18	25.475
297.55	25.739
297.91	24.507
298.28	24.638
298.65	25.276
299.02	24.125
299.38	23.981
299.75	24.634
300.12	24.197
300.48	24.590
300.85	25.387
301.22	25.000
301.59	24.292
301.95	24.737
302.32	26.077
302.69	25.226
303.05	24.579
303.42	23.094
303.79	25.244
304.15	25.413
304.52	23.996
304.89	26.439
305.25	25.139
305.62	25.586
305.99	25.109
306.35	24.737
306.72	25.911
307.09	24.638
307.45	25.660
307.82	24.486
308.19	26.186
308.55	25.500
308.92	26.693
309.29	27.219
309.65	25.768
310.02	28.195
310.38	26.820
310.75	26.615
311.12	25.575
311.48	28.764
311.85	27.385
312.22	28.367
312.58	28.571
312.95	29.320
313.31	28.090
313.68	27.955
314.05	29.121
314.41	29.609
314.78	28.598
315.14	29.384
315.51	31.504
315.87	29.653
316.24	30.999
316.61	31.244
316.97	31.560
317.34	32.435
317.70	32.572
318.07	33.452
318.43	32.777
318.80	33.975
319.16	33.654
319.53	33.097
319.89	33.423
320.26	36.220
320.62	36.538
320.99	36.225
321.35	36.549
321.72	37.287
322.08	37.027
322.45	36.240
322.81	39.250
323.18	38.632
323.54	38.153
323.91	40.798
324.27	38.992
324.64	40.571
325.00	41.724
325.37	42.496
325.73	42.243
326.10	43.745
326.46	44.013
326.83	42.640
327.19	43.855
327.56	44.329
327.92	45.820
328.29	45.663
328.65	47.432
329.01	47.134
329.38	47.377
329.74	47.481
330.11	47.176
330.47	47.656
330.84	47.023
331.20	46.870
331.56	47.755
331.93	48.503
332.29	47.024
332.66	50.340
333.02	47.251
333.38	48.429
333.75	49.541
334.11	49.077
334.48	49.316
334.84	48.226
335.20	48.503
335.57	47.271
335.93	48.780
336.29	47.512
336.66	51.029
337.02	48.674
337.38	49.097
337.75	49.493
338.11	50.633
338.47	49.026
338.84	48.857
339.20	48.312
339.56	48.444
339.93	49.498
340.29	47.731
340.65	48.701
341.02	48.029
341.38	48.768
341.74	49.252
342.11	49.332
342.47	48.893
342.83	48.646
343.20	49.232
343.56	46.307
343.92	48.720
344.28	49.123
344.65	49.063
345.01	48.175
345.37	47.997
345.73	47.857
346.10	48.446
346.46	48.565
346.82	47.917
347.19	48.300
347.55	48.165
347.91	47.130
348.27	46.863
348.63	48.655
349.00	49.276
349.36	49.183
349.72	48.394
350.08	49.146
350.45	47.372
350.81	46.789
351.17	47.149
351.53	48.653
351.89	47.164
352.26	47.846
352.62	47.059
352.98	48.160
353.34	48.305
353.70	47.630
354.07	46.615
354.43	48.541
354.79	46.697
355.15	48.009
355.51	47.583
355.87	47.666
356.24	47.960
356.60	46.728
356.96	47.612
357.32	48.304
357.68	47.651
358.04	47.568
358.40	46.552
358.77	47.558
359.13	47.447
359.49	47.961
359.85	47.431
360.21	46.731
360.57	48.102
360.93	47.330
361.29	46.825
361.66	49.515
362.02	46.875
362.38	46.465
362.74	47.771
363.10	47.475
363.46	47.030
363.82	46.283
364.18	47.795
364.54	46.996
364.90	46.653
365.26	48.577
365.62	47.928
365.98	46.524
366.35	47.034
366.71	47.467
367.07	46.485
367.43	46.810
367.79	46.077
368.15	46.133
368.51	46.657
368.87	47.079
369.23	47.609
369.59	47.471
369.95	46.783
370.31	45.927
370.67	46.010
371.03	47.269
371.39	47.645
371.75	46.476
372.11	45.343
372.47	47.603
372.83	46.703
373.19	47.841
373.55	47.148
373.91	46.133
374.27	46.495
374.63	48.068
374.99	46.698
375.35	47.312
375.71	46.240
376.07	46.552
376.42	44.246
376.78	47.463
377.14	45.806
377.50	46.879
377.86	46.316
378.22	46.557
378.58	46.489
378.94	46.107
379.30	46.210
379.66	46.237
380.02	46.862
380.38	46.838
380.74	45.905
381.09	46.145
381.45	46.416
381.81	46.395
382.17	46.825
382.53	46.431
382.89	46.659
383.25	46.596
383.61	45.303
383.97	45.351
384.32	46.534
384.68	47.653
385.04	46.014
385.40	46.323
385.76	46.050
386.12	45.578
386.48	46.869
386.83	46.149
387.19	46.054
387.55	46.054
387.91	46.016
388.27	47.293
388.62	46.890
388.98	44.898
389.34	44.795
389.70	45.696
390.06	47.195
390.42	44.787
390.77	46.744
391.13	47.133
391.49	45.372
391.85	45.662
392.20	45.411
392.56	45.759
392.92	44.694
393.28	44.114
393.64	45.986
393.99	44.754
394.35	44.850
394.71	44.753
395.07	45.620
395.42	45.375
395.78	45.096
396.14	46.205
396.50	44.705
396.85	46.098
397.21	44.645
397.57	44.591
397.92	44.656
398.28	45.284
398.64	44.328
399.00	43.346
399.35	43.586
399.71	44.481
400.07	45.434
400.42	44.537
400.78	45.103
401.14	45.508
401.49	44.758
401.85	45.481
402.21	44.464
402.57	44.584
402.92	44.364
403.28	43.735
403.63	43.320
403.99	44.029
404.35	44.725
404.70	44.714
405.06	42.841
405.42	44.345
405.77	44.873
406.13	44.197
406.49	43.661
406.84	43.711
407.20	44.235
407.55	44.615
407.91	44.352
408.27	44.633
408.62	44.175
408.98	43.879
409.34	43.016
409.69	43.933
410.05	44.186
410.40	43.463
410.76	43.160
411.11	43.128
411.47	43.210
411.83	41.945
412.18	43.116
412.54	43.363
412.89	43.481
413.25	43.786
413.60	43.984
413.96	43.268
414.31	43.447
414.67	43.141
415.03	44.572
415.38	43.722
415.74	45.041
416.09	44.097
416.45	44.279
416.80	45.285
417.16	43.285
417.51	43.503
417.87	44.493
418.22	44.107
418.58	45.032
418.93	44.200
419.29	43.007
419.64	43.489
420.00	44.690
420.35	43.728
420.71	43.466
421.06	43.849
421.42	43.638
421.77	43.976
422.12	43.771
422.48	44.222
422.83	44.587
423.19	42.603
423.54	42.841
423.90	43.431
424.25	44.359
424.61	43.935
424.96	43.874
425.31	44.061
425.67	44.893
426.02	43.859
426.38	43.524
426.73	44.014
427.09	44.543
427.44	44.063
427.79	43.739
428.15	45.787
428.50	45.543
428.85	44.680
429.21	44.787
429.56	44.317
429.92	44.704
430.27	43.348
430.62	43.123
430.98	43.812
431.33	43.851
431.68	43.556
432.04	44.077
432.39	45.060
432.74	45.316
433.10	45.183
433.45	44.917
433.80	45.780
434.16	45.034
434.51	45.201
434.86	44.965
435.22	44.462
435.57	44.398
435.92	45.134
436.28	45.046
436.63	44.949
436.98	45.608
437.34	45.548
437.69	43.617
438.04	46.075
438.39	45.884
438.75	45.045
439.10	44.792
439.45	44.658
439.81	45.807
440.16	44.744
440.51	45.664
440.86	45.812
441.22	44.805
441.57	45.354
441.92	44.620
442.27	43.814
442.63	45.681
442.98	44.450
443.33	45.742
443.68	45.070
444.03	45.759
444.39	44.680
444.74	45.911
445.09	44.708
445.44	44.687
445.79	45.370
446.15	45.684
446.50	45.359
446.85	45.219
447.20	44.876
447.55	45.731
447.91	46.510
448.26	44.995
448.61	46.048
448.96	46.460
449.31	45.875
449.66	46.512
450.02	45.381
450.37	46.308
450.72	46.116
451.07	46.481
451.42	45.880
451.77	46.793
452.12	46.171
452.47	46.233
452.83	46.028
453.18	47.447
453.53	47.247
453.88	46.400
454.23	46.194
454.58	46.853
454.93	46.842
455.28	47.062
455.63	46.277
455.98	45.798
456.34	47.538
456.69	46.280
457.04	45.644
457.39	48.229
457.74	47.016
458.09	45.536
458.44	46.550
458.79	46.048
459.14	45.608
459.49	45.810
459.84	46.196
460.19	45.650
460.54	46.211
460.89	46.695
461.24	45.132
461.59	46.032
461.94	45.745
462.29	47.197
462.64	46.231
462.99	45.809
463.34	47.829
463.69	47.126
464.04	46.172
464.39	46.537
464.74	44.666
465.09	46.663
465.44	46.464
465.79	46.489
466.14	45.469
466.49	46.772
466.84	44.593
467.19	47.217
467.54	45.826
467.89	46.714
468.24	46.497
468.59	46.429
468.94	47.041
469.29	45.754
469.64	46.688
469.99	46.979
470.34	47.502
470.68	47.931
471.03	47.498
471.38	47.682
471.73	46.832
472.08	48.271
472.43	47.486
472.78	48.015
473.13	46.996
473.48	46.883
473.83	47.821
474.17	47.112
474.52	46.386
474.87	45.196
475.22	46.545
475.57	46.380
475.92	45.835
476.27	46.192
476.61	45.898
476.96	46.082
477.31	47.609
477.66	47.558
478.01	47.241
478.36	47.065
478.70	46.253
479.05	46.967
479.40	46.429
479.75	45.780
480.10	46.757
480.45	45.798
480.79	46.313
481.14	45.697
481.49	45.059
481.84	45.602
482.19	46.070
482.53	45.015
482.88	45.296
483.23	45.647
483.58	47.217
483.92	45.887
484.27	45.420
484.62	45.289
484.97	45.578
485.31	44.925
485.66	43.463
486.01	42.262
486.36	41.075
486.70	40.621
487.05	41.482
487.40	41.833
487.75	42.583
488.09	43.750
488.44	43.563
488.79	45.331
489.13	45.502
489.48	46.225
489.83	45.538
490.17	44.880
490.52	46.081
490.87	45.991
491.22	46.498
491.56	46.596
491.91	45.161
492.26	46.682
492.60	46.105
492.95	47.077
493.30	46.087
493.64	45.553
493.99	45.349
494.34	46.078
494.68	45.728
495.03	46.430
495.37	46.556
495.72	46.107
496.07	46.047
496.41	46.134
496.76	45.504
497.11	45.844
497.45	45.243
497.80	47.173
498.14	45.862
498.49	45.729
498.84	46.916
499.18	46.115
499.53	46.164
499.87	45.732
500.22	46.891
500.56	46.332
500.91	46.243
501.26	46.164
501.60	45.310
501.95	45.968
502.29	46.000
502.64	44.905
502.98	45.487
503.33	45.167
503.67	45.651
504.02	46.126
504.36	45.294
504.71	47.067
505.06	46.269
505.40	45.718
505.75	46.071
506.09	46.570
506.44	45.207
506.78	46.030
507.13	46.728
507.47	45.657
507.82	46.326
508.16	46.252
508.51	47.053
508.85	45.299
509.19	46.500
509.54	45.801
509.88	47.340
510.23	46.765
510.57	45.125
510.92	46.304
511.26	46.737
511.61	44.953
511.95	45.545
512.30	45.900
512.64	46.469
512.98	47.412
513.33	46.824
513.67	46.297
514.02	47.221
514.36	46.833
514.70	46.453
515.05	46.723
515.39	48.191
515.74	46.747
516.08	47.549
516.42	47.978
516.77	47.040
517.11	46.347
517.46	46.390
517.80	47.133
518.14	47.155
518.49	46.748
518.83	46.538
519.17	48.253
519.52	47.624
519.86	46.812
520.20	46.630
520.55	46.806
520.89	48.046
521.23	49.007
521.58	47.390
521.92	47.988
522.26	46.979
522.61	48.307
522.95	48.709
523.29	49.415
523.64	46.647
523.98	48.181
524.32	47.116
524.66	47.130
525.01	45.799
525.35	46.730
525.69	48.224
526.04	47.531
526.38	47.087
526.72	46.838
527.06	46.422
527.41	47.884
527.75	47.292
528.09	47.983
528.43	47.834
528.78	47.704
529.12	48.465
529.46	48.334
529.80	46.904
530.15	46.081
530.49	46.029
530.83	48.324
531.17	47.970
531.51	48.130
531.86	45.652
532.20	45.550
532.54	47.520
532.88	47.158
533.22	47.410
533.57	46.675
533.91	45.804
534.25	44.951
534.59	45.439
534.93	43.458
535.27	45.248
535.62	45.449
535.96	45.035
536.30	46.801
536.64	46.211
536.98	47.388
537.32	46.125
537.66	45.727
538.01	46.006
538.35	46.288
538.69	45.388
539.03	44.900
539.37	44.357
539.71	45.370
540.05	45.846
540.39	46.352
540.73	45.759
541.07	46.110
541.42	45.522
541.76	45.931
542.10	45.438
542.44	46.259
542.78	44.556
543.12	45.092
543.46	45.865
543.80	45.113
544.14	45.697
544.48	44.526
544.82	45.933
545.16	44.202
545.50	45.728
545.84	46.086
546.18	47.074
546.52	46.164
546.86	45.712
547.20	44.767
547.54	44.965
547.88	44.526
548.22	44.384
548.56	43.783
548.90	44.781
549.24	44.662
549.58	44.201
549.92	46.365
550.26	44.828
550.60	45.043
550.94	46.065
551.28	45.241
551.62	46.759
551.96	45.541
552.30	43.111
552.64	45.825
552.98	44.330
553.32	42.830
553.66	43.388
554.00	44.530
554.34	44.807
554.68	44.825
555.02	46.029
555.36	44.747
555.69	44.306
556.03	44.268
556.37	44.168
556.71	44.459
557.05	44.102
557.39	44.200
557.73	45.687
558.07	45.272
558.41	43.043
558.75	44.938
559.08	45.675
559.42	45.168
559.76	44.975
560.10	44.391
560.44	44.194
560.78	44.949
561.12	44.501
561.45	42.365
561.79	43.071
562.13	43.778
562.47	43.284
562.81	43.006
563.15	43.180
563.48	41.677
563.82	43.169
564.16	43.159
564.50	43.339
564.84	42.979
565.17	42.424
565.51	43.781
565.85	43.615
566.19	42.262
566.52	42.298
566.86	42.090
567.20	41.573
567.54	41.648
567.88	42.201
568.21	39.990
568.55	40.564
568.89	39.644
569.23	39.948
569.56	39.137
569.90	37.513
570.24	37.785
570.57	37.508
570.91	37.067
571.25	36.595
571.59	35.984
571.92	35.199
572.26	35.660
572.60	36.184
572.93	36.055
573.27	36.531
573.61	35.517
573.95	35.408
574.28	35.676
574.62	34.932
574.96	34.245
575.29	34.050
575.63	34.299
575.97	34.567
576.30	34.346
576.64	34.590
576.98	34.223
577.31	34.468
577.65	34.465
577.98	33.981
578.32	33.246
578.66	33.554
578.99	34.130
579.33	34.123
579.67	34.341
580.00	33.547
580.34	33.885
580.67	33.311
581.01	34.452
581.35	33.234
581.68	33.092
582.02	33.044
582.35	33.127
582.69	33.014
583.02	33.174
583.36	33.706
583.70	34.771
584.03	34.924
584.37	34.452
584.70	34.287
585.04	33.714
585.37	32.800
585.71	33.685
586.04	33.710
586.38	33.756
586.72	34.183
587.05	34.714
587.39	34.387
587.72	33.594
588.06	33.424
588.39	33.751
588.73	33.806
589.06	34.316
589.40	35.211
589.73	34.907
590.07	36.445
590.40	36.202
590.73	36.541
591.07	36.964
591.40	36.248
591.74	36.364
592.07	35.067
592.41	35.252
592.74	35.335
593.08	34.440
593.41	33.752
593.75	33.939
594.08	34.031
594.41	34.539
594.75	34.795
595.08	34.465
595.42	35.188
595.75	33.761
596.09	34.550
596.42	35.506
596.75	35.897
597.09	35.700
597.42	34.408
597.75	34.645
598.09	35.453
598.42	35.169
598.76	33.732
599.09	34.755
599.42	33.460
599.76	33.243
600.09	33.424
600.42	34.323
600.76	33.175
601.09	33.932
601.42	33.474
601.76	34.372
602.09	34.547
602.42	33.678
602.76	33.890
603.09	34.955
603.42	34.495
603.76	34.418
604.09	34.311
604.42	34.124
604.76	34.887
605.09	34.571
605.42	35.270
605.75	34.544
606.09	33.206
606.42	34.123
606.75	34.201
607.09	33.794
607.42	34.150
607.75	33.798
608.08	34.931
608.42	34.606
608.75	33.761
609.08	34.624
609.41	34.818
609.75	35.897
610.08	34.712
610.41	34.519
610.74	34.069
611.07	34.743
611.41	35.032
611.74	36.329
612.07	34.538
612.40	35.039
612.73	35.197
613.07	35.783
613.40	34.837
613.73	36.395
614.06	33.750
614.39	35.000
614.72	35.309
615.06	34.421
615.39	34.752
615.72	34.560
616.05	35.510
616.38	35.008
616.71	35.160
617.05	35.091
617.38	35.000
617.71	35.714
618.04	34.773
618.37	35.575
618.70	36.143
619.03	36.325
619.36	36.432
619.69	37.533
620.03	36.791
620.36	38.215
620.69	37.739
621.02	38.587
621.35	36.963
621.68	38.496
622.01	39.631
622.34	37.800
622.67	38.272
623.00	37.168
623.33	36.977
623.66	36.194
623.99	37.603
624.32	36.856
624.65	36.340
624.99	38.134
625.32	37.475
625.65	36.897
625.98	36.611
626.31	38.353
626.64	38.269
626.97	37.337
627.30	38.043
627.63	38.776
627.96	37.793
628.29	38.779
628.62	38.323
628.95	40.514
629.28	40.228
629.61	38.137
629.94	38.548
630.26	39.601
630.59	41.312
630.92	39.641
631.25	41.251
631.58	41.562
631.91	39.676
632.24	40.719
632.57	40.472
632.90	43.789
633.23	41.658
633.56	40.358
633.89	40.729
634.22	42.519
634.55	41.935
634.88	42.497
635.20	42.713
635.53	43.206
635.86	43.177
636.19	41.975
636.52	40.757
636.85	39.914
637.18	42.904
637.51	41.899
637.83	41.190
638.16	43.376
638.49	42.156
638.82	42.723
639.15	40.893
639.48	43.009
639.81	41.880
640.13	43.804
640.46	41.719
640.79	42.653
641.12	41.864
641.45	42.820
641.77	43.857
642.10	42.704
642.43	43.670
642.76	44.744
643.09	43.228
643.41	42.917
643.74	45.899
644.07	46.460
644.40	44.231
644.73	46.547
645.05	45.171
645.38	45.636
645.71	44.158
646.04	45.649
646.36	45.227
646.69	44.800
647.02	48.000
647.35	42.047
647.67	45.705
648.00	46.417
648.33	43.008
648.66	43.788
648.98	42.174
649.31	41.970
649.64	41.217
649.96	40.398
650.29	42.000
650.62	41.090
650.94	41.867
651.27	44.817
651.60	44.757
651.92	44.700
652.25	46.299
652.58	40.567
652.90	42.964
653.23	43.870
653.56	43.769
653.88	41.703
654.21	42.669
654.54	40.703
654.86	42.625
655.19	40.633
655.52	33.475
655.84	24.303
656.17	27.718
656.49	39.316
656.82	45.090
657.15	36.201
657.47	27.392
657.80	20.268
658.13	16.388
658.45	22.351
658.78	27.930
659.10	28.187
659.43	29.505
659.75	31.946
660.08	33.459
660.41	35.118
660.73	40.402
661.06	43.544
661.38	45.315
661.71	44.424
662.03	46.008
662.36	47.048
662.68	42.086
663.01	43.964
663.33	44.528
663.66	45.168
663.98	45.635
664.31	45.522
664.63	46.360
664.96	45.028
665.28	44.444
665.61	46.038
665.93	45.283
666.26	43.551
666.58	45.872
666.91	44.015
667.23	44.578
667.56	45.585
667.88	46.058
668.21	44.877
668.53	47.379
668.86	48.497
669.18	46.640
669.50	44.421
669.83	47.023
670.15	47.401
670.48	43.555
670.80	45.618
671.13	44.821
671.45	45.691
671.77	44.527
672.10	43.806
672.42	40.954
672.75	40.981
673.07	41.017
673.39	38.818
673.72	40.138
674.04	41.039
674.37	42.831
674.69	44.052
675.01	41.978
675.34	40.891
675.66	44.727
675.98	44.576
676.31	47.400
676.63	43.340
676.95	46.825
677.28	45.233
677.60	44.467
677.92	42.460
678.25	46.899
678.57	40.782
678.89	43.761
679.22	42.463
679.54	41.281
679.86	40.663
680.18	40.070
680.51	39.635
680.83	40.203
681.15	41.594
681.48	41.146
681.80	40.981
682.12	40.830
682.44	38.378
682.77	39.324
683.09	42.913
683.41	43.469
683.73	42.126
684.06	41.865
684.38	45.349
684.70	39.388
685.02	39.583
685.34	42.430
685.67	37.460
685.99	38.424
686.31	36.826
686.63	38.049
686.96	38.235
687.28	37.081
687.60	39.078
687.92	38.191
688.24	41.207
688.56	41.103
688.89	39.006
689.21	41.618
689.53	44.071
689.85	40.041
690.17	39.806
690.49	41.129
690.82	42.857
691.14	43.434
691.46	44.559
691.78	40.351
692.10	39.695
692.42	37.750
692.74	41.473
693.06	40.698
693.39	40.909
693.71	39.489
694.03	42.209
694.35	42.369
694.67	42.159
694.99	45.455
695.31	42.793
695.63	41.855
695.95	40.950
696.27	41.593
696.59	42.482
696.91	42.532
697.23	42.760
697.56	40.249
697.88	36.926
698.20	40.943
698.52	34.241
698.84	40.862
699.16	41.791
699.48	40.466
699.80	41.612
700.12	44.111
700.44	43.692
700.76	41.766
701.08	44.386
701.40	44.156
701.72	46.791
702.04	47.154
702.36	45.161
702.68	46.543
703.00	42.607
703.32	41.935
703.64	44.081
703.96	45.312
704.28	43.915
704.60	46.479
704.91	45.378
705.23	46.875
705.55	48.368
705.87	46.984
706.19	47.335
706.51	50.157
706.83	45.723
707.15	44.920
707.47	40.678
707.79	40.920
708.11	40.590
708.43	41.798
708.74	39.819
709.06	41.628
709.38	44.665
709.70	39.237
710.02	40.217
710.34	41.989
710.66	44.722
710.98	43.716
711.29	43.454
711.61	44.568
711.93	41.945
712.25	44.880
712.57	42.765
712.89	48.182
713.20	48.243
713.52	41.745
713.84	44.109
714.16	39.130
714.48	41.499
714.80	39.837
715.11	40.957
715.43	40.503
715.75	41.972
716.07	41.908
716.39	45.143
716.70	42.368
717.02	50.168
717.34	48.201
717.66	52.431
717.97	52.652
718.29	46.831
718.61	36.149
718.93	49.827
719.24	43.624
719.56	45.517
719.88	40.764
720.20	40.645
720.51	45.098
720.83	46.823
721.15	46.939
721.46	46.918
721.78	41.812
722.10	46.528
722.42	42.809
722.73	43.321
723.05	43.860
723.37	47.350
723.68	45.703
724.00	45.455
724.32	49.049
724.63	45.385
724.95	45.882
725.27	40.892
725.58	45.588
725.90	39.789
726.22	43.151
726.53	40.468
726.85	41.694
727.16	49.329
727.48	42.857
727.80	44.604
728.11	42.143
728.43	38.768
728.74	43.007
729.06	41.935
729.38	40.000
729.69	46.000
730.01	45.395
730.32	38.591
730.64	44.518
730.96	39.940
731.27	34.251
731.59	36.494
731.90	38.997
732.22	37.714
732.53	35.043
732.85	42.105
733.16	40.060
733.48	39.498
733.80	41.739
734.11	43.252
734.43	36.257
734.74	37.265
735.06	38.889
735.37	36.598
735.69	37.101
736.00	41.590
736.32	37.879
736.63	33.754
736.95	42.236
737.26	39.634
737.58	42.945
737.89	40.361
738.21	39.073
738.52	42.140
738.83	43.956
739.15	41.463
739.46	40.345
739.78	39.796
740.09	39.650
740.41	40.798
740.72	44.127
741.04	41.958
741.35	43.750
741.66	43.083
741.98	46.781
742.29	52.315
742.61	45.575
742.92	48.305
743.23	44.000
743.55	44.528
743.86	41.961
744.18	45.339
744.49	45.455
744.80	48.848
745.12	47.321
745.43	47.196
745.74	48.889
746.06	38.596
746.37	54.419
746.68	48.230
747.00	48.879
747.31	47.059
747.62	44.262
747.94	49.356
748.25	41.634
748.56	45.763
748.88	47.321
749.19	47.442
749.50	42.466
749.82	41.564
750.13	43.478
750.44	38.333
750.75	42.282
751.07	40.461
751.38	37.294
751.69	39.731
752.01	41.958
752.32	38.206
752.63	40.604
752.94	40.559
753.26	42.187
753.57	42.412
753.88	40.824
754.19	38.628
754.51	37.874
754.82	36.242
755.13	37.162
755.44	44.074
755.75	43.643
756.07	41.781
756.38	39.542
756.69	35.313
757.00	40.356
757.31	35.211
757.63	36.088
757.94	35.106
758.25	37.198
758.56	35.698
758.87	34.586
759.18	37.791
759.50	37.082
759.81	38.576
760.12	35.112
760.43	34.454
760.74	37.975
761.05	34.218
761.36	32.031
761.67	33.693
761.99	34.366
762.30	34.727
762.61	34.722
762.92	39.015
763.23	43.019
763.54	45.385
763.85	37.743
764.16	41.319
764.47	40.878
764.78	37.459
765.10	34.756
765.41	35.227
765.72	33.425
766.03	34.139
766.34	36.585
766.65	38.783
766.96	44.130
767.27	48.598
767.58	50.495
767.89	52.486
768.20	56.707
768.51	43.878
768.82	42.544
769.13	40.000
769.44	39.098
769.75	36.704
770.06	43.697
770.37	40.351
770.68	39.556
770.99	48.305
771.30	40.167
771.61	36.923
771.92	37.023
772.23	38.710
772.54	41.333
772.85	52.970
773.16	46.196
773.47	40.556
773.78	47.525
774.09	46.023
774.39	52.727
774.70	45.882
775.01	50.658
775.32	52.174
775.63	58.904
775.94	51.852
776.25	51.724
776.56	53.435
776.87	61.832
777.18	51.515
777.48	69.291
777.79	61.538
778.10	50.758
778.41	61.940
778.72	55.639
779.03	48.718
779.34	45.270
779.65	48.447
779.95	52.174
780.26	50.595
780.57	49.660
780.88	59.574
781.19	61.667
781.50	43.787
781.80	46.448
782.11	47.090
782.42	48.276
782.73	47.458
783.04	40.645
783.34	58.140
783.65	42.857
783.96	50.323
784.27	45.695
784.57	49.342
784.88	50.725
785.19	55.833
785.50	56.034
785.81	62.791
786.11	52.593
786.42	55.118
786.73	69.369
787.04	66.981
787.34	56.098
787.65	50.000
787.96	50.000
788.26	55.118
788.57	52.555
788.88	51.408
789.19	50.382
789.49	56.081
789.80	53.125
790.11	53.719
790.41	67.593
790.72	62.037
791.03	61.538
791.33	65.657
791.64	66.316
791.95	71.579
792.25	60.417
792.56	54.000
792.87	70.732
793.17	73.864
793.48	74.118
793.79	74.713
794.09	76.136
794.40	65.517
794.70	53.968
795.01	56.154
795.32	42.748
795.62	51.282
795.93	56.303
796.23	54.472
796.54	64.286
796.85	70.455
797.15	87.013
797.46	68.293
797.76	66.250
798.07	73.333
798.37	72.500
798.68	85.000
798.99	74.390
799.29	72.000
799.60	58.140
799.90	86.842
800.21	90.909
800.51	88.732
800.82	82.759
801.12	83.077
801.43	80.000
801.73	87.931
802.04	81.818
802.34	75.342
802.65	105.882
802.95	82.609
803.26	101.613
803.56	105.000
803.87	74.627
804.17	84.127
804.48	92.453
804.78	80.556
805.09	96.970
805.39	80.952
805.70	68.421
806.00	78.571
806.30	89.062
806.61	70.588
806.91	62.222
807.22	71.739
807.52	65.789
807.83	75.000
808.13	72.464
808.43	83.871
808.74	69.863
809.04	85.714
809.35	88.235
809.65	83.333
809.95	103.922
810.26	101.852
810.56	96.875
810.86	100.000
811.17	89.474
811.47	110.870
811.77	87.931
812.08	86.207
812.38	90.476
812.69	133.333
812.99	100.000
813.29	97.143
813.59	148.387
813.90	84.483
814.20	90.164
814.50	82.000
814.81	64.912
815.11	77.778
815.41	96.429
815.72	96.429
816.02	132.000
816.32	102.439
816.62	98.276
816.93	145.455
817.23	92.683
817.53	82.143
817.84	135.556
818.14	88.095
818.44	108.333
818.74	115.094
819.04	92.308
819.35	136.364
819.65	138.462
819.95	114.815
820.25	129.787
820.56	121.622
820.86	128.947
821.16	91.489
821.46	107.895
821.76	94.545
822.07	100.000
822.37	126.316
822.67	118.605
822.97	118.421
823.27	113.043
823.57	146.875
823.88	125.641
824.18	130.303
824.48	160.870
824.78	136.111
825.08	169.565
825.38	172.414
825.69	120.588
825.99	91.489
826.29	97.222
826.59	145.714
826.89	143.333
827.19	100.000
827.49	119.355
827.79	157.692
828.09	95.238
828.39	111.111
828.70	105.405
829.00	175.000
829.30	225.000
829.60	108.333
829.90	109.677
830.20	106.061
830.50	145.946
830.80	191.667
831.10	188.462
831.40	190.476
831.70	229.167
832.00	136.667
832.30	195.652
832.60	179.167
832.90	160.606
833.20	210.000
833.50	157.895
833.80	114.706
834.10	97.368
834.40	147.368
834.70	120.000
835.00	176.000
835.30	113.514
835.60	143.750
835.90	127.027
836.20	157.692
836.50	195.455
836.80	131.707
837.10	173.913
837.40	292.308
837.70	163.158
838.00	146.667
838.30	200.000
838.60	160.000
838.90	410.000
839.19	287.500
839.49	180.000
839.79	120.690
840.09	157.692
840.39	300.000
840.69	247.368
840.99	161.905
841.29	221.739
841.59	235.000
841.88	160.000
842.18	322.222
842.48	160.714
842.78	133.333
843.08	253.846
843.38	213.636
843.68	314.286
843.97	428.571
844.27	200.000
844.57	1400.000
844.87	250.000
845.17	216.667
845.47	138.095
845.76	179.167
846.06	700.000
846.36	211.765
846.66	261.538
846.96	318.750
847.25	261.538
847.55	273.684
847.85	188.889
848.15	540.000
848.44	263.636
848.74	176.190
849.04	216.667
849.34	200.000
849.63	243.750
849.93	218.750
850.23	1333.333
850.53	437.500
850.82	290.909
851.12	217.647
851.42	212.500
851.71	225.000
852.01	0.000
852.31	264.706
852.61	410.000
852.90	150.000
853.20	322.222
853.50	-3200.000
853.79	196.000
854.09	143.750
854.39	172.414
854.68	151.724
854.98	219.048
855.28	145.161
855.57	235.714
855.87	172.222
856.17	192.593
856.46	194.737
856.76	122.581
857.05	288.235
857.35	372.727
857.65	261.538
857.94	235.000
858.24	366.667
858.53	321.429
858.83	728.571
859.13	178.261
859.42	377.778
859.72	550.000
860.01	316.667
860.31	900.000
860.60	410.000
860.90	525.000
861.20	323.077
861.49	400.000
861.79	-4200.000
862.08	557.143
862.38	333.333
862.67	164.286
862.97	370.000
863.26	166.667
863.56	975.000
863.85	369.231
864.15	300.000
864.44	250.000
864.74	408.333
865.03	327.273
865.33	400.000
865.62	220.000
865.92	683.333
866.21	1200.000
866.51	740.000
866.80	233.333
867.10	800.000
867.39	3700.000
867.69	820.000
867.98	950.000
868.27	238.095
868.57	286.667
868.86	925.000
869.16	223.810
869.45	4200.000
869.75	-616.667
870.04	850.000
870.33	760.000
870.63	362.500
870.92	182.353
871.22	700.000
871.51	571.429
871.80	383.333
872.10	307.692
>>>>>End Processed Spectral Data<<<<<
