SpectraSuite Data File
++++++++++++++++++++++++++++++++++++
Date: Tue May 12 17:13:14 PDT 2015
User: schluterlab
Dark Spectrum Present: Yes
Reference Spectrum Present: Yes
Number of Sampled Component Spectra: 1
Spectrometers: USB2E3373
Integration Time (usec): 3000 (USB2E3373)
Spectra Averaged: 3 (USB2E3373)
Boxcar Smoothing: 0 (USB2E3373)
Correct for Electrical Dark: No (USB2E3373)
Strobe/Lamp Enabled: No (USB2E3373)
Correct for Detector Non-linearity: No (USB2E3373)
Correct for Stray Light: No (USB2E3373)
Number of Pixels in Processed Spectrum: 2048
>>>>>Begin Processed Spectral Data<<<<<
178.53	0.000
178.91	-183.333
179.29	-725.000
179.67	-3700.000
180.04	-153.333
180.42	450.000
180.80	1200.000
181.18	0.000
181.56	-350.000
181.94	0.000
182.31	833.333
182.69	-3900.000
183.07	542.857
183.45	-2500.000
183.83	-1650.000
184.20	360.000
184.58	357.143
184.96	-253.846
185.34	-183.333
185.72	1900.000
186.09	-875.000
186.47	-3900.000
186.85	966.667
187.23	500.000
187.61	1500.000
187.98	487.500
188.36	235.714
188.74	316.667
189.12	291.667
189.49	875.000
189.87	0.000
190.25	425.000
190.63	3300.000
191.00	-191.667
191.38	-3400.000
191.76	-850.000
192.14	550.000
192.51	-2600.000
192.89	2050.000
193.27	866.667
193.65	-1333.333
194.02	-900.000
194.40	557.143
194.78	-207.143
195.15	246.667
195.53	-2400.000
195.91	-360.000
196.29	3400.000
196.66	268.750
197.04	825.000
197.42	-1150.000
197.79	600.000
198.17	308.333
198.55	0.000
198.92	514.286
199.30	1166.667
199.68	1750.000
200.05	566.667
200.43	-416.667
200.81	183.333
201.18	2300.000
201.56	241.667
201.94	-750.000
202.31	-350.000
202.69	-480.000
203.07	4500.000
203.44	-466.667
203.82	366.667
204.19	560.000
204.57	-1200.000
204.95	-875.000
205.32	-660.000
205.70	550.000
206.08	550.000
206.45	-733.333
206.83	377.778
207.20	157.895
207.58	316.667
207.96	740.000
208.33	0.000
208.71	571.429
209.08	740.000
209.46	-2600.000
209.84	-700.000
210.21	920.000
210.59	-420.000
210.96	325.000
211.34	-1050.000
211.71	354.545
212.09	775.000
212.46	1350.000
212.84	-266.667
213.22	322.222
213.59	-1500.000
213.97	280.000
214.34	675.000
214.72	1000.000
215.09	966.667
215.47	-2300.000
215.84	-270.000
216.22	-400.000
216.59	0.000
216.97	0.000
217.34	1350.000
217.72	-1600.000
218.09	1366.667
218.47	412.500
218.84	925.000
219.22	900.000
219.59	1066.667
219.97	385.714
220.34	311.111
220.72	1550.000
221.09	3100.000
221.47	158.333
221.84	766.667
222.22	340.000
222.59	277.778
222.97	221.429
223.34	262.500
223.72	-1750.000
224.09	1366.667
224.46	269.231
224.84	-575.000
225.21	355.556
225.59	266.667
225.96	1266.667
226.34	-560.000
226.71	-575.000
227.08	-600.000
227.46	0.000
227.83	-466.667
228.21	-1350.000
228.58	341.667
228.95	825.000
229.33	322.222
229.70	800.000
230.08	315.385
230.45	3200.000
230.82	-775.000
231.20	-500.000
231.57	-1033.333
231.95	580.000
232.32	291.667
232.69	433.333
233.07	300.000
233.44	-1500.000
233.81	286.667
234.19	137.037
234.56	162.500
234.93	129.412
235.31	205.000
235.68	181.250
236.05	164.286
236.43	148.148
236.80	271.429
237.17	120.690
237.55	93.750
237.92	87.500
238.29	106.061
238.67	81.250
239.04	90.244
239.41	50.000
239.79	42.500
240.16	66.667
240.53	40.984
240.91	56.522
241.28	52.542
241.65	62.121
242.02	63.380
242.40	47.143
242.77	43.956
243.14	31.646
243.51	46.465
243.89	37.383
244.26	28.972
244.63	36.634
245.00	28.440
245.38	25.424
245.75	28.788
246.12	29.630
246.49	21.986
246.87	18.033
247.24	24.667
247.61	23.125
247.98	27.211
248.36	13.939
248.73	21.939
249.10	13.690
249.47	24.000
249.84	18.905
250.22	16.757
250.59	16.000
250.96	18.143
251.33	13.953
251.70	19.643
252.08	15.966
252.45	13.944
252.82	12.167
253.19	11.858
253.56	13.846
253.94	14.493
254.31	13.953
254.68	15.331
255.05	14.138
255.42	9.854
255.79	10.098
256.16	10.847
256.54	11.364
256.91	11.111
257.28	10.033
257.65	5.329
258.02	10.324
258.39	12.034
258.76	13.043
259.14	6.857
259.51	11.079
259.88	10.030
260.25	8.791
260.62	10.137
260.99	9.091
261.36	11.421
261.73	9.574
262.10	9.424
262.47	8.250
262.85	8.267
263.22	8.740
263.59	10.742
263.96	10.526
264.33	7.407
264.70	9.582
265.07	9.024
265.44	8.028
265.81	8.962
266.18	8.696
266.55	7.329
266.92	6.711
267.29	5.702
267.66	7.399
268.03	7.623
268.40	8.457
268.77	7.489
269.14	5.857
269.51	8.018
269.88	7.551
270.25	5.616
270.62	6.867
270.99	9.331
271.36	7.520
271.73	5.031
272.10	6.061
272.47	6.349
272.84	5.589
273.21	7.645
273.58	7.895
273.95	5.955
274.32	8.560
274.69	8.858
275.06	6.922
275.43	8.238
275.80	7.358
276.17	8.456
276.54	10.280
276.91	7.649
277.28	5.292
277.65	7.011
278.02	8.088
278.39	5.576
278.76	7.931
279.13	6.406
279.50	7.091
279.87	6.518
280.23	5.341
280.60	5.657
280.97	6.207
281.34	5.776
281.71	7.304
282.08	6.838
282.45	6.419
282.82	6.187
283.19	6.359
283.56	4.132
283.92	8.143
284.29	6.656
284.66	5.714
285.03	7.463
285.40	5.124
285.77	4.475
286.14	7.276
286.51	7.822
286.87	5.854
287.24	4.054
287.61	5.471
287.98	7.164
288.35	4.889
288.72	5.311
289.08	7.958
289.45	6.707
289.82	7.500
290.19	6.149
290.56	7.278
290.93	6.763
291.29	5.939
291.66	5.650
292.03	6.732
292.40	6.911
292.77	5.989
293.13	7.989
293.50	6.208
293.87	4.743
294.24	7.133
294.60	7.402
294.97	6.573
295.34	6.109
295.71	6.833
296.08	7.200
296.44	7.116
296.81	6.700
297.18	4.689
297.55	6.527
297.91	5.665
298.28	7.609
298.65	6.380
299.02	6.031
299.38	7.794
299.75	7.073
300.12	7.569
300.48	7.143
300.85	6.436
301.22	6.279
301.59	6.840
301.95	6.184
302.32	6.403
302.69	7.805
303.05	7.856
303.42	5.605
303.79	8.234
304.15	6.381
304.52	7.188
304.89	7.463
305.25	6.897
305.62	7.996
305.99	7.283
306.35	6.737
306.72	8.325
307.09	7.764
307.45	6.230
307.82	7.305
308.19	7.216
308.55	8.100
308.92	8.832
309.29	8.777
309.65	8.622
310.02	6.998
310.38	7.976
310.75	8.775
311.12	7.567
311.48	9.749
311.85	8.588
312.22	9.647
312.58	8.552
312.95	8.835
313.31	8.052
313.68	9.944
314.05	9.615
314.41	9.125
314.78	8.807
315.14	10.332
315.51	11.637
315.87	9.398
316.24	9.897
316.61	9.758
316.97	10.459
317.34	11.411
317.70	12.028
318.07	11.299
318.43	11.775
318.80	12.172
319.16	11.801
319.53	10.619
319.89	10.125
320.26	12.942
320.62	13.370
320.99	12.488
321.35	12.616
321.72	14.042
322.08	14.774
322.45	14.078
322.81	12.717
323.18	14.654
323.54	15.418
323.91	14.778
324.27	15.650
324.64	13.581
325.00	15.690
325.37	16.273
325.73	16.273
326.10	16.984
326.46	17.011
326.83	16.240
327.19	17.349
327.56	16.773
327.92	17.295
328.29	18.903
328.65	18.236
329.01	17.536
329.38	18.443
329.74	17.079
330.11	19.114
330.47	18.841
330.84	16.911
331.20	17.597
331.56	19.171
331.93	18.905
332.29	17.772
332.66	18.452
333.02	17.869
333.38	19.110
333.75	18.682
334.11	19.463
334.48	18.718
334.84	18.412
335.20	18.905
335.57	18.304
335.93	18.335
336.29	17.579
336.66	19.211
337.02	18.221
337.38	19.175
337.75	18.581
338.11	18.819
338.47	18.036
338.84	18.205
339.20	18.528
339.56	18.419
339.93	17.726
340.29	17.647
340.65	19.028
341.02	19.389
341.38	19.048
341.74	17.193
342.11	17.446
342.47	17.309
342.83	18.868
343.20	19.563
343.56	17.315
343.92	18.332
344.28	17.943
344.65	18.093
345.01	17.778
345.37	17.628
345.73	18.095
346.10	17.291
346.46	18.900
346.82	16.744
347.19	18.083
347.55	16.784
347.91	17.674
348.27	17.661
348.63	17.722
349.00	16.908
349.36	17.743
349.72	18.960
350.08	18.168
350.45	18.279
350.81	18.502
351.17	16.410
351.53	16.782
351.89	17.094
352.26	17.687
352.62	17.195
352.98	17.715
353.34	17.643
353.70	17.125
354.07	17.231
354.43	17.358
354.79	16.249
355.15	18.300
355.51	17.976
355.87	18.298
356.24	18.014
356.60	17.047
356.96	16.679
357.32	17.860
357.68	17.474
358.04	18.009
358.40	16.717
358.77	17.280
359.13	17.793
359.49	17.198
359.85	17.870
360.21	16.939
360.57	17.591
360.93	18.326
361.29	17.677
361.66	19.016
362.02	15.909
362.38	17.677
362.74	17.268
363.10	17.532
363.46	16.713
363.82	17.742
364.18	17.496
364.54	17.096
364.90	17.604
365.26	16.794
365.62	17.334
365.98	16.242
366.35	16.621
366.71	17.141
367.07	16.451
367.43	17.260
367.79	17.354
368.15	16.079
368.51	17.298
368.87	15.285
369.23	17.325
369.59	17.330
369.95	16.993
370.31	16.085
370.67	17.627
371.03	16.387
371.39	17.521
371.75	16.957
372.11	16.587
372.47	17.123
372.83	16.519
373.19	16.518
373.55	16.701
373.91	15.262
374.27	16.799
374.63	16.814
374.99	16.240
375.35	16.734
375.71	16.689
376.07	17.241
376.42	16.176
376.78	16.763
377.14	16.317
377.50	16.417
377.86	15.695
378.22	15.661
378.58	17.252
378.94	16.113
379.30	16.070
379.66	16.195
380.02	16.012
380.38	15.749
380.74	17.013
381.09	16.647
381.45	16.474
381.81	16.017
382.17	16.178
382.53	15.597
382.89	14.725
383.25	16.400
383.61	16.138
383.97	16.017
384.32	16.034
384.68	17.766
385.04	16.002
385.40	16.014
385.76	15.740
386.12	15.584
386.48	15.805
386.83	16.137
387.19	15.901
387.55	15.135
387.91	15.935
388.27	16.181
388.62	16.138
388.98	15.219
389.34	15.883
389.70	15.448
390.06	15.976
390.42	15.484
390.77	16.339
391.13	15.450
391.49	15.850
391.85	16.062
392.20	16.091
392.56	16.607
392.92	15.385
393.28	15.303
393.64	14.736
393.99	15.175
394.35	15.656
394.71	14.475
395.07	15.511
395.42	14.578
395.78	15.423
396.14	15.663
396.50	16.306
396.85	15.183
397.21	14.561
397.57	15.302
397.92	14.905
398.28	14.562
398.64	14.892
399.00	15.232
399.35	14.761
399.71	14.570
400.07	14.212
400.42	14.925
400.78	14.487
401.14	14.093
401.49	14.804
401.85	14.368
402.21	14.353
402.57	14.123
402.92	14.000
403.28	13.842
403.63	13.714
403.99	13.450
404.35	14.537
404.70	14.235
405.06	13.812
405.42	13.704
405.77	14.333
406.13	13.612
406.49	13.985
406.84	14.382
407.20	14.555
407.55	14.400
407.91	14.614
408.27	14.494
408.62	14.015
408.98	13.779
409.34	13.676
409.69	13.815
410.05	13.178
410.40	14.075
410.76	13.910
411.11	13.981
411.47	14.012
411.83	13.767
412.18	13.164
412.54	13.754
412.89	12.861
413.25	13.512
413.60	13.785
413.96	13.106
414.31	13.577
414.67	14.277
415.03	13.793
415.38	14.448
415.74	13.961
416.09	13.492
416.45	14.480
416.80	14.753
417.16	14.258
417.51	14.268
417.87	13.642
418.22	13.609
418.58	13.694
418.93	13.623
419.29	12.508
419.64	13.992
420.00	14.021
420.35	13.008
420.71	14.002
421.06	13.537
421.42	13.817
421.77	14.159
422.12	13.120
422.48	13.303
422.83	13.560
423.19	13.391
423.54	13.385
423.90	14.383
424.25	13.814
424.61	14.335
424.96	13.608
425.31	13.629
425.67	13.636
426.02	13.797
426.38	13.652
426.73	13.823
427.09	13.879
427.44	12.943
427.79	13.208
428.15	14.732
428.50	13.771
428.85	14.051
429.21	13.776
429.56	13.908
429.92	14.073
430.27	13.982
430.62	13.265
430.98	13.922
431.33	13.609
431.68	13.778
432.04	13.606
432.39	14.050
432.74	14.169
433.10	14.064
433.45	13.957
433.80	14.286
434.16	13.505
434.51	14.654
434.86	13.718
435.22	13.830
435.57	15.531
435.92	14.343
436.28	14.171
436.63	14.803
436.98	14.640
437.34	14.155
437.69	13.718
438.04	13.763
438.39	14.945
438.75	14.087
439.10	14.733
439.45	13.963
439.81	15.095
440.16	14.529
440.51	13.964
440.86	14.587
441.22	13.258
441.57	14.856
441.92	13.870
442.27	14.278
442.63	14.431
442.98	14.925
443.33	14.569
443.68	14.034
444.03	14.373
444.39	13.842
444.74	14.441
445.09	14.007
445.44	13.815
445.79	13.402
446.15	13.368
446.50	13.977
446.85	14.243
447.20	13.582
447.55	13.757
447.91	14.917
448.26	14.004
448.61	14.096
448.96	14.542
449.31	14.741
449.66	14.396
450.02	13.992
450.37	14.048
450.72	14.601
451.07	14.543
451.42	14.286
451.77	14.834
452.12	14.691
452.47	14.824
452.83	14.873
453.18	14.234
453.53	14.565
453.88	14.857
454.23	14.410
454.58	14.161
454.93	14.040
455.28	14.627
455.63	14.184
455.98	14.495
456.34	14.954
456.69	14.268
457.04	14.857
457.39	13.886
457.74	14.977
458.09	14.262
458.44	14.129
458.79	14.430
459.14	13.748
459.49	14.779
459.84	14.402
460.19	14.011
460.54	14.758
460.89	14.019
461.24	13.459
461.59	14.342
461.94	14.066
462.29	14.359
462.64	14.447
462.99	14.715
463.34	15.813
463.69	15.971
464.04	14.393
464.39	15.112
464.74	13.775
465.09	14.800
465.44	13.656
465.79	14.154
466.14	13.461
466.49	13.782
466.84	14.660
467.19	14.880
467.54	13.514
467.89	14.613
468.24	13.897
468.59	13.750
468.94	14.614
469.29	14.539
469.64	14.405
469.99	14.910
470.34	14.231
470.68	13.586
471.03	14.343
471.38	14.371
471.73	14.762
472.08	14.351
472.43	14.339
472.78	14.853
473.13	13.705
473.48	13.753
473.83	14.488
474.17	13.495
474.52	14.751
474.87	13.758
475.22	13.649
475.57	13.746
475.92	13.439
476.27	13.439
476.61	12.922
476.96	13.062
477.31	14.087
477.66	13.795
478.01	13.615
478.36	13.182
478.70	13.251
479.05	13.808
479.40	13.046
479.75	14.201
480.10	13.746
480.45	13.585
480.79	13.456
481.14	12.553
481.49	13.358
481.84	13.281
482.19	12.751
482.53	14.054
482.88	12.948
483.23	13.351
483.58	12.926
483.92	14.168
484.27	13.356
484.62	13.328
484.97	12.739
485.31	12.592
485.66	11.808
486.01	11.719
486.36	11.636
486.70	11.392
487.05	12.000
487.40	12.274
487.75	12.111
488.09	12.301
488.44	12.078
488.79	12.287
489.13	12.318
489.48	12.984
489.83	12.969
490.17	12.552
490.52	12.489
490.87	12.414
491.22	13.564
491.56	12.868
491.91	12.186
492.26	13.229
492.60	12.893
492.95	12.778
493.30	12.830
493.64	13.118
493.99	13.193
494.34	12.147
494.68	12.705
495.03	13.336
495.37	13.327
495.72	12.774
496.07	12.758
496.41	12.294
496.76	12.832
497.11	12.682
497.45	12.977
497.80	12.929
498.14	12.714
498.49	12.906
498.84	12.710
499.18	12.249
499.53	12.770
499.87	12.354
500.22	12.575
500.56	12.256
500.91	13.358
501.26	12.954
501.60	12.022
501.95	12.545
502.29	12.800
502.64	12.351
502.98	12.450
503.33	12.561
503.67	13.289
504.02	12.405
504.36	12.534
504.71	12.252
505.06	12.670
505.40	12.213
505.75	12.722
506.09	13.159
506.44	12.218
506.78	12.760
507.13	12.506
507.47	12.276
507.82	12.847
508.16	13.425
508.51	12.899
508.85	12.488
509.19	12.041
509.54	12.305
509.88	13.476
510.23	12.353
510.57	12.597
510.92	12.138
511.26	12.299
511.61	12.949
511.95	13.141
512.30	12.500
512.64	12.773
512.98	12.455
513.33	13.320
513.67	12.947
514.02	12.208
514.36	12.357
514.70	11.627
515.05	12.733
515.39	12.939
515.74	12.247
516.08	11.928
516.42	13.497
516.77	12.960
517.11	12.107
517.46	12.338
517.80	12.507
518.14	12.789
518.49	12.404
518.83	11.648
519.17	12.535
519.52	12.616
519.86	12.970
520.20	13.151
520.55	11.984
520.89	13.046
521.23	12.442
521.58	12.794
521.92	12.420
522.26	12.737
522.61	12.775
522.95	12.252
523.29	12.924
523.64	11.908
523.98	12.793
524.32	13.033
524.66	12.464
525.01	12.604
525.35	12.493
525.69	12.884
526.04	12.612
526.38	12.125
526.72	12.828
527.06	12.537
527.41	12.817
527.75	13.025
528.09	12.824
528.43	13.240
528.78	12.522
529.12	13.004
529.46	11.806
529.80	12.383
530.15	12.905
530.49	12.395
530.83	12.371
531.17	12.054
531.51	12.017
531.86	12.379
532.20	12.114
532.54	12.367
532.88	13.117
533.22	12.553
533.57	12.264
533.91	12.238
534.25	12.060
534.59	11.462
534.93	11.832
535.27	11.611
535.62	12.019
535.96	11.407
536.30	12.005
536.64	11.677
536.98	11.265
537.32	13.250
537.66	11.352
538.01	11.703
538.35	11.978
538.69	11.529
539.03	11.318
539.37	11.286
539.71	12.222
540.05	12.738
540.39	12.453
540.73	11.899
541.07	11.230
541.42	11.692
541.76	11.406
542.10	11.467
542.44	12.095
542.78	11.831
543.12	11.595
543.46	11.466
543.80	12.594
544.14	12.260
544.48	11.375
544.82	12.049
545.16	11.597
545.50	11.985
545.84	12.121
546.18	12.029
546.52	12.787
546.86	11.863
547.20	11.047
547.54	12.286
547.88	12.226
548.22	11.475
548.56	12.257
548.90	11.922
549.24	12.382
549.58	11.791
549.92	12.901
550.26	11.359
550.60	11.910
550.94	12.415
551.28	13.034
551.62	13.034
551.96	11.622
552.30	11.404
552.64	12.298
552.98	10.825
553.32	11.972
553.66	11.401
554.00	12.291
554.34	12.184
554.68	11.828
555.02	12.152
555.36	11.835
555.69	11.976
556.03	12.102
556.37	11.791
556.71	11.538
557.05	11.337
557.39	11.933
557.73	11.995
558.07	11.871
558.41	11.309
558.75	12.380
559.08	11.937
559.42	11.668
559.76	12.901
560.10	11.562
560.44	12.011
560.78	12.596
561.12	11.507
561.45	11.202
561.79	11.735
562.13	11.434
562.47	10.578
562.81	11.776
563.15	11.700
563.48	11.180
563.82	11.229
564.16	11.443
564.50	11.212
564.84	11.003
565.17	10.992
565.51	11.330
565.85	10.857
566.19	11.190
566.52	10.710
566.86	11.442
567.20	11.124
567.54	10.972
567.88	11.581
568.21	10.484
568.55	10.749
568.89	10.493
569.23	10.181
569.56	10.343
569.90	9.989
570.24	10.085
570.57	9.701
570.91	9.516
571.25	9.371
571.59	9.814
571.92	9.526
572.26	9.326
572.60	8.970
572.93	9.517
573.27	9.506
573.61	9.312
573.95	8.765
574.28	9.258
574.62	8.966
574.96	8.770
575.29	8.920
575.63	8.975
575.97	8.885
576.30	8.833
576.64	9.098
576.98	8.730
577.31	9.183
577.65	8.975
577.98	8.582
578.32	8.485
578.66	9.001
578.99	8.936
579.33	9.427
579.67	8.839
580.00	8.645
580.34	8.784
580.67	8.725
581.01	8.887
581.35	8.547
581.68	8.409
582.02	8.570
582.35	8.767
582.69	8.602
583.02	8.723
583.36	8.796
583.70	9.292
584.03	9.247
584.37	8.884
584.70	8.833
585.04	8.827
585.37	8.589
585.71	9.011
586.04	8.818
586.38	8.954
586.72	9.344
587.05	9.290
587.39	9.153
587.72	9.075
588.06	8.592
588.39	9.186
588.73	8.662
589.06	9.396
589.40	9.202
589.73	9.112
590.07	8.717
590.40	9.547
590.73	9.254
591.07	9.943
591.40	9.381
591.74	9.943
592.07	9.734
592.41	9.353
592.74	8.971
593.08	9.017
593.41	8.618
593.75	8.902
594.08	9.209
594.41	9.026
594.75	8.801
595.08	9.088
595.42	9.315
595.75	9.345
596.09	9.002
596.42	9.104
596.75	9.295
597.09	9.657
597.42	9.388
597.75	9.047
598.09	9.397
598.42	9.710
598.76	9.445
599.09	9.342
599.42	9.066
599.76	9.464
600.09	8.712
600.42	8.909
600.76	8.532
601.09	8.975
601.42	8.659
601.76	8.808
602.09	9.308
602.42	9.427
602.76	8.843
603.09	9.804
603.42	9.505
603.76	8.243
604.09	8.903
604.42	9.266
604.76	9.601
605.09	9.306
605.42	9.630
605.75	9.199
606.09	9.143
606.42	9.545
606.75	8.784
607.09	9.238
607.42	8.598
607.75	8.639
608.08	9.139
608.42	9.438
608.75	8.729
609.08	8.359
609.41	9.636
609.75	9.799
610.08	9.308
610.41	8.915
610.74	8.874
611.07	9.686
611.41	9.222
611.74	8.843
612.07	9.778
612.40	9.600
612.73	9.436
613.07	9.427
613.40	9.574
613.73	9.735
614.06	9.100
614.39	9.697
614.72	9.091
615.06	9.050
615.39	9.901
615.72	9.100
616.05	10.095
616.38	9.741
616.71	9.495
617.05	10.049
617.38	9.157
617.71	9.674
618.04	9.871
618.37	9.783
618.70	9.700
619.03	9.524
619.36	11.055
619.69	9.235
620.03	11.024
620.36	10.019
620.69	10.983
621.02	9.851
621.35	9.885
621.68	10.914
622.01	10.775
622.34	10.124
622.67	11.236
623.00	10.688
623.33	9.582
623.66	9.315
623.99	9.384
624.32	9.688
624.65	10.533
624.99	9.669
625.32	10.421
625.65	9.172
625.98	10.739
626.31	10.312
626.64	10.402
626.97	10.941
627.30	10.248
627.63	10.832
627.96	10.955
628.29	10.561
628.62	11.121
628.95	10.816
629.28	11.744
629.61	11.248
629.94	10.977
630.26	10.225
630.59	11.791
630.92	9.596
631.25	11.242
631.58	11.668
631.91	10.752
632.24	11.273
632.57	10.020
632.90	12.112
633.23	12.382
633.56	11.064
633.89	11.040
634.22	11.410
634.55	10.968
634.88	12.705
635.20	12.556
635.53	12.311
635.86	13.087
636.19	11.560
636.52	10.162
636.85	10.356
637.18	12.893
637.51	11.508
637.83	10.526
638.16	11.489
638.49	11.138
638.82	10.329
639.15	12.573
639.48	13.033
639.81	10.256
640.13	11.166
640.46	11.504
640.79	12.484
641.12	11.155
641.45	12.937
641.77	12.946
642.10	11.111
642.43	12.802
642.76	11.790
643.09	11.527
643.41	12.482
643.74	12.662
644.07	12.832
644.40	12.426
644.73	14.565
645.05	14.562
645.38	13.323
645.71	12.140
646.04	12.366
646.36	11.894
646.69	11.840
647.02	12.960
647.35	12.913
647.67	12.804
648.00	13.029
648.33	13.083
648.66	10.909
648.98	10.000
649.31	10.526
649.64	10.788
649.96	11.095
650.29	11.857
650.62	11.929
650.94	14.458
651.27	14.195
651.60	12.520
651.92	12.750
652.25	12.913
652.58	12.766
652.90	13.473
653.23	14.032
653.56	12.463
653.88	11.747
654.21	13.490
654.54	13.763
654.86	12.094
655.19	12.665
655.52	10.562
655.84	6.598
656.17	7.290
656.49	10.243
656.82	12.043
657.15	9.757
657.47	7.329
657.80	5.432
658.13	4.445
658.45	6.025
658.78	7.205
659.10	7.536
659.43	7.542
659.75	7.756
660.08	8.647
660.41	10.436
660.73	12.045
661.06	13.964
661.38	14.821
661.71	13.849
662.03	13.878
662.36	12.571
662.68	11.173
663.01	14.775
663.33	12.642
663.66	14.201
663.98	13.492
664.31	13.433
664.63	14.368
664.96	14.071
665.28	11.676
665.61	13.208
665.93	14.717
666.26	13.832
666.58	15.046
666.91	12.548
667.23	15.863
667.56	14.784
667.88	13.693
668.21	13.934
668.53	13.710
668.86	14.629
669.18	14.053
669.50	11.777
669.83	16.427
670.15	14.761
670.48	12.500
670.80	13.347
671.13	13.147
671.45	13.828
671.77	14.471
672.10	12.747
672.42	12.007
672.75	14.082
673.07	10.493
673.39	12.300
673.72	13.841
674.04	12.186
674.37	13.067
674.69	12.454
675.01	13.993
675.34	12.209
675.66	15.430
675.98	11.834
676.31	13.400
676.63	11.730
676.95	15.675
677.28	13.590
677.60	14.688
677.92	13.492
678.25	12.984
678.57	12.663
678.89	13.382
679.22	12.868
679.54	13.523
679.86	11.693
680.18	12.127
680.51	9.950
680.83	12.500
681.15	13.172
681.48	13.889
681.80	12.434
682.12	14.014
682.44	10.270
682.77	11.032
683.09	14.563
683.41	14.082
683.73	15.551
684.06	12.698
684.38	15.116
684.70	12.050
685.02	10.417
685.34	11.972
685.67	13.183
685.99	12.808
686.31	11.864
686.63	11.707
686.96	12.582
687.28	10.570
687.60	10.239
687.92	12.898
688.24	13.276
688.56	12.633
688.89	12.046
689.21	11.946
689.53	15.810
689.85	13.821
690.17	13.204
690.49	14.113
690.82	13.655
691.14	14.343
691.46	12.526
691.78	12.865
692.10	13.550
692.42	13.793
692.74	14.729
693.06	13.178
693.39	13.439
693.71	11.198
694.03	14.596
694.35	14.458
694.67	13.442
694.99	14.412
695.31	15.315
695.63	12.670
695.95	13.575
696.27	14.823
696.59	13.604
696.91	11.392
697.23	12.670
697.56	13.278
697.88	10.978
698.20	15.660
698.52	12.646
698.84	12.320
699.16	14.499
699.48	16.949
699.80	17.647
700.12	12.933
700.44	15.421
700.76	15.274
701.08	14.883
701.40	13.506
701.72	16.043
702.04	18.428
702.36	16.667
702.68	17.819
703.00	14.035
703.32	12.655
703.64	13.350
703.96	14.583
704.28	12.169
704.60	16.620
704.91	16.246
705.23	17.330
705.55	17.507
705.87	16.508
706.19	20.063
706.51	19.436
706.83	18.879
707.15	18.449
707.47	15.254
707.79	16.092
708.11	12.472
708.43	13.034
708.74	12.443
709.06	14.419
709.38	16.129
709.70	13.079
710.02	13.859
710.34	15.470
710.66	16.944
710.98	16.393
711.29	16.713
711.61	15.877
711.93	16.109
712.25	14.759
712.57	13.826
712.89	16.061
713.20	20.128
713.52	17.134
713.84	16.918
714.16	14.493
714.48	11.816
714.80	14.905
715.11	12.766
715.43	15.922
715.75	14.085
716.07	16.763
716.39	17.429
716.70	14.330
717.02	17.172
717.34	16.906
717.66	22.222
717.97	20.455
718.29	20.775
718.61	14.527
718.93	17.647
719.24	15.772
719.56	15.172
719.88	14.331
720.20	17.419
720.51	14.706
720.83	19.732
721.15	18.367
721.46	14.041
721.78	19.512
722.10	18.056
722.42	19.732
722.73	15.884
723.05	21.754
723.37	17.314
723.68	18.359
724.00	19.318
724.32	17.490
724.63	16.154
724.95	18.431
725.27	20.818
725.58	15.441
725.90	18.310
726.22	14.384
726.53	21.405
726.85	17.915
727.16	17.114
727.48	17.608
727.80	18.345
728.11	18.214
728.43	15.580
728.74	16.783
729.06	13.978
729.38	18.947
729.69	16.667
730.01	17.105
730.32	19.128
730.64	17.276
730.96	19.820
731.27	15.902
731.59	15.805
731.90	16.435
732.22	13.714
732.53	13.960
732.85	18.421
733.16	16.566
733.48	13.166
733.80	21.159
734.11	17.791
734.43	15.205
734.74	14.477
735.06	14.815
735.37	14.691
735.69	13.333
736.00	17.431
736.32	14.242
736.63	7.571
736.95	15.528
737.26	18.598
737.58	16.871
737.89	15.964
738.21	12.583
738.52	16.388
738.83	20.879
739.15	20.557
739.46	15.172
739.78	16.667
740.09	16.327
740.41	16.871
740.72	15.238
741.04	21.678
741.35	18.750
741.66	18.577
741.98	23.605
742.29	14.815
742.61	22.566
742.92	18.220
743.23	19.200
743.55	16.604
743.86	17.255
744.18	16.102
744.49	19.421
744.80	22.581
745.12	21.875
745.43	21.963
745.74	16.444
746.06	17.544
746.37	23.256
746.68	23.894
747.00	19.731
747.31	22.269
747.62	19.262
747.94	15.021
748.25	15.953
748.56	24.153
748.88	16.071
749.19	17.674
749.50	16.438
749.82	21.811
750.13	19.763
750.44	18.333
750.75	22.483
751.07	16.447
751.38	13.861
751.69	16.498
752.01	13.636
752.32	16.611
752.63	20.805
752.94	15.734
753.26	19.922
753.57	16.732
753.88	17.603
754.19	19.495
754.51	17.608
754.82	16.443
755.13	17.905
755.44	17.037
755.75	17.182
756.07	12.329
756.38	14.379
756.69	14.688
757.00	18.101
757.31	13.803
757.63	13.223
757.94	12.766
758.25	14.251
758.56	12.357
758.87	14.286
759.18	16.279
759.50	19.453
759.81	14.837
760.12	15.169
760.43	15.406
760.74	13.671
761.05	13.528
761.36	15.365
761.67	14.825
761.99	16.901
762.30	16.720
762.61	13.889
762.92	18.939
763.23	20.755
763.54	19.231
763.85	16.342
764.16	18.750
764.47	17.568
764.78	14.658
765.10	13.415
765.41	15.341
765.72	17.403
766.03	11.782
766.34	17.422
766.65	18.251
766.96	21.053
767.27	16.822
767.58	23.267
767.89	23.757
768.20	23.171
768.51	18.878
768.82	23.684
769.13	18.824
769.44	18.421
769.75	18.727
770.06	20.168
770.37	17.982
770.68	16.889
770.99	19.068
771.30	18.828
771.61	19.615
771.92	18.702
772.23	17.742
772.54	24.444
772.85	27.723
773.16	25.000
773.47	21.667
773.78	22.277
774.09	23.864
774.39	21.818
774.70	26.471
775.01	20.395
775.32	25.466
775.63	22.603
775.94	33.333
776.25	24.828
776.56	28.244
776.87	29.771
777.18	31.061
777.48	33.071
777.79	27.692
778.10	28.030
778.41	35.075
778.72	27.820
779.03	21.154
779.34	16.892
779.65	30.435
779.95	27.329
780.26	20.833
780.57	32.653
780.88	31.206
781.19	34.167
781.50	30.178
781.80	32.240
782.11	23.810
782.42	20.690
782.73	24.294
783.04	15.484
783.34	22.481
783.65	28.571
783.96	24.516
784.27	24.503
784.57	20.395
784.88	29.710
785.19	28.333
785.50	27.586
785.81	37.209
786.11	27.407
786.42	29.134
786.73	34.234
787.04	24.528
787.34	27.642
787.65	34.091
787.96	27.273
788.26	35.433
788.57	33.577
788.88	26.056
789.19	29.771
789.49	28.378
789.80	29.687
790.11	28.926
790.41	40.741
790.72	30.556
791.03	30.769
791.33	41.414
791.64	36.842
791.95	42.105
792.25	39.583
792.56	34.000
792.87	42.683
793.17	45.455
793.48	44.706
793.79	50.575
794.09	43.182
794.40	42.241
794.70	23.810
795.01	23.077
795.32	27.481
795.62	32.479
795.93	32.773
796.23	40.650
796.54	42.857
796.85	37.500
797.15	53.247
797.46	42.683
797.76	35.000
798.07	44.000
798.37	48.750
798.68	52.500
798.99	43.902
799.29	46.667
799.60	38.372
799.90	32.895
800.21	53.030
800.51	56.338
800.82	63.793
801.12	58.462
801.43	61.333
801.73	48.276
802.04	38.961
802.34	58.904
802.65	54.902
802.95	71.739
803.26	58.065
803.56	68.333
803.87	47.761
804.17	57.143
804.48	77.358
804.78	58.333
805.09	62.121
805.39	52.381
805.70	63.158
806.00	44.286
806.30	48.438
806.61	47.059
806.91	43.333
807.22	41.304
807.52	43.421
807.83	51.316
808.13	47.826
808.43	66.129
808.74	45.205
809.04	48.214
809.35	61.765
809.65	57.576
809.95	41.176
810.26	75.926
810.56	75.000
810.86	79.592
811.17	40.351
811.47	60.870
811.77	50.000
812.08	58.621
812.38	57.143
812.69	90.476
812.99	57.778
813.29	94.286
813.59	80.645
813.90	58.621
814.20	68.852
814.50	50.000
814.81	52.632
815.11	66.667
815.41	62.500
815.72	58.929
816.02	70.000
816.32	80.488
816.62	81.034
816.93	78.788
817.23	80.488
817.53	64.286
817.84	55.556
818.14	78.571
818.44	70.833
818.74	83.019
819.04	74.359
819.35	109.091
819.65	76.923
819.95	87.037
820.25	74.468
820.56	94.595
820.86	92.105
821.16	59.574
821.46	76.316
821.76	58.182
822.07	78.571
822.37	42.105
822.67	102.326
822.97	84.211
823.27	104.348
823.57	118.750
823.88	84.615
824.18	87.879
824.48	117.391
824.78	88.889
825.08	134.783
825.38	103.448
825.69	85.294
825.99	61.702
826.29	63.889
826.59	91.429
826.89	73.333
827.19	80.000
827.49	119.355
827.79	126.923
828.09	88.095
828.39	66.667
828.70	70.270
829.00	92.857
829.30	175.000
829.60	80.556
829.90	112.903
830.20	87.879
830.50	108.108
830.80	162.500
831.10	111.538
831.40	161.905
831.70	166.667
832.00	106.667
832.30	108.696
832.60	166.667
832.90	109.091
833.20	125.000
833.50	94.737
833.80	105.882
834.10	89.474
834.40	110.526
834.70	86.667
835.00	152.000
835.30	94.595
835.60	134.375
835.90	100.000
836.20	134.615
836.50	95.455
836.80	80.488
837.10	108.696
837.40	261.538
837.70	147.368
838.00	130.000
838.30	179.167
838.60	96.000
838.90	290.000
839.19	218.750
839.49	103.333
839.79	124.138
840.09	146.154
840.39	180.000
840.69	178.947
840.99	95.238
841.29	130.435
841.59	165.000
841.88	124.000
842.18	288.889
842.48	132.143
842.78	144.444
843.08	161.538
843.38	177.273
843.68	271.429
843.97	271.429
844.27	121.739
844.57	1150.000
844.87	242.857
845.17	183.333
845.47	123.810
845.76	150.000
846.06	514.286
846.36	205.882
846.66	246.154
846.96	162.500
847.25	253.846
847.55	178.947
847.85	183.333
848.15	440.000
848.44	281.818
848.74	152.381
849.04	162.500
849.34	170.588
849.63	250.000
849.93	193.750
850.23	900.000
850.53	400.000
850.82	254.545
851.12	170.588
851.42	145.833
851.71	262.500
852.01	0.000
852.31	182.353
852.61	370.000
852.90	154.167
853.20	355.556
853.50	-1600.000
853.79	152.000
854.09	137.500
854.39	93.103
854.68	110.345
854.98	200.000
855.28	119.355
855.57	157.143
855.87	172.222
856.17	96.296
856.46	231.579
856.76	138.710
857.05	176.471
857.35	245.455
857.65	161.538
857.94	170.000
858.24	366.667
858.53	214.286
858.83	642.857
859.13	169.565
859.42	277.778
859.72	375.000
860.01	291.667
860.31	550.000
860.60	340.000
860.90	362.500
861.20	230.769
861.49	414.286
861.79	-2500.000
862.08	400.000
862.38	322.222
862.67	185.714
862.97	300.000
863.26	150.000
863.56	850.000
863.85	276.923
864.15	247.059
864.44	222.222
864.74	258.333
865.03	263.636
865.33	212.500
865.62	213.333
865.92	616.667
866.21	575.000
866.51	520.000
866.80	172.222
867.10	466.667
867.39	2000.000
867.69	500.000
867.98	700.000
868.27	152.381
868.57	206.667
868.86	550.000
869.16	138.095
869.45	2800.000
869.75	-350.000
870.04	500.000
870.33	760.000
870.63	337.500
870.92	217.647
871.22	850.000
871.51	414.286
871.80	216.667
872.10	323.077
>>>>>End Processed Spectral Data<<<<<
