SpectraSuite Data File
++++++++++++++++++++++++++++++++++++
Date: Tue May 12 16:02:55 PDT 2015
User: schluterlab
Dark Spectrum Present: Yes
Reference Spectrum Present: Yes
Number of Sampled Component Spectra: 1
Spectrometers: USB2E3373
Integration Time (usec): 3000 (USB2E3373)
Spectra Averaged: 3 (USB2E3373)
Boxcar Smoothing: 0 (USB2E3373)
Correct for Electrical Dark: No (USB2E3373)
Strobe/Lamp Enabled: No (USB2E3373)
Correct for Detector Non-linearity: No (USB2E3373)
Correct for Stray Light: No (USB2E3373)
Number of Pixels in Processed Spectrum: 2048
>>>>>Begin Processed Spectral Data<<<<<
178.53	0.000
178.91	-241.667
179.29	-550.000
179.67	-4700.000
180.04	-160.000
180.42	625.000
180.80	1350.000
181.18	0.000
181.56	-400.000
181.94	0.000
182.31	1266.667
182.69	-3300.000
183.07	557.143
183.45	-4200.000
183.83	-1600.000
184.20	370.000
184.58	500.000
184.96	-261.538
185.34	-233.333
185.72	1650.000
186.09	-825.000
186.47	-3700.000
186.85	1100.000
187.23	860.000
187.61	2150.000
187.98	425.000
188.36	214.286
188.74	341.667
189.12	366.667
189.49	900.000
189.87	0.000
190.25	500.000
190.63	3100.000
191.00	-183.333
191.38	-3400.000
191.76	-825.000
192.14	662.500
192.51	-3500.000
192.89	2050.000
193.27	1133.333
193.65	-1366.667
194.02	-720.000
194.40	614.286
194.78	-214.286
195.15	273.333
195.53	-3000.000
195.91	-480.000
196.29	3300.000
196.66	231.250
197.04	925.000
197.42	-1650.000
197.79	825.000
198.17	350.000
198.55	0.000
198.92	600.000
199.30	1300.000
199.68	2050.000
200.05	666.667
200.43	-566.667
200.81	233.333
201.18	3100.000
201.56	325.000
201.94	-750.000
202.31	-325.000
202.69	-320.000
203.07	2700.000
203.44	-533.333
203.82	400.000
204.19	720.000
204.57	-1100.000
204.95	-750.000
205.32	-600.000
205.70	533.333
206.08	1000.000
206.45	-966.667
206.83	355.556
207.20	168.421
207.58	225.000
207.96	760.000
208.33	0.000
208.71	414.286
209.08	620.000
209.46	-2500.000
209.84	-750.000
210.21	860.000
210.59	-620.000
210.96	300.000
211.34	-775.000
211.71	345.455
212.09	675.000
212.46	1950.000
212.84	-366.667
213.22	366.667
213.59	-3000.000
213.97	290.000
214.34	1050.000
214.72	1266.667
215.09	1200.000
215.47	-3500.000
215.84	-320.000
216.22	-475.000
216.59	0.000
216.97	0.000
217.34	1350.000
217.72	-1400.000
218.09	1100.000
218.47	450.000
218.84	975.000
219.22	1266.667
219.59	1033.333
219.97	485.714
220.34	366.667
220.72	1950.000
221.09	3800.000
221.47	291.667
221.84	900.000
222.22	340.000
222.59	216.667
222.97	221.429
223.34	250.000
223.72	-1750.000
224.09	1233.333
224.46	284.615
224.84	-800.000
225.21	388.889
225.59	293.333
225.96	1333.333
226.34	-540.000
226.71	-625.000
227.08	-380.000
227.46	0.000
227.83	-483.333
228.21	-1850.000
228.58	325.000
228.95	1025.000
229.33	188.889
229.70	975.000
230.08	307.692
230.45	3200.000
230.82	-850.000
231.20	-566.667
231.57	-766.667
231.95	480.000
232.32	250.000
232.69	550.000
233.07	291.667
233.44	-1350.000
233.81	160.000
234.19	151.852
234.56	187.500
234.93	200.000
235.31	180.000
235.68	231.250
236.05	157.143
236.43	125.926
236.80	250.000
237.17	144.828
237.55	84.375
237.92	120.000
238.29	115.152
238.67	106.250
239.04	75.610
239.41	52.083
239.79	62.500
240.16	70.833
240.53	49.180
240.91	47.826
241.28	57.627
241.65	54.545
242.02	60.563
242.40	45.714
242.77	41.758
243.14	21.519
243.51	47.475
243.89	32.710
244.26	35.514
244.63	33.663
245.00	34.862
245.38	16.949
245.75	28.788
246.12	36.296
246.49	25.532
246.87	25.410
247.24	26.000
247.61	23.750
247.98	21.769
248.36	12.727
248.73	26.020
249.10	19.643
249.47	18.500
249.84	18.905
250.22	21.622
250.59	16.000
250.96	15.612
251.33	18.605
251.70	17.857
252.08	16.807
252.45	13.944
252.82	11.787
253.19	13.043
253.56	14.231
253.94	16.667
254.31	14.341
254.68	17.422
255.05	14.138
255.42	14.964
255.79	16.287
256.16	12.542
256.54	15.909
256.91	15.686
257.28	12.040
257.65	10.031
258.02	12.094
258.39	15.473
258.76	14.493
259.14	8.000
259.51	13.703
259.88	11.854
260.25	9.890
260.62	10.685
260.99	6.336
261.36	11.699
261.73	11.170
262.10	10.995
262.47	9.750
262.85	6.933
263.22	8.997
263.59	10.997
263.96	10.777
264.33	8.395
264.70	7.862
265.07	12.195
265.44	9.174
265.81	10.849
266.18	9.840
266.55	6.383
266.92	7.159
267.29	9.430
267.66	7.623
268.03	6.726
268.40	10.359
268.77	9.912
269.14	7.592
269.51	7.795
269.88	10.612
270.25	5.832
270.62	7.725
270.99	9.533
271.36	10.976
271.73	7.966
272.10	6.869
272.47	8.333
272.84	8.184
273.21	6.612
273.58	8.300
273.95	8.624
274.32	7.588
274.69	9.843
275.06	10.200
275.43	7.663
275.80	7.736
276.17	9.375
276.54	9.720
276.91	9.142
277.28	8.212
277.65	7.749
278.02	6.618
278.39	7.554
278.76	7.586
279.13	8.185
279.50	7.273
279.87	5.400
280.23	6.077
280.60	7.847
280.97	6.897
281.34	6.601
281.71	7.652
282.08	8.034
282.45	6.757
282.82	6.522
283.19	7.790
283.56	6.777
283.92	8.469
284.29	7.488
284.66	6.050
285.03	7.297
285.40	6.281
285.77	4.475
286.14	7.430
286.51	7.362
286.87	5.696
287.24	5.706
287.61	7.447
287.98	7.612
288.35	7.111
288.72	6.222
289.08	5.556
289.45	7.774
289.82	7.813
290.19	7.174
290.56	7.860
290.93	6.906
291.29	6.215
291.66	4.237
292.03	6.031
292.40	7.995
292.77	5.292
293.13	6.277
293.50	5.398
293.87	5.691
294.24	5.874
294.60	7.672
294.97	7.133
295.34	5.578
295.71	6.965
296.08	6.267
296.44	6.226
296.81	6.203
297.18	5.450
297.55	6.034
297.91	4.187
298.28	5.435
298.65	5.399
299.02	5.187
299.38	6.355
299.75	5.488
300.12	6.307
300.48	6.674
300.85	5.364
301.22	4.186
301.59	4.599
301.95	5.484
302.32	4.889
302.69	6.109
303.05	6.173
303.42	4.709
303.79	5.850
304.15	5.391
304.52	4.968
304.89	6.183
305.25	6.007
305.62	5.864
305.99	4.239
306.35	4.737
306.72	5.827
307.09	5.590
307.45	3.907
307.82	4.630
308.19	5.361
308.55	4.600
308.92	5.299
309.29	5.621
309.65	5.055
310.02	4.057
310.38	3.888
310.75	4.918
311.12	4.693
311.48	5.888
311.85	4.580
312.22	6.208
312.58	5.151
312.95	5.631
313.31	4.775
313.68	4.784
314.05	6.227
314.41	4.004
314.78	5.966
315.14	5.877
315.51	6.812
315.87	5.018
316.24	5.976
316.61	5.909
316.97	5.321
317.34	6.289
317.70	6.146
318.07	6.139
318.43	5.712
318.80	7.093
319.16	7.168
319.53	5.575
319.89	6.183
320.26	7.263
320.62	8.150
320.99	6.959
321.35	7.050
321.72	8.539
322.08	7.756
322.45	7.266
322.81	7.136
323.18	8.348
323.54	9.321
323.91	9.429
324.27	9.637
324.64	8.218
325.00	10.517
325.37	9.191
325.73	9.696
326.10	10.108
326.46	8.836
326.83	8.800
327.19	11.647
327.56	9.585
327.92	10.164
328.29	10.802
328.65	11.301
329.01	10.351
329.38	11.083
329.74	9.394
330.11	10.513
330.47	10.486
330.84	10.526
331.20	11.252
331.56	11.054
331.93	10.693
332.29	10.034
332.66	11.224
333.02	10.309
333.38	10.646
333.75	10.926
334.11	10.235
334.48	10.342
334.84	10.051
335.20	10.693
335.57	11.251
335.93	10.345
336.29	10.862
336.66	10.549
337.02	9.239
337.38	9.716
337.75	10.220
338.11	11.224
338.47	10.669
338.84	10.246
339.20	9.697
339.56	10.345
339.93	10.117
340.29	9.412
340.65	10.981
341.02	11.263
341.38	11.002
341.74	10.299
342.11	9.015
342.47	9.680
342.83	11.157
343.20	9.782
343.56	8.896
343.92	9.827
344.28	9.729
344.65	10.269
345.01	9.762
345.37	9.535
345.73	8.413
346.10	9.801
346.46	10.287
346.82	9.105
347.19	10.278
347.55	9.524
347.91	9.290
348.27	8.288
348.63	9.573
349.00	10.053
349.36	9.883
349.72	10.627
350.08	9.938
350.45	10.434
350.81	10.092
351.17	8.475
351.53	8.237
351.89	9.169
352.26	9.524
352.62	10.483
352.98	8.972
353.34	9.245
353.70	8.028
354.07	9.923
354.43	8.602
354.79	9.188
355.15	8.423
355.51	8.157
355.87	9.187
356.24	9.084
356.60	8.447
356.96	7.961
357.32	9.344
357.68	9.398
358.04	8.663
358.40	9.295
358.77	9.542
359.13	8.033
359.49	9.340
359.85	8.637
360.21	7.207
360.57	9.343
360.93	9.452
361.29	8.730
361.66	10.067
362.02	8.310
362.38	9.524
362.74	8.776
363.10	9.046
363.46	8.633
363.82	8.976
364.18	9.317
364.54	7.868
364.90	8.969
365.26	8.883
365.62	8.356
365.98	8.603
366.35	8.276
366.71	8.744
367.07	8.601
367.43	8.328
367.79	8.910
368.15	8.412
368.51	8.890
368.87	7.405
369.23	8.524
369.59	8.833
369.95	8.741
370.31	8.487
370.67	9.091
371.03	9.034
371.39	8.726
371.75	8.304
372.11	9.381
372.47	9.041
372.83	8.770
373.19	9.801
373.55	8.935
373.91	8.356
374.27	9.061
374.63	9.288
374.99	10.108
375.35	8.401
375.71	9.960
376.07	9.085
376.42	8.120
376.78	9.441
377.14	8.650
377.50	8.552
377.86	8.008
378.22	9.385
378.58	9.988
378.94	9.053
379.30	8.733
379.66	9.573
380.02	9.677
380.38	8.607
380.74	9.516
381.09	9.112
381.45	9.364
381.81	8.629
382.17	8.608
382.53	9.298
382.89	8.516
383.25	8.763
383.61	9.337
383.97	9.238
384.32	8.680
384.68	10.279
385.04	8.968
385.40	9.609
385.76	9.538
386.12	10.513
386.48	9.058
386.83	9.597
387.19	8.952
387.55	9.305
387.91	10.219
388.27	9.637
388.62	9.272
388.98	9.388
389.34	9.637
389.70	9.493
390.06	9.695
390.42	9.624
390.77	9.828
391.13	9.777
391.49	9.498
391.85	9.908
392.20	10.191
392.56	9.677
392.92	8.928
393.28	9.473
393.64	9.002
393.99	9.603
394.35	8.711
394.71	9.409
395.07	9.063
395.42	9.075
395.78	9.624
396.14	9.880
396.50	9.687
396.85	9.268
397.21	9.567
397.57	10.281
397.92	9.070
398.28	8.880
398.64	9.948
399.00	8.926
399.35	8.857
399.71	8.996
400.07	9.189
400.42	8.478
400.78	8.387
401.14	9.160
401.49	8.929
401.85	9.096
402.21	8.612
402.57	9.396
402.92	9.455
403.28	9.069
403.63	9.182
403.99	8.203
404.35	9.906
404.70	9.037
405.06	9.152
405.42	8.498
405.77	8.820
406.13	8.568
406.49	7.789
406.84	9.024
407.20	8.790
407.55	9.662
407.91	9.126
408.27	9.582
408.62	9.876
408.98	8.752
409.34	8.591
409.69	9.334
410.05	8.348
410.40	8.834
410.76	8.014
411.11	9.242
411.47	9.198
411.83	8.143
412.18	8.514
412.54	9.129
412.89	8.496
413.25	8.381
413.60	8.411
413.96	8.259
414.31	8.855
414.67	9.001
415.03	8.429
415.38	9.968
415.74	8.781
416.09	8.807
416.45	9.502
416.80	9.493
417.16	8.848
417.51	8.217
417.87	8.511
418.22	8.323
418.58	9.045
418.93	8.745
419.29	8.195
419.64	8.964
420.00	8.234
420.35	8.769
420.71	8.401
421.06	8.476
421.42	8.808
421.77	8.551
422.12	8.159
422.48	8.680
422.83	8.371
423.19	8.585
423.54	8.502
423.90	8.720
424.25	8.586
424.61	8.183
424.96	7.849
425.31	8.046
425.67	7.856
426.02	7.628
426.38	7.935
426.73	8.329
427.09	8.600
427.44	7.541
427.79	7.833
428.15	8.427
428.50	8.857
428.85	8.701
429.21	8.536
429.56	8.076
429.92	8.304
430.27	8.273
430.62	7.538
430.98	8.683
431.33	8.065
431.68	7.704
432.04	7.605
432.39	8.397
432.74	8.607
433.10	8.306
433.45	8.386
433.80	8.660
434.16	8.408
434.51	8.462
434.86	8.547
435.22	7.888
435.57	7.765
435.92	8.651
436.28	8.813
436.63	8.968
436.98	8.784
437.34	9.018
437.69	7.783
438.04	8.387
438.39	8.990
438.75	8.964
439.10	7.933
439.45	8.366
439.81	8.386
440.16	8.420
440.51	8.390
440.86	8.718
441.22	8.874
441.57	8.451
441.92	8.786
442.27	7.526
442.63	7.774
442.98	7.920
443.33	8.141
443.68	8.149
444.03	8.200
444.39	8.522
444.74	8.023
445.09	8.320
445.44	8.661
445.79	8.821
446.15	7.895
446.50	7.700
446.85	8.317
447.20	6.965
447.55	7.993
447.91	8.578
448.26	8.253
448.61	8.568
448.96	8.115
449.31	7.316
449.66	8.693
450.02	7.672
450.37	8.329
450.72	8.871
451.07	9.366
451.42	8.892
451.77	8.362
452.12	8.962
452.47	9.295
452.83	8.845
453.18	9.069
453.53	8.822
453.88	8.857
454.23	8.309
454.58	8.508
454.93	8.584
455.28	8.935
455.63	8.156
455.98	8.629
456.34	8.815
456.69	8.659
457.04	8.294
457.39	8.686
457.74	8.559
458.09	8.198
458.44	8.653
458.79	8.488
459.14	8.620
459.49	9.060
459.84	8.424
460.19	8.249
460.54	9.117
460.89	8.422
461.24	8.534
461.59	9.184
461.94	9.220
462.29	8.867
462.64	9.359
462.99	9.341
463.34	9.268
463.69	9.800
464.04	9.039
464.39	8.357
464.74	7.737
465.09	8.648
465.44	8.977
465.79	8.601
466.14	8.320
466.49	8.790
466.84	9.197
467.19	8.905
467.54	8.228
467.89	8.744
468.24	7.875
468.59	8.393
468.94	8.454
469.29	8.552
469.64	9.196
469.99	9.319
470.34	8.349
470.68	8.897
471.03	8.339
471.38	9.007
471.73	8.556
472.08	8.871
472.43	9.435
472.78	8.899
473.13	8.511
473.48	8.863
473.83	8.657
474.17	8.632
474.52	9.005
474.87	8.016
475.22	8.966
475.57	8.447
475.92	7.818
476.27	8.107
476.61	7.775
476.96	8.777
477.31	9.100
477.66	8.964
478.01	8.510
478.36	8.342
478.70	8.139
479.05	7.113
479.40	8.185
479.75	8.193
480.10	8.809
480.45	7.796
480.79	8.295
481.14	8.036
481.49	8.051
481.84	8.091
482.19	8.122
482.53	8.081
482.88	8.244
483.23	7.307
483.58	7.630
483.92	8.364
484.27	7.748
484.62	8.065
484.97	8.103
485.31	7.255
485.66	7.354
486.01	7.143
486.36	6.649
486.70	6.757
487.05	7.066
487.40	7.645
487.75	7.339
488.09	7.330
488.44	7.616
488.79	7.324
489.13	7.764
489.48	7.551
489.83	7.548
490.17	7.845
490.52	7.494
490.87	8.319
491.22	8.599
491.56	7.993
491.91	7.348
492.26	7.483
492.60	8.109
492.95	8.246
493.30	8.007
493.64	7.996
493.99	8.274
494.34	7.934
494.68	7.570
495.03	7.768
495.37	8.285
495.72	8.345
496.07	7.996
496.41	7.646
496.76	8.062
497.11	8.912
497.45	8.110
497.80	7.924
498.14	8.830
498.49	8.032
498.84	8.458
499.18	7.907
499.53	8.268
499.87	8.086
500.22	7.600
500.56	7.149
500.91	8.673
501.26	8.544
501.60	8.242
501.95	8.109
502.29	8.400
502.64	8.381
502.98	7.159
503.33	8.062
503.67	8.079
504.02	7.210
504.36	8.643
504.71	8.278
505.06	8.869
505.40	8.002
505.75	7.530
506.09	8.493
506.44	8.553
506.78	8.176
507.13	7.707
507.47	8.394
507.82	8.516
508.16	8.525
508.51	8.937
508.85	8.784
509.19	8.468
509.54	8.643
509.88	9.100
510.23	7.843
510.57	8.301
510.92	8.392
511.26	8.183
511.61	8.370
511.95	8.761
512.30	8.250
512.64	8.100
512.98	7.945
513.33	8.863
513.67	8.959
514.02	8.416
514.36	8.255
514.70	8.693
515.05	8.205
515.39	8.607
515.74	9.295
516.08	8.660
516.42	9.235
516.77	8.640
517.11	8.213
517.46	9.644
517.80	8.247
518.14	9.014
518.49	8.545
518.83	8.297
519.17	8.652
519.52	9.175
519.86	8.719
520.20	9.534
520.55	8.875
520.89	8.506
521.23	8.528
521.58	8.262
521.92	8.805
522.26	8.472
522.61	9.269
522.95	8.769
523.29	8.772
523.64	8.266
523.98	9.624
524.32	8.593
524.66	9.333
525.01	8.876
525.35	9.016
525.69	9.452
526.04	9.459
526.38	8.652
526.72	8.831
527.06	8.811
527.41	9.613
527.75	9.251
528.09	8.007
528.43	9.213
528.78	9.004
529.12	9.091
529.46	8.533
529.80	8.820
530.15	8.662
530.49	8.002
530.83	9.385
531.17	9.102
531.51	9.749
531.86	9.179
532.20	8.714
532.54	8.537
532.88	9.057
533.22	9.628
533.57	8.664
533.91	8.217
534.25	8.713
534.59	8.480
534.93	8.760
535.27	8.139
535.62	8.285
535.96	8.570
536.30	9.811
536.64	8.447
536.98	8.685
537.32	9.438
537.66	9.056
538.01	9.164
538.35	9.108
538.69	8.738
539.03	7.649
539.37	7.767
539.71	9.321
540.05	8.369
540.39	9.371
540.73	8.544
541.07	8.344
541.42	8.582
541.76	8.693
542.10	8.508
542.44	8.791
542.78	8.118
543.12	8.589
543.46	9.023
543.80	8.897
544.14	8.359
544.48	9.246
544.82	8.257
545.16	8.440
545.50	8.789
545.84	8.586
546.18	9.558
546.52	8.328
546.86	8.897
547.20	8.527
547.54	9.563
547.88	8.942
548.22	8.622
548.56	8.957
548.90	8.541
549.24	9.033
549.58	8.376
549.92	9.430
550.26	8.587
550.60	9.182
550.94	8.752
551.28	9.517
551.62	8.828
551.96	8.851
552.30	8.174
552.64	8.350
552.98	8.312
553.32	7.810
553.66	8.404
554.00	8.559
554.34	9.720
554.68	9.207
555.02	8.486
555.36	8.444
555.69	8.704
556.03	8.790
556.37	8.923
556.71	9.648
557.05	7.929
557.39	9.200
557.73	9.569
558.07	9.188
558.41	8.705
558.75	8.550
559.08	9.435
559.42	9.377
559.76	9.266
560.10	8.328
560.44	9.688
560.78	9.079
561.12	8.837
561.45	8.073
561.79	7.865
562.13	8.275
562.47	7.657
562.81	8.003
563.15	8.145
563.48	8.261
563.82	8.796
564.16	9.266
564.50	8.077
564.84	7.903
565.17	9.031
565.51	8.251
565.85	8.205
566.19	7.738
566.52	8.002
566.86	8.406
567.20	9.045
567.54	7.697
567.88	7.981
568.21	7.738
568.55	7.928
568.89	8.166
569.23	7.204
569.56	7.748
569.90	7.546
570.24	7.257
570.57	7.495
570.91	7.114
571.25	6.821
571.59	6.740
571.92	6.970
572.26	6.199
572.60	6.693
572.93	6.584
573.27	6.921
573.61	6.984
573.95	6.648
574.28	6.738
574.62	6.404
574.96	6.804
575.29	6.226
575.63	6.478
575.97	6.378
576.30	6.328
576.64	6.641
576.98	6.385
577.31	6.316
577.65	6.768
577.98	6.138
578.32	6.326
578.66	6.435
578.99	6.524
579.33	6.540
579.67	6.231
580.00	6.191
580.34	6.616
580.67	6.219
581.01	6.649
581.35	6.500
581.68	5.877
582.02	6.285
582.35	6.174
582.69	6.286
583.02	6.413
583.36	6.370
583.70	6.986
584.03	6.761
584.37	6.335
584.70	6.146
585.04	6.662
585.37	5.996
585.71	6.652
586.04	6.398
586.38	6.464
586.72	6.718
587.05	6.742
587.39	6.675
587.72	6.611
588.06	6.233
588.39	6.858
588.73	6.238
589.06	6.420
589.40	6.854
589.73	6.457
590.07	6.760
590.40	7.247
590.73	7.271
591.07	7.476
591.40	7.265
591.74	6.818
592.07	6.905
592.41	7.434
592.74	6.811
593.08	6.641
593.41	6.553
593.75	6.471
594.08	7.053
594.41	6.647
594.75	6.747
595.08	6.687
595.42	6.814
595.75	6.746
596.09	6.604
596.42	6.409
596.75	7.212
597.09	7.181
597.42	6.653
597.75	6.369
598.09	7.017
598.42	7.058
598.76	6.978
599.09	7.098
599.42	6.194
599.76	6.852
600.09	6.068
600.42	6.872
600.76	6.594
601.09	6.973
601.42	6.934
601.76	6.301
602.09	6.659
602.42	6.580
602.76	6.414
603.09	6.373
603.42	7.229
603.76	6.218
604.09	6.623
604.42	6.441
604.76	6.796
605.09	7.020
605.42	7.070
605.75	7.106
606.09	6.465
606.42	6.689
606.75	6.685
607.09	6.711
607.42	6.669
607.75	6.847
608.08	6.986
608.42	6.879
608.75	6.290
609.08	6.951
609.41	6.682
609.75	7.463
610.08	6.790
610.41	6.456
610.74	6.580
611.07	7.458
611.41	6.812
611.74	6.597
612.07	6.696
612.40	6.969
612.73	6.940
613.07	6.994
613.40	7.018
613.73	6.340
614.06	6.950
614.39	7.222
614.72	7.082
615.06	6.330
615.39	6.980
615.72	6.486
616.05	7.433
616.38	6.393
616.71	6.728
617.05	6.700
617.38	6.517
617.71	7.030
618.04	6.842
618.37	7.337
618.70	6.928
619.03	6.960
619.36	7.663
619.69	7.124
620.03	8.545
620.36	7.900
620.69	8.110
621.02	7.745
621.35	7.593
621.68	8.038
622.01	7.970
622.34	7.065
622.67	7.935
623.00	7.420
623.33	8.097
623.66	6.786
623.99	7.671
624.32	7.385
624.65	7.571
624.99	6.964
625.32	7.548
625.65	7.103
625.98	7.252
626.31	7.270
626.64	6.986
626.97	7.651
627.30	7.997
627.63	8.320
627.96	7.199
628.29	7.343
628.62	7.015
628.95	7.535
629.28	8.677
629.61	7.645
629.94	7.692
630.26	8.319
630.59	8.422
630.92	7.803
631.25	8.885
631.58	8.872
631.91	8.944
632.24	7.580
632.57	7.466
632.90	8.903
633.23	8.919
633.56	9.273
633.89	8.467
634.22	7.966
634.55	8.280
634.88	8.981
635.20	8.184
635.53	7.666
635.86	9.508
636.19	9.203
636.52	8.000
636.85	8.198
637.18	8.234
637.51	7.598
637.83	9.497
638.16	8.558
638.49	8.503
638.82	8.685
639.15	7.873
639.48	10.664
639.81	7.814
640.13	8.712
640.46	8.344
640.79	9.103
641.12	8.530
641.45	10.996
641.77	8.058
642.10	8.568
642.43	10.384
642.76	6.534
643.09	9.078
643.41	9.677
643.74	10.504
644.07	10.472
644.40	8.580
644.73	10.060
645.05	10.847
645.38	8.729
645.71	9.408
646.04	10.076
646.36	11.737
646.69	9.440
647.02	11.680
647.35	10.236
647.67	8.914
648.00	9.283
648.33	10.226
648.66	8.788
648.98	7.391
649.31	9.177
649.64	7.331
649.96	9.531
650.29	8.143
650.62	10.309
650.94	11.295
651.27	12.121
651.60	10.016
651.92	9.524
652.25	9.764
652.58	11.064
652.90	7.635
653.23	8.419
653.56	8.754
653.88	9.398
654.21	9.971
654.54	8.492
654.86	9.145
655.19	10.554
655.52	7.155
655.84	4.474
656.17	4.506
656.49	6.653
656.82	7.587
657.15	6.261
657.47	4.649
657.80	3.412
658.13	2.816
658.45	3.914
658.78	4.949
659.10	5.187
659.43	5.428
659.75	5.653
660.08	5.952
660.41	7.713
660.73	8.407
661.06	10.060
661.38	10.903
661.71	10.612
662.03	9.886
662.36	11.429
662.68	10.615
663.01	12.613
663.33	10.189
663.66	11.834
663.98	8.730
664.31	10.261
664.63	13.793
664.96	12.946
665.28	10.546
665.61	9.811
665.93	10.755
666.26	10.093
666.58	12.110
666.91	9.653
667.23	10.442
667.56	10.678
667.88	11.826
668.21	11.270
668.53	10.081
668.86	11.623
669.18	10.591
669.50	11.157
669.83	13.347
670.15	11.850
670.48	10.352
670.80	11.155
671.13	11.753
671.45	11.824
671.77	13.544
672.10	11.849
672.42	9.375
672.75	10.918
673.07	9.857
673.39	9.265
673.72	10.727
674.04	12.186
674.37	10.889
674.69	10.409
675.01	10.821
675.34	9.690
675.66	10.742
675.98	10.454
676.31	9.000
676.63	8.549
676.95	11.706
677.28	10.953
677.60	12.475
677.92	11.508
678.25	9.690
678.57	11.918
678.89	12.477
679.22	12.868
679.54	9.609
679.86	10.646
680.18	8.963
680.51	9.784
680.83	8.953
681.15	9.532
681.48	11.458
681.80	8.231
682.12	13.149
682.44	8.649
682.77	13.523
683.09	10.097
683.41	9.592
683.73	11.614
684.06	11.111
684.38	10.659
684.70	8.813
685.02	9.201
685.34	11.620
685.67	12.540
685.99	10.181
686.31	8.937
686.63	9.268
686.96	12.255
687.28	8.893
687.60	8.703
687.92	10.553
688.24	11.552
688.56	10.320
688.89	8.987
689.21	11.368
689.53	11.660
689.85	9.553
690.17	12.233
690.49	11.895
690.82	9.034
691.14	11.919
691.46	10.678
691.78	11.501
692.10	11.069
692.42	9.074
692.74	10.271
693.06	9.690
693.39	11.067
693.71	11.788
694.03	11.243
694.35	15.060
694.67	12.016
694.99	11.308
695.31	12.838
695.63	11.765
695.95	11.312
696.27	11.947
696.59	12.888
696.91	14.177
697.23	10.633
697.56	9.959
697.88	7.984
698.20	11.698
698.52	9.533
698.84	10.472
699.16	11.940
699.48	12.076
699.80	16.340
700.12	13.164
700.44	13.551
700.76	11.456
701.08	13.055
701.40	13.506
701.72	14.973
702.04	15.718
702.36	11.290
702.68	14.096
703.00	10.025
703.32	12.655
703.64	12.343
703.96	11.198
704.28	14.550
704.60	12.676
704.91	11.765
705.23	13.352
705.55	16.320
705.87	12.381
706.19	20.063
706.51	17.241
706.83	12.094
707.15	13.636
707.47	14.286
707.79	13.793
708.11	9.751
708.43	12.360
708.74	9.955
709.06	14.651
709.38	14.144
709.70	9.264
710.02	11.957
710.34	14.088
710.66	11.667
710.98	15.847
711.29	13.928
711.61	14.206
711.93	12.462
712.25	16.867
712.57	16.077
712.89	18.182
713.20	12.780
713.52	14.642
713.84	14.502
714.16	12.754
714.48	10.086
714.80	12.195
715.11	10.106
715.43	13.408
715.75	14.366
716.07	13.873
716.39	15.429
716.70	13.707
717.02	17.845
717.34	17.626
717.66	18.403
717.97	17.803
718.29	14.789
718.61	14.189
718.93	15.225
719.24	17.785
719.56	16.552
719.88	12.102
720.20	16.452
720.51	13.725
720.83	14.716
721.15	16.327
721.46	16.781
721.78	14.286
722.10	14.583
722.42	19.064
722.73	14.440
723.05	22.456
723.37	14.134
723.68	15.625
724.00	17.045
724.32	15.970
724.63	16.154
724.95	16.471
725.27	16.729
725.58	11.765
725.90	11.268
726.22	15.753
726.53	14.381
726.85	20.195
727.16	16.443
727.48	14.286
727.80	19.424
728.11	19.286
728.43	15.217
728.74	18.881
729.06	12.545
729.38	15.088
729.69	19.333
730.01	13.816
730.32	13.758
730.64	13.621
730.96	16.817
731.27	10.398
731.59	11.494
731.90	11.421
732.22	14.000
732.53	12.251
732.85	13.158
733.16	11.747
733.48	15.047
733.80	15.652
734.11	16.871
734.43	14.327
734.74	12.869
735.06	15.608
735.37	15.464
735.69	11.304
736.00	14.373
736.32	12.727
736.63	8.517
736.95	13.665
737.26	13.720
737.58	14.110
737.89	17.771
738.21	14.901
738.52	16.054
738.83	18.681
739.15	16.028
739.46	12.759
739.78	14.626
740.09	15.452
740.41	11.043
740.72	16.825
741.04	17.483
741.35	17.578
741.66	15.415
741.98	20.601
742.29	17.593
742.61	14.602
742.92	12.288
743.23	17.600
743.55	17.358
743.86	15.294
744.18	15.678
744.49	20.248
744.80	17.512
745.12	16.071
745.43	16.822
745.74	17.333
746.06	18.860
746.37	17.209
746.68	21.239
747.00	16.592
747.31	22.689
747.62	13.115
747.94	12.876
748.25	17.121
748.56	19.915
748.88	18.750
749.19	8.372
749.50	14.612
749.82	20.576
750.13	15.415
750.44	14.333
750.75	15.436
751.07	13.158
751.38	14.521
751.69	15.152
752.01	14.685
752.32	12.292
752.63	20.805
752.94	13.986
753.26	16.797
753.57	19.066
753.88	15.730
754.19	14.801
754.51	18.272
754.82	14.094
755.13	16.216
755.44	15.556
755.75	18.557
756.07	14.041
756.38	13.725
756.69	14.688
757.00	15.134
757.31	14.930
757.63	14.325
757.94	10.904
758.25	14.010
758.56	12.815
758.87	13.283
759.18	14.826
759.50	14.286
759.81	15.430
760.12	16.292
760.43	12.045
760.74	12.911
761.05	15.915
761.36	10.156
761.67	13.477
761.99	16.056
762.30	15.113
762.61	12.500
762.92	15.909
763.23	20.000
763.54	15.000
763.85	17.510
764.16	17.014
764.47	12.500
764.78	14.007
765.10	13.110
765.41	11.932
765.72	11.602
766.03	12.689
766.34	14.634
766.65	14.829
766.96	20.243
767.27	21.028
767.58	23.267
767.89	30.939
768.20	25.000
768.51	15.306
768.82	18.421
769.13	17.255
769.44	16.541
769.75	16.105
770.06	15.966
770.37	13.158
770.68	17.778
770.99	18.644
771.30	16.736
771.61	18.462
771.92	15.649
772.23	17.742
772.54	22.222
772.85	20.297
773.16	18.478
773.47	25.000
773.78	23.762
774.09	25.568
774.39	22.424
774.70	19.412
775.01	21.053
775.32	24.224
775.63	27.397
775.94	33.333
776.25	31.724
776.56	24.427
776.87	27.481
777.18	25.000
777.48	40.157
777.79	24.615
778.10	37.121
778.41	36.567
778.72	23.308
779.03	25.641
779.34	26.351
779.65	23.602
779.95	25.466
780.26	27.381
780.57	32.653
780.88	27.660
781.19	35.000
781.50	24.852
781.80	25.137
782.11	26.455
782.42	18.966
782.73	25.989
783.04	27.097
783.34	17.054
783.65	27.891
783.96	23.871
784.27	23.179
784.57	18.421
784.88	25.362
785.19	26.667
785.50	37.069
785.81	34.884
786.11	25.926
786.42	30.709
786.73	34.234
787.04	27.358
787.34	22.764
787.65	30.303
787.96	31.061
788.26	26.772
788.57	30.657
788.88	34.507
789.19	29.771
789.49	33.784
789.80	29.687
790.11	29.752
790.41	36.111
790.72	34.259
791.03	44.231
791.33	33.333
791.64	45.263
791.95	34.737
792.25	30.208
792.56	47.000
792.87	36.585
793.17	51.136
793.48	34.118
793.79	32.184
794.09	45.455
794.40	42.241
794.70	33.333
795.01	31.538
795.32	22.137
795.62	22.222
795.93	35.294
796.23	32.520
796.54	38.776
796.85	42.045
797.15	49.351
797.46	56.098
797.76	43.750
798.07	57.333
798.37	36.250
798.68	60.000
798.99	51.220
799.29	45.333
799.60	40.698
799.90	44.737
800.21	51.515
800.51	52.113
800.82	51.724
801.12	64.615
801.43	57.333
801.73	65.517
802.04	53.247
802.34	52.055
802.65	70.588
802.95	73.913
803.26	58.065
803.56	63.333
803.87	55.224
804.17	66.667
804.48	66.038
804.78	55.556
805.09	68.182
805.39	60.317
805.70	66.667
806.00	62.857
806.30	51.562
806.61	44.706
806.91	40.000
807.22	32.609
807.52	46.053
807.83	60.526
808.13	47.826
808.43	53.226
808.74	60.274
809.04	73.214
809.35	57.353
809.65	75.758
809.95	70.588
810.26	79.630
810.56	75.000
810.86	63.265
811.17	66.667
811.47	86.957
811.77	55.172
812.08	62.069
812.38	80.952
812.69	73.810
812.99	64.444
813.29	82.857
813.59	93.548
813.90	53.448
814.20	62.295
814.50	60.000
814.81	43.860
815.11	61.111
815.41	76.786
815.72	76.786
816.02	68.000
816.32	95.122
816.62	70.690
816.93	109.091
817.23	92.683
817.53	75.000
817.84	62.222
818.14	71.429
818.44	62.500
818.74	88.679
819.04	94.872
819.35	106.061
819.65	101.923
819.95	88.889
820.25	85.106
820.56	97.297
820.86	92.105
821.16	72.340
821.46	105.263
821.76	80.000
822.07	45.238
822.37	84.211
822.67	106.977
822.97	86.842
823.27	84.783
823.57	109.375
823.88	97.436
824.18	87.879
824.48	78.261
824.78	63.889
825.08	134.783
825.38	120.690
825.69	105.882
825.99	72.340
826.29	97.222
826.59	91.429
826.89	86.667
827.19	102.857
827.49	148.387
827.79	146.154
828.09	76.190
828.39	86.111
828.70	64.865
829.00	135.714
829.30	187.500
829.60	113.889
829.90	135.484
830.20	96.970
830.50	110.811
830.80	166.667
831.10	150.000
831.40	133.333
831.70	150.000
832.00	120.000
832.30	152.174
832.60	162.500
832.90	145.455
833.20	165.000
833.50	144.737
833.80	108.824
834.10	78.947
834.40	126.316
834.70	93.333
835.00	164.000
835.30	121.622
835.60	121.875
835.90	108.108
836.20	107.692
836.50	104.545
836.80	107.317
837.10	126.087
837.40	346.154
837.70	131.579
838.00	146.667
838.30	150.000
838.60	164.000
838.90	250.000
839.19	268.750
839.49	160.000
839.79	131.034
840.09	169.231
840.39	146.667
840.69	236.842
840.99	109.524
841.29	160.870
841.59	195.000
841.88	176.000
842.18	244.444
842.48	139.286
842.78	155.556
843.08	207.692
843.38	181.818
843.68	221.429
843.97	371.429
844.27	195.652
844.57	1750.000
844.87	271.429
845.17	194.444
845.47	138.095
845.76	191.667
846.06	314.286
846.36	217.647
846.66	284.615
846.96	206.250
847.25	238.462
847.55	163.158
847.85	177.778
848.15	520.000
848.44	363.636
848.74	176.190
849.04	141.667
849.34	194.118
849.63	243.750
849.93	231.250
850.23	966.667
850.53	387.500
850.82	290.909
851.12	229.412
851.42	179.167
851.71	250.000
852.01	0.000
852.31	211.765
852.61	340.000
852.90	154.167
853.20	355.556
853.50	-2300.000
853.79	164.000
854.09	140.625
854.39	120.690
854.68	131.034
854.98	176.190
855.28	103.226
855.57	250.000
855.87	172.222
856.17	114.815
856.46	184.211
856.76	100.000
857.05	211.765
857.35	290.909
857.65	223.077
857.94	130.000
858.24	433.333
858.53	264.286
858.83	471.429
859.13	200.000
859.42	300.000
859.72	312.500
860.01	241.667
860.31	650.000
860.60	300.000
860.90	437.500
861.20	207.692
861.49	300.000
861.79	-3300.000
862.08	500.000
862.38	288.889
862.67	200.000
862.97	420.000
863.26	153.333
863.56	975.000
863.85	330.769
864.15	223.529
864.44	183.333
864.74	250.000
865.03	236.364
865.33	350.000
865.62	166.667
865.92	533.333
866.21	875.000
866.51	480.000
866.80	250.000
867.10	866.667
867.39	3600.000
867.69	560.000
867.98	625.000
868.27	161.905
868.57	306.667
868.86	975.000
869.16	180.952
869.45	3000.000
869.75	-416.667
870.04	675.000
870.33	560.000
870.63	450.000
870.92	182.353
871.22	800.000
871.51	557.143
871.80	333.333
872.10	269.231
>>>>>End Processed Spectral Data<<<<<
