SpectraSuite Data File
++++++++++++++++++++++++++++++++++++
Date: Tue May 12 16:40:27 PDT 2015
User: schluterlab
Dark Spectrum Present: Yes
Reference Spectrum Present: Yes
Number of Sampled Component Spectra: 1
Spectrometers: USB2E3373
Integration Time (usec): 3000 (USB2E3373)
Spectra Averaged: 3 (USB2E3373)
Boxcar Smoothing: 0 (USB2E3373)
Correct for Electrical Dark: No (USB2E3373)
Strobe/Lamp Enabled: No (USB2E3373)
Correct for Detector Non-linearity: No (USB2E3373)
Correct for Stray Light: No (USB2E3373)
Number of Pixels in Processed Spectrum: 2048
>>>>>Begin Processed Spectral Data<<<<<
178.53	0.000
178.91	-191.667
179.29	-450.000
179.67	-3200.000
180.04	-160.000
180.42	525.000
180.80	1600.000
181.18	0.000
181.56	-312.500
181.94	0.000
182.31	966.667
182.69	-3700.000
183.07	628.571
183.45	-3800.000
183.83	-2000.000
184.20	310.000
184.58	500.000
184.96	-238.462
185.34	-191.667
185.72	1600.000
186.09	-975.000
186.47	-2300.000
186.85	766.667
187.23	640.000
187.61	1550.000
187.98	412.500
188.36	300.000
188.74	300.000
189.12	275.000
189.49	800.000
189.87	0.000
190.25	512.500
190.63	2900.000
191.00	-200.000
191.38	-2800.000
191.76	-575.000
192.14	475.000
192.51	-2900.000
192.89	1850.000
193.27	866.667
193.65	-1166.667
194.02	-580.000
194.40	485.714
194.78	-214.286
195.15	266.667
195.53	-2400.000
195.91	-520.000
196.29	3200.000
196.66	268.750
197.04	825.000
197.42	-1450.000
197.79	400.000
198.17	341.667
198.55	0.000
198.92	357.143
199.30	1000.000
199.68	1700.000
200.05	716.667
200.43	-366.667
200.81	188.889
201.18	2600.000
201.56	225.000
201.94	-600.000
202.31	-375.000
202.69	-520.000
203.07	3400.000
203.44	-366.667
203.82	308.333
204.19	540.000
204.57	-1200.000
204.95	-800.000
205.32	-880.000
205.70	433.333
206.08	675.000
206.45	-900.000
206.83	333.333
207.20	189.474
207.58	291.667
207.96	740.000
208.33	0.000
208.71	600.000
209.08	480.000
209.46	-2000.000
209.84	-875.000
210.21	980.000
210.59	-700.000
210.96	350.000
211.34	-825.000
211.71	327.273
212.09	800.000
212.46	1550.000
212.84	-333.333
213.22	388.889
213.59	-2900.000
213.97	320.000
214.34	875.000
214.72	1033.333
215.09	800.000
215.47	-4000.000
215.84	-370.000
216.22	-337.500
216.59	0.000
216.97	0.000
217.34	1300.000
217.72	-1900.000
218.09	1700.000
218.47	412.500
218.84	650.000
219.22	1266.667
219.59	700.000
219.97	628.571
220.34	344.444
220.72	1800.000
221.09	2000.000
221.47	225.000
221.84	966.667
222.22	370.000
222.59	238.889
222.97	264.286
223.34	243.750
223.72	-1900.000
224.09	1533.333
224.46	230.769
224.84	-825.000
225.21	433.333
225.59	193.333
225.96	1533.333
226.34	-660.000
226.71	-650.000
227.08	-680.000
227.46	0.000
227.83	-533.333
228.21	-1450.000
228.58	408.333
228.95	875.000
229.33	244.444
229.70	975.000
230.08	407.692
230.45	3500.000
230.82	-850.000
231.20	-700.000
231.57	-1066.667
231.95	440.000
232.32	316.667
232.69	633.333
233.07	200.000
233.44	-1400.000
233.81	320.000
234.19	177.778
234.56	243.750
234.93	211.765
235.31	225.000
235.68	206.250
236.05	160.714
236.43	151.852
236.80	221.429
237.17	155.172
237.55	131.250
237.92	120.000
238.29	118.182
238.67	134.375
239.04	131.707
239.41	89.583
239.79	100.000
240.16	110.417
240.53	77.049
240.91	88.406
241.28	93.220
241.65	86.364
242.02	83.099
242.40	80.000
242.77	72.527
243.14	81.013
243.51	83.838
243.89	70.093
244.26	65.421
244.63	72.277
245.00	69.725
245.38	60.169
245.75	57.576
246.12	66.667
246.49	63.830
246.87	66.393
247.24	68.000
247.61	56.875
247.98	62.585
248.36	56.364
248.73	62.245
249.10	58.333
249.47	51.000
249.84	58.209
250.22	60.000
250.59	56.000
250.96	55.696
251.33	53.488
251.70	54.911
252.08	51.681
252.45	47.809
252.82	48.669
253.19	46.640
253.56	51.923
253.94	50.000
254.31	52.713
254.68	50.523
255.05	48.621
255.42	55.474
255.79	45.928
256.16	49.153
256.54	50.325
256.91	50.327
257.28	51.171
257.65	46.708
258.02	46.018
258.39	47.851
258.76	48.696
259.14	44.286
259.51	50.729
259.88	48.632
260.25	43.681
260.62	48.219
260.99	45.730
261.36	49.025
261.73	49.734
262.10	46.859
262.47	44.750
262.85	45.067
263.22	47.301
263.59	46.803
263.96	47.118
264.33	43.210
264.70	45.946
265.07	45.366
265.44	44.954
265.81	47.170
266.18	46.911
266.55	44.917
266.92	46.085
267.29	44.518
267.66	47.534
268.03	43.274
268.40	43.129
268.77	43.612
269.14	46.421
269.51	43.875
269.88	46.327
270.25	44.276
270.62	42.918
270.99	45.842
271.36	43.902
271.73	46.331
272.10	45.051
272.47	41.468
272.84	44.112
273.21	43.182
273.58	44.332
273.95	44.969
274.32	44.163
274.69	45.669
275.06	42.987
275.43	43.295
275.80	42.642
276.17	43.934
276.54	43.551
276.91	47.201
277.28	42.336
277.65	45.387
278.02	43.015
278.39	44.065
278.76	43.448
279.13	43.594
279.50	44.545
279.87	44.320
280.23	42.541
280.60	41.971
280.97	43.276
281.34	42.574
281.71	42.783
282.08	41.368
282.45	42.905
282.82	43.144
283.19	41.335
283.56	40.661
283.92	42.345
284.29	43.428
284.66	41.345
285.03	42.786
285.40	40.331
285.77	39.506
286.14	42.724
286.51	41.104
286.87	38.449
287.24	38.438
287.61	39.970
287.98	39.552
288.35	39.556
288.72	39.454
289.08	39.189
289.45	38.262
289.82	38.125
290.19	37.628
290.56	39.592
290.93	39.856
291.29	37.569
291.66	37.429
292.03	38.569
292.40	36.314
292.77	37.744
293.13	36.947
293.50	35.897
293.87	35.230
294.24	36.364
294.60	37.685
294.97	36.084
295.34	35.325
295.71	36.268
296.08	34.800
296.44	36.213
296.81	34.119
297.18	34.601
297.55	34.852
297.91	32.143
298.28	34.179
298.65	33.497
299.02	31.966
299.38	33.573
299.75	32.805
300.12	32.454
300.48	33.607
300.85	34.207
301.22	33.372
301.59	33.137
301.95	31.622
302.32	35.390
302.69	34.163
303.05	34.456
303.42	32.063
303.79	33.044
304.15	32.123
304.52	30.550
304.89	31.663
305.25	31.702
305.62	33.475
305.99	30.978
306.35	32.211
306.72	31.113
307.09	31.573
307.45	31.785
307.82	32.202
308.19	33.505
308.55	31.800
308.92	32.287
309.29	32.249
309.65	32.507
310.02	32.657
310.38	31.406
310.75	32.015
311.12	31.992
311.48	32.432
311.85	32.252
312.22	32.474
312.58	32.362
312.95	31.748
313.31	33.708
313.68	31.144
314.05	33.608
314.41	33.054
314.78	34.375
315.14	33.460
315.51	33.396
315.87	33.212
316.24	33.333
316.61	32.408
316.97	33.945
317.34	35.220
317.70	35.382
318.07	34.431
318.43	35.237
318.80	35.026
319.16	34.703
319.53	35.398
319.89	34.409
320.26	36.127
320.62	34.982
320.99	35.081
321.35	36.364
321.72	35.674
322.08	36.196
322.45	35.967
322.81	36.505
323.18	37.478
323.54	38.240
323.91	37.987
324.27	37.224
324.64	36.938
325.00	37.759
325.37	36.003
325.73	36.931
326.10	37.200
326.46	36.416
326.83	36.400
327.19	37.831
327.56	38.898
327.92	39.016
328.29	37.971
328.65	39.469
329.01	38.152
329.38	38.663
329.74	37.660
330.11	39.010
330.47	38.619
330.84	37.964
331.20	37.310
331.56	38.428
331.93	42.002
332.29	36.139
332.66	37.755
333.02	38.144
333.38	38.569
333.75	37.865
334.11	37.584
334.48	37.521
334.84	37.162
335.20	38.666
335.57	38.455
335.93	36.922
336.29	37.231
336.66	38.250
337.02	37.553
337.38	38.005
337.75	37.838
338.11	38.143
338.47	38.019
338.84	37.257
339.20	36.190
339.56	36.922
339.93	36.789
340.29	36.471
340.65	37.469
341.02	37.329
341.38	37.356
341.74	37.292
342.11	36.811
342.47	37.572
342.83	37.736
343.20	35.893
343.56	35.743
343.92	36.994
344.28	36.364
344.65	36.675
345.01	36.349
345.37	36.458
345.73	36.032
346.10	35.777
346.46	36.284
346.82	35.571
347.19	35.781
347.55	36.222
347.91	35.952
348.27	35.476
348.63	36.076
349.00	36.405
349.36	36.965
349.72	37.003
350.08	36.335
350.45	36.405
350.81	35.780
351.17	34.129
351.53	34.950
351.89	35.587
352.26	35.072
352.62	35.370
352.98	35.736
353.34	37.211
353.70	35.398
354.07	36.308
354.43	35.253
354.79	35.080
355.15	35.605
355.51	35.121
355.87	35.843
356.24	36.028
356.60	36.377
356.96	35.254
357.32	34.288
357.68	35.609
358.04	35.182
358.40	36.507
358.77	34.786
359.13	35.435
359.49	35.211
359.85	35.220
360.21	34.918
360.57	34.745
360.93	35.570
361.29	35.354
361.66	35.347
362.02	34.304
362.38	35.786
362.74	34.183
363.10	35.484
363.46	34.254
363.82	34.853
364.18	35.633
364.54	36.052
364.90	35.274
365.26	36.225
365.62	34.254
365.98	33.586
366.35	35.034
366.71	34.351
367.07	34.949
367.43	35.326
367.79	34.109
368.15	33.582
368.51	34.183
368.87	35.054
369.23	34.304
369.59	34.255
369.95	36.014
370.31	33.744
370.67	34.629
371.03	33.473
371.39	34.903
371.75	34.264
372.11	34.738
372.47	35.000
372.83	34.466
373.19	35.915
373.55	34.639
373.91	33.909
374.27	33.069
374.63	33.627
374.99	34.232
375.35	35.013
375.71	34.367
376.07	33.687
376.42	33.887
376.78	35.260
377.14	34.338
377.50	35.268
377.86	33.696
378.22	33.760
378.58	34.806
378.94	34.218
379.30	34.081
379.66	34.557
380.02	34.018
380.38	32.904
380.74	34.544
381.09	33.586
381.45	33.526
381.81	33.452
382.17	33.639
382.53	33.413
382.89	33.767
383.25	33.866
383.61	34.006
383.97	34.133
384.32	34.539
384.68	34.343
385.04	33.822
385.40	34.935
385.76	33.177
386.12	34.137
386.48	34.468
386.83	33.619
387.19	32.744
387.55	33.628
387.91	33.083
388.27	33.730
388.62	33.920
388.98	32.362
389.34	33.076
389.70	32.665
390.06	34.329
390.42	33.683
390.77	32.862
391.13	33.796
391.49	33.636
391.85	33.600
392.20	33.611
392.56	33.513
392.92	32.734
393.28	33.520
393.64	32.454
393.99	33.491
394.35	32.666
394.71	32.811
395.07	33.090
395.42	33.489
395.78	34.300
396.14	33.434
396.50	33.093
396.85	32.622
397.21	33.213
397.57	32.576
397.92	32.525
398.28	32.653
398.64	33.915
399.00	32.710
399.35	31.991
399.71	32.506
400.07	33.162
400.42	32.239
400.78	33.138
401.14	32.413
401.49	31.797
401.85	33.256
402.21	33.099
402.57	32.555
402.92	33.455
403.28	32.100
403.63	33.196
403.99	32.328
404.35	32.884
404.70	33.314
405.06	31.780
405.42	32.496
405.77	32.084
406.13	31.236
406.49	31.836
406.84	30.626
407.20	32.420
407.55	31.938
407.91	32.100
408.27	32.565
408.62	31.520
408.98	30.869
409.34	31.210
409.69	32.794
410.05	32.260
410.40	31.390
410.76	31.082
411.11	32.701
411.47	32.037
411.83	31.342
412.18	31.884
412.54	32.312
412.89	31.386
413.25	32.098
413.60	31.776
413.96	32.136
414.31	32.290
414.67	32.713
415.03	32.375
415.38	33.186
415.74	32.660
416.09	32.230
416.45	32.773
416.80	33.483
417.16	31.700
417.51	32.484
417.87	31.852
418.22	30.316
418.58	32.866
418.93	32.719
419.29	31.731
419.64	32.162
420.00	32.578
420.35	31.359
420.71	31.214
421.06	31.901
421.42	31.721
421.77	32.426
422.12	32.525
422.48	31.433
422.83	32.478
423.19	31.587
423.54	31.761
423.90	31.993
424.25	32.141
424.61	32.095
424.96	32.863
425.31	32.020
425.67	33.782
426.02	32.305
426.38	30.805
426.73	33.025
427.09	31.791
427.44	31.570
427.79	32.533
428.15	32.764
428.50	32.800
428.85	32.687
429.21	32.145
429.56	31.954
429.92	31.576
430.27	31.592
430.62	31.522
430.98	32.735
431.33	31.804
431.68	31.753
432.04	32.230
432.39	33.315
432.74	33.021
433.10	31.561
433.45	32.970
433.80	32.267
434.16	32.055
434.51	31.682
434.86	32.771
435.22	32.469
435.57	32.839
435.92	33.295
436.28	33.065
436.63	33.279
436.98	33.221
437.34	33.333
437.69	32.419
438.04	33.333
438.39	33.275
438.75	32.851
439.10	32.542
439.45	31.995
439.81	33.950
440.16	34.122
440.51	32.151
440.86	33.561
441.22	32.738
441.57	34.016
441.92	33.564
442.27	32.320
442.63	33.028
442.98	32.974
443.33	32.780
443.68	32.093
444.03	33.365
444.39	33.522
444.74	33.644
445.09	33.070
445.44	32.572
445.79	33.236
446.15	33.316
446.50	32.911
446.85	32.869
447.20	33.134
447.55	33.768
447.91	33.564
448.26	34.026
448.61	34.052
448.96	34.150
449.31	34.543
449.66	34.441
450.02	33.657
450.37	33.926
450.72	34.160
451.07	34.148
451.42	33.847
451.77	34.250
452.12	34.770
452.47	34.083
452.83	34.873
453.18	34.955
453.53	34.044
453.88	33.886
454.23	34.515
454.58	34.033
454.93	33.476
455.28	33.048
455.63	33.747
455.98	34.405
456.34	35.015
456.69	34.329
457.04	34.069
457.39	33.429
457.74	34.234
458.09	33.857
458.44	34.337
458.79	34.164
459.14	33.333
459.49	33.069
459.84	35.707
460.19	35.085
460.54	34.644
460.89	34.542
461.24	32.932
461.59	34.410
461.94	33.392
462.29	33.524
462.64	34.548
462.99	34.677
463.34	34.802
463.69	33.757
464.04	34.427
464.39	33.314
464.74	33.880
465.09	33.546
465.44	33.950
465.79	33.696
466.14	33.015
466.49	33.641
466.84	33.501
467.19	33.392
467.54	33.634
467.89	33.803
468.24	34.163
468.59	33.333
468.94	33.937
469.29	33.598
469.64	34.148
469.99	33.483
470.34	34.219
470.68	33.172
471.03	33.889
471.38	33.510
471.73	33.965
472.08	35.029
472.43	34.637
472.78	34.891
473.13	32.040
473.48	33.680
473.83	33.804
474.17	34.164
474.52	33.353
474.87	32.973
475.22	34.723
475.57	33.526
475.92	33.878
476.27	32.644
476.61	33.029
476.96	33.177
477.31	34.036
477.66	33.816
478.01	33.987
478.36	33.471
478.70	33.002
479.05	32.636
479.40	33.234
479.75	32.771
480.10	33.301
480.45	33.613
480.79	33.410
481.14	33.143
481.49	33.120
481.84	32.762
482.19	32.183
482.53	32.938
482.88	33.289
483.23	32.837
483.58	33.393
483.92	34.278
484.27	33.305
484.62	33.998
484.97	31.671
485.31	31.985
485.66	32.288
486.01	32.385
486.36	32.500
486.70	32.451
487.05	32.325
487.40	32.479
487.75	32.339
488.09	32.358
488.44	32.632
488.79	32.211
489.13	32.773
489.48	32.761
489.83	32.402
490.17	32.040
490.52	32.601
490.87	33.060
491.22	31.871
491.56	33.158
491.91	32.975
492.26	31.893
492.60	33.576
492.95	32.170
493.30	32.575
493.64	32.659
493.99	32.513
494.34	33.079
494.68	32.271
495.03	32.510
495.37	32.373
495.72	33.147
496.07	32.300
496.41	32.537
496.76	32.377
497.11	32.434
497.45	32.661
497.80	32.715
498.14	32.825
498.49	31.708
498.84	33.458
499.18	31.901
499.53	33.027
499.87	33.019
500.22	33.164
500.56	33.287
500.91	32.699
501.26	32.338
501.60	31.876
501.95	32.437
502.29	32.222
502.64	31.892
502.98	31.792
503.33	31.849
503.67	31.788
504.02	31.572
504.36	32.534
504.71	32.781
505.06	32.098
505.40	32.195
505.75	32.086
506.09	32.338
506.44	31.767
506.78	32.987
507.13	32.816
507.47	32.557
507.82	32.019
508.16	33.121
508.51	31.546
508.85	32.336
509.19	31.865
509.54	31.592
509.88	33.018
510.23	31.961
510.57	30.743
510.92	31.868
511.26	31.576
511.61	31.561
511.95	31.956
512.30	31.250
512.64	31.101
512.98	31.266
513.33	30.891
513.67	31.849
514.02	31.273
514.36	31.464
514.70	31.627
515.05	31.113
515.39	31.743
515.74	32.750
516.08	32.462
516.42	32.240
516.77	31.413
517.11	31.893
517.46	31.519
517.80	30.857
518.14	32.338
518.49	31.808
518.83	31.099
519.17	31.559
519.52	31.185
519.86	31.499
520.20	31.726
520.55	31.713
520.89	31.667
521.23	31.776
521.58	31.153
521.92	31.662
522.26	31.694
522.61	32.145
522.95	32.673
523.29	32.222
523.64	31.329
523.98	31.162
524.32	30.565
524.66	31.014
525.01	31.183
525.35	31.880
525.69	31.969
526.04	31.767
526.38	31.607
526.72	31.623
527.06	31.165
527.41	33.132
527.75	32.441
528.09	30.825
528.43	32.215
528.78	31.664
529.12	31.186
529.46	30.976
529.80	31.250
530.15	30.819
530.49	30.325
530.83	31.505
531.17	31.058
531.51	31.147
531.86	30.676
532.20	29.975
532.54	30.069
532.88	31.793
533.22	31.261
533.57	31.483
533.91	30.886
534.25	29.890
534.59	30.936
534.93	30.489
535.27	29.368
535.62	30.980
535.96	29.965
536.30	31.749
536.64	31.242
536.98	31.152
537.32	31.437
537.66	30.804
538.01	31.084
538.35	31.067
538.69	31.007
539.03	31.157
539.37	30.340
539.71	30.617
540.05	31.077
540.39	31.069
540.73	30.949
541.07	30.678
541.42	29.975
541.76	30.888
542.10	29.716
542.44	29.800
542.78	30.082
543.12	30.491
543.46	30.388
543.80	30.263
544.14	30.836
544.48	30.292
544.82	30.948
545.16	29.265
545.50	29.809
545.84	30.429
546.18	31.469
546.52	30.689
546.86	30.948
547.20	29.457
547.54	30.526
547.88	29.684
548.22	29.812
548.56	29.346
548.90	30.130
549.24	31.080
549.58	30.799
549.92	29.928
550.26	31.237
550.60	29.874
550.94	30.665
551.28	30.207
551.62	30.276
551.96	29.257
552.30	28.411
552.64	30.291
552.98	28.866
553.32	29.257
553.66	29.772
554.00	30.566
554.34	31.358
554.68	30.712
555.02	30.346
555.36	29.787
555.69	29.974
556.03	29.745
556.37	29.509
556.71	30.183
557.05	29.292
557.39	29.733
557.73	30.054
558.07	30.315
558.41	29.678
558.75	29.891
559.08	30.665
559.42	29.205
559.76	30.506
560.10	29.938
560.44	29.263
560.78	29.923
561.12	30.070
561.45	29.537
561.79	29.713
562.13	29.248
562.47	29.591
562.81	29.603
563.15	29.412
563.48	27.702
563.82	29.881
564.16	30.037
564.50	29.958
564.84	30.091
565.17	29.234
565.51	29.865
565.85	29.735
566.19	29.048
566.52	29.242
566.86	29.189
567.20	29.831
567.54	30.131
567.88	30.882
568.21	28.757
568.55	29.912
568.89	28.786
569.23	29.163
569.56	29.553
569.90	28.997
570.24	28.859
570.57	28.650
570.91	28.206
571.25	28.381
571.59	28.342
571.92	28.041
572.26	27.978
572.60	28.270
572.93	28.723
573.27	28.518
573.61	28.452
573.95	28.337
574.28	28.696
574.62	28.714
574.96	28.187
575.29	28.028
575.63	27.656
575.97	28.067
576.30	27.664
576.64	28.217
576.98	28.094
577.31	29.003
577.65	28.238
577.98	27.785
578.32	28.177
578.66	27.955
578.99	28.362
579.33	28.327
579.67	27.718
580.00	28.090
580.34	28.051
580.67	27.964
581.01	28.725
581.35	28.165
581.68	28.264
582.02	27.909
582.35	28.158
582.69	28.644
583.02	28.326
583.36	28.306
583.70	27.853
584.03	28.958
584.37	28.496
584.70	27.967
585.04	28.075
585.37	27.773
585.71	28.472
586.04	28.103
586.38	27.508
586.72	27.671
587.05	28.410
587.39	28.369
587.72	28.275
588.06	28.532
588.39	28.327
588.73	27.949
589.06	28.480
589.40	29.171
589.73	28.155
590.07	29.032
590.40	28.537
590.73	29.526
591.07	28.918
591.40	28.184
591.74	28.977
592.07	28.203
592.41	28.457
592.74	28.231
593.08	27.962
593.41	28.007
593.75	27.760
594.08	27.903
594.41	28.055
594.75	27.740
595.08	28.224
595.42	28.670
595.75	28.167
596.09	28.537
596.42	27.822
596.75	28.806
597.09	28.601
597.42	27.592
597.75	27.262
598.09	27.165
598.42	27.866
598.76	28.643
599.09	27.988
599.42	27.474
599.76	27.917
600.09	28.169
600.42	27.521
600.76	26.785
601.09	27.718
601.42	27.948
601.76	27.999
602.09	28.182
602.42	27.135
602.76	27.970
603.09	28.394
603.42	28.183
603.76	27.513
604.09	27.253
604.42	26.629
604.76	27.776
605.09	28.367
605.42	27.509
605.75	27.240
606.09	27.812
606.42	27.734
606.75	27.400
607.09	27.398
607.42	27.561
607.75	27.309
608.08	26.929
608.42	27.559
608.75	27.086
609.08	27.629
609.41	27.773
609.75	27.289
610.08	28.192
610.41	27.580
610.74	27.273
611.07	27.876
611.41	27.804
611.74	28.011
612.07	27.938
612.40	27.583
612.73	27.858
613.07	28.282
613.40	28.271
613.73	27.259
614.06	27.300
614.39	28.333
614.72	27.172
615.06	26.756
615.39	27.426
615.72	26.476
616.05	27.524
616.38	27.448
616.71	27.075
617.05	27.787
617.38	27.191
617.71	27.840
618.04	27.762
618.37	27.460
618.70	26.848
619.03	27.595
619.36	27.513
619.69	26.847
620.03	28.637
620.36	27.296
620.69	28.161
621.02	26.970
621.35	27.292
621.68	27.139
622.01	27.970
622.34	26.730
622.67	27.317
623.00	27.025
623.33	27.598
623.66	26.680
623.99	28.219
624.32	27.304
624.65	26.662
624.99	28.465
625.32	27.255
625.65	26.621
625.98	26.848
626.31	28.042
626.64	27.259
626.97	26.626
627.30	27.252
627.63	28.728
627.96	26.839
628.29	28.630
628.62	26.091
628.95	27.837
629.28	28.571
629.61	27.856
629.94	27.744
630.26	27.730
630.59	27.571
630.92	27.982
631.25	27.471
631.58	28.158
631.91	28.449
632.24	27.502
632.57	26.130
632.90	27.329
633.23	28.017
633.56	28.135
633.89	27.438
634.22	27.449
634.55	26.989
634.88	28.478
635.20	27.803
635.53	28.223
635.86	28.971
636.19	28.171
636.52	25.730
636.85	25.998
637.18	27.411
637.51	26.369
637.83	27.231
638.16	28.019
638.49	27.066
638.82	27.582
639.15	28.320
639.48	28.318
639.81	28.694
640.13	28.589
640.46	29.204
640.79	27.568
641.12	27.822
641.45	27.943
641.77	28.534
642.10	27.979
642.43	28.592
642.76	27.983
643.09	28.098
643.41	26.367
643.74	27.770
644.07	29.794
644.40	27.219
644.73	29.129
645.05	27.637
645.38	28.331
645.71	26.555
646.04	28.702
646.36	26.761
646.69	27.520
647.02	27.360
647.35	26.457
647.67	27.877
648.00	26.710
648.33	27.820
648.66	28.788
648.98	26.812
649.31	27.126
649.64	27.801
649.96	28.165
650.29	26.571
650.62	29.897
650.94	29.367
651.27	31.260
651.60	26.917
651.92	27.650
652.25	30.079
652.58	26.525
652.90	26.796
653.23	27.474
653.56	27.893
653.88	27.460
654.21	27.713
654.54	25.476
654.86	28.466
655.19	28.364
655.52	26.235
655.84	24.057
656.17	28.643
656.49	40.759
656.82	46.389
657.15	36.201
657.47	27.358
657.80	20.277
658.13	16.057
658.45	21.582
658.78	26.485
659.10	26.964
659.43	27.706
659.75	27.476
660.08	27.882
660.41	28.584
660.73	29.235
661.06	28.078
661.38	29.131
661.71	27.518
662.03	27.186
662.36	26.476
662.68	27.002
663.01	29.009
663.33	25.094
663.66	25.838
663.98	26.984
664.31	27.239
664.63	27.969
664.96	30.019
665.28	27.307
665.61	27.925
665.93	29.245
666.26	27.103
666.58	30.826
666.91	29.537
667.23	29.317
667.56	26.078
667.88	30.290
668.21	27.254
668.53	29.637
668.86	30.862
669.18	28.513
669.50	27.893
669.83	31.622
670.15	28.274
670.48	26.562
670.80	31.673
671.13	28.287
671.45	28.056
671.77	28.942
672.10	29.803
672.42	26.316
672.75	28.797
673.07	28.617
673.39	27.636
673.72	29.066
674.04	26.344
674.37	28.494
674.69	28.439
675.01	29.478
675.34	27.713
675.66	30.469
675.98	27.219
676.31	30.200
676.63	27.634
676.95	29.167
677.28	28.600
677.60	30.785
677.92	28.175
678.25	29.264
678.57	30.168
678.89	29.837
679.22	29.228
679.54	28.114
679.86	27.574
680.18	26.538
680.51	26.368
680.83	23.311
681.15	29.463
681.48	26.562
681.80	28.196
682.12	29.585
682.44	24.865
682.77	28.114
683.09	29.709
683.41	28.776
683.73	29.528
684.06	29.365
684.38	28.295
684.70	25.899
685.02	26.910
685.34	27.641
685.67	28.778
685.99	29.228
686.31	26.040
686.63	24.878
686.96	29.085
687.28	27.181
687.60	27.304
687.92	26.801
688.24	28.793
688.56	28.648
688.89	26.769
689.21	26.975
689.53	28.458
689.85	25.813
690.17	28.350
690.49	27.016
690.82	25.840
691.14	31.515
691.46	30.185
691.78	28.850
692.10	28.244
692.42	27.949
692.74	26.744
693.06	26.357
693.39	28.261
693.71	27.898
694.03	29.586
694.35	29.518
694.67	26.069
694.99	26.386
695.31	28.604
695.63	27.376
695.95	31.222
696.27	30.752
696.59	31.026
696.91	25.570
697.23	29.412
697.56	27.593
697.88	29.541
698.20	28.868
698.52	26.265
698.84	30.185
699.16	30.277
699.48	30.297
699.80	31.808
700.12	28.406
700.44	31.308
700.76	28.878
701.08	32.376
701.40	29.610
701.72	33.422
702.04	32.791
702.36	31.183
702.68	32.447
703.00	26.316
703.32	31.514
703.64	28.463
703.96	29.167
704.28	29.365
704.60	29.014
704.91	30.812
705.23	30.114
705.55	37.092
705.87	28.889
706.19	32.602
706.51	32.602
706.83	32.153
707.15	29.679
707.47	29.056
707.79	28.966
708.11	29.478
708.43	28.989
708.74	28.507
709.06	31.163
709.38	31.017
709.70	26.158
710.02	28.804
710.34	32.044
710.66	30.278
710.98	31.694
711.29	32.869
711.61	32.312
711.93	30.091
712.25	30.422
712.57	28.617
712.89	33.030
713.20	34.505
713.52	29.907
713.84	32.326
714.16	30.725
714.48	28.242
714.80	26.829
715.11	27.926
715.43	29.330
715.75	29.014
716.07	30.636
716.39	30.857
716.70	28.349
717.02	31.650
717.34	32.374
717.66	35.417
717.97	39.394
718.29	30.634
718.61	28.716
718.93	35.986
719.24	31.208
719.56	34.138
719.88	29.299
720.20	33.226
720.51	32.026
720.83	31.773
721.15	30.272
721.46	32.534
721.78	33.101
722.10	34.375
722.42	34.783
722.73	29.242
723.05	32.281
723.37	33.922
723.68	28.125
724.00	37.121
724.32	30.418
724.63	31.538
724.95	34.902
725.27	31.970
725.58	30.515
725.90	28.521
726.22	29.795
726.53	29.766
726.85	37.785
727.16	35.570
727.48	32.890
727.80	35.612
728.11	37.500
728.43	31.522
728.74	33.566
729.06	28.674
729.38	34.737
729.69	32.333
730.01	32.566
730.32	33.893
730.64	30.897
730.96	31.231
731.27	28.440
731.59	31.322
731.90	29.805
732.22	31.714
732.53	30.484
732.85	32.164
733.16	27.108
733.48	30.721
733.80	29.565
734.11	36.196
734.43	31.287
734.74	29.223
735.06	32.540
735.37	29.639
735.69	29.565
736.00	32.722
736.32	31.515
736.63	31.546
736.95	31.366
737.26	31.098
737.58	31.288
737.89	32.831
738.21	27.815
738.52	32.107
738.83	36.264
739.15	34.843
739.46	27.241
739.78	30.952
740.09	31.195
740.41	30.061
740.72	33.651
741.04	35.664
741.35	32.812
741.66	29.644
741.98	35.193
742.29	37.500
742.61	30.973
742.92	32.627
743.23	34.400
743.55	29.811
743.86	31.373
744.18	34.746
744.49	33.471
744.80	32.258
745.12	31.696
745.43	32.710
745.74	35.556
746.06	39.035
746.37	40.465
746.68	37.168
747.00	29.596
747.31	33.193
747.62	29.918
747.94	36.052
748.25	31.518
748.56	32.203
748.88	36.161
749.19	34.884
749.50	38.813
749.82	34.156
750.13	32.016
750.44	31.000
750.75	30.872
751.07	28.618
751.38	31.023
751.69	32.997
752.01	30.769
752.32	33.223
752.63	31.208
752.94	36.014
753.26	35.547
753.57	37.743
753.88	32.959
754.19	37.184
754.51	33.555
754.82	28.523
755.13	36.486
755.44	32.963
755.75	35.052
756.07	32.534
756.38	29.085
756.69	32.500
757.00	34.125
757.31	30.986
757.63	27.273
757.94	31.383
758.25	29.227
758.56	27.918
758.87	34.586
759.18	30.814
759.50	31.915
759.81	34.125
760.12	34.551
760.43	31.373
760.74	29.114
761.05	31.565
761.36	29.167
761.67	31.267
761.99	32.394
762.30	36.334
762.61	30.556
762.92	32.197
763.23	35.094
763.54	30.769
763.85	32.296
764.16	35.069
764.47	33.108
764.78	31.270
765.10	29.878
765.41	28.693
765.72	28.177
766.03	31.420
766.34	33.798
766.65	37.643
766.96	35.223
767.27	34.579
767.58	40.594
767.89	40.884
768.20	39.634
768.51	36.735
768.82	33.772
769.13	33.333
769.44	36.842
769.75	34.082
770.06	35.294
770.37	32.018
770.68	28.889
770.99	37.288
771.30	30.544
771.61	40.000
771.92	31.679
772.23	33.871
772.54	37.778
772.85	38.614
773.16	35.326
773.47	42.222
773.78	41.089
774.09	46.023
774.39	43.030
774.70	38.235
775.01	43.421
775.32	40.373
775.63	37.671
775.94	46.914
776.25	43.448
776.56	46.565
776.87	49.618
777.18	40.152
777.48	54.331
777.79	43.846
778.10	37.879
778.41	50.746
778.72	42.857
779.03	41.026
779.34	36.486
779.65	45.963
779.95	41.615
780.26	38.690
780.57	43.537
780.88	48.936
781.19	55.000
781.50	42.604
781.80	39.344
782.11	36.508
782.42	36.782
782.73	39.548
783.04	41.290
783.34	34.109
783.65	41.497
783.96	41.935
784.27	32.450
784.57	32.895
784.88	44.928
785.19	49.167
785.50	52.586
785.81	55.039
786.11	43.704
786.42	37.795
786.73	51.351
787.04	40.566
787.34	35.772
787.65	48.485
787.96	53.788
788.26	46.457
788.57	48.905
788.88	46.479
789.19	36.641
789.49	43.243
789.80	44.531
790.11	43.802
790.41	52.778
790.72	47.222
791.03	49.038
791.33	47.475
791.64	60.000
791.95	49.474
792.25	43.750
792.56	55.000
792.87	53.659
793.17	63.636
793.48	62.353
793.79	62.069
794.09	53.409
794.40	54.310
794.70	48.413
795.01	44.615
795.32	44.275
795.62	45.299
795.93	52.941
796.23	51.220
796.54	58.163
796.85	53.409
797.15	76.623
797.46	67.073
797.76	47.500
798.07	58.667
798.37	62.500
798.68	52.500
798.99	67.073
799.29	56.000
799.60	55.814
799.90	61.842
800.21	51.515
800.51	66.197
800.82	62.069
801.12	67.692
801.43	80.000
801.73	81.034
802.04	66.234
802.34	52.055
802.65	82.353
802.95	76.087
803.26	77.419
803.56	93.333
803.87	67.164
804.17	80.952
804.48	67.925
804.78	52.778
805.09	68.182
805.39	68.254
805.70	61.404
806.00	54.286
806.30	73.437
806.61	55.294
806.91	60.000
807.22	53.261
807.52	69.737
807.83	63.158
808.13	68.116
808.43	64.516
808.74	65.753
809.04	71.429
809.35	73.529
809.65	65.152
809.95	90.196
810.26	90.741
810.56	82.813
810.86	67.347
811.17	94.737
811.47	97.826
811.77	96.552
812.08	81.034
812.38	88.095
812.69	73.810
812.99	71.111
813.29	77.143
813.59	90.323
813.90	75.862
814.20	77.049
814.50	62.000
814.81	63.158
815.11	85.185
815.41	69.643
815.72	80.357
816.02	90.000
816.32	80.488
816.62	68.966
816.93	112.121
817.23	90.244
817.53	76.786
817.84	66.667
818.14	64.286
818.44	95.833
818.74	86.792
819.04	105.128
819.35	112.121
819.65	94.231
819.95	101.852
820.25	97.872
820.56	113.514
820.86	115.789
821.16	76.596
821.46	123.684
821.76	100.000
822.07	80.952
822.37	86.842
822.67	93.023
822.97	52.632
823.27	80.435
823.57	115.625
823.88	112.821
824.18	84.848
824.48	147.826
824.78	111.111
825.08	143.478
825.38	127.586
825.69	132.353
825.99	85.106
826.29	83.333
826.59	97.143
826.89	136.667
827.19	100.000
827.49	138.710
827.79	111.538
828.09	80.952
828.39	97.222
828.70	64.865
829.00	153.571
829.30	181.250
829.60	91.667
829.90	138.710
830.20	96.970
830.50	124.324
830.80	175.000
831.10	161.538
831.40	114.286
831.70	175.000
832.00	100.000
832.30	117.391
832.60	145.833
832.90	133.333
833.20	150.000
833.50	131.579
833.80	97.059
834.10	94.737
834.40	157.895
834.70	76.667
835.00	172.000
835.30	108.108
835.60	143.750
835.90	129.730
836.20	150.000
836.50	131.818
836.80	100.000
837.10	156.522
837.40	253.846
837.70	94.737
838.00	113.333
838.30	120.833
838.60	120.000
838.90	250.000
839.19	143.750
839.49	126.667
839.79	117.241
840.09	146.154
840.39	173.333
840.69	178.947
840.99	123.810
841.29	182.609
841.59	180.000
841.88	148.000
842.18	277.778
842.48	139.286
842.78	170.370
843.08	246.154
843.38	168.182
843.68	192.857
843.97	457.143
844.27	195.652
844.57	1600.000
844.87	314.286
845.17	227.778
845.47	142.857
845.76	145.833
846.06	457.143
846.36	217.647
846.66	284.615
846.96	187.500
847.25	223.077
847.55	168.421
847.85	161.111
848.15	580.000
848.44	263.636
848.74	119.048
849.04	116.667
849.34	182.353
849.63	212.500
849.93	281.250
850.23	1000.000
850.53	400.000
850.82	272.727
851.12	205.882
851.42	175.000
851.71	206.250
852.01	0.000
852.31	176.471
852.61	450.000
852.90	183.333
853.20	244.444
853.50	-1800.000
853.79	140.000
854.09	150.000
854.39	148.276
854.68	168.966
854.98	152.381
855.28	122.581
855.57	242.857
855.87	205.556
856.17	107.407
856.46	157.895
856.76	103.226
857.05	247.059
857.35	354.545
857.65	192.308
857.94	160.000
858.24	388.889
858.53	264.286
858.83	471.429
859.13	186.957
859.42	288.889
859.72	350.000
860.01	233.333
860.31	950.000
860.60	350.000
860.90	362.500
861.20	215.385
861.49	428.571
861.79	-4000.000
862.08	614.286
862.38	366.667
862.67	228.571
862.97	320.000
863.26	126.667
863.56	800.000
863.85	261.538
864.15	247.059
864.44	155.556
864.74	258.333
865.03	290.909
865.33	400.000
865.62	233.333
865.92	383.333
866.21	750.000
866.51	560.000
866.80	255.556
867.10	766.667
867.39	3100.000
867.69	720.000
867.98	825.000
868.27	185.714
868.57	260.000
868.86	825.000
869.16	180.952
869.45	3200.000
869.75	-466.667
870.04	750.000
870.33	740.000
870.63	375.000
870.92	152.941
871.22	775.000
871.51	528.571
871.80	333.333
872.10	253.846
>>>>>End Processed Spectral Data<<<<<
