SpectraSuite Data File
++++++++++++++++++++++++++++++++++++
Date: Tue May 12 17:17:11 PDT 2015
User: schluterlab
Dark Spectrum Present: Yes
Reference Spectrum Present: Yes
Number of Sampled Component Spectra: 1
Spectrometers: USB2E3373
Integration Time (usec): 3000 (USB2E3373)
Spectra Averaged: 3 (USB2E3373)
Boxcar Smoothing: 0 (USB2E3373)
Correct for Electrical Dark: No (USB2E3373)
Strobe/Lamp Enabled: No (USB2E3373)
Correct for Detector Non-linearity: No (USB2E3373)
Correct for Stray Light: No (USB2E3373)
Number of Pixels in Processed Spectrum: 2048
>>>>>Begin Processed Spectral Data<<<<<
178.53	0.000
178.91	-216.667
179.29	-575.000
179.67	-3600.000
180.04	-140.000
180.42	875.000
180.80	1750.000
181.18	0.000
181.56	-412.500
181.94	0.000
182.31	1000.000
182.69	-3100.000
183.07	571.429
183.45	-4400.000
183.83	-1550.000
184.20	300.000
184.58	371.429
184.96	-176.923
185.34	-183.333
185.72	1250.000
186.09	-875.000
186.47	-3600.000
186.85	766.667
187.23	580.000
187.61	1900.000
187.98	475.000
188.36	242.857
188.74	308.333
189.12	350.000
189.49	725.000
189.87	0.000
190.25	437.500
190.63	3300.000
191.00	-200.000
191.38	-3300.000
191.76	-750.000
192.14	587.500
192.51	-4300.000
192.89	1300.000
193.27	900.000
193.65	-933.333
194.02	-700.000
194.40	471.429
194.78	-221.429
195.15	226.667
195.53	-3800.000
195.91	-660.000
196.29	3900.000
196.66	262.500
197.04	1050.000
197.42	-1300.000
197.79	650.000
198.17	291.667
198.55	0.000
198.92	514.286
199.30	1166.667
199.68	1800.000
200.05	600.000
200.43	-483.333
200.81	172.222
201.18	3400.000
201.56	233.333
201.94	-750.000
202.31	-300.000
202.69	-540.000
203.07	3500.000
203.44	-400.000
203.82	291.667
204.19	640.000
204.57	-1500.000
204.95	-1000.000
205.32	-660.000
205.70	700.000
206.08	925.000
206.45	-1000.000
206.83	311.111
207.20	231.579
207.58	316.667
207.96	780.000
208.33	0.000
208.71	628.571
209.08	560.000
209.46	-3100.000
209.84	-825.000
210.21	1020.000
210.59	-560.000
210.96	266.667
211.34	-800.000
211.71	354.545
212.09	875.000
212.46	1700.000
212.84	-466.667
213.22	422.222
213.59	-3900.000
213.97	370.000
214.34	750.000
214.72	1133.333
215.09	900.000
215.47	-2300.000
215.84	-310.000
216.22	-412.500
216.59	0.000
216.97	0.000
217.34	1650.000
217.72	-1300.000
218.09	1133.333
218.47	550.000
218.84	725.000
219.22	1233.333
219.59	1233.333
219.97	557.143
220.34	344.444
220.72	1800.000
221.09	3700.000
221.47	266.667
221.84	1200.000
222.22	410.000
222.59	272.222
222.97	250.000
223.34	200.000
223.72	-1650.000
224.09	766.667
224.46	300.000
224.84	-675.000
225.21	411.111
225.59	260.000
225.96	1200.000
226.34	-660.000
226.71	-275.000
227.08	-600.000
227.46	0.000
227.83	-566.667
228.21	-1250.000
228.58	375.000
228.95	825.000
229.33	344.444
229.70	850.000
230.08	315.385
230.45	2900.000
230.82	-800.000
231.20	-733.333
231.57	-933.333
231.95	660.000
232.32	300.000
232.69	516.667
233.07	308.333
233.44	-1150.000
233.81	260.000
234.19	133.333
234.56	200.000
234.93	182.353
235.31	200.000
235.68	231.250
236.05	142.857
236.43	144.444
236.80	235.714
237.17	131.034
237.55	121.875
237.92	107.500
238.29	115.152
238.67	125.000
239.04	92.683
239.41	79.167
239.79	62.500
240.16	75.000
240.53	62.295
240.91	53.623
241.28	64.407
241.65	63.636
242.02	57.746
242.40	50.000
242.77	42.857
243.14	34.177
243.51	48.485
243.89	39.252
244.26	40.187
244.63	41.584
245.00	39.450
245.38	29.661
245.75	35.606
246.12	44.444
246.49	31.915
246.87	24.590
247.24	36.000
247.61	26.875
247.98	30.612
248.36	23.030
248.73	26.020
249.10	23.810
249.47	24.500
249.84	22.886
250.22	20.000
250.59	23.500
250.96	23.207
251.33	27.442
251.70	23.661
252.08	18.908
252.45	18.327
252.82	20.152
253.19	16.206
253.56	18.462
253.94	26.449
254.31	22.093
254.68	19.861
255.05	22.759
255.42	24.818
255.79	21.173
256.16	21.356
256.54	23.701
256.91	20.915
257.28	19.732
257.65	17.241
258.02	20.649
258.39	20.344
258.76	17.101
259.14	13.143
259.51	17.784
259.88	20.669
260.25	15.934
260.62	19.178
260.99	14.050
261.36	16.992
261.73	15.957
262.10	17.539
262.47	17.750
262.85	15.733
263.22	21.080
263.59	16.624
263.96	19.799
264.33	17.531
264.70	16.462
265.07	18.049
265.44	16.514
265.81	16.509
266.18	16.476
266.55	15.839
266.92	13.647
267.29	16.447
267.66	16.143
268.03	14.126
268.40	17.125
268.77	16.079
269.14	13.883
269.51	16.036
269.88	16.122
270.25	12.959
270.62	15.665
270.99	16.227
271.36	19.309
271.73	13.208
272.10	15.556
272.47	13.294
272.84	13.373
273.21	14.256
273.58	15.789
273.95	13.758
274.32	16.148
274.69	14.961
275.06	15.301
275.43	14.943
275.80	14.528
276.17	16.360
276.54	16.075
276.91	15.672
277.28	14.599
277.65	14.207
278.02	14.154
278.39	13.849
278.76	13.103
279.13	14.057
279.50	13.455
279.87	12.663
280.23	14.180
280.60	12.226
280.97	12.414
281.34	11.881
281.71	14.261
282.08	15.385
282.45	14.189
282.82	14.381
283.19	13.355
283.56	13.719
283.92	13.192
284.29	13.644
284.66	12.941
285.03	11.443
285.40	13.388
285.77	12.654
286.14	13.622
286.51	13.037
286.87	11.867
287.24	10.811
287.61	13.678
287.98	14.627
288.35	12.593
288.72	11.381
289.08	14.264
289.45	12.805
289.82	12.813
290.19	12.006
290.56	14.847
290.93	12.374
291.29	12.983
291.66	11.017
292.03	10.659
292.40	13.144
292.77	11.699
293.13	12.126
293.50	10.256
293.87	10.298
294.24	11.608
294.60	13.728
294.97	13.287
295.34	11.421
295.71	11.827
296.08	10.800
296.44	10.928
296.81	11.166
297.18	10.773
297.55	11.084
297.91	11.330
298.28	13.164
298.65	10.920
299.02	10.977
299.38	10.671
299.75	11.098
300.12	12.385
300.48	12.295
300.85	12.277
301.22	10.698
301.59	10.259
301.95	10.968
302.32	12.107
302.69	11.652
303.05	13.356
303.42	11.996
303.79	11.159
304.15	11.111
304.52	10.254
304.89	10.661
305.25	12.681
305.62	11.407
305.99	10.000
306.35	10.737
306.72	11.550
307.09	11.387
307.45	10.876
307.82	10.494
308.19	11.134
308.55	11.800
308.92	11.874
309.29	13.314
309.65	11.695
310.02	13.083
310.38	11.864
310.75	12.729
311.12	12.931
311.48	12.838
311.85	12.786
312.22	12.130
312.58	13.314
312.95	12.136
313.31	13.764
313.68	14.165
314.05	13.828
314.41	13.501
314.78	12.879
315.14	14.692
315.51	14.191
315.87	13.412
316.24	13.725
316.61	14.324
316.97	14.037
317.34	16.442
317.70	14.750
318.07	17.171
318.43	15.905
318.80	15.762
319.16	16.608
319.53	15.310
319.89	15.233
320.26	17.598
320.62	16.575
320.99	16.587
321.35	17.625
321.72	18.691
322.08	16.713
322.45	18.892
322.81	18.298
323.18	18.384
323.54	19.861
323.91	19.402
324.27	18.126
324.64	18.339
325.00	18.103
325.37	19.730
325.73	19.730
326.10	21.292
326.46	20.066
326.83	20.720
327.19	20.884
327.56	20.847
327.92	22.377
328.29	21.686
328.65	21.832
329.01	21.728
329.38	22.843
329.74	22.118
330.11	23.719
330.47	22.421
330.84	21.915
331.20	22.504
331.56	22.971
331.93	22.669
332.29	20.493
332.66	22.789
333.02	22.509
333.38	23.211
333.75	24.270
334.11	23.490
334.48	23.162
334.84	22.973
335.20	23.439
335.57	21.914
335.93	23.045
336.29	23.217
336.66	23.756
337.02	22.241
337.38	23.302
337.75	21.791
338.11	21.857
338.47	22.608
338.84	22.947
339.20	21.818
339.56	22.876
339.93	24.331
340.29	22.185
340.65	23.554
341.02	22.928
341.38	23.563
341.74	22.674
342.11	21.619
342.47	22.231
342.83	23.872
343.20	22.474
343.56	20.334
343.92	23.121
344.28	23.604
344.65	22.820
345.01	23.016
345.37	21.314
345.73	23.016
346.10	23.108
346.46	24.641
346.82	21.682
347.19	22.720
347.55	22.873
347.91	22.583
348.27	21.611
348.63	23.339
349.00	21.858
349.36	22.412
349.72	23.930
350.08	23.059
350.45	23.686
350.81	23.165
351.17	22.496
351.53	22.017
351.89	23.155
352.26	22.222
352.62	23.002
352.98	23.236
353.34	23.652
353.70	21.942
354.07	23.692
354.43	23.349
354.79	21.488
355.15	23.660
355.51	23.187
355.87	22.666
356.24	22.633
356.60	22.222
356.96	22.745
357.32	23.210
357.68	23.128
358.04	23.100
358.40	23.538
358.77	23.742
359.13	22.523
359.49	23.202
359.85	23.455
360.21	22.363
360.57	23.139
360.93	23.160
361.29	23.449
361.66	23.565
362.02	22.159
362.38	23.521
362.74	23.425
363.10	23.422
363.46	22.790
363.82	23.562
364.18	23.898
364.54	22.318
364.90	23.695
365.26	23.734
365.62	22.997
365.98	22.987
366.35	22.966
366.71	24.150
367.07	23.072
367.43	23.170
367.79	22.939
368.15	23.270
368.51	23.777
368.87	23.573
369.23	22.730
369.59	23.601
369.95	23.916
370.31	23.546
370.67	23.803
371.03	23.739
371.39	24.030
371.75	23.098
372.11	23.861
372.47	24.247
372.83	23.929
373.19	25.017
373.55	24.055
373.91	23.619
374.27	24.669
374.63	24.000
374.99	23.181
375.35	24.194
375.71	24.077
376.07	24.668
376.42	23.274
376.78	25.112
377.14	24.967
377.50	24.032
377.86	23.703
378.22	24.680
378.58	23.789
378.94	24.623
379.30	23.651
379.66	24.082
380.02	23.988
380.38	24.239
380.74	24.683
381.09	25.409
381.45	23.064
381.81	24.586
382.17	24.054
382.53	23.875
382.89	24.778
383.25	24.156
383.61	24.784
383.97	23.995
384.32	24.955
384.68	25.728
385.04	24.619
385.40	24.970
385.76	24.459
386.12	23.933
386.48	24.620
386.83	24.083
387.19	24.617
387.55	24.441
387.91	24.307
388.27	25.045
388.62	25.176
388.98	24.431
389.34	23.676
389.70	23.408
390.06	24.390
390.42	24.676
390.77	25.369
391.13	24.442
391.49	24.803
391.85	25.231
392.20	24.315
392.56	24.970
392.92	24.200
393.28	24.720
393.64	24.541
393.99	24.956
394.35	24.603
394.71	23.764
395.07	24.513
395.42	24.707
395.78	25.170
396.14	25.783
396.50	24.609
396.85	23.293
397.21	23.887
397.57	24.208
397.92	23.975
398.28	24.269
398.64	24.549
399.00	23.143
399.35	23.564
399.71	24.062
400.07	23.687
400.42	24.179
400.78	24.164
401.14	24.486
401.49	23.733
401.85	24.565
402.21	23.433
402.57	24.177
402.92	23.939
403.28	24.045
403.63	23.779
403.99	24.125
404.35	24.853
404.70	23.981
405.06	23.302
405.42	23.639
405.77	22.988
406.13	23.210
406.49	23.536
406.84	23.632
407.20	23.345
407.55	23.446
407.91	24.314
408.27	23.044
408.62	23.832
408.98	23.773
409.34	22.911
409.69	23.398
410.05	22.958
410.40	22.261
410.76	23.068
411.11	23.578
411.47	24.136
411.83	22.964
412.18	22.283
412.54	23.363
412.89	22.891
413.25	24.002
413.60	23.072
413.96	23.579
414.31	22.845
414.67	23.464
415.03	22.989
415.38	23.722
415.74	23.310
416.09	23.423
416.45	23.594
416.80	24.182
417.16	23.106
417.51	23.312
417.87	22.904
418.22	22.783
418.58	23.567
418.93	23.200
419.29	22.243
419.64	22.714
420.00	24.761
420.35	23.113
420.71	22.929
421.06	21.954
421.42	23.604
421.77	22.987
422.12	22.988
422.48	23.318
422.83	22.991
423.19	22.840
423.54	21.722
423.90	23.046
424.25	23.445
424.61	23.273
424.96	22.812
425.31	22.934
425.67	23.737
426.02	23.668
426.38	22.229
426.73	23.424
427.09	22.776
427.44	22.735
427.79	22.985
428.15	24.278
428.50	23.314
428.85	23.810
429.21	23.447
429.56	22.981
429.92	23.421
430.27	22.593
430.62	22.369
430.98	23.054
431.33	22.077
431.68	22.568
432.04	22.763
432.39	22.667
432.74	22.892
433.10	23.256
433.45	23.435
433.80	23.056
434.16	23.069
434.51	23.375
434.86	23.462
435.22	22.312
435.57	23.651
435.92	24.075
436.28	24.021
436.63	23.339
436.98	23.874
437.34	23.744
437.69	22.508
438.04	23.333
438.39	23.468
438.75	23.664
439.10	22.990
439.45	23.686
439.81	24.118
440.16	23.335
440.51	24.268
440.86	23.533
441.22	23.485
441.57	23.570
441.92	23.889
442.27	23.402
442.63	23.425
442.98	23.222
443.33	23.460
443.68	23.239
444.03	23.327
444.39	23.682
444.74	22.930
445.09	24.118
445.44	23.486
445.79	23.246
446.15	23.105
446.50	23.259
446.85	23.855
447.20	23.134
447.55	23.002
447.91	24.081
448.26	24.281
448.61	24.157
448.96	24.129
449.31	24.202
449.66	23.865
450.02	23.123
450.37	23.820
450.72	23.747
451.07	23.793
451.42	24.126
451.77	23.711
452.12	23.993
452.47	25.091
452.83	24.338
453.18	24.324
453.53	24.393
453.88	24.457
454.23	24.869
454.58	23.776
454.93	23.237
455.28	24.113
455.63	24.586
455.98	24.817
456.34	24.195
456.69	24.329
457.04	23.926
457.39	23.257
457.74	24.099
458.09	23.021
458.44	24.315
458.79	24.403
459.14	23.513
459.49	24.066
459.84	23.913
460.19	24.407
460.54	24.103
460.89	23.614
461.24	23.540
461.59	24.546
461.94	23.641
462.29	24.371
462.64	24.937
462.99	24.184
463.34	24.563
463.69	24.198
464.04	24.237
464.39	24.900
464.74	24.091
465.09	23.099
465.44	23.885
465.79	23.517
466.14	23.423
466.49	24.417
466.84	23.746
467.19	23.960
467.54	24.084
467.89	24.061
468.24	23.393
468.59	24.107
468.94	23.551
469.29	24.191
469.64	23.987
469.99	24.100
470.34	23.593
470.68	24.138
471.03	24.616
471.38	23.444
471.73	24.886
472.08	25.440
472.43	24.891
472.78	24.136
473.13	23.655
473.48	24.572
473.83	24.558
474.17	25.653
474.52	24.645
474.87	23.707
475.22	23.872
475.57	22.980
475.92	24.527
476.27	23.177
476.61	23.003
476.96	23.197
477.31	24.473
477.66	24.799
478.01	24.188
478.36	23.790
478.70	23.970
479.05	23.849
479.40	24.157
479.75	24.131
480.10	24.250
480.45	23.810
480.79	23.641
481.14	23.110
481.49	23.239
481.84	23.219
482.19	23.013
482.53	22.925
482.88	23.253
483.23	23.545
483.58	23.878
483.92	23.949
484.27	23.545
484.62	23.302
484.97	23.646
485.31	22.602
485.66	21.982
486.01	21.522
486.36	21.159
486.70	20.878
487.05	21.360
487.40	21.510
487.75	22.407
488.09	21.903
488.44	22.562
488.79	22.596
489.13	23.292
489.48	23.372
489.83	22.644
490.17	23.080
490.52	23.428
490.87	24.009
491.22	23.892
491.56	23.364
491.91	23.656
492.26	23.296
492.60	23.007
492.95	23.561
493.30	23.885
493.64	22.866
493.99	23.122
494.34	21.918
494.68	22.842
495.03	23.619
495.37	24.088
495.72	23.730
496.07	23.585
496.41	23.067
496.76	22.879
497.11	23.993
497.45	23.542
497.80	23.633
498.14	24.133
498.49	22.656
498.84	23.785
499.18	23.035
499.53	23.702
499.87	22.642
500.22	23.676
500.56	22.934
500.91	23.516
501.26	23.381
501.60	23.543
501.95	23.611
502.29	23.600
502.64	23.114
502.98	22.766
503.33	23.252
503.67	23.135
504.02	22.839
504.36	23.213
504.71	24.314
505.06	23.839
505.40	23.163
505.75	23.854
506.09	23.752
506.44	23.590
506.78	24.291
507.13	23.897
507.47	23.726
507.82	24.526
508.16	24.498
508.51	24.058
508.85	24.264
509.19	24.180
509.54	24.805
509.88	24.068
510.23	23.676
510.57	23.793
510.92	24.376
511.26	24.347
511.61	24.323
511.95	24.540
512.30	24.800
512.64	24.195
512.98	24.552
513.33	24.027
513.67	24.443
514.02	24.935
514.36	25.182
514.70	24.747
515.05	24.880
515.39	24.890
515.74	24.986
516.08	25.054
516.42	25.246
516.77	24.693
517.11	24.907
517.46	25.216
517.80	25.287
518.14	26.254
518.49	24.752
518.83	24.341
519.17	25.236
519.52	24.850
519.86	25.395
520.20	25.260
520.55	26.003
520.89	24.770
521.23	26.519
521.58	25.416
521.92	25.948
522.26	25.889
522.61	26.679
522.95	25.886
523.29	25.556
523.64	25.145
523.98	26.056
524.32	24.452
524.66	25.333
525.01	26.391
525.35	25.633
525.69	26.490
526.04	27.246
526.38	25.427
526.72	25.179
527.06	25.547
527.41	25.695
527.75	25.380
528.09	25.527
528.43	25.686
528.78	25.999
529.12	25.828
529.46	24.664
529.80	25.643
530.15	25.633
530.49	25.872
530.83	26.204
531.17	25.338
531.51	26.364
531.86	25.725
532.20	25.587
532.54	26.303
532.88	25.359
533.22	26.264
533.57	25.869
533.91	24.825
534.25	25.505
534.59	26.374
534.93	24.630
535.27	24.587
535.62	25.029
535.96	24.645
536.30	26.508
536.64	25.466
536.98	25.110
537.32	24.938
537.66	25.510
538.01	26.254
538.35	26.014
538.69	25.546
539.03	24.129
539.37	24.393
539.71	25.123
540.05	25.169
540.39	26.604
540.73	26.392
541.07	24.467
541.42	25.560
541.76	25.586
542.10	24.969
542.44	25.436
542.78	25.047
543.12	24.908
543.46	25.000
543.80	24.311
544.14	24.149
544.48	25.365
544.82	25.138
545.16	24.469
545.50	24.585
545.84	25.379
546.18	24.967
546.52	25.574
546.86	24.823
547.20	24.677
547.54	25.776
547.88	25.000
548.22	25.197
548.56	24.337
548.90	24.733
549.24	25.079
549.58	24.485
549.92	25.016
550.26	25.761
550.60	26.281
550.94	25.373
551.28	25.724
551.62	25.724
551.96	26.554
552.30	24.786
552.64	24.854
552.98	24.678
553.32	24.200
553.66	24.756
554.00	24.324
554.34	25.699
554.68	25.739
555.02	26.341
555.36	24.867
555.69	24.346
556.03	25.287
556.37	24.538
556.71	25.293
557.05	24.509
557.39	25.400
557.73	25.404
558.07	25.553
558.41	25.428
558.75	25.718
559.08	26.447
559.42	25.913
559.76	25.659
560.10	25.533
560.44	25.149
560.78	26.215
561.12	24.857
561.45	23.842
561.79	25.281
562.13	24.637
562.47	24.789
562.81	25.895
563.15	25.145
563.48	23.230
563.82	25.265
564.16	25.249
564.50	25.075
564.84	24.863
565.17	24.480
565.51	24.692
565.85	25.478
566.19	23.869
566.52	23.827
566.86	25.102
567.20	23.933
567.54	24.400
567.88	23.579
568.21	22.816
568.55	23.687
568.89	23.358
569.23	22.519
569.56	22.804
569.90	21.883
570.24	22.624
570.57	21.739
570.91	21.498
571.25	21.382
571.59	20.925
571.92	21.152
572.26	20.782
572.60	20.494
572.93	21.478
573.27	21.252
573.61	20.547
573.95	20.593
574.28	21.037
574.62	20.331
574.96	20.411
575.29	20.761
575.63	20.000
575.97	19.766
576.30	19.995
576.64	20.433
576.98	20.316
577.31	20.493
577.65	20.471
577.98	20.165
578.32	19.786
578.66	19.226
578.99	20.432
579.33	19.847
579.67	20.055
580.00	19.789
580.34	20.072
580.67	20.112
581.01	20.167
581.35	20.115
581.68	19.476
582.02	19.290
582.35	19.491
582.69	19.920
583.02	19.966
583.36	20.165
583.70	20.613
584.03	20.756
584.37	20.520
584.70	20.229
585.04	19.772
585.37	20.221
585.71	20.404
586.04	20.348
586.38	20.469
586.72	20.772
587.05	21.101
587.39	20.556
587.72	20.273
588.06	20.263
588.39	20.292
588.73	20.893
589.06	20.805
589.40	20.908
589.73	21.403
590.07	21.551
590.40	21.672
590.73	21.851
591.07	22.125
591.40	22.395
591.74	22.200
592.07	21.631
592.41	22.022
592.74	21.091
593.08	20.996
593.41	20.826
593.75	20.293
594.08	20.850
594.41	20.854
594.75	20.925
595.08	20.953
595.42	21.066
595.75	20.665
596.09	21.411
596.42	21.231
596.75	22.276
597.09	21.337
597.42	21.224
597.75	21.014
598.09	20.968
598.42	21.093
598.76	20.393
599.09	21.295
599.42	20.761
599.76	20.522
600.09	20.678
600.42	20.960
600.76	20.530
601.09	20.538
601.42	20.697
601.76	20.372
602.09	21.634
602.42	20.665
602.76	20.759
603.09	20.965
603.42	20.844
603.76	20.354
604.09	20.666
604.42	20.377
604.76	21.177
605.09	21.306
605.42	20.845
605.75	21.753
606.09	20.735
606.42	20.519
606.75	21.570
607.09	21.200
607.42	21.736
607.75	20.780
608.08	21.324
608.42	21.518
608.75	20.839
609.08	21.337
609.41	22.000
609.75	21.337
610.08	21.223
610.41	20.993
610.74	20.952
611.07	21.828
611.41	21.965
611.74	21.893
612.07	21.821
612.40	21.101
612.73	22.366
613.07	22.453
613.40	22.356
613.73	22.616
614.06	21.850
614.39	21.566
614.72	21.045
615.06	21.662
615.39	22.030
615.72	21.055
616.05	21.798
616.38	22.171
616.71	22.029
617.05	22.570
617.38	20.787
617.71	22.328
618.04	22.602
618.37	21.901
618.70	22.055
619.03	22.894
619.36	23.367
619.69	23.549
620.03	23.679
620.36	22.351
620.69	22.861
621.02	23.505
621.35	23.639
621.68	24.189
622.01	23.469
622.34	23.889
622.67	23.876
623.00	23.553
623.33	23.212
623.66	23.420
623.99	23.836
624.32	22.900
624.65	22.976
624.99	23.259
625.32	23.848
625.65	22.345
625.98	23.291
626.31	23.071
626.64	24.298
626.97	23.642
627.30	23.913
627.63	24.019
627.96	22.926
628.29	25.083
628.62	24.722
628.95	24.645
629.28	24.540
629.61	24.868
629.94	23.941
630.26	25.303
630.59	25.355
630.92	24.484
631.25	24.751
631.58	25.940
631.91	24.358
632.24	25.753
632.57	24.754
632.90	26.501
633.23	26.548
633.56	24.236
633.89	26.688
634.22	26.911
634.55	26.237
634.88	26.725
635.20	26.570
635.53	25.900
635.86	26.174
636.19	25.253
636.52	24.973
636.85	24.919
637.18	25.677
637.51	25.922
637.83	24.485
638.16	26.143
638.49	25.150
638.82	27.113
639.15	25.969
639.48	26.896
639.81	26.984
640.13	26.748
640.46	28.951
640.79	28.218
641.12	24.934
641.45	27.555
641.77	28.137
642.10	26.908
642.43	29.161
642.76	27.983
643.09	29.827
643.41	27.489
643.74	27.914
644.07	27.286
644.40	28.846
644.73	28.979
645.05	30.906
645.38	28.790
645.71	28.983
646.04	30.076
646.36	28.482
646.69	28.640
647.02	31.200
647.35	28.189
647.67	29.011
648.00	29.316
648.33	28.421
648.66	29.545
648.98	27.246
649.31	26.181
649.64	26.971
649.96	28.023
650.29	26.000
650.62	27.982
650.94	28.765
651.27	29.506
651.60	28.951
651.92	27.650
652.25	27.559
652.58	26.950
652.90	27.695
653.23	28.213
653.56	26.706
653.88	27.606
654.21	25.660
654.54	26.794
654.86	26.401
655.19	25.989
655.52	22.061
655.84	15.968
656.17	17.873
656.49	25.704
656.82	29.924
657.15	24.111
657.47	18.044
657.80	13.461
658.13	10.662
658.45	14.370
658.78	17.379
659.10	17.910
659.43	18.997
659.75	20.289
660.08	21.491
660.41	23.956
660.73	26.976
661.06	27.327
661.38	28.279
661.71	28.417
662.03	30.989
662.36	27.619
662.68	28.305
663.01	30.811
663.33	27.358
663.66	30.572
663.98	28.770
664.31	30.970
664.63	29.885
664.96	29.081
665.28	29.379
665.61	29.434
665.93	31.698
666.26	31.028
666.58	29.541
666.91	30.888
667.23	28.916
667.56	32.444
667.88	30.913
668.21	28.074
668.53	30.242
668.86	30.862
669.18	30.754
669.50	30.785
669.83	31.622
670.15	29.106
670.48	27.930
670.80	32.470
671.13	29.880
671.45	32.265
671.77	30.798
672.10	30.521
672.42	28.618
672.75	26.108
673.07	27.822
673.39	26.198
673.72	26.125
674.04	30.108
674.37	29.401
674.69	29.368
675.01	27.052
675.34	26.938
675.66	29.102
675.98	31.361
676.31	31.600
676.63	26.839
676.95	29.960
677.28	29.412
677.60	26.358
677.92	27.976
678.25	28.488
678.57	29.795
678.89	27.848
679.22	29.596
679.54	27.046
679.86	27.051
680.18	26.011
680.51	26.866
680.83	25.676
681.15	28.250
681.48	25.347
681.80	25.394
682.12	26.644
682.44	24.865
682.77	26.868
683.09	29.515
683.41	30.000
683.73	29.724
684.06	25.000
684.38	26.938
684.70	28.777
685.02	26.736
685.34	28.521
685.67	26.206
685.99	25.780
686.31	25.732
686.63	25.691
686.96	27.451
687.28	26.678
687.60	26.792
687.92	26.466
688.24	26.724
688.56	27.046
688.89	25.430
689.21	26.975
689.53	28.656
689.85	29.675
690.17	26.408
690.49	29.839
690.82	28.151
691.14	29.495
691.46	30.185
691.78	27.290
692.10	29.580
692.42	26.497
692.74	25.388
693.06	26.357
693.39	27.075
693.71	26.916
694.03	29.586
694.35	30.120
694.67	27.699
694.99	29.047
695.31	28.378
695.63	29.412
695.95	29.186
696.27	32.301
696.59	31.265
696.91	29.367
697.23	27.602
697.56	26.141
697.88	23.154
698.20	27.925
698.52	26.070
698.84	28.131
699.16	29.638
699.48	28.390
699.80	30.065
700.12	28.176
700.44	27.103
700.76	30.072
701.08	31.854
701.40	27.532
701.72	34.759
702.04	33.333
702.36	30.645
702.68	29.787
703.00	29.574
703.32	30.521
703.64	26.952
703.96	29.427
704.28	32.540
704.60	32.958
704.91	31.373
705.23	31.818
705.55	32.344
705.87	35.238
706.19	34.169
706.51	36.050
706.83	33.628
707.15	31.016
707.47	31.235
707.79	28.966
708.11	26.531
708.43	28.090
708.74	30.995
709.06	30.233
709.38	29.777
709.70	28.338
710.02	29.620
710.34	30.387
710.66	30.278
710.98	31.148
711.29	31.476
711.61	31.198
711.93	31.915
712.25	30.422
712.57	31.511
712.89	31.515
713.20	36.422
713.52	34.891
713.84	30.514
714.16	31.304
714.48	26.513
714.80	29.539
715.11	28.457
715.43	27.095
715.75	28.451
716.07	30.925
716.39	32.286
716.70	30.218
717.02	32.997
717.34	35.612
717.66	32.986
717.97	37.500
718.29	33.099
718.61	33.446
718.93	35.640
719.24	32.550
719.56	31.724
719.88	27.389
720.20	32.581
720.51	29.739
720.83	33.779
721.15	32.313
721.46	30.479
721.78	33.101
722.10	29.167
722.42	31.438
722.73	33.213
723.05	33.333
723.37	34.276
723.68	31.641
724.00	33.333
724.32	35.361
724.63	33.462
724.95	34.118
725.27	32.342
725.58	31.985
725.90	30.634
726.22	27.055
726.53	30.435
726.85	33.550
727.16	33.557
727.48	31.229
727.80	29.137
728.11	33.571
728.43	28.623
728.74	27.972
729.06	33.333
729.38	33.333
729.69	32.667
730.01	32.895
730.32	31.208
730.64	30.233
730.96	30.330
731.27	27.217
731.59	27.299
731.90	28.134
732.22	27.714
732.53	27.920
732.85	31.287
733.16	29.217
733.48	26.646
733.80	30.435
734.11	33.742
734.43	24.561
734.74	24.397
735.06	29.894
735.37	28.093
735.69	29.275
736.00	32.110
736.32	26.970
736.63	27.129
736.95	26.708
737.26	32.927
737.58	27.607
737.89	30.120
738.21	25.828
738.52	31.773
738.83	34.799
739.15	32.056
739.46	30.000
739.78	27.551
740.09	30.612
740.41	26.687
740.72	31.746
741.04	33.566
741.35	32.031
741.66	32.411
741.98	32.618
742.29	34.722
742.61	28.319
742.92	32.203
743.23	32.000
743.55	29.811
743.86	31.765
744.18	36.441
744.49	34.298
744.80	35.945
745.12	37.946
745.43	42.523
745.74	37.778
746.06	29.386
746.37	37.209
746.68	37.611
747.00	31.390
747.31	34.034
747.62	27.049
747.94	35.622
748.25	34.630
748.56	35.593
748.88	32.143
749.19	36.279
749.50	32.420
749.82	32.099
750.13	32.016
750.44	30.000
750.75	30.201
751.07	29.276
751.38	28.053
751.69	32.323
752.01	28.671
752.32	28.571
752.63	31.544
752.94	29.720
753.26	33.594
753.57	32.685
753.88	31.461
754.19	31.769
754.51	32.226
754.82	28.188
755.13	26.351
755.44	30.370
755.75	31.271
756.07	29.795
756.38	29.739
756.69	26.563
757.00	31.751
757.31	26.479
757.63	26.446
757.94	25.798
758.25	27.295
758.56	26.316
758.87	25.063
759.18	26.453
759.50	26.444
759.81	27.003
760.12	28.652
760.43	25.770
760.74	25.316
761.05	28.382
761.36	23.958
761.67	27.763
761.99	27.042
762.30	26.045
762.61	27.431
762.92	30.682
763.23	35.094
763.54	31.538
763.85	30.350
764.16	31.597
764.47	28.041
764.78	26.059
765.10	25.915
765.41	21.875
765.72	24.862
766.03	27.492
766.34	24.390
766.65	30.038
766.96	30.364
767.27	39.720
767.58	38.614
767.89	42.541
768.20	42.683
768.51	32.143
768.82	26.754
769.13	31.373
769.44	28.571
769.75	26.217
770.06	28.571
770.37	30.263
770.68	24.000
770.99	33.475
771.30	31.799
771.61	30.769
771.92	35.115
772.23	31.048
772.54	35.111
772.85	34.653
773.16	34.783
773.47	35.000
773.78	32.673
774.09	34.659
774.39	38.788
774.70	31.765
775.01	36.184
775.32	42.236
775.63	44.521
775.94	45.679
776.25	44.138
776.56	46.565
776.87	46.565
777.18	48.485
777.48	45.669
777.79	48.462
778.10	42.424
778.41	46.269
778.72	38.346
779.03	32.692
779.34	42.568
779.65	44.720
779.95	42.236
780.26	42.262
780.57	46.259
780.88	48.936
781.19	45.000
781.50	42.604
781.80	40.437
782.11	33.333
782.42	33.908
782.73	38.983
783.04	38.065
783.34	45.736
783.65	44.218
783.96	46.452
784.27	29.801
784.57	36.184
784.88	44.928
785.19	42.500
785.50	46.552
785.81	51.938
786.11	44.444
786.42	36.220
786.73	41.441
787.04	49.057
787.34	35.772
787.65	46.212
787.96	42.424
788.26	50.394
788.57	48.905
788.88	42.958
789.19	51.908
789.49	41.216
789.80	37.500
790.11	34.711
790.41	49.074
790.72	47.222
791.03	52.885
791.33	54.545
791.64	61.053
791.95	40.000
792.25	57.292
792.56	51.000
792.87	51.220
793.17	61.364
793.48	62.353
793.79	58.621
794.09	55.682
794.40	54.310
794.70	50.000
795.01	43.077
795.32	42.748
795.62	43.590
795.93	46.218
796.23	56.911
796.54	57.143
796.85	56.818
797.15	54.545
797.46	64.634
797.76	52.500
798.07	62.667
798.37	63.750
798.68	73.750
798.99	60.976
799.29	52.000
799.60	50.000
799.90	57.895
800.21	63.636
800.51	71.831
800.82	74.138
801.12	76.923
801.43	72.000
801.73	68.966
802.04	63.636
802.34	71.233
802.65	76.471
802.95	97.826
803.26	77.419
803.56	86.667
803.87	83.582
804.17	71.429
804.48	67.925
804.78	63.889
805.09	68.182
805.39	95.238
805.70	91.228
806.00	68.571
806.30	54.687
806.61	55.294
806.91	52.222
807.22	54.348
807.52	56.579
807.83	73.684
808.13	66.667
808.43	72.581
808.74	61.644
809.04	91.071
809.35	76.471
809.65	65.152
809.95	92.157
810.26	107.407
810.56	84.375
810.86	73.469
811.17	71.930
811.47	69.565
811.77	60.345
812.08	63.793
812.38	88.095
812.69	102.381
812.99	82.222
813.29	100.000
813.59	151.613
813.90	65.517
814.20	68.852
814.50	72.000
814.81	64.912
815.11	88.889
815.41	71.429
815.72	92.857
816.02	88.000
816.32	95.122
816.62	94.828
816.93	121.212
817.23	126.829
817.53	94.643
817.84	84.444
818.14	88.095
818.44	66.667
818.74	83.019
819.04	97.436
819.35	139.394
819.65	94.231
819.95	100.000
820.25	112.766
820.56	118.919
820.86	107.895
821.16	89.362
821.46	97.368
821.76	74.545
822.07	80.952
822.37	100.000
822.67	125.581
822.97	86.842
823.27	113.043
823.57	106.250
823.88	128.205
824.18	115.152
824.48	130.435
824.78	113.889
825.08	147.826
825.38	155.172
825.69	123.529
825.99	87.234
826.29	75.000
826.59	105.714
826.89	140.000
827.19	80.000
827.49	122.581
827.79	150.000
828.09	95.238
828.39	58.333
828.70	94.595
829.00	153.571
829.30	193.750
829.60	116.667
829.90	151.613
830.20	87.879
830.50	127.027
830.80	200.000
831.10	169.231
831.40	190.476
831.70	166.667
832.00	126.667
832.30	200.000
832.60	187.500
832.90	127.273
833.20	185.000
833.50	134.211
833.80	94.118
834.10	123.684
834.40	194.737
834.70	150.000
835.00	188.000
835.30	83.784
835.60	125.000
835.90	108.108
836.20	176.923
836.50	168.182
836.80	119.512
837.10	147.826
837.40	353.846
837.70	136.842
838.00	166.667
838.30	141.667
838.60	100.000
838.90	350.000
839.19	231.250
839.49	146.667
839.79	137.931
840.09	138.462
840.39	240.000
840.69	242.105
840.99	119.048
841.29	169.565
841.59	235.000
841.88	176.000
842.18	211.111
842.48	139.286
842.78	162.963
843.08	184.615
843.38	154.545
843.68	257.143
843.97	414.286
844.27	156.522
844.57	750.000
844.87	257.143
845.17	222.222
845.47	138.095
845.76	183.333
846.06	585.714
846.36	176.471
846.66	215.385
846.96	300.000
847.25	153.846
847.55	189.474
847.85	111.111
848.15	460.000
848.44	272.727
848.74	190.476
849.04	166.667
849.34	211.765
849.63	256.250
849.93	218.750
850.23	1166.667
850.53	462.500
850.82	290.909
851.12	182.353
851.42	145.833
851.71	287.500
852.01	0.000
852.31	229.412
852.61	330.000
852.90	125.000
853.20	344.444
853.50	-1600.000
853.79	164.000
854.09	112.500
854.39	127.586
854.68	144.828
854.98	233.333
855.28	135.484
855.57	264.286
855.87	183.333
856.17	148.148
856.46	173.684
856.76	135.484
857.05	252.941
857.35	236.364
857.65	215.385
857.94	170.000
858.24	411.111
858.53	235.714
858.83	728.571
859.13	208.696
859.42	277.778
859.72	337.500
860.01	241.667
860.31	775.000
860.60	320.000
860.90	362.500
861.20	192.308
861.49	428.571
861.79	-3600.000
862.08	542.857
862.38	377.778
862.67	207.143
862.97	390.000
863.26	170.000
863.56	775.000
863.85	307.692
864.15	258.824
864.44	194.444
864.74	341.667
865.03	354.545
865.33	475.000
865.62	266.667
865.92	500.000
866.21	700.000
866.51	680.000
866.80	216.667
867.10	900.000
867.39	4300.000
867.69	600.000
867.98	850.000
868.27	200.000
868.57	213.333
868.86	850.000
869.16	171.429
869.45	2900.000
869.75	-400.000
870.04	625.000
870.33	580.000
870.63	525.000
870.92	217.647
871.22	900.000
871.51	471.429
871.80	316.667
872.10	353.846
>>>>>End Processed Spectral Data<<<<<
