SpectraSuite Data File
++++++++++++++++++++++++++++++++++++
Date: Tue May 12 16:02:49 PDT 2015
User: schluterlab
Dark Spectrum Present: Yes
Reference Spectrum Present: Yes
Number of Sampled Component Spectra: 1
Spectrometers: USB2E3373
Integration Time (usec): 3000 (USB2E3373)
Spectra Averaged: 3 (USB2E3373)
Boxcar Smoothing: 0 (USB2E3373)
Correct for Electrical Dark: No (USB2E3373)
Strobe/Lamp Enabled: No (USB2E3373)
Correct for Detector Non-linearity: No (USB2E3373)
Correct for Stray Light: No (USB2E3373)
Number of Pixels in Processed Spectrum: 2048
>>>>>Begin Processed Spectral Data<<<<<
178.53	0.000
178.91	-283.333
179.29	-775.000
179.67	-3500.000
180.04	-200.000
180.42	700.000
180.80	1300.000
181.18	0.000
181.56	-375.000
181.94	0.000
182.31	1033.333
182.69	-3100.000
183.07	642.857
183.45	-4500.000
183.83	-1600.000
184.20	480.000
184.58	414.286
184.96	-292.308
185.34	-233.333
185.72	2300.000
186.09	-825.000
186.47	-2800.000
186.85	1066.667
187.23	680.000
187.61	1550.000
187.98	462.500
188.36	300.000
188.74	366.667
189.12	350.000
189.49	975.000
189.87	0.000
190.25	587.500
190.63	2000.000
191.00	-258.333
191.38	-4300.000
191.76	-625.000
192.14	550.000
192.51	-3200.000
192.89	1600.000
193.27	800.000
193.65	-1466.667
194.02	-680.000
194.40	428.571
194.78	-150.000
195.15	240.000
195.53	-3000.000
195.91	-480.000
196.29	3900.000
196.66	250.000
197.04	875.000
197.42	-1600.000
197.79	750.000
198.17	333.333
198.55	0.000
198.92	514.286
199.30	1000.000
199.68	1550.000
200.05	633.333
200.43	-533.333
200.81	211.111
201.18	3400.000
201.56	308.333
201.94	-850.000
202.31	-325.000
202.69	-340.000
203.07	3600.000
203.44	-516.667
203.82	291.667
204.19	940.000
204.57	-1300.000
204.95	-625.000
205.32	-680.000
205.70	566.667
206.08	775.000
206.45	-1000.000
206.83	488.889
207.20	157.895
207.58	333.333
207.96	720.000
208.33	0.000
208.71	628.571
209.08	940.000
209.46	-3500.000
209.84	-775.000
210.21	780.000
210.59	-700.000
210.96	358.333
211.34	-1000.000
211.71	381.818
212.09	1000.000
212.46	1900.000
212.84	-333.333
213.22	455.556
213.59	-2400.000
213.97	420.000
214.34	875.000
214.72	1166.667
215.09	966.667
215.47	-3900.000
215.84	-380.000
216.22	-387.500
216.59	0.000
216.97	0.000
217.34	1950.000
217.72	-1350.000
218.09	1100.000
218.47	550.000
218.84	1025.000
219.22	1033.333
219.59	1033.333
219.97	442.857
220.34	366.667
220.72	1950.000
221.09	4400.000
221.47	300.000
221.84	933.333
222.22	420.000
222.59	294.444
222.97	235.714
223.34	225.000
223.72	-1550.000
224.09	1166.667
224.46	276.923
224.84	-850.000
225.21	400.000
225.59	300.000
225.96	1433.333
226.34	-800.000
226.71	-700.000
227.08	-500.000
227.46	0.000
227.83	-516.667
228.21	-1600.000
228.58	375.000
228.95	975.000
229.33	411.111
229.70	1025.000
230.08	300.000
230.45	2800.000
230.82	-925.000
231.20	-1166.667
231.57	-1366.667
231.95	600.000
232.32	325.000
232.69	500.000
233.07	300.000
233.44	-1350.000
233.81	226.667
234.19	151.852
234.56	231.250
234.93	205.882
235.31	225.000
235.68	200.000
236.05	167.857
236.43	148.148
236.80	200.000
237.17	141.379
237.55	134.375
237.92	105.000
238.29	90.909
238.67	112.500
239.04	92.683
239.41	56.250
239.79	57.500
240.16	62.500
240.53	57.377
240.91	66.667
241.28	71.186
241.65	53.030
242.02	49.296
242.40	57.143
242.77	45.055
243.14	27.848
243.51	31.313
243.89	34.579
244.26	36.449
244.63	32.673
245.00	21.101
245.38	20.339
245.75	29.545
246.12	38.519
246.49	19.149
246.87	15.574
247.24	30.667
247.61	24.375
247.98	29.252
248.36	14.545
248.73	25.510
249.10	15.476
249.47	17.500
249.84	16.915
250.22	12.973
250.59	19.500
250.96	18.565
251.33	16.744
251.70	19.643
252.08	16.807
252.45	15.538
252.82	12.548
253.19	13.439
253.56	12.308
253.94	18.841
254.31	12.016
254.68	18.467
255.05	13.793
255.42	11.679
255.79	12.378
256.16	15.254
256.54	14.286
256.91	11.765
257.28	11.706
257.65	6.897
258.02	11.799
258.39	11.748
258.76	13.043
259.14	8.571
259.51	12.828
259.88	10.334
260.25	14.011
260.62	10.959
260.99	9.366
261.36	10.028
261.73	7.979
262.10	8.115
262.47	9.500
262.85	8.267
263.22	10.283
263.59	10.742
263.96	11.028
264.33	8.148
264.70	9.337
265.07	10.000
265.44	8.028
265.81	9.434
266.18	8.696
266.55	6.856
266.92	7.830
267.29	7.675
267.66	8.072
268.03	7.399
268.40	8.245
268.77	11.454
269.14	7.375
269.51	9.131
269.88	10.204
270.25	6.263
270.62	8.798
270.99	11.562
271.36	8.943
271.73	6.289
272.10	6.263
272.47	6.944
272.84	5.589
273.21	6.405
273.58	8.704
273.95	5.749
274.32	7.198
274.69	8.661
275.06	9.107
275.43	7.471
275.80	6.981
276.17	9.007
276.54	9.346
276.91	7.463
277.28	6.752
277.65	7.565
278.02	7.904
278.39	5.935
278.76	8.448
279.13	7.117
279.50	8.545
279.87	6.331
280.23	6.077
280.60	6.934
280.97	6.379
281.34	6.931
281.71	6.783
282.08	7.863
282.45	5.236
282.82	4.849
283.19	7.631
283.56	5.289
283.92	4.723
284.29	5.657
284.66	6.050
285.03	6.965
285.40	5.950
285.77	6.019
286.14	7.430
286.51	6.442
286.87	4.272
287.24	4.955
287.61	4.255
287.98	8.060
288.35	5.630
288.72	7.284
289.08	5.255
289.45	5.793
289.82	5.625
290.19	5.564
290.56	6.405
290.93	5.612
291.29	6.630
291.66	5.791
292.03	5.750
292.40	6.098
292.77	5.014
293.13	5.991
293.50	5.938
293.87	4.607
294.24	6.014
294.60	5.653
294.97	6.434
295.34	5.578
295.71	5.782
296.08	4.800
296.44	5.718
296.81	3.722
297.18	5.323
297.55	4.557
297.91	4.310
298.28	5.072
298.65	5.767
299.02	4.463
299.38	5.156
299.75	4.634
300.12	4.472
300.48	5.269
300.85	5.125
301.22	5.349
301.59	4.599
301.95	3.734
302.32	4.540
302.69	5.769
303.05	5.724
303.42	3.587
303.79	4.442
304.15	4.180
304.52	3.911
304.89	5.117
305.25	3.893
305.62	5.970
305.99	3.043
306.35	3.684
306.72	3.850
307.09	4.037
307.45	4.857
307.82	4.835
308.19	5.464
308.55	3.800
308.92	5.692
309.29	5.523
309.65	3.964
310.02	4.057
310.38	3.789
310.75	4.050
311.12	4.789
311.48	6.274
311.85	5.725
312.22	4.489
312.58	4.179
312.95	4.660
313.31	4.682
313.68	4.128
314.05	5.311
314.41	4.283
314.78	3.883
315.14	5.403
315.51	5.487
315.87	4.197
316.24	4.855
316.61	5.461
316.97	4.404
317.34	5.301
317.70	5.180
318.07	5.605
318.43	5.360
318.80	5.166
319.16	4.808
319.53	4.867
319.89	4.480
320.26	6.797
320.62	5.952
320.99	5.529
321.35	5.288
321.72	6.546
322.08	5.817
322.45	4.814
322.81	6.038
323.18	6.483
323.54	7.491
323.91	6.618
324.27	6.543
324.64	5.017
325.00	6.724
325.37	6.745
325.73	6.408
326.10	6.877
326.46	6.606
326.83	5.760
327.19	6.747
327.56	5.831
327.92	6.885
328.29	7.692
328.65	7.877
329.01	6.245
329.38	7.360
329.74	6.832
330.11	6.777
330.47	8.440
330.84	7.075
331.20	7.360
331.56	7.168
331.93	6.330
332.29	6.207
332.66	8.333
333.02	6.615
333.38	6.195
333.75	7.173
334.11	6.460
334.48	6.667
334.84	6.841
335.20	6.330
335.57	6.717
335.93	6.476
336.29	7.131
336.66	7.204
337.02	5.646
337.38	6.363
337.75	7.770
338.11	6.582
338.47	6.605
338.84	7.451
339.20	7.100
339.56	6.897
339.93	7.692
340.29	6.218
340.65	6.706
341.02	8.206
341.38	6.650
341.74	5.980
342.11	6.678
342.47	6.809
342.83	7.219
343.20	6.306
343.56	5.719
343.92	5.780
344.28	7.496
344.65	6.275
345.01	6.667
345.37	6.090
345.73	5.952
346.10	6.375
346.46	7.257
346.82	5.941
347.19	6.105
347.55	5.699
347.91	5.438
348.27	6.274
348.63	6.646
349.00	5.712
349.36	7.315
349.72	6.498
350.08	6.444
350.45	6.474
350.81	6.804
351.17	6.086
351.53	6.620
351.89	6.449
352.26	5.745
352.62	6.335
352.98	6.288
353.34	6.394
353.70	5.505
354.07	5.462
354.43	6.298
354.79	5.391
355.15	5.207
355.51	6.571
355.87	6.702
356.24	6.082
356.60	6.240
356.96	5.459
357.32	6.556
357.68	6.094
358.04	6.915
358.40	6.147
358.77	7.062
359.13	6.081
359.49	5.930
359.85	6.478
360.21	5.275
360.57	6.204
360.93	6.061
361.29	6.494
361.66	5.742
362.02	5.043
362.38	5.556
362.74	5.449
363.10	6.311
363.46	5.732
363.82	6.662
364.18	6.188
364.54	6.366
364.90	6.426
365.26	5.899
365.62	5.870
365.98	5.437
366.35	5.310
366.71	6.662
367.07	5.188
367.43	6.179
367.79	5.452
368.15	5.292
368.51	6.340
368.87	5.095
369.23	5.752
369.59	6.271
369.95	6.084
370.31	5.339
370.67	5.690
371.03	6.513
371.39	6.163
371.75	5.862
372.11	6.866
372.47	6.096
372.83	5.574
373.19	7.197
373.55	6.117
373.91	4.558
374.27	6.217
374.63	5.559
374.99	5.526
375.35	5.712
375.71	6.398
376.07	5.968
376.42	5.627
376.78	6.101
377.14	6.684
377.50	5.556
377.86	6.022
378.22	6.216
378.58	6.416
378.94	6.337
379.30	6.186
379.66	5.780
380.02	6.334
380.38	4.977
380.74	6.978
381.09	6.016
381.45	6.301
381.81	5.674
382.17	5.983
382.53	5.099
382.89	5.736
383.25	5.447
383.61	6.282
383.97	5.759
384.32	6.209
384.68	6.774
385.04	6.858
385.40	6.406
385.76	5.734
386.12	6.432
386.48	6.201
386.83	5.685
387.19	5.830
387.55	6.537
387.91	6.236
388.27	6.008
388.62	6.221
388.98	6.122
389.34	5.889
389.70	6.486
390.06	6.707
390.42	6.169
390.77	5.528
391.13	5.975
391.49	5.868
391.85	6.338
392.20	6.317
392.56	7.527
392.92	5.783
393.28	5.661
393.64	5.849
393.99	6.402
394.35	6.180
394.71	5.790
395.07	5.900
395.42	6.323
395.78	7.156
396.14	6.325
396.50	6.799
396.85	6.037
397.21	5.475
397.57	6.396
397.92	5.315
398.28	4.909
398.64	6.399
399.00	5.505
399.35	5.797
399.71	5.905
400.07	5.594
400.42	5.552
400.78	6.100
401.14	5.402
401.49	5.415
401.85	6.431
402.21	4.862
402.57	5.925
402.92	5.636
403.28	4.714
403.63	5.945
403.99	6.152
404.35	6.389
404.70	5.789
405.06	5.896
405.42	5.566
405.77	5.237
406.13	5.694
406.49	4.662
406.84	5.640
407.20	5.708
407.55	5.354
407.91	5.616
408.27	5.700
408.62	5.618
408.98	5.500
409.34	5.143
409.69	5.289
410.05	4.949
410.40	5.183
410.76	5.152
411.11	5.924
411.47	6.173
411.83	4.862
412.18	5.314
412.54	5.465
412.89	5.369
413.25	5.929
413.60	5.841
413.96	5.506
414.31	5.018
414.67	5.711
415.03	5.428
415.38	5.741
415.74	5.622
416.09	6.121
416.45	5.559
416.80	6.414
417.16	5.411
417.51	6.115
417.87	4.881
418.22	5.893
418.58	5.541
418.93	5.532
419.29	5.853
419.64	5.451
420.00	6.325
420.35	5.052
420.71	5.484
421.06	5.062
421.42	5.469
421.77	5.275
422.12	5.017
422.48	4.982
422.83	5.413
423.19	5.454
423.54	5.211
423.90	5.323
424.25	5.449
424.61	5.688
424.96	4.969
425.31	5.200
425.67	5.331
426.02	5.272
426.38	5.543
426.73	4.453
427.09	6.109
427.44	4.952
427.79	4.860
428.15	5.834
428.50	6.000
428.85	5.761
429.21	5.240
429.56	5.334
429.92	5.122
430.27	4.886
430.62	4.993
430.98	5.639
431.33	4.738
431.68	4.790
432.04	4.811
432.39	5.159
432.74	5.386
433.10	5.039
433.45	5.342
433.80	6.122
434.16	4.940
434.51	5.212
434.86	5.934
435.22	5.240
435.57	5.809
435.92	5.578
436.28	5.242
436.63	6.159
436.98	5.349
437.34	6.050
437.69	4.927
438.04	5.591
438.39	5.604
438.75	5.791
439.10	5.343
439.45	6.105
439.81	6.073
440.16	5.338
440.51	6.137
440.86	4.957
441.22	5.628
441.57	5.617
441.92	5.331
442.27	5.000
442.63	4.980
442.98	4.634
443.33	5.999
443.68	5.231
444.03	5.090
444.39	5.132
444.74	4.917
445.09	5.793
445.44	5.632
445.79	5.312
446.15	5.158
446.50	4.852
446.85	5.478
447.20	4.975
447.55	4.948
447.91	6.233
448.26	5.964
448.61	5.528
448.96	5.120
449.31	5.501
449.66	5.371
450.02	4.916
450.37	6.385
450.72	5.620
451.07	6.166
451.42	6.106
451.77	5.899
452.12	6.126
452.47	5.711
452.83	5.915
453.18	6.006
453.53	5.743
453.88	5.886
454.23	5.752
454.58	5.478
454.93	5.518
455.28	5.998
455.63	5.437
455.98	5.697
456.34	5.653
456.69	5.610
457.04	5.728
457.39	4.971
457.74	6.419
458.09	4.941
458.44	5.367
458.79	5.146
459.14	5.128
459.49	5.889
459.84	5.109
460.19	6.045
460.54	6.154
460.89	5.704
461.24	5.613
461.59	6.689
461.94	5.674
462.29	5.835
462.64	5.842
462.99	5.758
463.34	6.740
463.69	6.231
464.04	5.527
464.39	6.068
464.74	4.807
465.09	5.514
465.44	5.604
465.79	5.226
466.14	5.617
466.49	5.969
466.84	5.797
467.19	5.858
467.54	5.826
467.89	6.338
468.24	5.269
468.59	5.774
468.94	5.556
469.29	6.597
469.64	6.945
469.99	6.684
470.34	6.325
470.68	6.276
471.03	5.537
471.38	6.225
471.73	6.728
472.08	5.610
472.43	5.773
472.78	5.826
473.13	6.133
473.48	5.990
473.83	6.773
474.17	6.018
474.52	6.220
474.87	5.685
475.22	5.540
475.57	5.561
475.92	5.212
476.27	4.951
476.61	5.362
476.96	5.695
477.31	5.244
477.66	6.119
478.01	5.518
478.36	5.664
478.70	4.665
479.05	5.073
479.40	5.258
479.75	5.412
480.10	5.857
480.45	5.275
480.79	5.346
481.14	5.088
481.49	5.078
481.84	5.057
482.19	5.328
482.53	5.138
482.88	5.780
483.23	5.683
483.58	5.431
483.92	5.667
484.27	5.308
484.62	4.457
484.97	5.454
485.31	4.883
485.66	4.402
486.01	4.501
486.36	4.148
486.70	3.863
487.05	4.041
487.40	4.179
487.75	4.642
488.09	4.631
488.44	5.099
488.79	4.894
489.13	4.778
489.48	5.473
489.83	4.587
490.17	4.913
490.52	5.599
490.87	5.302
491.22	5.230
491.56	5.402
491.91	5.242
492.26	5.434
492.60	5.467
492.95	5.483
493.30	5.323
493.64	5.526
493.99	5.098
494.34	4.841
494.68	5.578
495.03	5.568
495.37	5.538
495.72	5.781
496.07	5.301
496.41	4.822
496.76	5.445
497.11	5.484
497.45	5.305
497.80	5.375
498.14	5.640
498.49	5.385
498.84	5.421
499.18	5.210
499.53	5.099
499.87	5.436
500.22	4.975
500.56	5.292
500.91	5.891
501.26	5.926
501.60	5.328
501.95	4.973
502.29	5.111
502.64	5.337
502.98	5.202
503.33	5.345
503.67	5.695
504.02	5.464
504.36	5.385
504.71	5.203
505.06	5.209
505.40	5.101
505.75	5.192
506.09	5.600
506.44	5.263
506.78	5.813
507.13	5.090
507.47	5.677
507.82	6.180
508.16	6.075
508.51	5.507
508.85	5.508
509.19	5.042
509.54	5.908
509.88	5.669
510.23	5.343
510.57	4.971
510.92	5.794
511.26	5.924
511.61	5.761
511.95	6.073
512.30	5.900
512.64	5.140
512.98	5.894
513.33	6.148
513.67	5.852
514.02	5.039
514.36	5.400
514.70	5.440
515.05	5.754
515.39	5.373
515.74	6.397
516.08	5.174
516.42	6.503
516.77	5.707
517.11	6.187
517.46	6.088
517.80	5.352
518.14	6.535
518.49	5.843
518.83	5.275
519.17	6.156
519.52	5.844
519.86	5.995
520.20	5.918
520.55	6.218
520.89	5.690
521.23	5.900
521.58	5.909
521.92	5.539
522.26	4.917
522.61	5.882
522.95	6.607
523.29	6.140
523.64	5.491
523.98	5.810
524.32	6.517
524.66	5.971
525.01	5.917
525.35	6.128
525.69	6.562
526.04	7.258
526.38	5.827
526.72	6.026
527.06	5.441
527.41	6.106
527.75	6.512
528.09	5.599
528.43	7.383
528.78	6.798
529.12	6.803
529.46	5.728
529.80	6.659
530.15	6.305
530.49	5.957
530.83	6.094
531.17	6.150
531.51	5.886
531.86	5.978
532.20	6.366
532.54	5.524
532.88	5.871
533.22	5.667
533.57	5.674
533.91	5.828
534.25	5.309
534.59	5.906
534.93	5.745
535.27	5.293
535.62	5.193
535.96	6.206
536.30	6.338
536.64	5.155
536.98	5.664
537.32	6.875
537.66	5.867
538.01	6.687
538.35	6.301
538.69	5.643
539.03	5.908
539.37	5.218
539.71	5.802
540.05	6.031
540.39	6.289
540.73	6.329
541.07	5.772
541.42	6.281
541.76	6.104
542.10	5.857
542.44	6.608
542.78	5.790
543.12	6.012
543.46	5.514
543.80	5.952
544.14	6.254
544.48	6.144
544.82	6.544
545.16	5.222
545.50	6.331
545.84	5.934
546.18	6.437
546.52	6.295
546.86	7.092
547.20	5.620
547.54	6.143
547.88	6.326
548.22	5.039
548.56	5.362
548.90	6.109
549.24	6.001
549.58	5.477
549.92	6.418
550.26	5.882
550.60	5.921
550.94	5.902
551.28	6.345
551.62	6.966
551.96	6.081
552.30	5.471
552.64	6.667
552.98	4.961
553.32	5.826
553.66	5.537
554.00	5.727
554.34	6.059
554.68	5.780
555.02	6.178
555.36	6.117
555.69	6.414
556.03	6.497
556.37	6.628
556.71	6.323
557.05	4.784
557.39	5.667
557.73	6.469
558.07	6.573
558.41	6.237
558.75	6.703
559.08	7.148
559.42	6.299
559.76	5.987
560.10	5.850
560.44	6.038
560.78	6.074
561.12	6.039
561.45	6.195
561.79	5.868
562.13	5.496
562.47	5.516
562.81	5.921
563.15	6.076
563.48	5.528
563.82	6.425
564.16	6.343
564.50	5.967
564.84	5.653
565.17	6.061
565.51	5.172
565.85	5.552
566.19	5.179
566.52	4.693
566.86	5.487
567.20	5.730
567.54	4.803
567.88	6.260
568.21	5.392
568.55	5.204
568.89	5.246
569.23	5.047
569.56	5.312
569.90	4.779
570.24	4.668
570.57	4.835
570.91	4.743
571.25	4.567
571.59	4.146
571.92	4.467
572.26	3.989
572.60	4.554
572.93	4.687
573.27	4.164
573.61	4.169
573.95	4.059
574.28	4.072
574.62	4.052
574.96	3.865
575.29	4.347
575.63	4.099
575.97	4.236
576.30	3.898
576.64	4.111
576.98	4.133
577.31	4.345
577.65	4.269
577.98	3.848
578.32	3.717
578.66	4.044
578.99	4.007
579.33	4.014
579.67	4.177
580.00	4.127
580.34	4.068
580.67	3.893
581.01	4.213
581.35	4.274
581.68	3.327
582.02	3.901
582.35	3.798
582.69	3.796
583.02	3.913
583.36	3.944
583.70	4.173
584.03	3.977
584.37	4.467
584.70	3.956
585.04	4.021
585.37	3.990
585.71	4.135
586.04	4.228
586.38	4.214
586.72	4.247
587.05	4.452
587.39	4.172
587.72	3.952
588.06	4.370
588.39	4.043
588.73	4.250
589.06	4.552
589.40	4.664
589.73	4.458
590.07	4.564
590.40	4.774
590.73	5.031
591.07	5.503
591.40	4.790
591.74	4.627
592.07	4.451
592.41	4.476
592.74	4.760
593.08	4.102
593.41	4.099
593.75	4.129
594.08	4.435
594.41	4.431
594.75	4.281
595.08	3.875
595.42	5.003
595.75	4.475
596.09	4.692
596.42	4.880
596.75	5.008
597.09	4.829
597.42	4.367
597.75	4.422
598.09	4.883
598.42	5.059
598.76	4.665
599.09	4.671
599.42	4.844
599.76	4.953
600.09	4.508
600.42	4.662
600.76	4.249
601.09	4.556
601.42	4.611
601.76	4.404
602.09	4.709
602.42	4.547
602.76	4.440
603.09	4.751
603.42	5.064
603.76	4.411
604.09	4.415
604.42	4.294
604.76	4.702
605.09	4.163
605.42	4.998
605.75	4.816
606.09	4.782
606.42	4.096
606.75	4.508
607.09	4.540
607.42	4.339
607.75	4.459
608.08	4.184
608.42	4.908
608.75	4.579
609.08	4.311
609.41	5.136
609.75	5.220
610.08	4.901
610.41	5.138
610.74	5.195
611.07	4.820
611.41	4.819
611.74	4.685
612.07	5.010
612.40	5.117
612.73	5.242
613.07	5.018
613.40	4.511
613.73	4.593
614.06	4.600
614.39	4.899
614.72	4.972
615.06	4.698
615.39	5.149
615.72	4.840
616.05	4.872
616.38	4.921
616.71	5.155
617.05	5.052
617.38	4.663
617.71	5.006
618.04	5.496
618.37	5.392
618.70	4.908
619.03	5.739
619.36	6.030
619.69	5.541
620.03	5.740
620.36	5.395
620.69	6.066
621.02	5.435
621.35	5.229
621.68	6.195
622.01	6.273
622.34	4.953
622.67	6.390
623.00	5.854
623.33	6.073
623.66	5.722
623.99	5.822
624.32	5.556
624.65	5.398
624.99	5.544
625.32	5.010
625.65	4.828
625.98	5.649
626.31	5.193
626.64	5.391
626.97	5.738
627.30	5.590
627.63	5.730
627.96	5.243
628.29	5.776
628.62	5.988
628.95	6.915
629.28	7.362
629.61	5.272
629.94	6.137
630.26	6.412
630.59	6.738
630.92	5.740
631.25	6.709
631.58	6.654
631.91	6.185
632.24	5.831
632.57	5.599
632.90	7.246
633.23	7.765
633.56	6.955
633.89	6.967
634.22	7.643
634.55	6.237
634.88	8.324
635.20	8.072
635.53	6.504
635.86	7.718
636.19	6.734
636.52	6.162
636.85	6.365
637.18	8.017
637.51	7.151
637.83	6.064
638.16	7.503
638.49	8.263
638.82	7.864
639.15	5.758
639.48	7.346
639.81	7.937
640.13	7.853
640.46	7.080
640.79	6.892
641.12	6.693
641.45	7.762
641.77	7.530
642.10	7.764
642.43	8.250
642.76	6.818
643.09	8.357
643.41	7.994
643.74	7.914
644.07	7.817
644.40	7.692
644.73	8.559
645.05	9.510
645.38	7.044
645.71	8.194
646.04	7.786
646.36	9.233
646.69	8.000
647.02	9.120
647.35	7.559
647.67	7.293
648.00	10.423
648.33	8.571
648.66	7.879
648.98	6.667
649.31	7.422
649.64	7.469
649.96	6.970
650.29	5.714
650.62	8.689
650.94	9.940
651.27	9.888
651.60	10.329
651.92	9.677
652.25	8.031
652.58	8.652
652.90	7.485
653.23	9.010
653.56	7.122
653.88	7.930
654.21	8.358
654.54	8.931
654.86	8.850
655.19	8.443
655.52	5.537
655.84	3.088
656.17	3.013
656.49	4.260
656.82	4.778
657.15	3.970
657.47	3.173
657.80	2.292
658.13	1.959
658.45	2.740
658.78	3.385
659.10	3.499
659.43	3.755
659.75	4.382
660.08	5.388
660.41	6.806
660.73	8.030
661.06	8.408
661.38	7.496
661.71	9.173
662.03	9.125
662.36	8.000
662.68	10.056
663.01	9.550
663.33	9.057
663.66	9.665
663.98	8.532
664.31	10.448
664.63	9.004
664.96	11.445
665.28	10.169
665.61	7.358
665.93	10.943
666.26	10.654
666.58	13.028
666.91	10.811
667.23	8.233
667.56	10.267
667.88	10.788
668.21	11.270
668.53	8.468
668.86	10.220
669.18	9.980
669.50	10.537
669.83	12.115
670.15	10.395
670.48	8.789
670.80	10.956
671.13	8.566
671.45	11.423
671.77	10.946
672.10	9.336
672.42	7.566
672.75	8.386
673.07	9.698
673.39	7.668
673.72	8.304
674.04	9.498
674.37	8.167
674.69	10.223
675.01	7.836
675.34	9.690
675.66	11.914
675.98	9.467
676.31	8.000
676.63	8.946
676.95	11.508
677.28	10.751
677.60	9.658
677.92	9.722
678.25	8.915
678.57	9.497
678.89	10.127
679.22	8.824
679.54	9.253
679.86	9.250
680.18	7.909
680.51	6.799
680.83	7.432
681.15	9.879
681.48	10.764
681.80	8.932
682.12	9.862
682.44	5.946
682.77	7.829
683.09	9.126
683.41	9.184
683.73	10.236
684.06	9.524
684.38	9.690
684.70	8.813
685.02	7.465
685.34	10.387
685.67	9.003
685.99	8.703
686.31	8.783
686.63	7.805
686.96	8.660
687.28	7.550
687.60	8.020
687.92	8.375
688.24	10.690
688.56	9.786
688.89	6.119
689.21	10.790
689.53	13.043
689.85	8.333
690.17	8.932
690.49	9.677
690.82	9.664
691.14	8.687
691.46	11.088
691.78	10.331
692.10	8.015
692.42	8.530
692.74	9.884
693.06	10.078
693.39	9.486
693.71	8.841
694.03	11.637
694.35	12.249
694.67	9.776
694.99	9.978
695.31	11.486
695.63	9.955
695.95	11.991
696.27	11.947
696.59	13.126
696.91	10.380
697.23	11.312
697.56	8.299
697.88	5.589
698.20	8.113
698.52	7.977
698.84	9.651
699.16	11.087
699.48	13.136
699.80	12.200
700.12	14.550
700.44	11.215
700.76	8.115
701.08	12.010
701.40	11.169
701.72	14.706
702.04	11.382
702.36	11.828
702.68	10.638
703.00	10.526
703.32	12.159
703.64	12.594
703.96	11.198
704.28	15.079
704.60	11.268
704.91	11.204
705.23	13.352
705.55	12.463
705.87	12.381
706.19	14.734
706.51	16.301
706.83	10.914
707.15	13.904
707.47	11.864
707.79	10.345
708.11	9.524
708.43	13.258
708.74	8.597
709.06	13.023
709.38	11.911
709.70	8.447
710.02	10.054
710.34	12.155
710.66	15.833
710.98	13.388
711.29	11.699
711.61	13.370
711.93	10.638
712.25	12.048
712.57	12.540
712.89	17.273
713.20	10.543
713.52	11.215
713.84	12.689
714.16	10.435
714.48	7.781
714.80	10.298
715.11	13.298
715.43	10.615
715.75	12.676
716.07	12.139
716.39	12.571
716.70	12.461
717.02	14.141
717.34	14.748
717.66	17.708
717.97	18.939
718.29	15.493
718.61	10.811
718.93	13.495
719.24	15.772
719.56	10.345
719.88	8.280
720.20	13.548
720.51	12.092
720.83	14.716
721.15	17.007
721.46	15.753
721.78	20.557
722.10	15.972
722.42	17.726
722.73	9.747
723.05	18.596
723.37	15.194
723.68	12.891
724.00	17.803
724.32	12.928
724.63	14.615
724.95	13.333
725.27	13.383
725.58	14.706
725.90	9.155
726.22	14.384
726.53	10.368
726.85	13.681
727.16	16.779
727.48	15.282
727.80	15.468
728.11	15.000
728.43	12.319
728.74	16.783
729.06	10.753
729.38	17.895
729.69	15.333
730.01	16.118
730.32	14.094
730.64	13.289
730.96	12.613
731.27	8.563
731.59	11.782
731.90	12.256
732.22	14.000
732.53	11.966
732.85	16.667
733.16	13.253
733.48	12.853
733.80	13.913
734.11	16.871
734.43	9.064
734.74	8.579
735.06	14.550
735.37	12.629
735.69	11.594
736.00	12.232
736.32	10.909
736.63	10.726
736.95	13.043
737.26	14.329
737.58	12.270
737.89	13.855
738.21	13.576
738.52	13.043
738.83	15.751
739.15	21.951
739.46	13.448
739.78	11.224
740.09	14.286
740.41	12.883
740.72	17.778
741.04	15.385
741.35	16.016
741.66	17.391
741.98	18.884
742.29	22.222
742.61	13.274
742.92	18.220
743.23	14.400
743.55	12.830
743.86	16.078
744.18	13.983
744.49	23.140
744.80	17.512
745.12	21.429
745.43	15.888
745.74	19.556
746.06	19.737
746.37	17.674
746.68	19.912
747.00	18.386
747.31	20.588
747.62	15.164
747.94	14.592
748.25	10.506
748.56	17.797
748.88	18.304
749.19	20.000
749.50	15.068
749.82	17.695
750.13	19.763
750.44	14.667
750.75	15.436
751.07	13.816
751.38	12.541
751.69	12.458
752.01	15.734
752.32	14.950
752.63	14.765
752.94	15.385
753.26	12.109
753.57	15.953
753.88	12.360
754.19	11.913
754.51	12.957
754.82	14.430
755.13	12.500
755.44	15.556
755.75	15.808
756.07	13.699
756.38	12.745
756.69	12.813
757.00	13.947
757.31	14.085
757.63	11.570
757.94	11.702
758.25	10.628
758.56	12.128
758.87	12.782
759.18	14.244
759.50	12.766
759.81	15.727
760.12	15.449
760.43	10.644
760.74	11.899
761.05	9.549
761.36	11.719
761.67	13.747
761.99	12.676
762.30	14.148
762.61	15.972
762.92	17.045
763.23	18.868
763.54	18.846
763.85	10.506
764.16	18.403
764.47	14.189
764.78	13.355
765.10	12.195
765.41	8.807
765.72	11.878
766.03	12.689
766.34	10.453
766.65	12.548
766.96	16.599
767.27	18.692
767.58	23.267
767.89	22.652
768.20	25.610
768.51	20.408
768.82	17.982
769.13	18.431
769.44	15.038
769.75	16.479
770.06	13.866
770.37	15.789
770.68	18.222
770.99	21.610
771.30	21.339
771.61	19.615
771.92	16.794
772.23	14.113
772.54	20.889
772.85	19.802
773.16	26.087
773.47	21.111
773.78	27.723
774.09	18.750
774.39	21.818
774.70	17.059
775.01	18.421
775.32	24.224
775.63	30.137
775.94	33.333
776.25	25.517
776.56	23.664
776.87	27.481
777.18	21.970
777.48	41.732
777.79	30.769
778.10	29.545
778.41	32.836
778.72	28.571
779.03	24.359
779.34	27.027
779.65	24.224
779.95	20.497
780.26	26.786
780.57	29.932
780.88	26.241
781.19	31.667
781.50	26.036
781.80	27.322
782.11	16.402
782.42	18.966
782.73	25.424
783.04	23.226
783.34	23.256
783.65	23.810
783.96	20.645
784.27	25.828
784.57	21.711
784.88	26.812
785.19	26.667
785.50	35.345
785.81	31.783
786.11	30.370
786.42	35.433
786.73	32.432
787.04	33.962
787.34	18.699
787.65	32.576
787.96	41.667
788.26	25.984
788.57	35.766
788.88	29.577
789.19	32.061
789.49	25.676
789.80	28.906
790.11	31.405
790.41	35.185
790.72	33.333
791.03	26.923
791.33	32.323
791.64	28.421
791.95	38.947
792.25	32.292
792.56	30.000
792.87	35.366
793.17	43.182
793.48	43.529
793.79	36.782
794.09	37.500
794.40	42.241
794.70	33.333
795.01	21.538
795.32	25.191
795.62	23.932
795.93	31.092
796.23	39.837
796.54	38.776
796.85	43.182
797.15	44.156
797.46	53.659
797.76	40.000
798.07	37.333
798.37	50.000
798.68	47.500
798.99	45.122
799.29	36.000
799.60	33.721
799.90	43.421
800.21	45.455
800.51	39.437
800.82	58.621
801.12	55.385
801.43	66.667
801.73	50.000
802.04	55.844
802.34	46.575
802.65	66.667
802.95	67.391
803.26	74.194
803.56	73.333
803.87	56.716
804.17	66.667
804.48	56.604
804.78	56.944
805.09	75.758
805.39	53.968
805.70	57.895
806.00	42.857
806.30	48.438
806.61	41.176
806.91	51.111
807.22	46.739
807.52	28.947
807.83	50.000
808.13	43.478
808.43	59.677
808.74	46.575
809.04	55.357
809.35	44.118
809.65	63.636
809.95	76.471
810.26	87.037
810.56	67.187
810.86	48.980
811.17	59.649
811.47	73.913
811.77	53.448
812.08	51.724
812.38	69.048
812.69	95.238
812.99	71.111
813.29	80.000
813.59	103.226
813.90	60.345
814.20	68.852
814.50	64.000
814.81	40.351
815.11	72.222
815.41	64.286
815.72	80.357
816.02	96.000
816.32	70.732
816.62	82.759
816.93	93.939
817.23	97.561
817.53	80.357
817.84	95.556
818.14	95.238
818.44	81.250
818.74	83.019
819.04	76.923
819.35	96.970
819.65	82.692
819.95	85.185
820.25	89.362
820.56	72.973
820.86	89.474
821.16	48.936
821.46	78.947
821.76	80.000
822.07	59.524
822.37	94.737
822.67	81.395
822.97	68.421
823.27	86.957
823.57	84.375
823.88	110.256
824.18	90.909
824.48	108.696
824.78	111.111
825.08	143.478
825.38	120.690
825.69	126.471
825.99	78.723
826.29	91.667
826.59	108.571
826.89	106.667
827.19	82.857
827.49	93.548
827.79	146.154
828.09	88.095
828.39	97.222
828.70	105.405
829.00	114.286
829.30	193.750
829.60	97.222
829.90	100.000
830.20	127.273
830.50	127.027
830.80	204.167
831.10	157.692
831.40	138.095
831.70	162.500
832.00	106.667
832.30	169.565
832.60	137.500
832.90	133.333
833.20	145.000
833.50	89.474
833.80	129.412
834.10	118.421
834.40	147.368
834.70	83.333
835.00	144.000
835.30	86.486
835.60	137.500
835.90	113.514
836.20	142.308
836.50	181.818
836.80	92.683
837.10	156.522
837.40	376.923
837.70	126.316
838.00	123.333
838.30	170.833
838.60	132.000
838.90	270.000
839.19	162.500
839.49	156.667
839.79	106.897
840.09	157.692
840.39	206.667
840.69	210.526
840.99	128.571
841.29	173.913
841.59	170.000
841.88	192.000
842.18	255.556
842.48	167.857
842.78	155.556
843.08	200.000
843.38	181.818
843.68	178.571
843.97	542.857
844.27	147.826
844.57	1050.000
844.87	264.286
845.17	233.333
845.47	128.571
845.76	166.667
846.06	471.429
846.36	194.118
846.66	323.077
846.96	250.000
847.25	223.077
847.55	157.895
847.85	216.667
848.15	580.000
848.44	254.545
848.74	152.381
849.04	166.667
849.34	188.235
849.63	268.750
849.93	293.750
850.23	1033.333
850.53	500.000
850.82	272.727
851.12	188.235
851.42	179.167
851.71	212.500
852.01	0.000
852.31	223.529
852.61	400.000
852.90	158.333
853.20	333.333
853.50	-1900.000
853.79	156.000
854.09	150.000
854.39	144.828
854.68	131.034
854.98	204.762
855.28	148.387
855.57	271.429
855.87	177.778
856.17	107.407
856.46	194.737
856.76	103.226
857.05	241.176
857.35	272.727
857.65	230.769
857.94	165.000
858.24	355.556
858.53	235.714
858.83	614.286
859.13	200.000
859.42	277.778
859.72	350.000
860.01	250.000
860.31	1025.000
860.60	450.000
860.90	412.500
861.20	230.769
861.49	571.429
861.79	-3700.000
862.08	471.429
862.38	377.778
862.67	185.714
862.97	390.000
863.26	170.000
863.56	600.000
863.85	284.615
864.15	282.353
864.44	161.111
864.74	291.667
865.03	281.818
865.33	362.500
865.62	193.333
865.92	483.333
866.21	975.000
866.51	540.000
866.80	227.778
867.10	933.333
867.39	3500.000
867.69	560.000
867.98	1125.000
868.27	223.810
868.57	266.667
868.86	875.000
869.16	161.905
869.45	3100.000
869.75	-383.333
870.04	600.000
870.33	760.000
870.63	400.000
870.92	188.235
871.22	750.000
871.51	471.429
871.80	300.000
872.10	253.846
>>>>>End Processed Spectral Data<<<<<
