SpectraSuite Data File
++++++++++++++++++++++++++++++++++++
Date: Tue May 12 16:25:58 PDT 2015
User: schluterlab
Dark Spectrum Present: Yes
Reference Spectrum Present: Yes
Number of Sampled Component Spectra: 1
Spectrometers: USB2E3373
Integration Time (usec): 3000 (USB2E3373)
Spectra Averaged: 3 (USB2E3373)
Boxcar Smoothing: 0 (USB2E3373)
Correct for Electrical Dark: No (USB2E3373)
Strobe/Lamp Enabled: No (USB2E3373)
Correct for Detector Non-linearity: No (USB2E3373)
Correct for Stray Light: No (USB2E3373)
Number of Pixels in Processed Spectrum: 2048
>>>>>Begin Processed Spectral Data<<<<<
178.53	0.000
178.91	-133.333
179.29	-375.000
179.67	-3100.000
180.04	-80.000
180.42	750.000
180.80	1600.000
181.18	0.000
181.56	-325.000
181.94	0.000
182.31	1100.000
182.69	-3500.000
183.07	671.429
183.45	-4600.000
183.83	-1500.000
184.20	390.000
184.58	528.571
184.96	-230.769
185.34	-216.667
185.72	1400.000
186.09	-750.000
186.47	-2600.000
186.85	900.000
187.23	520.000
187.61	1650.000
187.98	512.500
188.36	250.000
188.74	291.667
189.12	291.667
189.49	875.000
189.87	0.000
190.25	337.500
190.63	2600.000
191.00	-266.667
191.38	-4000.000
191.76	-750.000
192.14	525.000
192.51	-2800.000
192.89	1600.000
193.27	933.333
193.65	-1033.333
194.02	-740.000
194.40	457.143
194.78	-171.429
195.15	233.333
195.53	-3400.000
195.91	-640.000
196.29	3700.000
196.66	262.500
197.04	900.000
197.42	-1750.000
197.79	400.000
198.17	366.667
198.55	0.000
198.92	400.000
199.30	966.667
199.68	1800.000
200.05	716.667
200.43	-450.000
200.81	211.111
201.18	3100.000
201.56	325.000
201.94	-700.000
202.31	-312.500
202.69	-460.000
203.07	2400.000
203.44	-450.000
203.82	366.667
204.19	620.000
204.57	-1200.000
204.95	-825.000
205.32	-780.000
205.70	466.667
206.08	775.000
206.45	-833.333
206.83	322.222
207.20	205.263
207.58	225.000
207.96	580.000
208.33	0.000
208.71	500.000
209.08	660.000
209.46	-2800.000
209.84	-725.000
210.21	920.000
210.59	-580.000
210.96	316.667
211.34	-900.000
211.71	381.818
212.09	1025.000
212.46	1800.000
212.84	-450.000
213.22	400.000
213.59	-3500.000
213.97	360.000
214.34	875.000
214.72	1000.000
215.09	966.667
215.47	-3200.000
215.84	-300.000
216.22	-387.500
216.59	0.000
216.97	0.000
217.34	1600.000
217.72	-1550.000
218.09	1300.000
218.47	450.000
218.84	775.000
219.22	733.333
219.59	766.667
219.97	328.571
220.34	455.556
220.72	1300.000
221.09	3100.000
221.47	258.333
221.84	900.000
222.22	360.000
222.59	227.778
222.97	235.714
223.34	231.250
223.72	-1250.000
224.09	1733.333
224.46	323.077
224.84	-775.000
225.21	344.444
225.59	273.333
225.96	1233.333
226.34	-620.000
226.71	-825.000
227.08	-780.000
227.46	0.000
227.83	-400.000
228.21	-2200.000
228.58	333.333
228.95	975.000
229.33	422.222
229.70	900.000
230.08	246.154
230.45	3300.000
230.82	-750.000
231.20	-633.333
231.57	-933.333
231.95	460.000
232.32	200.000
232.69	500.000
233.07	233.333
233.44	-1200.000
233.81	286.667
234.19	151.852
234.56	131.250
234.93	152.941
235.31	170.000
235.68	212.500
236.05	153.571
236.43	162.963
236.80	257.143
237.17	131.034
237.55	115.625
237.92	95.000
238.29	90.909
238.67	131.250
239.04	65.854
239.41	45.833
239.79	57.500
240.16	66.667
240.53	57.377
240.91	55.072
241.28	67.797
241.65	51.515
242.02	66.197
242.40	48.571
242.77	40.659
243.14	26.582
243.51	52.525
243.89	31.776
244.26	31.776
244.63	31.683
245.00	33.945
245.38	24.576
245.75	39.394
246.12	33.333
246.49	26.241
246.87	28.689
247.24	30.000
247.61	31.250
247.98	28.571
248.36	18.788
248.73	23.469
249.10	18.452
249.47	25.000
249.84	22.886
250.22	24.865
250.59	22.500
250.96	21.097
251.33	18.605
251.70	19.196
252.08	21.008
252.45	19.920
252.82	15.589
253.19	18.182
253.56	13.077
253.94	19.203
254.31	16.279
254.68	12.892
255.05	17.931
255.42	15.328
255.79	15.309
256.16	14.576
256.54	16.883
256.91	16.340
257.28	14.716
257.65	13.793
258.02	14.749
258.39	15.473
258.76	15.362
259.14	11.143
259.51	17.201
259.88	13.982
260.25	9.615
260.62	13.425
260.99	10.468
261.36	13.092
261.73	11.702
262.10	17.539
262.47	11.000
262.85	12.000
263.22	14.396
263.59	12.788
263.96	14.536
264.33	12.099
264.70	11.302
265.07	12.195
265.44	11.468
265.81	13.679
266.18	11.442
266.55	10.165
266.92	10.738
267.29	10.746
267.66	10.762
268.03	10.987
268.40	9.514
268.77	9.912
269.14	9.328
269.51	10.468
269.88	11.429
270.25	9.719
270.62	9.871
270.99	12.170
271.36	11.585
271.73	9.434
272.10	10.707
272.47	9.921
272.84	8.982
273.21	10.950
273.58	11.538
273.95	9.856
274.32	13.035
274.69	12.598
275.06	13.115
275.43	11.686
275.80	9.811
276.17	11.213
276.54	11.776
276.91	12.873
277.28	11.496
277.65	10.886
278.02	9.743
278.39	9.353
278.76	10.517
279.13	9.609
279.50	9.636
279.87	7.821
280.23	9.024
280.60	8.942
280.97	8.793
281.34	9.241
281.71	9.391
282.08	11.453
282.45	9.966
282.82	10.870
283.19	11.129
283.56	9.752
283.92	10.261
284.29	9.318
284.66	10.924
285.03	10.116
285.40	8.760
285.77	8.642
286.14	10.526
286.51	9.049
286.87	8.070
287.24	8.408
287.61	8.967
287.98	10.746
288.35	8.148
288.72	8.498
289.08	9.459
289.45	9.299
289.82	10.469
290.19	8.931
290.56	9.316
290.93	9.353
291.29	8.978
291.66	7.910
292.03	8.555
292.40	9.214
292.77	9.471
293.13	10.556
293.50	8.097
293.87	7.182
294.24	9.510
294.60	8.883
294.97	9.650
295.34	9.827
295.71	10.250
296.08	10.533
296.44	9.784
296.81	8.685
297.18	9.125
297.55	10.714
297.91	8.005
298.28	9.783
298.65	8.957
299.02	9.891
299.38	9.233
299.75	9.756
300.12	11.468
300.48	10.890
300.85	10.846
301.22	11.628
301.59	9.552
301.95	10.502
302.32	9.895
302.69	10.407
303.05	10.550
303.42	10.987
303.79	10.726
304.15	10.231
304.52	11.416
304.89	13.113
305.25	11.568
305.62	12.793
305.99	11.957
306.35	11.789
306.72	13.632
307.09	11.801
307.45	12.672
307.82	11.420
308.19	12.887
308.55	12.500
308.92	13.739
309.29	14.201
309.65	15.461
310.02	14.909
310.38	13.958
310.75	15.043
311.12	14.943
311.48	17.375
311.85	16.221
312.22	17.479
312.58	15.841
312.95	17.961
313.31	18.539
313.68	17.824
314.05	19.322
314.41	18.808
314.78	19.413
315.14	19.621
315.51	19.678
315.87	20.529
316.24	20.822
316.61	21.755
316.97	21.376
317.34	22.552
317.70	23.090
318.07	23.932
318.43	24.341
318.80	24.781
319.16	24.825
319.53	24.690
319.89	25.448
320.26	28.585
320.62	28.755
320.99	28.789
321.35	29.035
321.72	32.068
322.08	31.856
322.45	32.425
322.81	32.388
323.18	33.925
323.54	34.495
323.91	36.446
324.27	36.782
324.64	36.678
325.00	40.172
325.37	38.954
325.73	38.786
326.10	41.425
326.46	42.857
326.83	42.640
327.19	43.775
327.56	43.770
327.92	46.148
328.29	46.072
328.65	48.202
329.01	48.674
329.38	47.039
329.74	48.079
330.11	48.914
330.47	50.639
330.84	48.663
331.20	49.492
331.56	51.209
331.93	51.668
332.29	50.765
332.66	51.786
333.02	51.375
333.38	52.269
333.75	52.877
334.11	53.104
334.48	54.359
334.84	51.351
335.20	53.550
335.57	51.553
335.93	53.322
336.29	51.658
336.66	54.631
337.02	52.524
337.38	53.568
337.75	53.632
338.11	55.274
338.47	53.260
338.84	53.091
339.20	54.286
339.56	54.668
339.93	53.344
340.29	53.613
340.65	54.484
341.02	54.224
341.38	55.419
341.74	55.316
342.11	54.007
342.47	53.404
342.83	55.373
343.20	54.002
343.56	53.693
343.92	56.400
344.28	53.668
344.65	55.012
345.01	56.032
345.37	54.327
345.73	53.968
346.10	55.697
346.46	55.742
346.82	54.475
347.19	56.028
347.55	56.284
347.91	55.514
348.27	54.919
348.63	54.905
349.00	55.217
349.36	56.420
349.72	55.275
350.08	56.211
350.45	56.816
350.81	55.199
351.17	55.855
351.53	55.504
351.89	56.876
352.26	56.160
352.62	57.768
352.98	56.442
353.34	57.319
353.70	56.881
354.07	56.385
354.43	57.296
354.79	56.416
355.15	58.652
355.51	57.931
355.87	57.154
356.24	57.814
356.60	57.839
356.96	58.302
357.32	57.423
357.68	58.150
358.04	58.283
358.40	57.646
358.77	58.377
359.13	58.559
359.49	57.746
359.85	57.781
360.21	57.801
360.57	57.883
360.93	59.452
361.29	59.235
361.66	60.030
362.02	57.670
362.38	58.009
362.74	59.306
363.10	58.766
363.46	57.251
363.82	60.449
364.18	59.673
364.54	60.658
364.90	59.572
365.26	60.375
365.62	59.599
365.98	60.427
366.35	59.586
366.71	59.820
367.07	59.795
367.43	59.033
367.79	60.106
368.15	59.769
368.51	61.613
368.87	59.783
369.23	59.321
369.59	59.676
369.95	60.280
370.31	59.959
370.67	60.236
371.03	60.504
371.39	62.465
371.75	60.991
372.11	60.027
372.47	61.164
372.83	62.135
373.19	61.206
373.55	61.581
373.91	60.843
374.27	60.582
374.63	60.407
374.99	61.388
375.35	61.761
375.71	61.346
376.07	61.273
376.42	60.486
376.78	61.593
377.14	61.206
377.50	62.609
377.86	61.883
378.22	62.279
378.58	61.864
378.94	63.005
379.30	61.977
379.66	62.914
380.02	61.994
380.38	62.002
380.74	62.514
381.09	61.916
381.45	60.867
381.81	62.057
382.17	62.454
382.53	61.548
382.89	62.389
383.25	61.516
383.61	61.499
383.97	61.308
384.32	63.231
384.68	62.448
385.04	62.778
385.40	61.744
385.76	61.030
386.12	61.472
386.48	63.951
386.83	62.897
387.19	61.779
387.55	62.426
387.91	63.453
388.27	62.344
388.62	60.446
388.98	60.816
389.34	61.392
389.70	61.733
390.06	62.439
390.42	61.937
390.77	61.732
391.13	64.152
391.49	62.553
391.85	62.892
392.20	62.872
392.56	62.485
392.92	62.886
393.28	62.332
393.64	61.239
393.99	62.359
394.35	61.624
394.71	61.218
395.07	60.827
395.42	61.183
395.78	63.726
396.14	62.892
396.50	61.613
396.85	62.256
397.21	62.274
397.57	61.506
397.92	60.601
398.28	62.659
398.64	61.955
399.00	60.449
399.35	59.850
399.71	60.486
400.07	60.046
400.42	61.851
400.78	61.818
401.14	62.126
401.49	61.694
401.85	60.776
402.21	61.570
402.57	61.400
402.92	61.333
403.28	60.919
403.63	60.094
403.99	61.098
404.35	61.430
404.70	61.607
405.06	59.910
405.42	60.263
405.77	60.915
406.13	59.273
406.49	60.432
406.84	60.406
407.20	60.845
407.55	60.492
407.91	60.689
408.27	60.036
408.62	60.497
408.98	60.852
409.34	59.147
409.69	60.112
410.05	60.346
410.40	58.834
410.76	59.302
411.11	59.301
411.47	59.444
411.83	57.996
412.18	59.300
412.54	58.919
412.89	59.115
413.25	59.464
413.60	59.171
413.96	59.066
414.31	59.150
414.67	60.025
415.03	59.898
415.38	60.126
415.74	60.013
416.09	59.775
416.45	60.440
416.80	61.257
417.16	59.516
417.51	59.809
417.87	59.512
418.22	59.174
418.58	60.510
418.93	58.061
419.29	58.780
419.64	57.904
420.00	60.203
420.35	59.756
420.71	58.985
421.06	58.034
421.42	58.434
421.77	58.468
422.12	59.813
422.48	57.781
422.83	58.761
423.19	58.153
423.54	58.475
423.90	59.400
424.25	58.393
424.61	59.431
424.96	58.724
425.31	60.153
425.67	59.371
426.02	58.160
426.38	59.043
426.73	59.746
427.09	60.261
427.44	59.201
427.79	58.548
428.15	59.753
428.50	59.486
428.85	60.024
429.21	58.293
429.56	58.574
429.92	60.269
430.27	57.668
430.62	58.052
430.98	59.631
431.33	59.123
431.68	57.333
432.04	58.769
432.39	60.044
432.74	60.070
433.10	60.742
433.45	60.310
433.80	61.059
434.16	59.012
434.51	60.165
434.86	59.445
435.22	59.860
435.57	60.285
435.92	60.159
436.28	60.484
436.63	59.049
436.98	60.867
437.34	59.817
437.69	58.567
438.04	60.323
438.39	59.194
438.75	59.076
439.10	59.903
439.45	59.977
439.81	60.035
440.16	60.374
440.51	59.122
440.86	61.197
441.22	59.361
441.57	59.633
441.92	59.872
442.27	59.381
442.63	59.197
442.98	59.267
443.33	60.793
443.68	60.664
444.03	59.425
444.39	59.416
444.74	60.714
445.09	60.506
445.44	59.936
445.79	60.575
446.15	61.053
446.50	60.443
446.85	60.159
447.20	59.652
447.55	60.685
447.91	61.055
448.26	60.011
448.61	61.636
448.96	61.601
449.31	61.001
449.66	61.739
450.02	60.292
450.37	60.078
450.72	61.763
451.07	60.849
451.42	60.877
451.77	62.543
452.12	60.238
452.47	61.543
452.83	61.521
453.18	61.261
453.53	62.108
453.88	62.629
454.23	61.302
454.58	62.646
454.93	61.067
455.28	61.077
455.63	61.998
455.98	60.914
456.34	63.343
456.69	61.159
457.04	61.635
457.39	62.800
457.74	62.669
458.09	60.079
458.44	60.898
458.79	60.743
459.14	61.102
459.49	61.099
459.84	61.957
460.19	61.751
460.54	61.937
460.89	61.834
461.24	60.825
461.59	61.621
461.94	60.993
462.29	61.728
462.64	63.442
462.99	62.124
463.34	62.216
463.69	61.766
464.04	61.831
464.39	60.675
464.74	60.610
465.09	61.056
465.44	61.153
465.79	60.207
466.14	59.883
466.49	61.042
466.84	61.037
467.19	60.691
467.54	60.120
467.89	60.681
468.24	62.305
468.59	61.905
468.94	61.353
469.29	61.576
469.64	61.286
469.99	62.404
470.34	61.986
470.68	62.690
471.03	63.376
471.38	62.649
471.73	61.594
472.08	62.948
472.43	63.439
472.78	63.188
473.13	62.015
473.48	61.369
473.83	61.955
474.17	63.708
474.52	61.789
474.87	61.512
475.22	62.136
475.57	61.385
475.92	62.289
476.27	61.861
476.61	61.394
476.96	61.651
477.31	61.799
477.66	62.426
478.01	61.269
478.36	61.740
478.70	60.347
479.05	62.709
479.40	60.962
479.75	63.009
480.10	61.617
480.45	61.438
480.79	61.382
481.14	61.103
481.49	60.933
481.84	60.730
482.19	62.271
482.53	61.572
482.88	60.618
483.23	61.209
483.58	61.849
483.92	63.071
484.27	61.130
484.62	61.545
484.97	60.538
485.31	59.609
485.66	58.303
486.01	56.845
486.36	56.082
486.70	56.239
487.05	57.259
487.40	57.265
487.75	59.129
488.09	58.750
488.44	58.827
488.79	60.326
489.13	60.433
489.48	61.326
489.83	60.676
490.17	61.230
490.52	61.456
490.87	61.638
491.22	62.145
491.56	62.495
491.91	61.962
492.26	61.292
492.60	62.597
492.95	61.305
493.30	61.328
493.64	62.309
493.99	61.538
494.34	61.900
494.68	62.196
495.03	61.652
495.37	62.719
495.72	62.937
496.07	62.489
496.41	61.425
496.76	61.545
497.11	61.997
497.45	60.456
497.80	63.438
498.14	61.258
498.49	62.396
498.84	62.430
499.18	60.786
499.53	62.150
499.87	60.916
500.22	61.907
500.56	61.606
500.91	63.080
501.26	61.461
501.60	62.523
501.95	61.783
502.29	61.511
502.64	60.609
502.98	61.272
503.33	61.826
503.67	61.501
504.02	61.129
504.36	61.765
504.71	63.765
505.06	61.567
505.40	62.237
505.75	61.693
506.09	62.156
506.44	61.983
506.78	62.854
507.13	62.579
507.47	61.766
507.82	61.898
508.16	62.567
508.51	63.285
508.85	60.874
509.19	62.800
509.54	62.256
509.88	62.357
510.23	62.108
510.57	60.666
510.92	62.737
511.26	63.655
511.61	62.038
511.95	61.623
512.30	62.200
512.64	63.188
512.98	62.942
513.33	62.602
513.67	62.351
514.02	63.065
514.36	63.811
514.70	63.200
515.05	63.879
515.39	63.596
515.74	64.461
516.08	62.963
516.42	63.333
516.77	63.893
517.11	62.347
517.46	62.931
517.80	63.135
518.14	64.620
518.49	62.624
518.83	62.253
519.17	63.505
519.52	64.773
519.86	63.161
520.20	64.438
520.55	64.104
520.89	63.276
521.23	65.362
521.58	64.314
521.92	64.490
522.26	64.514
522.61	65.597
522.95	64.865
523.29	63.743
523.64	62.659
523.98	65.141
524.32	63.437
524.66	64.058
525.01	64.201
525.35	64.761
525.69	64.479
526.04	64.366
526.38	64.273
526.72	63.544
527.06	62.685
527.41	63.724
527.75	65.064
528.09	63.095
528.43	64.979
528.78	63.327
529.12	65.081
529.46	62.537
529.80	62.033
530.15	63.052
530.49	63.478
530.83	62.828
531.17	62.854
531.51	62.661
531.86	60.990
532.20	63.659
532.54	63.277
532.88	64.022
533.22	63.742
533.57	63.514
533.91	61.888
534.25	61.685
534.59	62.398
534.93	60.694
535.27	59.989
535.62	62.077
535.96	61.229
536.30	62.096
536.64	62.547
536.98	62.807
537.32	62.125
537.66	63.265
538.01	62.415
538.35	62.508
538.69	61.833
539.03	61.629
539.37	60.680
539.71	62.407
540.05	61.046
540.39	62.390
540.73	62.215
541.07	61.104
541.42	61.567
541.76	60.173
542.10	60.604
542.44	62.781
542.78	60.352
543.12	62.086
543.46	60.652
543.80	62.281
544.14	61.115
544.48	61.618
544.82	60.550
545.16	60.474
545.50	61.955
545.84	60.354
546.18	63.979
546.52	62.361
546.86	61.380
547.20	61.757
547.54	60.671
547.88	60.036
548.22	60.413
548.56	58.810
548.90	59.549
549.24	61.402
549.58	60.374
549.92	60.642
550.26	62.272
550.60	61.078
550.94	61.940
551.28	61.379
551.62	63.655
551.96	62.162
552.30	61.371
552.64	61.165
552.98	60.374
553.32	59.155
553.66	61.173
554.00	60.360
554.34	61.119
554.68	61.626
555.02	61.779
555.36	59.707
555.69	60.471
556.03	60.255
556.37	60.102
556.71	59.844
557.05	59.633
557.39	59.267
557.73	61.253
558.07	60.094
558.41	61.549
558.75	59.918
559.08	63.402
559.42	61.274
559.76	61.939
560.10	60.564
560.44	59.920
560.78	59.527
561.12	59.313
561.45	58.698
561.79	59.114
562.13	58.876
562.47	60.480
562.81	59.857
563.15	59.276
563.48	57.205
563.82	59.763
564.16	58.831
564.50	57.926
564.84	57.447
565.17	58.348
565.51	59.852
565.85	59.408
566.19	58.452
566.52	58.243
566.86	58.552
567.20	57.640
567.54	57.915
567.88	56.860
568.21	56.016
568.55	55.788
568.89	54.836
569.23	55.177
569.56	54.233
569.90	51.527
570.24	52.811
570.57	52.855
570.91	51.513
571.25	51.690
571.59	51.156
571.92	49.596
572.26	50.647
572.60	50.514
572.93	51.409
573.27	50.890
573.61	50.406
573.95	50.473
574.28	50.776
574.62	49.488
574.96	49.096
575.29	48.698
575.63	48.952
575.97	48.710
576.30	48.924
576.64	48.966
576.98	49.199
577.31	49.451
577.65	48.834
577.98	48.278
578.32	47.832
578.66	48.173
578.99	48.437
579.33	49.008
579.67	48.419
580.00	48.177
580.34	48.570
580.67	48.680
581.01	48.431
581.35	48.360
581.68	47.071
582.02	46.882
582.35	47.616
582.69	47.536
583.02	47.814
583.36	48.576
583.70	49.297
584.03	49.217
584.37	49.445
584.70	48.320
585.04	48.489
585.37	48.106
585.71	48.584
586.04	48.112
586.38	48.073
586.72	48.777
587.05	48.791
587.39	48.774
587.72	48.719
588.06	48.175
588.39	48.183
588.73	48.652
589.06	48.351
589.40	49.734
589.73	49.459
590.07	51.098
590.40	50.697
590.73	51.083
591.07	51.044
591.40	50.499
591.74	51.177
592.07	50.000
592.41	50.240
592.74	49.872
593.08	48.535
593.41	48.773
593.75	47.818
594.08	47.952
594.41	48.387
594.75	48.459
595.08	49.280
595.42	48.881
595.75	48.272
596.09	49.392
596.42	48.798
596.75	50.401
597.09	49.278
597.42	49.510
597.75	49.290
598.09	49.036
598.42	48.388
598.76	48.381
599.09	49.540
599.42	47.958
599.76	47.422
600.09	47.220
600.42	47.963
600.76	47.825
601.09	47.635
601.42	47.413
601.76	47.977
602.09	48.124
602.42	47.837
602.76	47.514
603.09	49.057
603.42	47.596
603.76	47.397
604.09	47.231
604.42	47.834
604.76	48.676
605.09	47.469
605.42	48.639
605.75	48.283
606.09	47.666
606.42	47.012
606.75	48.659
607.09	46.901
607.42	47.650
607.75	47.850
608.08	47.197
608.42	48.070
608.75	47.283
609.08	48.482
609.41	49.000
609.75	48.764
610.08	47.887
610.41	48.177
610.74	47.143
611.07	48.249
611.41	48.285
611.74	49.522
612.07	48.266
612.40	48.489
612.73	48.577
613.07	49.062
613.40	48.822
613.73	49.675
614.06	47.250
614.39	48.030
614.72	48.920
615.06	46.934
615.39	47.178
615.72	47.483
616.05	47.263
616.38	47.945
616.71	47.911
617.05	48.105
617.38	48.933
617.71	48.819
618.04	49.075
618.37	48.138
618.70	48.441
619.03	49.817
619.36	49.812
619.69	49.406
620.03	49.837
620.36	50.867
620.69	51.469
621.02	51.562
621.35	49.570
621.68	50.811
622.01	51.661
622.34	51.129
622.67	49.438
623.00	47.924
623.33	50.202
623.66	49.834
623.99	49.178
624.32	49.932
624.65	50.560
624.99	50.169
625.32	48.764
625.65	48.000
625.98	48.326
626.31	50.593
626.64	50.342
626.97	50.115
627.30	50.932
627.63	50.863
627.96	50.782
628.29	51.320
628.62	50.470
628.95	52.216
629.28	53.199
629.61	51.494
629.94	50.821
630.26	52.080
630.59	51.862
630.92	50.224
631.25	51.859
631.58	53.230
631.91	52.141
632.24	51.701
632.57	52.161
632.90	54.451
633.23	56.139
633.56	54.795
633.89	53.805
634.22	54.575
634.55	52.258
634.88	53.669
635.20	54.260
635.53	54.007
635.86	54.027
636.19	53.872
636.52	52.432
636.85	52.319
637.18	52.654
637.51	52.402
637.83	51.945
638.16	54.865
638.49	55.689
638.82	51.643
639.15	54.642
639.48	55.569
639.81	55.556
640.13	53.129
640.46	54.488
640.79	55.007
641.12	53.675
641.45	53.816
641.77	54.954
642.10	52.610
642.43	55.619
642.76	53.977
643.09	54.899
643.41	53.997
643.74	55.540
644.07	58.702
644.40	55.917
644.73	55.706
645.05	54.086
645.38	56.815
645.71	55.690
646.04	57.405
646.36	57.121
646.69	55.840
647.02	56.320
647.35	54.016
647.67	55.916
648.00	56.515
648.33	52.481
648.66	54.848
648.98	53.768
649.31	49.528
649.64	51.176
649.96	52.347
650.29	50.714
650.62	56.406
650.94	53.916
651.27	55.024
651.60	53.991
651.92	52.995
652.25	55.748
652.58	49.929
652.90	52.695
653.23	50.222
653.56	52.671
653.88	50.661
654.21	52.199
654.54	50.073
654.86	51.917
655.19	50.923
655.52	41.823
655.84	32.865
656.17	37.724
656.49	53.708
656.82	61.512
657.15	48.706
657.47	36.970
657.80	27.474
658.13	22.046
658.45	30.333
658.78	36.164
659.10	36.922
659.43	37.173
659.75	39.965
660.08	40.414
660.41	44.192
660.73	50.063
661.06	53.453
661.38	52.129
661.71	51.799
662.03	51.901
662.36	53.905
662.68	53.259
663.01	50.991
663.33	50.755
663.66	56.016
663.98	54.563
664.31	53.731
664.63	53.831
664.96	51.595
665.28	52.919
665.61	53.019
665.93	53.019
666.26	51.028
666.58	54.862
666.91	53.668
667.23	53.213
667.56	51.951
667.88	54.979
668.21	54.713
668.53	52.419
668.86	53.908
669.18	53.564
669.50	52.893
669.83	52.156
670.15	55.301
670.48	50.000
670.80	53.984
671.13	49.801
671.45	51.503
671.77	49.165
672.10	49.372
672.42	48.355
672.75	48.259
673.07	48.013
673.39	48.083
673.72	49.135
674.04	49.104
674.37	49.002
674.69	49.071
675.01	47.761
675.34	45.543
675.66	50.781
675.98	51.677
676.31	50.800
676.63	49.503
676.95	51.786
677.28	50.101
677.60	49.899
677.92	49.405
678.25	51.357
678.57	49.721
678.89	50.271
679.22	47.978
679.54	48.399
679.86	47.469
680.18	47.100
680.51	46.269
680.83	46.115
681.15	48.007
681.48	46.007
681.80	46.935
682.12	48.270
682.44	46.667
682.77	46.619
683.09	47.573
683.41	50.408
683.73	48.228
684.06	50.397
684.38	48.450
684.70	47.122
685.02	44.618
685.34	47.183
685.67	46.302
685.99	45.813
686.31	42.219
686.63	43.902
686.96	44.608
687.28	43.121
687.60	44.881
687.92	44.054
688.24	45.517
688.56	43.594
688.89	44.742
689.21	46.050
689.53	49.209
689.85	46.951
690.17	46.214
690.49	45.161
690.82	45.168
691.14	46.869
691.46	47.433
691.78	45.809
692.10	47.137
692.42	42.287
692.74	47.287
693.06	46.124
693.39	46.443
693.71	44.794
694.03	46.351
694.35	47.390
694.67	45.214
694.99	46.120
695.31	48.649
695.63	46.833
695.95	45.928
696.27	48.894
696.59	46.778
696.91	49.873
697.23	47.738
697.56	42.946
697.88	42.715
698.20	44.906
698.52	41.051
698.84	44.764
699.16	44.989
699.48	46.186
699.80	49.455
700.12	45.497
700.44	45.561
700.76	48.210
701.08	46.997
701.40	49.091
701.72	53.209
702.04	51.220
702.36	47.312
702.68	50.532
703.00	44.361
703.32	45.161
703.64	46.348
703.96	46.615
704.28	48.677
704.60	50.704
704.91	43.417
705.23	51.705
705.55	47.181
705.87	51.746
706.19	51.724
706.51	52.978
706.83	48.378
707.15	51.070
707.47	43.826
707.79	44.828
708.11	43.537
708.43	43.596
708.74	42.534
709.06	44.419
709.38	46.650
709.70	47.684
710.02	44.565
710.34	42.541
710.66	48.611
710.98	48.087
711.29	46.240
711.61	45.961
711.93	48.328
712.25	46.687
712.57	45.338
712.89	49.697
713.20	47.923
713.52	46.729
713.84	50.453
714.16	43.188
714.48	47.262
714.80	43.902
715.11	41.755
715.43	46.369
715.75	45.634
716.07	43.353
716.39	45.143
716.70	44.548
717.02	48.822
717.34	48.201
717.66	51.389
717.97	57.955
718.29	50.704
718.61	48.311
718.93	47.405
719.24	50.000
719.56	48.621
719.88	42.038
720.20	44.516
720.51	45.425
720.83	46.823
721.15	48.299
721.46	50.000
721.78	48.432
722.10	45.833
722.42	47.826
722.73	49.097
723.05	48.772
723.37	48.763
723.68	48.828
724.00	48.106
724.32	49.810
724.63	46.154
724.95	47.843
725.27	49.814
725.58	44.118
725.90	45.070
726.22	46.918
726.53	44.147
726.85	47.883
727.16	46.644
727.48	49.502
727.80	48.561
728.11	45.714
728.43	44.565
728.74	48.601
729.06	41.219
729.38	49.123
729.69	47.667
730.01	50.329
730.32	46.309
730.64	45.847
730.96	45.345
731.27	38.226
731.59	41.667
731.90	39.554
732.22	37.429
732.53	40.171
732.85	42.105
733.16	40.663
733.48	39.498
733.80	43.478
734.11	44.172
734.43	37.719
734.74	39.946
735.06	39.418
735.37	37.113
735.69	40.870
736.00	43.731
736.32	33.636
736.63	38.801
736.95	41.304
737.26	41.463
737.58	43.252
737.89	43.675
738.21	41.722
738.52	38.796
738.83	46.886
739.15	43.206
739.46	41.724
739.78	42.857
740.09	43.149
740.41	40.491
740.72	41.905
741.04	47.203
741.35	44.141
741.66	44.269
741.98	47.210
742.29	47.685
742.61	41.150
742.92	41.949
743.23	42.400
743.55	43.396
743.86	40.392
744.18	49.153
744.49	45.041
744.80	47.465
745.12	50.893
745.43	50.935
745.74	48.444
746.06	46.930
746.37	46.512
746.68	56.195
747.00	45.740
747.31	42.437
747.62	42.623
747.94	42.489
748.25	42.412
748.56	45.763
748.88	49.107
749.19	47.907
749.50	47.489
749.82	45.679
750.13	47.036
750.44	41.667
750.75	43.289
751.07	39.474
751.38	38.944
751.69	41.077
752.01	38.811
752.32	34.219
752.63	44.631
752.94	41.608
753.26	39.844
753.57	43.580
753.88	39.326
754.19	39.711
754.51	37.542
754.82	41.611
755.13	40.203
755.44	41.111
755.75	45.361
756.07	40.411
756.38	35.621
756.69	34.063
757.00	39.169
757.31	37.465
757.63	35.262
757.94	32.447
758.25	35.266
758.56	31.121
758.87	35.589
759.18	35.465
759.50	38.298
759.81	35.608
760.12	40.169
760.43	37.255
760.74	35.190
761.05	37.135
761.36	33.854
761.67	35.580
761.99	37.465
762.30	37.621
762.61	35.069
762.92	42.424
763.23	41.509
763.54	36.154
763.85	38.521
764.16	37.847
764.47	37.838
764.78	34.202
765.10	34.451
765.41	32.955
765.72	36.188
766.03	35.650
766.34	35.540
766.65	40.684
766.96	42.105
767.27	46.729
767.58	43.069
767.89	52.486
768.20	50.000
768.51	39.796
768.82	34.211
769.13	42.353
769.44	39.474
769.75	35.206
770.06	38.655
770.37	41.228
770.68	44.889
770.99	36.864
771.30	45.607
771.61	38.846
771.92	35.878
772.23	37.903
772.54	41.778
772.85	48.020
773.16	43.478
773.47	49.444
773.78	42.574
774.09	50.000
774.39	53.333
774.70	41.765
775.01	39.474
775.32	45.963
775.63	51.370
775.94	53.086
776.25	50.345
776.56	53.435
776.87	61.832
777.18	51.515
777.48	56.693
777.79	55.385
778.10	53.030
778.41	62.687
778.72	53.383
779.03	36.538
779.34	43.243
779.65	50.311
779.95	45.342
780.26	45.238
780.57	52.381
780.88	52.482
781.19	56.667
781.50	40.828
781.80	44.809
782.11	43.915
782.42	39.655
782.73	49.718
783.04	45.161
783.34	49.612
783.65	46.939
783.96	54.839
784.27	39.735
784.57	42.763
784.88	50.725
785.19	50.000
785.50	60.345
785.81	60.465
786.11	50.370
786.42	50.394
786.73	53.153
787.04	54.717
787.34	48.780
787.65	53.030
787.96	55.303
788.26	55.906
788.57	53.285
788.88	50.704
789.19	55.725
789.49	50.676
789.80	45.313
790.11	59.504
790.41	62.037
790.72	47.222
791.03	56.731
791.33	59.596
791.64	54.737
791.95	61.053
792.25	57.292
792.56	55.000
792.87	67.073
793.17	59.091
793.48	52.941
793.79	64.368
794.09	54.545
794.40	64.655
794.70	54.762
795.01	53.846
795.32	46.565
795.62	46.154
795.93	62.185
796.23	56.911
796.54	60.204
796.85	55.682
797.15	81.818
797.46	65.854
797.76	60.000
798.07	73.333
798.37	60.000
798.68	80.000
798.99	65.854
799.29	65.333
799.60	48.837
799.90	71.053
800.21	74.242
800.51	77.465
800.82	81.034
801.12	87.692
801.43	70.667
801.73	75.862
802.04	53.247
802.34	61.644
802.65	86.275
802.95	78.261
803.26	82.258
803.56	98.333
803.87	73.134
804.17	80.952
804.48	71.698
804.78	70.833
805.09	74.242
805.39	79.365
805.70	82.456
806.00	68.571
806.30	73.437
806.61	68.235
806.91	60.000
807.22	50.000
807.52	59.211
807.83	81.579
808.13	68.116
808.43	77.419
808.74	72.603
809.04	87.500
809.35	72.059
809.65	83.333
809.95	84.314
810.26	94.444
810.56	78.125
810.86	85.714
811.17	84.211
811.47	84.783
811.77	79.310
812.08	74.138
812.38	100.000
812.69	88.095
812.99	95.556
813.29	100.000
813.59	109.677
813.90	72.414
814.20	86.885
814.50	72.000
814.81	57.895
815.11	94.444
815.41	73.214
815.72	91.071
816.02	90.000
816.32	95.122
816.62	112.069
816.93	130.303
817.23	112.195
817.53	100.000
817.84	97.778
818.14	78.571
818.44	85.417
818.74	94.340
819.04	110.256
819.35	121.212
819.65	113.462
819.95	101.852
820.25	102.128
820.56	127.027
820.86	121.053
821.16	87.234
821.46	102.632
821.76	92.727
822.07	73.810
822.37	113.158
822.67	116.279
822.97	113.158
823.27	110.870
823.57	100.000
823.88	89.744
824.18	109.091
824.48	143.478
824.78	102.778
825.08	169.565
825.38	162.069
825.69	114.706
825.99	85.106
826.29	88.889
826.59	120.000
826.89	153.333
827.19	108.571
827.49	148.387
827.79	142.308
828.09	107.143
828.39	105.556
828.70	108.108
829.00	160.714
829.30	237.500
829.60	102.778
829.90	141.935
830.20	115.152
830.50	156.757
830.80	170.833
831.10	161.538
831.40	147.619
831.70	158.333
832.00	106.667
832.30	165.217
832.60	195.833
832.90	160.606
833.20	140.000
833.50	115.789
833.80	135.294
834.10	128.947
834.40	152.632
834.70	126.667
835.00	132.000
835.30	97.297
835.60	115.625
835.90	102.703
836.20	150.000
836.50	109.091
836.80	107.317
837.10	147.826
837.40	246.154
837.70	115.789
838.00	146.667
838.30	150.000
838.60	188.000
838.90	380.000
839.19	206.250
839.49	146.667
839.79	131.034
840.09	126.923
840.39	173.333
840.69	157.895
840.99	157.143
841.29	182.609
841.59	200.000
841.88	212.000
842.18	377.778
842.48	132.143
842.78	166.667
843.08	246.154
843.38	122.727
843.68	278.571
843.97	542.857
844.27	160.870
844.57	1550.000
844.87	328.571
845.17	288.889
845.47	109.524
845.76	162.500
846.06	371.429
846.36	288.235
846.66	300.000
846.96	212.500
847.25	161.538
847.55	168.421
847.85	194.444
848.15	560.000
848.44	254.545
848.74	209.524
849.04	187.500
849.34	129.412
849.63	231.250
849.93	218.750
850.23	1000.000
850.53	312.500
850.82	327.273
851.12	223.529
851.42	195.833
851.71	193.750
852.01	0.000
852.31	158.824
852.61	400.000
852.90	158.333
853.20	277.778
853.50	-2100.000
853.79	156.000
854.09	146.875
854.39	131.034
854.68	124.138
854.98	209.524
855.28	148.387
855.57	328.571
855.87	227.778
856.17	166.667
856.46	163.158
856.76	135.484
857.05	252.941
857.35	290.909
857.65	276.923
857.94	195.000
858.24	411.111
858.53	314.286
858.83	585.714
859.13	165.217
859.42	377.778
859.72	375.000
860.01	333.333
860.31	875.000
860.60	250.000
860.90	450.000
861.20	276.923
861.49	442.857
861.79	-3400.000
862.08	442.857
862.38	322.222
862.67	235.714
862.97	330.000
863.26	116.667
863.56	800.000
863.85	323.077
864.15	235.294
864.44	200.000
864.74	391.667
865.03	300.000
865.33	362.500
865.62	200.000
865.92	550.000
866.21	1000.000
866.51	640.000
866.80	205.556
867.10	800.000
867.39	2900.000
867.69	480.000
867.98	625.000
868.27	157.143
868.57	280.000
868.86	775.000
869.16	161.905
869.45	2800.000
869.75	-466.667
870.04	500.000
870.33	640.000
870.63	525.000
870.92	188.235
871.22	600.000
871.51	528.571
871.80	275.000
872.10	307.692
>>>>>End Processed Spectral Data<<<<<
