SpectraSuite Data File
++++++++++++++++++++++++++++++++++++
Date: Tue May 12 15:29:18 PDT 2015
User: schluterlab
Dark Spectrum Present: Yes
Reference Spectrum Present: Yes
Number of Sampled Component Spectra: 1
Spectrometers: USB2E3373
Integration Time (usec): 3000 (USB2E3373)
Spectra Averaged: 3 (USB2E3373)
Boxcar Smoothing: 0 (USB2E3373)
Correct for Electrical Dark: No (USB2E3373)
Strobe/Lamp Enabled: No (USB2E3373)
Correct for Detector Non-linearity: No (USB2E3373)
Correct for Stray Light: No (USB2E3373)
Number of Pixels in Processed Spectrum: 2048
>>>>>Begin Processed Spectral Data<<<<<
178.53	0.000
178.91	-233.333
179.29	-875.000
179.67	-4200.000
180.04	-146.667
180.42	800.000
180.80	1550.000
181.18	0.000
181.56	-387.500
181.94	0.000
182.31	1266.667
182.69	-3300.000
183.07	614.286
183.45	-3300.000
183.83	-1700.000
184.20	390.000
184.58	542.857
184.96	-269.231
185.34	-258.333
185.72	2100.000
186.09	-750.000
186.47	-3300.000
186.85	1100.000
187.23	640.000
187.61	1750.000
187.98	625.000
188.36	300.000
188.74	341.667
189.12	383.333
189.49	975.000
189.87	0.000
190.25	700.000
190.63	2400.000
191.00	-241.667
191.38	-4400.000
191.76	-625.000
192.14	512.500
192.51	-2800.000
192.89	1950.000
193.27	1066.667
193.65	-1200.000
194.02	-860.000
194.40	557.143
194.78	-228.571
195.15	226.667
195.53	-3500.000
195.91	-560.000
196.29	5300.000
196.66	262.500
197.04	775.000
197.42	-1550.000
197.79	675.000
198.17	500.000
198.55	0.000
198.92	528.571
199.30	1500.000
199.68	1750.000
200.05	766.667
200.43	-483.333
200.81	200.000
201.18	4400.000
201.56	325.000
201.94	-800.000
202.31	-312.500
202.69	-680.000
203.07	3600.000
203.44	-483.333
203.82	283.333
204.19	880.000
204.57	-1650.000
204.95	-750.000
205.32	-620.000
205.70	650.000
206.08	950.000
206.45	-900.000
206.83	466.667
207.20	189.474
207.58	291.667
207.96	800.000
208.33	0.000
208.71	757.143
209.08	800.000
209.46	-3900.000
209.84	-1125.000
210.21	900.000
210.59	-600.000
210.96	358.333
211.34	-950.000
211.71	336.364
212.09	950.000
212.46	2300.000
212.84	-483.333
213.22	466.667
213.59	-2700.000
213.97	330.000
214.34	875.000
214.72	1233.333
215.09	866.667
215.47	-3600.000
215.84	-380.000
216.22	-412.500
216.59	0.000
216.97	0.000
217.34	1650.000
217.72	-1750.000
218.09	1366.667
218.47	512.500
218.84	850.000
219.22	1333.333
219.59	1000.000
219.97	728.571
220.34	388.889
220.72	1650.000
221.09	3300.000
221.47	300.000
221.84	1166.667
222.22	330.000
222.59	266.667
222.97	264.286
223.34	231.250
223.72	-1600.000
224.09	1466.667
224.46	338.462
224.84	-925.000
225.21	411.111
225.59	286.667
225.96	1466.667
226.34	-500.000
226.71	-575.000
227.08	-700.000
227.46	0.000
227.83	-550.000
228.21	-1850.000
228.58	291.667
228.95	975.000
229.33	488.889
229.70	825.000
230.08	338.462
230.45	3400.000
230.82	-1050.000
231.20	-800.000
231.57	-933.333
231.95	660.000
232.32	341.667
232.69	633.333
233.07	258.333
233.44	-1750.000
233.81	280.000
234.19	144.444
234.56	237.500
234.93	258.824
235.31	260.000
235.68	281.250
236.05	160.714
236.43	140.741
236.80	250.000
237.17	148.276
237.55	128.125
237.92	117.500
238.29	139.394
238.67	131.250
239.04	87.805
239.41	91.667
239.79	112.500
240.16	87.500
240.53	65.574
240.91	69.565
241.28	76.271
241.65	69.697
242.02	74.648
242.40	78.571
242.77	61.538
243.14	51.899
243.51	56.566
243.89	57.009
244.26	46.729
244.63	55.446
245.00	45.872
245.38	44.068
245.75	43.939
246.12	48.889
246.49	41.844
246.87	45.082
247.24	45.333
247.61	42.500
247.98	40.816
248.36	32.727
248.73	40.306
249.10	36.905
249.47	33.500
249.84	36.318
250.22	36.757
250.59	34.000
250.96	37.131
251.33	34.884
251.70	37.500
252.08	32.353
252.45	30.677
252.82	31.179
253.19	28.458
253.56	29.231
253.94	30.435
254.31	31.008
254.68	31.359
255.05	30.000
255.42	30.657
255.79	28.339
256.16	29.153
256.54	28.571
256.91	29.739
257.28	28.094
257.65	21.944
258.02	26.549
258.39	26.074
258.76	30.725
259.14	22.000
259.51	26.239
259.88	29.787
260.25	22.802
260.62	28.219
260.99	22.865
261.36	25.905
261.73	23.670
262.10	26.963
262.47	23.750
262.85	23.733
263.22	24.165
263.59	23.018
263.96	24.812
264.33	22.222
264.70	25.799
265.07	24.634
265.44	25.229
265.81	23.821
266.18	23.799
266.55	22.695
266.92	23.043
267.29	24.561
267.66	22.646
268.03	22.870
268.40	21.142
268.77	23.348
269.14	21.258
269.51	20.267
269.88	24.286
270.25	21.814
270.62	23.391
270.99	23.935
271.36	23.171
271.73	21.803
272.10	21.818
272.47	21.032
272.84	22.555
273.21	21.901
273.58	22.874
273.95	20.534
274.32	20.817
274.69	21.063
275.06	20.947
275.43	20.498
275.80	20.566
276.17	21.324
276.54	19.813
276.91	21.642
277.28	21.350
277.65	21.218
278.02	19.669
278.39	20.683
278.76	20.345
279.13	21.886
279.50	21.273
279.87	20.112
280.23	21.547
280.60	21.350
280.97	21.724
281.34	21.122
281.71	20.522
282.08	21.709
282.45	18.919
282.82	20.569
283.19	20.668
283.56	20.000
283.92	21.661
284.29	20.300
284.66	21.008
285.03	23.715
285.40	19.174
285.77	18.519
286.14	21.672
286.51	22.699
286.87	17.722
287.24	21.171
287.61	20.517
287.98	20.448
288.35	21.037
288.72	20.789
289.08	20.721
289.45	22.104
289.82	20.781
290.19	20.644
290.56	20.961
290.93	20.863
291.29	20.442
291.66	22.034
292.03	20.757
292.40	21.680
292.77	19.916
293.13	20.827
293.50	19.568
293.87	21.274
294.24	19.860
294.60	21.669
294.97	22.238
295.34	19.920
295.71	22.470
296.08	21.333
296.44	21.474
296.81	20.347
297.18	21.293
297.55	19.828
297.91	20.813
298.28	22.222
298.65	21.104
299.02	22.678
299.38	21.343
299.75	21.585
300.12	21.789
300.48	24.824
300.85	20.977
301.22	21.860
301.59	21.698
301.95	21.004
302.32	22.235
302.69	22.398
303.05	23.457
303.42	21.300
303.79	22.860
304.15	21.782
304.52	22.410
304.89	22.814
305.25	24.583
305.62	22.388
305.99	21.196
306.35	21.053
306.72	23.101
307.09	22.257
307.45	22.809
307.82	23.251
308.19	24.227
308.55	23.700
308.92	23.847
309.29	24.260
309.65	23.389
310.02	24.138
310.38	24.028
310.75	23.337
311.12	23.180
311.48	25.000
311.85	25.382
312.22	24.260
312.58	24.198
312.95	23.398
313.31	24.532
313.68	25.141
314.05	25.549
314.41	24.767
314.78	25.663
315.14	26.730
315.51	26.774
315.87	25.821
316.24	25.490
316.61	26.321
316.97	25.872
317.34	26.954
317.70	26.163
318.07	28.648
318.43	28.120
318.80	27.758
319.16	27.273
319.53	27.080
319.89	26.613
320.26	28.864
320.62	28.571
320.99	29.743
321.35	30.056
321.72	29.981
322.08	30.471
322.45	29.700
322.81	30.467
323.18	30.284
323.54	30.139
323.91	31.913
324.27	30.946
324.64	30.882
325.00	31.379
325.37	31.956
325.73	31.535
326.10	33.223
326.46	32.370
326.83	32.080
327.19	32.610
327.56	32.428
327.92	33.934
328.29	33.797
328.65	34.247
329.01	33.533
329.38	34.095
329.74	34.244
330.11	32.667
330.47	34.101
330.84	32.528
331.20	32.318
331.56	33.420
331.93	33.875
332.29	32.398
332.66	34.269
333.02	32.302
333.38	33.246
333.75	33.611
334.11	33.893
334.48	32.821
334.84	33.446
335.20	32.763
335.57	32.914
335.93	33.810
336.29	33.582
336.66	33.448
337.02	33.191
337.38	32.846
337.75	33.193
338.11	34.262
338.47	32.854
338.84	32.091
339.20	32.900
339.56	31.707
339.93	33.361
340.29	31.176
340.65	32.355
341.02	33.387
341.38	32.266
341.74	31.728
342.11	32.554
342.47	32.568
342.83	33.142
343.20	32.175
343.56	31.056
343.92	33.031
344.28	32.536
344.65	31.866
345.01	32.540
345.37	32.532
345.73	31.746
346.10	30.598
346.46	31.978
346.82	31.019
347.19	32.380
347.55	31.304
347.91	31.722
348.27	30.984
348.63	31.487
349.00	30.845
349.36	31.907
349.72	32.110
350.08	31.366
350.45	32.521
350.81	31.881
351.17	30.431
351.53	31.409
351.89	31.002
352.26	30.688
352.62	31.146
352.98	31.672
353.34	31.587
353.70	30.963
354.07	30.923
354.43	31.874
354.79	30.752
355.15	31.394
355.51	30.967
355.87	31.250
356.24	31.101
356.60	30.518
356.96	31.539
357.32	31.575
357.68	30.764
358.04	32.903
358.40	32.384
358.77	32.156
359.13	31.456
359.49	30.096
359.85	30.975
360.21	31.204
360.57	31.533
360.93	32.179
361.29	31.962
361.66	31.693
362.02	30.327
362.38	31.025
362.74	31.352
363.10	31.627
363.46	31.492
363.82	31.837
364.18	31.579
364.54	31.617
364.90	31.526
365.26	31.645
365.62	30.801
365.98	31.521
366.35	30.828
366.71	31.367
367.07	30.785
367.43	31.968
367.79	30.519
368.15	31.750
368.51	31.978
368.87	30.639
369.23	30.908
369.59	31.086
369.95	32.238
370.31	31.554
370.67	32.269
371.03	32.913
371.39	31.787
371.75	31.542
372.11	31.951
372.47	32.945
372.83	30.863
373.19	31.666
373.55	32.509
373.91	31.768
374.27	31.217
374.63	30.983
374.99	32.210
375.35	31.586
375.71	32.520
376.07	31.631
376.42	32.033
376.78	32.049
377.14	31.979
377.50	31.773
377.86	31.775
378.22	32.054
378.58	32.143
378.94	31.623
379.30	32.141
379.66	32.390
380.02	32.375
380.38	32.319
380.74	32.584
381.09	32.126
381.45	31.503
381.81	32.388
382.17	32.112
382.53	31.554
382.89	31.815
383.25	31.557
383.61	31.931
383.97	31.794
384.32	32.851
384.68	32.917
385.04	32.708
385.40	32.444
385.76	32.066
386.12	32.096
386.48	33.009
386.83	31.418
387.19	32.509
387.55	31.743
387.91	32.159
388.27	32.659
388.62	32.394
388.98	31.079
389.34	30.399
389.70	31.132
390.06	31.951
390.42	31.832
390.77	32.248
391.13	32.710
391.49	32.123
391.85	32.677
392.20	32.181
392.56	31.123
392.92	31.331
393.28	31.951
393.64	32.511
393.99	30.587
394.35	31.195
394.71	31.182
395.07	31.752
395.42	32.084
395.78	32.696
396.14	32.590
396.50	31.709
396.85	32.622
397.21	32.070
397.57	31.441
397.92	30.445
398.28	31.440
398.64	31.530
399.00	30.091
399.35	29.791
399.71	30.519
400.07	31.564
400.42	31.463
400.78	31.437
401.14	30.534
401.49	31.221
401.85	30.533
402.21	30.639
402.57	31.957
402.92	30.667
403.28	30.489
403.63	30.606
403.99	30.458
404.35	30.832
404.70	30.892
405.06	29.478
405.42	30.700
405.77	30.761
406.13	29.989
406.49	29.847
406.84	28.708
407.20	30.080
407.55	30.892
407.91	30.313
408.27	30.139
408.62	29.746
408.98	30.514
409.34	29.632
409.69	29.496
410.05	30.471
410.40	29.093
410.76	30.109
411.11	29.088
411.47	29.444
411.83	29.233
412.18	29.348
412.54	30.450
412.89	29.853
413.25	29.989
413.60	29.614
413.96	28.306
414.31	30.283
414.67	30.850
415.03	30.204
415.38	29.085
415.74	30.575
416.09	30.793
416.45	30.317
416.80	29.378
417.16	30.172
417.51	30.510
417.87	30.413
418.22	29.222
418.58	30.255
418.93	29.804
419.29	29.575
419.64	29.255
420.00	30.967
420.35	30.023
420.71	29.113
421.06	30.018
421.42	30.109
421.77	30.039
422.12	29.052
422.48	29.276
422.83	30.748
423.19	30.022
423.54	29.786
423.90	30.974
424.25	31.260
424.61	30.412
424.96	29.870
425.31	30.378
425.67	30.920
426.02	29.781
426.38	31.797
426.73	30.769
427.09	31.791
427.44	30.895
427.79	31.275
428.15	30.937
428.50	31.429
428.85	31.099
429.21	31.605
429.56	30.508
429.92	31.129
430.27	31.011
430.62	30.886
430.98	30.489
431.33	30.393
431.68	31.901
432.04	30.781
432.39	31.504
432.74	31.674
433.10	32.669
433.45	31.706
433.80	33.039
434.16	31.739
434.51	31.631
434.86	31.628
435.22	31.551
435.57	31.713
435.92	32.214
436.28	32.776
436.63	33.063
436.98	32.883
437.34	31.906
437.69	31.299
438.04	31.022
438.39	32.458
438.75	32.071
439.10	32.110
439.45	31.713
439.81	33.025
440.16	33.132
440.51	32.320
440.86	33.105
441.22	32.089
441.57	32.651
441.92	32.083
442.27	32.165
442.63	32.673
442.98	31.735
443.33	32.726
443.68	32.646
444.03	32.045
444.39	32.910
444.74	32.505
445.09	32.543
445.44	32.997
445.79	32.115
446.15	32.632
446.50	31.962
446.85	33.068
447.20	32.239
447.55	32.626
447.91	32.872
448.26	33.014
448.61	33.610
448.96	33.170
449.31	32.618
449.66	33.776
450.02	33.549
450.37	32.871
450.72	33.554
451.07	33.857
451.42	33.669
451.77	33.620
452.12	34.203
452.47	33.354
452.83	33.577
453.18	33.814
453.53	33.748
453.88	34.114
454.23	33.527
454.58	34.207
454.93	32.863
455.28	33.782
455.63	33.924
455.98	34.179
456.34	33.556
456.69	34.146
457.04	33.950
457.39	33.143
457.74	32.939
458.09	33.240
458.44	33.187
458.79	33.687
459.14	32.733
459.49	33.918
459.84	32.609
460.19	32.994
460.54	33.732
460.89	33.849
461.24	32.761
461.59	33.617
461.94	32.388
462.29	33.352
462.64	33.982
462.99	33.461
463.34	34.867
463.69	34.906
464.04	33.967
464.39	33.028
464.74	33.353
465.09	33.604
465.44	33.569
465.79	33.478
466.14	32.432
466.49	33.532
466.84	32.274
467.19	33.275
467.54	32.793
467.89	33.216
468.24	32.368
468.59	33.333
468.94	33.514
469.29	33.781
469.64	33.826
469.99	34.512
470.34	32.827
470.68	33.448
471.03	33.956
471.38	33.841
471.73	32.854
472.08	34.051
472.43	34.202
472.78	34.059
473.13	33.730
473.48	33.557
473.83	33.569
474.17	33.678
474.52	33.945
474.87	32.803
475.22	33.067
475.57	32.949
475.92	32.039
476.27	32.263
476.61	32.493
476.96	33.177
477.31	33.419
477.66	34.085
478.01	33.419
478.36	33.007
478.70	32.506
479.05	33.316
479.40	33.135
479.75	33.466
480.10	34.656
480.45	33.427
480.79	32.811
481.14	32.430
481.49	31.930
481.84	32.058
482.19	32.926
482.53	33.289
482.88	32.124
483.23	32.115
483.58	32.451
483.92	33.958
484.27	33.005
484.62	33.616
484.97	32.256
485.31	32.124
485.66	32.288
486.01	30.692
486.36	29.952
486.70	29.328
487.05	29.746
487.40	30.247
487.75	31.043
488.09	31.307
488.44	31.804
488.79	32.454
489.13	31.878
489.48	32.920
489.83	31.359
490.17	32.040
490.52	32.084
490.87	32.284
491.22	33.289
491.56	33.289
491.91	31.676
492.26	32.249
492.60	32.756
492.95	32.669
493.30	32.621
493.64	32.659
493.99	32.648
494.34	31.824
494.68	31.873
495.03	32.420
495.37	32.913
495.72	32.867
496.07	31.986
496.41	32.450
496.76	31.617
497.11	32.305
497.45	32.135
497.80	32.669
498.14	31.808
498.49	31.894
498.84	32.897
499.18	31.399
499.53	33.073
499.87	32.345
500.22	32.381
500.56	32.405
500.91	33.117
501.26	31.971
501.60	32.286
501.95	31.631
502.29	33.067
502.64	31.716
502.98	32.103
503.33	32.606
503.67	32.318
504.02	31.661
504.36	32.670
504.71	32.687
505.06	31.957
505.40	32.990
505.75	31.431
506.09	33.084
506.44	31.156
506.78	32.703
507.13	32.429
507.47	31.975
507.82	33.090
508.16	32.386
508.51	33.188
508.85	32.574
509.19	32.256
509.54	32.617
509.88	32.571
510.23	32.549
510.57	31.660
510.92	32.617
511.26	33.032
511.61	31.807
511.95	32.603
512.30	32.350
512.64	32.087
512.98	32.035
513.33	31.762
513.67	32.729
514.02	33.039
514.36	32.555
514.70	32.800
515.05	33.245
515.39	33.388
515.74	33.625
516.08	33.606
516.42	33.770
516.77	33.173
517.11	33.387
517.46	32.812
517.80	32.496
518.14	33.577
518.49	32.690
518.83	31.758
519.17	33.500
519.52	32.059
519.86	33.025
520.20	33.205
520.55	33.239
520.89	32.989
521.23	33.178
521.58	33.333
521.92	33.120
522.26	32.524
522.61	33.333
522.95	33.874
523.29	33.041
523.64	32.428
523.98	33.099
524.32	32.814
524.66	33.043
525.01	32.604
525.35	32.999
525.69	33.052
526.04	32.719
526.38	32.902
526.72	33.234
527.06	32.052
527.41	33.434
527.75	32.745
528.09	32.691
528.43	33.740
528.78	32.618
529.12	32.992
529.46	32.203
529.80	31.951
530.15	33.530
530.49	31.949
530.83	32.785
531.17	32.718
531.51	32.679
531.86	32.065
532.20	31.459
532.54	31.387
532.88	31.980
533.22	32.541
533.57	31.971
533.91	31.061
534.25	30.929
534.59	31.228
534.93	31.115
535.27	30.507
535.62	31.214
535.96	30.556
536.30	32.602
536.64	31.118
536.98	31.089
537.32	31.750
537.66	31.696
538.01	32.012
538.35	31.254
538.69	31.311
539.03	31.779
539.37	30.522
539.71	32.099
540.05	30.954
540.39	32.075
540.73	31.582
541.07	30.991
541.42	31.219
541.76	31.443
542.10	30.395
542.44	31.484
542.78	31.403
543.12	29.693
543.46	30.013
543.80	31.266
544.14	30.960
544.48	29.988
544.82	31.131
545.16	30.358
545.50	30.117
545.84	31.439
546.18	31.534
546.52	31.607
546.86	30.561
547.20	31.072
547.54	30.336
547.88	30.839
548.22	30.662
548.56	29.523
548.90	29.953
549.24	30.385
549.58	29.768
549.92	30.517
550.26	31.981
550.60	31.470
550.94	30.326
551.28	30.966
551.62	32.138
551.96	29.865
552.30	29.466
552.64	31.586
552.98	30.412
553.32	29.770
553.66	30.423
554.00	29.923
554.34	31.092
554.68	31.250
555.02	31.432
555.36	30.851
555.69	29.777
556.03	29.490
556.37	30.019
556.71	30.965
557.05	29.292
557.39	31.000
557.73	30.728
558.07	30.449
558.41	30.089
558.75	30.917
559.08	31.094
559.42	31.496
559.76	31.504
560.10	30.420
560.44	29.728
560.78	30.499
561.12	29.561
561.45	29.725
561.79	29.463
562.13	28.680
562.47	30.435
562.81	29.408
563.15	29.541
563.48	28.447
563.82	30.006
564.16	29.789
564.50	29.174
564.84	28.693
565.17	28.461
565.51	29.988
565.85	30.043
566.19	28.929
566.52	28.219
566.86	29.772
567.20	29.382
567.54	28.384
567.88	28.691
568.21	27.858
568.55	27.626
568.89	27.418
569.23	27.394
569.56	27.756
569.90	26.518
570.24	26.303
570.57	26.152
570.91	25.710
571.25	25.563
571.59	24.845
571.92	24.327
572.26	24.690
572.60	25.076
572.93	25.503
573.27	24.641
573.61	24.689
573.95	24.577
574.28	24.503
574.62	24.034
574.96	23.892
575.29	23.817
575.63	24.217
575.97	23.807
576.30	24.146
576.64	24.155
576.98	23.961
577.31	24.502
577.65	23.907
577.98	23.898
578.32	23.522
578.66	23.834
578.99	23.810
579.33	23.996
579.67	23.817
580.00	23.481
580.34	24.050
580.67	23.803
581.01	24.161
581.35	24.150
581.68	22.857
582.02	23.241
582.35	23.172
582.69	23.420
583.02	23.325
583.36	24.193
583.70	23.749
584.03	24.932
584.37	24.533
584.70	24.434
585.04	23.983
585.37	23.693
585.71	24.494
586.04	24.011
586.38	23.725
586.72	23.784
587.05	23.572
587.39	24.273
587.72	23.859
588.06	24.485
588.39	24.104
588.73	24.026
589.06	24.365
589.40	24.538
589.73	24.877
590.07	25.944
590.40	25.610
590.73	26.037
591.07	26.034
591.40	25.788
591.74	25.446
592.07	25.250
592.41	25.260
592.74	24.936
593.08	24.284
593.41	23.758
593.75	23.982
594.08	24.392
594.41	24.210
594.75	25.034
595.08	24.657
595.42	25.115
595.75	24.646
596.09	25.443
596.42	24.873
596.75	25.801
597.09	25.712
597.42	26.082
597.75	24.990
598.09	25.236
598.42	25.255
598.76	24.865
599.09	25.120
599.42	24.464
599.76	24.864
600.09	24.305
600.42	24.171
600.76	24.677
601.09	24.232
601.42	24.463
601.76	24.705
602.09	25.423
602.42	24.251
602.76	24.592
603.09	25.226
603.42	24.991
603.76	24.042
604.09	24.466
604.42	24.218
604.76	24.852
605.09	24.204
605.42	24.787
605.75	24.714
606.09	24.024
606.42	24.051
606.75	24.252
607.09	24.793
607.42	24.990
607.75	24.602
608.08	24.289
608.42	24.748
608.75	24.818
609.08	24.725
609.41	25.455
609.75	25.595
610.08	24.955
610.41	24.594
610.74	24.589
611.07	24.693
611.41	25.579
611.74	25.287
612.07	25.000
612.40	25.975
612.73	25.362
613.07	25.596
613.40	24.912
613.73	25.412
614.06	24.700
614.39	25.051
614.72	25.364
615.06	24.728
615.39	24.604
615.72	24.589
616.05	26.369
616.38	25.114
616.71	25.122
617.05	24.876
617.38	25.674
617.71	25.591
618.04	26.080
618.37	25.792
618.70	24.942
619.03	25.763
619.36	26.884
619.69	26.319
620.03	27.136
620.36	27.103
620.69	27.458
621.02	26.970
621.35	26.433
621.68	27.729
622.01	27.823
622.34	26.730
622.67	26.966
623.00	25.528
623.33	26.653
623.66	26.946
623.99	26.918
624.32	26.965
624.65	25.938
624.99	26.031
625.32	26.319
625.65	24.690
625.98	26.011
626.31	28.042
626.64	26.348
626.97	27.161
627.30	26.398
627.63	27.080
627.96	27.308
628.29	26.238
628.62	27.032
628.95	29.433
629.28	28.659
629.61	27.592
629.94	27.485
630.26	28.250
630.59	27.571
630.92	27.265
631.25	28.921
631.58	29.797
631.91	28.830
632.24	27.308
632.57	27.407
632.90	27.950
633.23	31.480
633.56	29.189
633.89	28.510
634.22	30.140
634.55	28.602
634.88	28.806
635.20	30.157
635.53	30.197
635.86	30.984
636.19	28.956
636.52	28.324
636.85	28.047
637.18	29.577
637.51	30.056
637.83	28.146
638.16	29.660
638.49	29.102
638.82	29.577
639.15	28.672
639.48	30.450
639.81	30.159
640.13	28.589
640.46	30.973
640.79	28.088
641.12	28.084
641.45	31.565
641.77	29.987
642.10	31.861
642.43	33.001
642.76	30.256
643.09	31.412
643.41	30.856
643.74	31.511
644.07	30.678
644.40	30.030
644.73	32.432
645.05	32.392
645.38	33.078
645.71	30.653
646.04	33.282
646.36	31.142
646.69	32.640
647.02	33.120
647.35	31.811
647.67	30.470
648.00	31.596
648.33	32.180
648.66	31.818
648.98	29.710
649.31	30.769
649.64	30.014
649.96	29.872
650.29	29.000
650.62	31.959
650.94	30.873
651.27	31.898
651.60	31.142
651.92	31.490
652.25	31.339
652.58	29.645
652.90	30.240
653.23	29.394
653.56	30.267
653.88	31.718
654.21	30.792
654.54	30.161
654.86	28.909
655.19	31.135
655.52	23.850
655.84	18.073
656.17	20.742
656.49	30.109
656.82	34.431
657.15	27.776
657.47	20.614
657.80	15.286
658.13	12.317
658.45	16.662
658.78	20.606
659.10	20.577
659.43	21.994
659.75	23.883
660.08	24.248
660.41	27.132
660.73	28.105
661.06	29.730
661.38	31.346
661.71	30.935
662.03	32.129
662.36	33.524
662.68	31.657
663.01	32.252
663.33	31.132
663.66	33.333
663.98	33.135
664.31	32.649
664.63	30.651
664.96	34.897
665.28	31.073
665.61	29.623
665.93	33.019
666.26	29.533
666.58	32.294
666.91	31.274
667.23	32.932
667.56	33.265
667.88	32.573
668.21	32.787
668.53	33.266
668.86	34.669
669.18	32.790
669.50	32.025
669.83	33.470
670.15	30.769
670.48	31.055
670.80	33.665
671.13	32.470
671.45	33.667
671.77	31.169
672.10	29.623
672.42	29.276
672.75	30.063
673.07	29.412
673.39	28.914
673.72	31.315
674.04	30.824
674.37	28.131
674.69	30.112
675.01	29.478
675.34	29.457
675.66	34.766
675.98	32.150
676.31	31.200
676.63	29.821
676.95	32.143
677.28	28.803
677.60	32.596
677.92	29.762
678.25	31.395
678.57	31.471
678.89	33.092
679.22	29.779
679.54	30.249
679.86	31.937
680.18	29.174
680.51	26.036
680.83	29.561
681.15	31.023
681.48	29.687
681.80	27.671
682.12	30.796
682.44	29.550
682.77	29.715
683.09	30.291
683.41	31.633
683.73	32.087
684.06	30.754
684.38	31.202
684.70	28.957
685.02	25.868
685.34	29.930
685.67	28.457
685.99	30.049
686.31	27.273
686.63	27.805
686.96	28.431
687.28	29.195
687.60	27.304
687.92	29.816
688.24	29.310
688.56	29.004
688.89	27.342
689.21	30.058
689.53	31.621
689.85	28.455
690.17	28.155
690.49	31.452
690.82	31.723
691.14	28.081
691.46	33.265
691.78	29.630
692.10	29.008
692.42	29.038
692.74	31.783
693.06	29.651
693.39	30.435
693.71	28.094
694.03	32.150
694.35	32.129
694.67	29.939
694.99	30.377
695.31	32.432
695.63	31.222
695.95	29.864
696.27	33.407
696.59	30.788
696.91	31.899
697.23	30.769
697.56	28.423
697.88	29.142
698.20	29.811
698.52	27.043
698.84	30.390
699.16	31.770
699.48	29.449
699.80	32.244
700.12	33.718
700.44	30.841
700.76	35.084
701.08	29.504
701.40	32.208
701.72	36.364
702.04	33.062
702.36	31.183
702.68	31.915
703.00	31.830
703.32	34.739
703.64	31.738
703.96	31.510
704.28	33.333
704.60	34.648
704.91	32.213
705.23	32.955
705.55	36.202
705.87	32.381
706.19	36.050
706.51	35.423
706.83	32.743
707.15	32.620
707.47	32.930
707.79	32.414
708.11	29.025
708.43	30.337
708.74	27.376
709.06	28.372
709.38	32.010
709.70	31.335
710.02	29.348
710.34	31.768
710.66	35.556
710.98	34.153
711.29	32.591
711.61	34.262
711.93	29.787
712.25	35.843
712.57	35.370
712.89	38.182
713.20	35.783
713.52	33.333
713.84	35.650
714.16	30.435
714.48	25.648
714.80	33.875
715.11	29.787
715.43	32.402
715.75	31.268
716.07	32.948
716.39	32.857
716.70	33.956
717.02	33.670
717.34	35.971
717.66	36.458
717.97	41.288
718.29	36.268
718.61	31.081
718.93	37.370
719.24	37.919
719.56	29.655
719.88	33.439
720.20	33.226
720.51	26.144
720.83	33.779
721.15	34.694
721.46	34.247
721.78	37.282
722.10	34.028
722.42	38.796
722.73	33.574
723.05	37.544
723.37	34.629
723.68	36.719
724.00	41.288
724.32	39.544
724.63	39.231
724.95	36.471
725.27	36.431
725.58	36.765
725.90	29.577
726.22	36.986
726.53	34.783
726.85	34.853
727.16	35.235
727.48	29.900
727.80	34.532
728.11	35.000
728.43	32.609
728.74	31.818
729.06	32.616
729.38	35.088
729.69	35.667
730.01	32.237
730.32	34.228
730.64	33.223
730.96	32.132
731.27	28.746
731.59	28.161
731.90	30.362
732.22	28.000
732.53	27.635
732.85	29.825
733.16	31.627
733.48	31.661
733.80	32.174
734.11	32.209
734.43	28.070
734.74	28.150
735.06	32.275
735.37	28.866
735.69	30.145
736.00	30.581
736.32	30.000
736.63	27.129
736.95	27.950
737.26	30.488
737.58	31.595
737.89	30.723
738.21	32.119
738.52	31.104
738.83	41.392
739.15	33.798
739.46	31.724
739.78	31.633
740.09	33.236
740.41	30.061
740.72	36.190
741.04	35.664
741.35	36.328
741.66	32.016
741.98	37.339
742.29	38.889
742.61	33.186
742.92	33.051
743.23	33.200
743.55	34.340
743.86	33.725
744.18	40.254
744.49	35.124
744.80	38.249
745.12	37.500
745.43	39.252
745.74	39.556
746.06	34.211
746.37	33.953
746.68	41.150
747.00	34.978
747.31	36.555
747.62	35.656
747.94	39.485
748.25	38.911
748.56	41.949
748.88	33.929
749.19	34.419
749.50	33.790
749.82	37.449
750.13	34.387
750.44	27.667
750.75	34.228
751.07	31.579
751.38	32.013
751.69	31.650
752.01	29.021
752.32	29.900
752.63	33.557
752.94	35.315
753.26	36.328
753.57	32.685
753.88	31.086
754.19	31.047
754.51	33.223
754.82	29.866
755.13	31.081
755.44	35.185
755.75	27.835
756.07	31.507
756.38	27.451
756.69	27.813
757.00	32.047
757.31	29.296
757.63	27.548
757.94	27.128
758.25	27.778
758.56	25.629
758.87	24.561
759.18	32.267
759.50	33.739
759.81	29.970
760.12	30.337
760.43	27.451
760.74	28.354
761.05	27.321
761.36	26.042
761.67	29.111
761.99	30.986
762.30	30.547
762.61	32.639
762.92	37.500
763.23	34.340
763.54	31.923
763.85	28.794
764.16	34.028
764.47	32.432
764.78	28.664
765.10	26.829
765.41	27.273
765.72	28.453
766.03	26.586
766.34	33.101
766.65	33.080
766.96	33.198
767.27	40.654
767.58	44.059
767.89	40.331
768.20	43.293
768.51	31.633
768.82	34.649
769.13	36.078
769.44	37.218
769.75	30.712
770.06	33.613
770.37	32.018
770.68	29.778
770.99	36.864
771.30	31.799
771.61	33.462
771.92	36.260
772.23	36.694
772.54	35.556
772.85	41.089
773.16	40.217
773.47	36.111
773.78	34.158
774.09	38.068
774.39	38.788
774.70	38.235
775.01	37.500
775.32	45.963
775.63	45.205
775.94	46.296
776.25	47.586
776.56	46.565
776.87	48.855
777.18	50.758
777.48	47.244
777.79	52.308
778.10	50.758
778.41	40.299
778.72	45.865
779.03	43.590
779.34	41.892
779.65	45.342
779.95	37.888
780.26	43.452
780.57	47.619
780.88	51.064
781.19	52.500
781.50	40.828
781.80	38.798
782.11	40.741
782.42	32.759
782.73	41.243
783.04	40.000
783.34	37.984
783.65	37.415
783.96	45.161
784.27	36.424
784.57	47.368
784.88	50.000
785.19	45.833
785.50	56.034
785.81	61.240
786.11	40.741
786.42	49.606
786.73	44.144
787.04	52.830
787.34	46.341
787.65	48.485
787.96	49.242
788.26	53.543
788.57	46.715
788.88	42.254
789.19	44.275
789.49	44.595
789.80	46.875
790.11	47.107
790.41	52.778
790.72	54.630
791.03	44.231
791.33	62.626
791.64	51.579
791.95	63.158
792.25	37.500
792.56	60.000
792.87	67.073
793.17	57.955
793.48	60.000
793.79	63.218
794.09	56.818
794.40	62.931
794.70	48.413
795.01	44.615
795.32	43.511
795.62	42.735
795.93	47.059
796.23	52.033
796.54	60.204
796.85	67.045
797.15	54.545
797.46	68.293
797.76	60.000
798.07	66.667
798.37	77.500
798.68	63.750
798.99	68.293
799.29	66.667
799.60	46.512
799.90	63.158
800.21	72.727
800.51	61.972
800.82	79.310
801.12	81.538
801.43	76.000
801.73	67.241
802.04	58.442
802.34	69.863
802.65	101.961
802.95	80.435
803.26	91.935
803.56	85.000
803.87	67.164
804.17	69.841
804.48	90.566
804.78	62.500
805.09	60.606
805.39	79.365
805.70	75.439
806.00	60.000
806.30	54.687
806.61	69.412
806.91	74.444
807.22	54.348
807.52	53.947
807.83	75.000
808.13	60.870
808.43	75.806
808.74	57.534
809.04	73.214
809.35	61.765
809.65	80.303
809.95	90.196
810.26	101.852
810.56	95.312
810.86	106.122
811.17	92.982
811.47	91.304
811.77	74.138
812.08	81.034
812.38	92.857
812.69	114.286
812.99	91.111
813.29	105.714
813.59	164.516
813.90	68.966
814.20	77.049
814.50	94.000
814.81	71.930
815.11	87.037
815.41	75.000
815.72	91.071
816.02	100.000
816.32	104.878
816.62	106.897
816.93	87.879
817.23	124.390
817.53	75.000
817.84	97.778
818.14	97.619
818.44	100.000
818.74	86.792
819.04	102.564
819.35	106.061
819.65	105.769
819.95	112.963
820.25	117.021
820.56	113.514
820.86	118.421
821.16	72.340
821.46	123.684
821.76	96.364
822.07	80.952
822.37	113.158
822.67	130.233
822.97	81.579
823.27	95.652
823.57	121.875
823.88	135.897
824.18	139.394
824.48	147.826
824.78	122.222
825.08	213.043
825.38	127.586
825.69	114.706
825.99	95.745
826.29	100.000
826.59	111.429
826.89	176.667
827.19	91.429
827.49	135.484
827.79	157.692
828.09	102.381
828.39	130.556
828.70	102.703
829.00	185.714
829.30	243.750
829.60	116.667
829.90	129.032
830.20	96.970
830.50	156.757
830.80	170.833
831.10	157.692
831.40	166.667
831.70	170.833
832.00	126.667
832.30	204.348
832.60	204.167
832.90	154.545
833.20	225.000
833.50	110.526
833.80	117.647
834.10	131.579
834.40	163.158
834.70	136.667
835.00	156.000
835.30	78.378
835.60	128.125
835.90	116.216
836.20	192.308
836.50	177.273
836.80	104.878
837.10	186.957
837.40	246.154
837.70	121.053
838.00	156.667
838.30	154.167
838.60	148.000
838.90	410.000
839.19	175.000
839.49	133.333
839.79	131.034
840.09	173.077
840.39	180.000
840.69	221.053
840.99	171.429
841.29	191.304
841.59	215.000
841.88	188.000
842.18	388.889
842.48	157.143
842.78	174.074
843.08	276.923
843.38	159.091
843.68	292.857
843.97	471.429
844.27	186.957
844.57	1700.000
844.87	285.714
845.17	294.444
845.47	161.905
845.76	200.000
846.06	542.857
846.36	194.118
846.66	300.000
846.96	231.250
847.25	238.462
847.55	173.684
847.85	211.111
848.15	680.000
848.44	218.182
848.74	195.238
849.04	191.667
849.34	211.765
849.63	256.250
849.93	250.000
850.23	1000.000
850.53	462.500
850.82	290.909
851.12	223.529
851.42	162.500
851.71	250.000
852.01	0.000
852.31	211.765
852.61	320.000
852.90	183.333
853.20	400.000
853.50	-2500.000
853.79	180.000
854.09	171.875
854.39	137.931
854.68	131.034
854.98	209.524
855.28	109.677
855.57	307.143
855.87	194.444
856.17	162.963
856.46	163.158
856.76	145.161
857.05	217.647
857.35	318.182
857.65	330.769
857.94	205.000
858.24	311.111
858.53	292.857
858.83	600.000
859.13	191.304
859.42	366.667
859.72	337.500
860.01	225.000
860.31	900.000
860.60	370.000
860.90	437.500
861.20	300.000
861.49	585.714
861.79	-3500.000
862.08	457.143
862.38	366.667
862.67	178.571
862.97	430.000
863.26	133.333
863.56	800.000
863.85	346.154
864.15	247.059
864.44	211.111
864.74	350.000
865.03	400.000
865.33	300.000
865.62	226.667
865.92	616.667
866.21	1075.000
866.51	880.000
866.80	205.556
867.10	900.000
867.39	4200.000
867.69	740.000
867.98	825.000
868.27	242.857
868.57	320.000
868.86	1050.000
869.16	133.333
869.45	3300.000
869.75	-416.667
870.04	725.000
870.33	620.000
870.63	250.000
870.92	229.412
871.22	925.000
871.51	428.571
871.80	283.333
872.10	276.923
>>>>>End Processed Spectral Data<<<<<
