SpectraSuite Data File
++++++++++++++++++++++++++++++++++++
Date: Thu May 14 16:18:36 PDT 2015
User: schluterlab
Dark Spectrum Present: Yes
Reference Spectrum Present: Yes
Number of Sampled Component Spectra: 1
Spectrometers: USB2E3373
Integration Time (usec): 3000 (USB2E3373)
Spectra Averaged: 3 (USB2E3373)
Boxcar Smoothing: 0 (USB2E3373)
Correct for Electrical Dark: No (USB2E3373)
Strobe/Lamp Enabled: No (USB2E3373)
Correct for Detector Non-linearity: No (USB2E3373)
Correct for Stray Light: No (USB2E3373)
Number of Pixels in Processed Spectrum: 2048
>>>>>Begin Processed Spectral Data<<<<<
178.53	0.000
178.91	142.857
179.29	-300.000
179.67	200.000
180.04	135.714
180.42	60.000
180.80	120.000
181.18	0.000
181.56	-100.000
181.94	275.000
182.31	-150.000
182.69	-0.000
183.07	-100.000
183.45	-125.000
183.83	-83.333
184.20	-200.000
184.58	-200.000
184.96	-50.000
185.34	-22.222
185.72	120.000
186.09	44.444
186.47	150.000
186.85	280.000
187.23	-44.444
187.61	-900.000
187.98	-20.000
188.36	275.000
188.74	-225.000
189.12	66.667
189.49	31.250
189.87	-75.000
190.25	-22.222
190.63	-60.000
191.00	-144.444
191.38	0.000
191.76	-225.000
192.14	-83.333
192.51	50.000
192.89	-33.333
193.27	0.000
193.65	-100.000
194.02	-1200.000
194.40	-71.429
194.78	71.429
195.15	0.000
195.53	9.091
195.91	0.000
196.29	-275.000
196.66	-100.000
197.04	-1000.000
197.42	14.286
197.79	-50.000
198.17	-37.500
198.55	-142.857
198.92	22.222
199.30	-100.000
199.68	36.364
200.05	-21.429
200.43	0.000
200.81	157.143
201.18	0.000
201.56	166.667
201.94	0.000
202.31	500.000
202.69	-22.222
203.07	100.000
203.44	11.111
203.82	0.000
204.19	0.000
204.57	0.000
204.95	-87.500
205.32	-800.000
205.70	100.000
206.08	-50.000
206.45	33.333
206.83	280.000
207.20	-33.333
207.58	-200.000
207.96	-50.000
208.33	-133.333
208.71	41.667
209.08	50.000
209.46	0.000
209.84	150.000
210.21	450.000
210.59	550.000
210.96	333.333
211.34	-25.000
211.71	-137.500
212.09	-1700.000
212.46	0.000
212.84	100.000
213.22	-300.000
213.59	-100.000
213.97	50.000
214.34	166.667
214.72	216.667
215.09	-100.000
215.47	0.000
215.84	-14.286
216.22	200.000
216.59	-220.000
216.97	-40.000
217.34	-50.000
217.72	62.500
218.09	-275.000
218.47	-250.000
218.84	0.000
219.22	-40.000
219.59	11.765
219.97	35.000
220.34	300.000
220.72	11.111
221.09	69.231
221.47	-233.333
221.84	-30.000
222.22	-42.857
222.59	0.000
222.97	25.000
223.34	-160.000
223.72	-2100.000
224.09	-125.000
224.46	-225.000
224.84	-20.000
225.21	-171.429
225.59	-325.000
225.96	-50.000
226.34	3.846
226.71	233.333
227.08	-400.000
227.46	-13.333
227.83	-50.000
228.21	26.316
228.58	112.500
228.95	300.000
229.33	-33.333
229.70	50.000
230.08	47.368
230.45	50.000
230.82	166.667
231.20	14.286
231.57	-8.333
231.95	9.091
232.32	0.000
232.69	30.000
233.07	-75.000
233.44	0.000
233.81	-40.000
234.19	61.111
234.56	-9.091
234.93	-17.241
235.31	-26.316
235.68	0.000
236.05	-60.000
236.43	38.462
236.80	36.000
237.17	-3.704
237.55	0.000
237.92	-90.000
238.29	-6.452
238.67	11.364
239.04	11.111
239.41	0.000
239.79	10.870
240.16	1.852
240.53	4.348
240.91	11.765
241.28	14.754
241.65	22.388
242.02	21.622
242.40	20.000
242.77	1.333
243.14	10.976
243.51	17.105
243.89	0.000
244.26	13.861
244.63	13.725
245.00	15.888
245.38	14.035
245.75	1.770
246.12	10.317
246.49	13.953
246.87	12.857
247.24	19.205
247.61	19.737
247.98	14.094
248.36	9.877
248.73	13.497
249.10	18.579
249.47	16.418
249.84	27.749
250.22	14.508
250.59	14.444
250.96	22.273
251.33	12.245
251.70	17.521
252.08	18.333
252.45	21.721
252.82	17.355
253.19	12.109
253.56	20.152
253.94	16.923
254.31	19.318
254.68	24.126
255.05	21.498
255.42	15.306
255.79	12.621
256.16	17.219
256.54	18.212
256.91	20.000
257.28	16.393
257.65	12.420
258.02	16.814
258.39	19.088
258.76	21.713
259.14	20.402
259.51	16.715
259.88	20.680
260.25	18.889
260.62	17.808
260.99	20.219
261.36	16.622
261.73	16.711
262.10	15.934
262.47	17.426
262.85	18.182
263.22	15.325
263.59	15.526
263.96	15.601
264.33	17.391
264.70	18.272
265.07	20.764
265.44	19.728
265.81	18.056
266.18	19.501
266.55	18.527
266.92	16.173
267.29	17.724
267.66	17.295
268.03	17.904
268.40	17.328
268.77	17.312
269.14	16.300
269.51	17.325
269.88	17.418
270.25	17.907
270.62	16.034
270.99	17.374
271.36	19.010
271.73	17.878
272.10	17.635
272.47	18.437
272.84	18.876
273.21	16.834
273.58	16.734
273.95	15.769
274.32	15.399
274.69	14.313
275.06	16.667
275.43	16.451
275.80	18.166
276.17	16.296
276.54	16.045
276.91	13.775
277.28	17.541
277.65	15.799
278.02	18.199
278.39	16.304
278.76	17.399
279.13	17.199
279.50	17.869
279.87	17.174
280.23	15.141
280.60	16.271
280.97	16.612
281.34	14.601
281.71	18.274
282.08	16.611
282.45	14.566
282.82	15.699
283.19	14.701
283.56	12.951
283.92	16.967
284.29	16.904
284.66	17.570
285.03	13.782
285.40	16.074
285.77	15.635
286.14	17.710
286.51	14.155
286.87	15.324
287.24	14.759
287.61	14.350
287.98	15.861
288.35	16.568
288.72	16.420
289.08	16.837
289.45	13.609
289.82	15.964
290.19	15.086
290.56	14.366
290.93	15.549
291.29	14.325
291.66	15.702
292.03	15.332
292.40	16.054
292.77	13.208
293.13	14.614
293.50	14.192
293.87	13.691
294.24	16.133
294.60	15.171
294.97	12.215
295.34	14.597
295.71	15.511
296.08	13.566
296.44	13.848
296.81	13.276
297.18	13.699
297.55	14.976
297.91	13.642
298.28	13.507
298.65	13.080
299.02	13.577
299.38	13.730
299.75	15.187
300.12	13.079
300.48	13.364
300.85	13.273
301.22	12.640
301.59	13.014
301.95	14.350
302.32	14.333
302.69	12.267
303.05	14.146
303.42	14.191
303.79	13.438
304.15	14.196
304.52	11.734
304.89	12.356
305.25	13.043
305.62	12.226
305.99	13.299
306.35	13.407
306.72	14.271
307.09	12.183
307.45	12.629
307.82	12.210
308.19	12.916
308.55	13.790
308.92	13.145
309.29	13.027
309.65	13.840
310.02	12.970
310.38	13.583
310.75	12.718
311.12	14.286
311.48	13.392
311.85	13.770
312.22	13.378
312.58	13.991
312.95	14.245
313.31	14.092
313.68	14.469
314.05	15.176
314.41	14.299
314.78	15.259
315.14	14.428
315.51	14.774
315.87	15.482
316.24	15.890
316.61	15.364
316.97	13.937
317.34	15.079
317.70	15.459
318.07	14.727
318.43	15.476
318.80	15.635
319.16	15.880
319.53	14.482
319.89	14.636
320.26	15.925
320.62	15.426
320.99	15.143
321.35	15.712
321.72	17.116
322.08	15.059
322.45	16.621
322.81	17.238
323.18	17.080
323.54	17.241
323.91	17.349
324.27	16.954
324.64	18.724
325.00	16.750
325.37	18.018
325.73	17.438
326.10	17.924
326.46	19.707
326.83	19.295
327.19	17.874
327.56	18.419
327.92	18.961
328.29	18.629
328.65	19.682
329.01	20.389
329.38	19.040
329.74	19.606
330.11	19.521
330.47	19.545
330.84	19.294
331.20	19.667
331.56	19.757
331.93	20.251
332.29	19.831
332.66	20.017
333.02	20.184
333.38	19.463
333.75	20.034
334.11	19.850
334.48	20.050
334.84	20.136
335.20	19.731
335.57	20.489
335.93	20.744
336.29	18.636
336.66	20.437
337.02	20.819
337.38	21.429
337.75	19.835
338.11	18.839
338.47	20.844
338.84	20.389
339.20	19.798
339.56	19.769
339.93	19.376
340.29	20.773
340.65	20.114
341.02	21.628
341.38	20.695
341.74	19.532
342.11	20.676
342.47	18.745
342.83	19.968
343.20	19.706
343.56	19.888
343.92	20.016
344.28	20.312
344.65	20.620
345.01	20.827
345.37	21.306
345.73	19.953
346.10	20.125
346.46	19.858
346.82	19.700
347.19	20.626
347.55	20.258
347.91	19.985
348.27	20.561
348.63	21.630
349.00	19.836
349.36	20.372
349.72	19.494
350.08	20.208
350.45	18.783
350.81	19.985
351.17	20.376
351.53	21.228
351.89	21.185
352.26	18.806
352.62	19.552
352.98	20.382
353.34	19.492
353.70	20.724
354.07	20.268
354.43	20.425
354.79	20.045
355.15	19.647
355.51	20.833
355.87	19.521
356.24	20.608
356.60	20.251
356.96	20.163
357.32	20.520
357.68	20.571
358.04	21.108
358.40	19.478
358.77	20.980
359.13	20.089
359.49	19.777
359.85	21.610
360.21	19.943
360.57	20.029
360.93	21.439
361.29	21.193
361.66	20.203
362.02	21.503
362.38	21.504
362.74	20.740
363.10	21.320
363.46	21.053
363.82	21.662
364.18	21.393
364.54	20.263
364.90	22.274
365.26	21.241
365.62	21.800
365.98	20.899
366.35	21.544
366.71	22.177
367.07	21.922
367.43	21.668
367.79	21.632
368.15	21.806
368.51	21.651
368.87	21.685
369.23	21.000
369.59	22.063
369.95	21.974
370.31	21.675
370.67	21.664
371.03	22.992
371.39	20.551
371.75	22.421
372.11	21.748
372.47	21.395
372.83	22.840
373.19	22.415
373.55	22.629
373.91	21.404
374.27	21.992
374.63	22.666
374.99	22.281
375.35	22.273
375.71	21.613
376.07	22.660
376.42	22.040
376.78	22.996
377.14	21.896
377.50	22.328
377.86	22.167
378.22	22.934
378.58	23.246
378.94	23.239
379.30	22.964
379.66	23.280
380.02	24.005
380.38	23.848
380.74	22.648
381.09	23.171
381.45	23.125
381.81	24.824
382.17	23.753
382.53	23.392
382.89	24.041
383.25	23.623
383.61	24.074
383.97	23.322
384.32	23.923
384.68	23.202
385.04	24.465
385.40	24.278
385.76	24.971
386.12	23.698
386.48	24.588
386.83	25.745
387.19	24.623
387.55	23.650
387.91	24.201
388.27	25.173
388.62	24.570
388.98	24.929
389.34	25.575
389.70	24.985
390.06	25.636
390.42	24.458
390.77	25.467
391.13	25.528
391.49	25.664
391.85	25.697
392.20	24.911
392.56	26.048
392.92	25.845
393.28	25.152
393.64	26.816
393.99	26.612
394.35	26.694
394.71	25.928
395.07	25.509
395.42	25.700
395.78	26.813
396.14	27.035
396.50	25.950
396.85	25.880
397.21	25.858
397.57	26.678
397.92	27.090
398.28	25.964
398.64	25.858
399.00	25.654
399.35	27.539
399.71	25.707
400.07	27.288
400.42	27.008
400.78	27.488
401.14	26.864
401.49	26.777
401.85	28.198
402.21	27.810
402.57	28.169
402.92	27.187
403.28	27.283
403.63	26.969
403.99	27.613
404.35	27.345
404.70	27.932
405.06	28.207
405.42	28.162
405.77	28.571
406.13	29.335
406.49	28.153
406.84	28.421
407.20	28.172
407.55	28.104
407.91	28.661
408.27	28.092
408.62	29.785
408.98	28.497
409.34	28.328
409.69	29.913
410.05	29.132
410.40	30.800
410.76	29.613
411.11	29.223
411.47	30.160
411.83	29.630
412.18	30.904
412.54	30.113
412.89	29.569
413.25	29.684
413.60	29.868
413.96	31.119
414.31	29.348
414.67	30.471
415.03	30.154
415.38	30.580
415.74	31.032
416.09	32.017
416.45	29.931
416.80	31.028
417.16	31.226
417.51	30.760
417.87	31.085
418.22	30.898
418.58	30.731
418.93	30.268
419.29	31.319
419.64	31.393
420.00	31.869
420.35	30.769
420.71	31.074
421.06	31.627
421.42	32.225
421.77	30.479
422.12	31.025
422.48	31.797
422.83	32.968
423.19	32.626
423.54	31.858
423.90	31.916
424.25	31.840
424.61	31.860
424.96	33.114
425.31	33.121
425.67	31.294
426.02	32.706
426.38	32.204
426.73	32.757
427.09	33.276
427.44	32.496
427.79	32.504
428.15	31.792
428.50	32.697
428.85	32.836
429.21	33.777
429.56	32.823
429.92	33.464
430.27	32.771
430.62	33.366
430.98	33.153
431.33	33.284
431.68	33.094
432.04	33.926
432.39	33.583
432.74	32.877
433.10	33.694
433.45	33.278
433.80	32.833
434.16	33.729
434.51	34.430
434.86	34.528
435.22	34.006
435.57	34.847
435.92	34.947
436.28	33.447
436.63	35.281
436.98	33.441
437.34	34.329
437.69	33.021
438.04	34.638
438.39	34.693
438.75	34.311
439.10	34.884
439.45	34.153
439.81	34.237
440.16	34.155
440.51	35.452
440.86	34.464
441.22	35.477
441.57	34.591
441.92	34.287
442.27	35.101
442.63	35.668
442.98	35.165
443.33	34.982
443.68	35.828
444.03	36.030
444.39	35.183
444.74	35.630
445.09	35.175
445.44	35.142
445.79	36.542
446.15	35.663
446.50	35.504
446.85	36.089
447.20	35.445
447.55	36.559
447.91	35.969
448.26	35.729
448.61	36.769
448.96	37.554
449.31	35.949
449.66	35.076
450.02	35.654
450.37	36.761
450.72	36.222
451.07	36.674
451.42	35.875
451.77	36.076
452.12	36.625
452.47	36.067
452.83	36.712
453.18	35.844
453.53	37.450
453.88	36.389
454.23	36.893
454.58	36.332
454.93	35.862
455.28	36.484
455.63	37.976
455.98	36.872
456.34	36.396
456.69	36.626
457.04	37.411
457.39	37.694
457.74	36.969
458.09	37.342
458.44	37.554
458.79	36.153
459.14	36.969
459.49	38.087
459.84	37.041
460.19	36.702
460.54	36.854
460.89	37.692
461.24	37.011
461.59	37.797
461.94	36.167
462.29	37.290
462.64	37.236
462.99	37.225
463.34	37.313
463.69	36.987
464.04	38.188
464.39	37.220
464.74	37.457
465.09	37.486
465.44	37.500
465.79	37.441
466.14	37.103
466.49	37.632
466.84	37.961
467.19	37.630
467.54	36.780
467.89	38.103
468.24	37.950
468.59	37.695
468.94	36.131
469.29	37.253
469.64	38.589
469.99	38.815
470.34	38.552
470.68	39.166
471.03	39.031
471.38	38.784
471.73	38.427
472.08	40.165
472.43	38.832
472.78	39.798
473.13	39.823
473.48	38.731
473.83	39.640
474.17	38.804
474.52	39.687
474.87	38.095
475.22	39.099
475.57	38.993
475.92	38.875
476.27	39.244
476.61	38.889
476.96	38.582
477.31	39.406
477.66	40.241
478.01	40.061
478.36	38.734
478.70	39.113
479.05	40.184
479.40	38.845
479.75	39.866
480.10	39.602
480.45	39.608
480.79	39.365
481.14	39.568
481.49	39.255
481.84	39.730
482.19	40.301
482.53	39.659
482.88	40.009
483.23	39.929
483.58	39.738
483.92	39.051
484.27	39.966
484.62	38.985
484.97	39.774
485.31	39.036
485.66	37.024
486.01	36.805
486.36	37.012
486.70	38.520
487.05	38.926
487.40	39.285
487.75	40.102
488.09	39.194
488.44	39.180
488.79	39.865
489.13	38.668
489.48	39.029
489.83	39.195
490.17	38.761
490.52	39.573
490.87	39.552
491.22	40.815
491.56	39.932
491.91	39.904
492.26	39.463
492.60	39.703
492.95	40.456
493.30	40.072
493.64	39.378
493.99	40.658
494.34	40.592
494.68	39.186
495.03	40.749
495.37	41.190
495.72	40.227
496.07	40.798
496.41	40.112
496.76	40.450
497.11	39.873
497.45	40.570
497.80	40.426
498.14	40.091
498.49	40.579
498.84	40.722
499.18	40.531
499.53	40.852
499.87	40.747
500.22	40.116
500.56	40.621
500.91	41.098
501.26	41.591
501.60	40.168
501.95	41.815
502.29	41.685
502.64	41.146
502.98	41.027
503.33	39.870
503.67	41.561
504.02	40.806
504.36	41.957
504.71	41.203
505.06	41.428
505.40	41.910
505.75	42.532
506.09	41.759
506.44	42.618
506.78	42.890
507.13	42.923
507.47	43.960
507.82	43.087
508.16	42.830
508.51	42.991
508.85	43.647
509.19	43.818
509.54	43.516
509.88	43.273
510.23	43.808
510.57	43.886
510.92	43.251
511.26	44.204
511.61	43.361
511.95	43.680
512.30	45.396
512.64	44.278
512.98	44.772
513.33	45.464
513.67	44.773
514.02	46.295
514.36	45.627
514.70	46.823
515.05	45.620
515.39	47.454
515.74	46.925
516.08	46.646
516.42	46.886
516.77	47.844
517.11	45.591
517.46	47.296
517.80	47.034
518.14	47.497
518.49	47.831
518.83	47.206
519.17	47.334
519.52	47.904
519.86	48.152
520.20	46.965
520.55	48.138
520.89	48.029
521.23	48.800
521.58	48.870
521.92	48.612
522.26	48.797
522.61	49.826
522.95	49.942
523.29	51.149
523.64	50.168
523.98	50.827
524.32	50.888
524.66	49.573
525.01	50.000
525.35	49.627
525.69	49.710
526.04	49.024
526.38	50.287
526.72	50.692
527.06	51.261
527.41	51.137
527.75	50.831
528.09	51.712
528.43	51.036
528.78	50.173
529.12	51.548
529.46	49.635
529.80	50.973
530.15	51.304
530.49	51.483
530.83	51.594
531.17	50.717
531.51	51.083
531.86	51.382
532.20	52.134
532.54	51.346
532.88	52.848
533.22	51.915
533.57	51.991
533.91	50.112
534.25	51.328
534.59	52.586
534.93	51.783
535.27	51.380
535.62	51.393
535.96	53.167
536.30	51.821
536.64	52.492
536.98	52.153
537.32	52.654
537.66	54.460
538.01	50.151
538.35	51.462
538.69	51.082
539.03	52.851
539.37	51.767
539.71	52.132
540.05	51.499
540.39	51.284
540.73	52.459
541.07	52.974
541.42	51.270
541.76	52.195
542.10	51.448
542.44	51.583
542.78	51.764
543.12	51.669
543.46	52.503
543.80	50.719
544.14	52.603
544.48	52.246
544.82	51.466
545.16	52.355
545.50	52.367
545.84	51.868
546.18	52.901
546.52	51.911
546.86	51.258
547.20	52.608
547.54	52.622
547.88	51.959
548.22	51.170
548.56	51.960
548.90	51.940
549.24	51.489
549.58	52.114
549.92	52.360
550.26	53.139
550.60	53.478
550.94	53.881
551.28	52.409
551.62	53.100
551.96	52.557
552.30	52.326
552.64	52.147
552.98	52.776
553.32	53.248
553.66	51.961
554.00	51.198
554.34	53.604
554.68	51.130
555.02	51.051
555.36	52.926
555.69	51.698
556.03	51.261
556.37	51.690
556.71	51.744
557.05	51.438
557.39	52.555
557.73	53.633
558.07	51.722
558.41	53.621
558.75	52.671
559.08	53.514
559.42	53.292
559.76	52.849
560.10	52.244
560.44	52.243
560.78	52.812
561.12	51.170
561.45	52.190
561.79	51.465
562.13	51.633
562.47	51.356
562.81	52.342
563.15	52.273
563.48	52.517
563.82	51.270
564.16	51.302
564.50	51.132
564.84	50.383
565.17	51.294
565.51	50.748
565.85	50.534
566.19	50.000
566.52	51.726
566.86	50.538
567.20	49.918
567.54	50.239
567.88	51.172
568.21	50.247
568.55	49.880
568.89	49.387
569.23	49.768
569.56	48.261
569.90	47.790
570.24	47.757
570.57	46.985
570.91	46.203
571.25	46.225
571.59	46.312
571.92	45.896
572.26	46.427
572.60	46.519
572.93	46.284
573.27	45.856
573.61	45.844
573.95	45.521
574.28	45.036
574.62	44.793
574.96	44.420
575.29	44.944
575.63	44.583
575.97	45.844
576.30	45.004
576.64	45.288
576.98	44.806
577.31	45.138
577.65	45.419
577.98	44.729
578.32	43.795
578.66	44.478
578.99	44.931
579.33	44.953
579.67	44.084
580.00	44.684
580.34	44.066
580.67	44.682
581.01	44.245
581.35	44.652
581.68	43.425
582.02	43.453
582.35	43.916
582.69	44.458
583.02	44.795
583.36	44.321
583.70	44.967
584.03	44.660
584.37	44.631
584.70	44.230
585.04	43.874
585.37	43.880
585.71	43.344
586.04	43.857
586.38	44.406
586.72	44.121
587.05	44.436
587.39	44.727
587.72	44.378
588.06	44.221
588.39	43.864
588.73	44.418
589.06	44.893
589.40	45.083
589.73	44.634
590.07	44.761
590.40	45.368
590.73	45.387
591.07	45.272
591.40	45.334
591.74	45.707
592.07	45.879
592.41	44.992
592.74	43.947
593.08	44.522
593.41	44.940
593.75	44.339
594.08	44.714
594.41	44.583
594.75	44.736
595.08	44.145
595.42	44.740
595.75	44.172
596.09	44.121
596.42	44.285
596.75	45.928
597.09	44.768
597.42	44.696
597.75	44.649
598.09	44.127
598.42	45.155
598.76	44.326
599.09	42.933
599.42	42.541
599.76	43.513
600.09	42.709
600.42	43.076
600.76	43.461
601.09	43.146
601.42	42.533
601.76	43.552
602.09	42.888
602.42	43.003
602.76	43.948
603.09	43.576
603.42	44.581
603.76	43.058
604.09	44.038
604.42	43.156
604.76	43.683
605.09	43.678
605.42	43.581
605.75	43.346
606.09	43.636
606.42	42.539
606.75	42.729
607.09	42.627
607.42	42.967
607.75	43.298
608.08	43.331
608.42	43.491
608.75	43.159
609.08	42.615
609.41	42.479
609.75	43.348
610.08	44.107
610.41	43.161
610.74	43.613
611.07	43.472
611.41	44.260
611.74	43.649
612.07	43.338
612.40	43.061
612.73	44.499
613.07	43.716
613.40	44.033
613.73	43.091
614.06	43.867
614.39	43.149
614.72	42.989
615.06	43.551
615.39	43.548
615.72	43.365
616.05	43.613
616.38	42.432
616.71	42.947
617.05	42.865
617.38	43.553
617.71	44.762
618.04	44.037
618.37	43.880
618.70	45.249
619.03	44.325
619.36	45.129
619.69	44.395
620.03	44.884
620.36	44.479
620.69	44.170
621.02	44.357
621.35	47.170
621.68	45.842
622.01	45.907
622.34	44.770
622.67	45.155
623.00	43.860
623.33	44.061
623.66	45.396
623.99	43.910
624.32	44.314
624.65	43.887
624.99	45.579
625.32	45.265
625.65	44.437
625.98	43.525
626.31	44.578
626.64	44.908
626.97	43.961
627.30	44.419
627.63	43.361
627.96	44.520
628.29	45.837
628.62	43.661
628.95	47.590
629.28	45.455
629.61	44.276
629.94	44.603
630.26	45.000
630.59	46.200
630.92	44.935
631.25	46.064
631.58	47.552
631.91	46.673
632.24	47.839
632.57	47.249
632.90	45.336
633.23	46.020
633.56	46.633
633.89	46.901
634.22	46.466
634.55	47.808
634.88	45.238
635.20	46.825
635.53	47.006
635.86	47.129
636.19	47.190
636.52	46.730
636.85	47.089
637.18	45.946
637.51	45.806
637.83	45.847
638.16	47.120
638.49	45.775
638.82	46.449
639.15	45.819
639.48	47.575
639.81	47.575
640.13	46.761
640.46	45.212
640.79	44.975
641.12	45.839
641.45	47.679
641.77	47.625
642.10	46.588
642.43	47.739
642.76	48.103
643.09	48.082
643.41	49.020
643.74	48.690
644.07	48.552
644.40	45.969
644.73	46.154
645.05	46.549
645.38	47.338
645.71	45.748
646.04	45.624
646.36	45.985
646.69	47.239
647.02	47.859
647.35	46.718
647.67	48.953
648.00	48.885
648.33	48.048
648.66	46.220
648.98	44.082
649.31	46.143
649.64	45.817
649.96	44.032
650.29	44.924
650.62	44.554
650.94	47.748
651.27	44.461
651.60	44.152
651.92	45.137
652.25	43.415
652.58	44.842
652.90	46.802
653.23	46.479
653.56	45.649
653.88	44.663
654.21	43.521
654.54	44.942
654.86	43.059
655.19	42.911
655.52	41.261
655.84	36.477
656.17	41.165
656.49	57.287
656.82	62.017
657.15	48.718
657.47	37.376
657.80	27.981
658.13	21.839
658.45	29.267
658.78	35.886
659.10	35.597
659.43	35.548
659.75	36.279
660.08	35.966
660.41	37.221
660.73	37.514
661.06	41.557
661.38	42.903
661.71	46.034
662.03	44.621
662.36	47.943
662.68	46.341
663.01	44.602
663.33	46.125
663.66	45.788
663.98	43.846
664.31	48.030
664.63	44.894
664.96	46.824
665.28	45.554
665.61	44.406
665.93	44.643
666.26	44.624
666.58	42.066
666.91	47.290
667.23	45.714
667.56	47.535
667.88	44.800
668.21	41.406
668.53	43.822
668.86	45.776
669.18	48.473
669.50	43.539
669.83	43.800
670.15	41.732
670.48	44.841
670.80	45.698
671.13	43.289
671.45	43.307
671.77	45.386
672.10	39.667
672.42	41.748
672.75	42.396
673.07	42.090
673.39	38.829
673.72	42.617
674.04	43.103
674.37	42.397
674.69	43.915
675.01	43.810
675.34	42.366
675.66	39.326
675.98	41.418
676.31	43.945
676.63	46.008
676.95	45.019
677.28	41.532
677.60	40.945
677.92	43.186
678.25	43.693
678.57	40.036
678.89	41.809
679.22	40.244
679.54	40.684
679.86	38.644
680.18	40.133
680.51	40.094
680.83	41.735
681.15	40.172
681.48	40.069
681.80	41.623
682.12	40.559
682.44	38.397
682.77	39.007
683.09	43.182
683.41	43.605
683.73	38.330
684.06	40.406
684.38	40.072
684.70	41.652
685.02	39.243
685.34	40.100
685.67	37.539
685.99	36.656
686.31	37.064
686.63	38.547
686.96	37.382
687.28	38.762
687.60	36.700
687.92	37.942
688.24	39.733
688.56	36.207
688.89	36.479
689.21	40.705
689.53	38.431
689.85	39.645
690.17	38.148
690.49	37.450
690.82	38.218
691.14	34.008
691.46	39.579
691.78	40.147
692.10	36.514
692.42	36.964
692.74	35.935
693.06	32.037
693.39	37.951
693.71	36.278
694.03	36.803
694.35	34.476
694.67	39.425
694.99	37.234
695.31	39.956
695.63	35.931
695.95	37.888
696.27	35.165
696.59	39.381
696.91	38.964
697.23	40.659
697.56	36.660
697.88	34.848
698.20	36.911
698.52	39.205
698.84	37.838
699.16	38.980
699.48	37.657
699.80	37.234
700.12	38.210
700.44	35.714
700.76	40.618
701.08	38.741
701.40	40.155
701.72	36.816
702.04	39.572
702.36	37.958
702.68	37.164
703.00	36.186
703.32	38.916
703.64	38.386
703.96	36.038
704.28	36.118
704.60	41.013
704.91	35.459
705.23	37.534
705.55	38.997
705.87	39.091
706.19	41.718
706.51	36.145
706.83	41.499
707.15	32.804
707.47	35.981
707.79	34.061
708.11	31.992
708.43	33.118
708.74	33.482
709.06	32.251
709.38	33.803
709.70	36.476
710.02	32.041
710.34	38.032
710.66	34.078
710.98	35.519
711.29	36.538
711.61	36.723
711.93	36.752
712.25	35.676
712.57	35.988
712.89	38.824
713.20	36.391
713.52	34.971
713.84	35.933
714.16	35.526
714.48	38.402
714.80	36.623
715.11	35.958
715.43	33.156
715.75	35.000
716.07	34.530
716.39	36.885
716.70	36.446
717.02	37.377
717.34	37.282
717.66	35.235
717.97	33.904
718.29	35.052
718.61	33.882
718.93	33.333
719.24	33.230
719.56	34.049
719.88	33.033
720.20	30.968
720.51	34.161
720.83	35.000
721.15	33.882
721.46	32.192
721.78	31.333
722.10	32.039
722.42	32.550
722.73	34.194
723.05	34.737
723.37	38.542
723.68	37.993
724.00	36.101
724.32	32.042
724.63	33.566
724.95	36.525
725.27	34.843
725.58	33.216
725.90	36.552
726.22	33.856
726.53	35.390
726.85	33.648
727.16	31.420
727.48	31.498
727.80	37.086
728.11	32.155
728.43	37.710
728.74	33.779
729.06	32.781
729.38	34.091
729.69	32.550
730.01	29.762
730.32	28.182
730.64	32.704
730.96	29.193
731.27	31.564
731.59	30.769
731.90	29.351
732.22	30.729
732.53	27.624
732.85	30.571
733.16	30.792
733.48	27.744
733.80	30.641
734.11	30.484
734.43	29.189
734.74	33.671
735.06	29.146
735.37	34.324
735.69	30.000
736.00	29.944
736.32	28.571
736.63	26.667
736.95	31.897
737.26	28.788
737.58	28.788
737.89	31.176
738.21	28.440
738.52	27.869
738.83	33.788
739.15	34.043
739.46	28.912
739.78	35.583
740.09	28.367
740.41	30.904
740.72	26.667
741.04	31.068
741.35	29.825
741.66	36.078
741.98	30.328
742.29	30.544
742.61	29.825
742.92	37.692
743.23	30.686
743.55	30.233
743.86	31.600
744.18	27.273
744.49	29.958
744.80	32.922
745.12	33.333
745.43	30.894
745.74	32.328
746.06	31.780
746.37	32.489
746.68	32.927
747.00	31.250
747.31	30.901
747.62	34.615
747.94	27.935
748.25	30.120
748.56	28.571
748.88	29.487
749.19	33.190
749.50	32.468
749.82	32.530
750.13	32.028
750.44	28.667
750.75	30.154
751.07	28.615
751.38	28.391
751.69	28.754
752.01	27.832
752.32	28.758
752.63	29.932
752.94	29.066
753.26	25.651
753.57	27.407
753.88	29.588
754.19	30.225
754.51	29.260
754.82	27.010
755.13	31.803
755.44	28.328
755.75	30.263
756.07	31.045
756.38	23.899
756.69	29.819
757.00	24.931
757.31	26.503
757.63	27.366
757.94	27.700
758.25	25.508
758.56	25.708
758.87	24.773
759.18	28.533
759.50	28.895
759.81	26.050
760.12	28.571
760.43	31.771
760.74	28.818
761.05	24.250
761.36	23.373
761.67	26.142
761.99	28.649
762.30	28.049
762.61	25.413
762.92	31.343
763.23	31.086
763.54	28.417
763.85	25.086
764.16	25.926
764.47	29.577
764.78	28.435
765.10	23.460
765.41	28.974
765.72	26.720
766.03	29.096
766.34	25.078
766.65	25.436
766.96	27.888
767.27	32.258
767.58	26.368
767.89	27.885
768.20	29.108
768.51	25.926
768.82	23.293
769.13	24.621
769.44	24.615
769.75	27.798
770.06	24.615
770.37	29.134
770.68	26.383
770.99	21.053
771.30	28.519
771.61	25.095
771.92	30.741
772.23	27.126
772.54	21.759
772.85	29.493
773.16	33.333
773.47	28.042
773.78	23.784
774.09	27.273
774.39	31.500
774.70	26.776
775.01	23.780
775.32	24.118
775.63	25.767
775.94	20.382
776.25	27.097
776.56	32.051
776.87	31.973
777.18	22.069
777.48	25.874
777.79	25.000
778.10	28.676
778.41	25.694
778.72	35.172
779.03	29.012
779.34	27.879
779.65	25.907
779.95	32.222
780.26	28.977
780.57	25.806
780.88	25.362
781.19	29.032
781.50	30.000
781.80	21.505
782.11	26.455
782.42	22.222
782.73	23.952
783.04	27.374
783.34	19.394
783.65	17.647
783.96	18.634
784.27	23.810
784.57	27.815
784.88	30.000
785.19	27.559
785.50	21.260
785.81	30.075
786.11	30.769
786.42	17.266
786.73	24.460
787.04	33.083
787.34	27.869
787.65	24.000
787.96	25.373
788.26	26.573
788.57	23.776
788.88	21.711
789.19	29.412
789.49	27.397
789.80	31.915
790.11	27.559
790.41	29.688
790.72	24.576
791.03	22.330
791.33	27.826
791.64	26.316
791.95	29.464
792.25	23.810
792.56	26.786
792.87	18.750
793.17	32.143
793.48	23.958
793.79	22.892
794.09	23.853
794.40	25.688
794.70	19.048
795.01	20.130
795.32	21.918
795.62	26.761
795.93	25.000
796.23	26.230
796.54	15.179
796.85	28.723
797.15	13.043
797.46	13.699
797.76	23.750
798.07	13.043
798.37	15.464
798.68	19.481
798.99	13.793
799.29	16.854
799.60	12.766
799.90	37.349
800.21	30.769
800.51	2.985
800.82	8.824
801.12	-5.479
801.43	13.235
801.73	18.644
802.04	18.182
802.34	21.667
802.65	25.424
802.95	29.851
803.26	20.339
803.56	9.589
803.87	8.571
804.17	12.329
804.48	7.018
804.78	9.722
805.09	6.897
805.39	18.919
805.70	19.718
806.00	36.585
806.30	19.277
806.61	15.068
806.91	21.154
807.22	17.778
807.52	21.839
807.83	29.167
808.13	31.325
808.43	14.607
808.74	10.000
809.04	27.941
809.35	17.333
809.65	27.143
809.95	19.178
810.26	5.263
810.56	13.793
810.86	20.588
811.17	29.825
811.47	14.754
811.77	-2.222
812.08	13.559
812.38	28.333
812.69	8.621
812.99	15.094
813.29	-5.128
813.59	32.000
813.90	26.316
814.20	3.636
814.50	30.986
814.81	28.205
815.11	19.672
815.41	37.313
815.72	25.862
816.02	33.929
816.32	37.778
816.62	31.818
816.93	28.889
817.23	11.111
817.53	29.787
817.84	26.190
818.14	8.824
818.44	26.531
818.74	35.556
819.04	-15.385
819.35	-11.429
819.65	26.923
819.95	-1.887
820.25	17.778
820.56	19.048
820.86	12.500
821.16	7.692
821.46	-2.326
821.76	-8.000
822.07	25.000
822.37	30.435
822.67	10.638
822.97	-5.405
823.27	0.000
823.57	34.694
823.88	33.333
824.18	25.000
824.48	16.667
824.78	4.000
825.08	51.515
825.38	22.222
825.69	29.787
825.99	13.889
826.29	-5.714
826.59	-10.256
826.89	-2.326
827.19	24.000
827.49	23.529
827.79	20.833
828.09	5.405
828.39	3.333
828.70	14.634
829.00	16.279
829.30	14.286
829.60	26.471
829.90	0.000
830.20	2.857
830.50	-17.241
830.80	-5.556
831.10	11.538
831.40	11.765
831.70	9.524
832.00	16.129
832.30	-82.353
832.60	12.500
832.90	30.769
833.20	5.263
833.50	15.000
833.80	-31.579
834.10	-57.143
834.40	25.000
834.70	25.000
835.00	-5.714
835.30	29.412
835.60	10.000
835.90	4.000
836.20	9.091
836.50	28.000
836.80	21.212
837.10	14.815
837.40	11.111
837.70	-50.000
838.00	-17.857
838.30	8.696
838.60	17.241
838.90	-7.143
839.19	-21.739
839.49	-50.000
839.79	-13.043
840.09	-37.500
840.39	-35.000
840.69	51.613
840.99	-14.286
841.29	-33.333
841.59	-47.368
841.88	10.256
842.18	-3.846
842.48	20.000
842.78	-5.000
843.08	20.000
843.38	38.710
843.68	0.000
843.97	52.941
844.27	-18.750
844.57	-15.789
844.87	30.000
845.17	-73.333
845.47	19.048
845.76	-14.286
846.06	-144.444
846.36	-29.412
846.66	-7.692
846.96	20.000
847.25	-23.529
847.55	34.783
847.85	10.000
848.15	-29.412
848.44	-90.909
848.74	28.571
849.04	-37.500
849.34	25.000
849.63	-17.391
849.93	600.000
850.23	-13.333
850.53	46.154
850.82	-72.727
851.12	27.273
851.42	9.091
851.71	130.769
852.01	-10.000
852.31	-23.077
852.61	-21.053
852.90	-41.667
853.20	22.222
853.50	-177.778
853.79	-33.333
854.09	13.636
854.39	-75.000
854.68	32.258
854.98	7.692
855.28	0.000
855.57	-10.714
855.87	4.000
856.17	13.636
856.46	11.111
856.76	-11.111
857.05	-17.391
857.35	-16.667
857.65	-84.615
857.94	-23.810
858.24	11.111
858.53	17.391
858.83	-11.765
859.13	5.882
859.42	23.529
859.72	21.429
860.01	-30.000
860.31	-66.667
860.60	-30.000
860.90	46.667
861.20	-38.889
861.49	15.385
861.79	0.000
862.08	-84.615
862.38	21.875
862.67	23.529
862.97	-6.250
863.26	-77.778
863.56	10.000
863.85	-90.909
864.15	16.667
864.44	-66.667
864.74	-85.714
865.03	-25.000
865.33	-160.000
865.62	35.484
865.92	22.727
866.21	43.478
866.51	7.143
866.80	-200.000
867.10	-8.333
867.39	-141.667
867.69	800.000
867.98	0.000
868.27	41.176
868.57	-2100.000
868.86	-110.000
869.16	9.524
869.45	33.333
869.75	9.091
870.04	42.857
870.33	-8.333
870.63	-157.143
870.92	75.000
871.22	-150.000
871.51	-81.818
871.80	-366.667
872.10	-550.000
>>>>>End Processed Spectral Data<<<<<
