SpectraSuite Data File
++++++++++++++++++++++++++++++++++++
Date: Thu May 14 16:06:12 PDT 2015
User: schluterlab
Dark Spectrum Present: Yes
Reference Spectrum Present: Yes
Number of Sampled Component Spectra: 1
Spectrometers: USB2E3373
Integration Time (usec): 3000 (USB2E3373)
Spectra Averaged: 3 (USB2E3373)
Boxcar Smoothing: 0 (USB2E3373)
Correct for Electrical Dark: No (USB2E3373)
Strobe/Lamp Enabled: No (USB2E3373)
Correct for Detector Non-linearity: No (USB2E3373)
Correct for Stray Light: No (USB2E3373)
Number of Pixels in Processed Spectrum: 2048
>>>>>Begin Processed Spectral Data<<<<<
178.53	0.000
178.91	228.571
179.29	-1900.000
179.67	-2100.000
180.04	207.143
180.42	160.000
180.80	160.000
181.18	-1300.000
181.56	300.000
181.94	250.000
182.31	-550.000
182.69	500.000
183.07	-850.000
183.45	450.000
183.83	-133.333
184.20	-333.333
184.58	1400.000
184.96	-500.000
185.34	-100.000
185.72	-320.000
186.09	244.444
186.47	1200.000
186.85	440.000
187.23	-166.667
187.61	-2200.000
187.98	160.000
188.36	475.000
188.74	-275.000
189.12	-333.333
189.49	-56.250
189.87	-275.000
190.25	-55.556
190.63	-280.000
191.00	-211.111
191.38	0.000
191.76	-500.000
192.14	-366.667
192.51	600.000
192.89	-83.333
193.27	0.000
193.65	-214.286
194.02	-2100.000
194.40	-57.143
194.78	42.857
195.15	0.000
195.53	-27.273
195.91	0.000
196.29	-150.000
196.66	-53.846
197.04	-800.000
197.42	-228.571
197.79	-800.000
198.17	-75.000
198.55	-142.857
198.92	-66.667
199.30	-212.500
199.68	-118.182
200.05	0.000
200.43	-1000.000
200.81	342.857
201.18	0.000
201.56	266.667
201.94	0.000
202.31	566.667
202.69	-277.778
203.07	1300.000
203.44	-166.667
203.82	-375.000
204.19	-116.667
204.57	-350.000
204.95	-150.000
205.32	-2100.000
205.70	375.000
206.08	-183.333
206.45	-83.333
206.83	460.000
207.20	-200.000
207.58	-260.000
207.96	-366.667
208.33	-83.333
208.71	200.000
209.08	-100.000
209.46	0.000
209.84	266.667
210.21	750.000
210.59	550.000
210.96	366.667
211.34	-50.000
211.71	-112.500
212.09	-800.000
212.46	0.000
212.84	1050.000
213.22	-280.000
213.59	-275.000
213.97	-170.000
214.34	-466.667
214.72	233.333
215.09	-325.000
215.47	0.000
215.84	85.714
216.22	900.000
216.59	-140.000
216.97	-320.000
217.34	-525.000
217.72	-100.000
218.09	-100.000
218.47	-450.000
218.84	0.000
219.22	380.000
219.59	-58.824
219.97	-110.000
220.34	1200.000
220.72	-233.333
221.09	-84.615
221.47	-600.000
221.84	-170.000
222.22	-271.429
222.59	0.000
222.97	-62.500
223.34	-300.000
223.72	-1500.000
224.09	-400.000
224.46	-325.000
224.84	-80.000
225.21	-300.000
225.59	-375.000
225.96	-225.000
226.34	-30.769
226.71	350.000
227.08	-800.000
227.46	-46.667
227.83	-350.000
228.21	-78.947
228.58	150.000
228.95	950.000
229.33	-75.000
229.70	-130.000
230.08	21.053
230.45	270.000
230.82	-300.000
231.20	-42.857
231.57	-25.000
231.95	-100.000
232.32	-118.182
232.69	-50.000
233.07	-375.000
233.44	-11.765
233.81	-120.000
234.19	-27.778
234.56	-40.909
234.93	-10.345
235.31	-63.158
235.68	-44.444
236.05	-65.000
236.43	-19.231
236.80	-4.000
237.17	-14.815
237.55	0.000
237.92	0.000
238.29	-22.581
238.67	-22.727
239.04	5.556
239.41	-2.381
239.79	-2.174
240.16	-7.407
240.53	-15.217
240.91	-21.569
241.28	-1.639
241.65	20.896
242.02	1.351
242.40	-3.077
242.77	-2.667
243.14	3.659
243.51	-5.263
243.89	1.282
244.26	13.861
244.63	22.549
245.00	21.495
245.38	11.404
245.75	-0.885
246.12	22.222
246.49	12.403
246.87	20.000
247.24	15.894
247.61	19.079
247.98	24.161
248.36	19.753
248.73	16.564
249.10	14.754
249.47	18.905
249.84	27.225
250.22	14.508
250.59	21.111
250.96	24.091
251.33	14.796
251.70	21.368
252.08	20.833
252.45	18.443
252.82	23.140
253.19	16.016
253.56	22.814
253.94	16.154
254.31	21.591
254.68	27.273
255.05	22.801
255.42	19.048
255.79	22.330
256.16	20.861
256.54	20.861
256.91	22.623
257.28	20.656
257.65	20.064
258.02	17.699
258.39	22.792
258.76	23.853
259.14	20.977
259.51	21.902
259.88	21.246
260.25	23.611
260.62	23.288
260.99	25.956
261.36	24.933
261.73	20.424
262.10	22.802
262.47	20.375
262.85	26.768
263.22	23.117
263.59	19.737
263.96	23.274
264.33	21.483
264.70	24.198
265.07	26.492
265.44	26.757
265.81	23.843
266.18	24.036
266.55	20.759
266.92	20.957
267.29	23.414
267.66	24.834
268.03	23.581
268.40	21.921
268.77	20.729
269.14	20.264
269.51	23.904
269.88	25.410
270.25	23.742
270.62	24.262
270.99	23.838
271.36	25.149
271.73	24.165
272.10	24.449
272.47	25.651
272.84	22.892
273.21	21.242
273.58	22.581
273.95	20.962
274.32	21.103
274.69	21.277
275.06	21.245
275.43	20.333
275.80	21.869
276.17	20.926
276.54	22.015
276.91	20.572
277.28	21.519
277.65	24.955
278.02	22.059
278.39	21.377
278.76	22.671
279.13	22.695
279.50	23.024
279.87	22.898
280.23	21.831
280.60	24.915
280.97	23.520
281.34	21.222
281.71	24.704
282.08	21.927
282.45	21.113
282.82	22.135
283.19	21.163
283.56	20.984
283.92	22.222
284.29	23.223
284.66	21.346
285.03	21.955
285.40	24.111
285.77	21.517
286.14	23.053
286.51	21.613
286.87	21.011
287.24	23.494
287.61	21.076
287.98	21.601
288.35	22.337
288.72	21.302
289.08	20.791
289.45	19.822
289.82	19.428
290.19	21.552
290.56	23.239
290.93	20.114
291.29	19.697
291.66	19.972
292.03	20.217
292.40	21.633
292.77	19.946
293.13	19.350
293.50	18.265
293.87	17.315
294.24	20.667
294.60	18.205
294.97	19.329
295.34	17.926
295.71	16.898
296.08	18.217
296.44	18.505
296.81	18.392
297.18	17.559
297.55	17.571
297.91	18.149
298.28	16.706
298.65	16.885
299.02	16.293
299.38	16.476
299.75	17.290
300.12	16.088
300.48	17.857
300.85	16.648
301.22	17.450
301.59	16.438
301.95	16.045
302.32	17.000
302.69	17.306
303.05	18.607
303.42	16.519
303.79	16.146
304.15	19.033
304.52	15.962
304.89	17.173
305.25	16.770
305.62	16.092
305.99	16.495
306.35	17.339
306.72	17.373
307.09	17.157
307.45	16.667
307.82	17.356
308.19	16.448
308.55	17.165
308.92	16.553
309.29	18.008
309.65	17.836
310.02	15.941
310.38	17.618
310.75	17.184
311.12	17.354
311.48	17.009
311.85	16.144
312.22	15.844
312.58	17.746
312.95	17.017
313.31	17.254
313.68	18.132
314.05	18.157
314.41	17.851
314.78	18.438
315.14	18.058
315.51	18.652
315.87	17.822
316.24	18.630
316.61	19.538
316.97	18.914
317.34	19.224
317.70	20.873
318.07	21.164
318.43	19.728
318.80	21.906
319.16	20.773
319.53	19.966
319.89	21.385
320.26	20.819
320.62	21.188
320.99	21.976
321.35	21.534
321.72	24.744
322.08	22.994
322.45	23.758
322.81	25.993
323.18	24.690
323.54	25.431
323.91	27.135
324.27	26.334
324.64	27.456
325.00	26.368
325.37	26.699
325.73	27.438
326.10	28.386
326.46	29.397
326.83	28.583
327.19	28.976
327.56	30.277
327.92	30.212
328.29	29.355
328.65	29.229
329.01	30.795
329.38	31.340
329.74	32.705
330.11	33.305
330.47	32.182
330.84	32.558
331.20	33.000
331.56	32.842
331.93	33.724
332.29	33.559
332.66	33.721
333.02	33.082
333.38	32.634
333.75	34.428
334.11	34.696
334.48	34.406
334.84	33.815
335.20	33.333
335.57	35.160
335.93	34.298
336.29	34.443
336.66	35.408
337.02	34.950
337.38	35.119
337.75	33.967
338.11	36.417
338.47	35.897
338.84	34.095
339.20	34.288
339.56	35.667
339.93	34.565
340.29	34.380
340.65	36.010
341.02	37.111
341.38	36.055
341.74	34.948
342.11	35.157
342.47	35.266
342.83	35.829
343.20	36.877
343.56	35.766
343.92	35.388
344.28	34.844
344.65	36.202
345.01	35.101
345.37	36.936
345.73	35.230
346.10	37.207
346.46	36.788
346.82	36.854
347.19	37.892
347.55	37.102
347.91	36.478
348.27	36.419
348.63	35.720
349.00	35.943
349.36	37.100
349.72	35.789
350.08	36.850
350.45	35.970
350.81	35.822
351.17	36.992
351.53	37.149
351.89	36.522
352.26	37.910
352.62	37.313
352.98	37.176
353.34	37.640
353.70	37.982
354.07	37.407
354.43	37.813
354.79	37.996
355.15	37.601
355.51	38.596
355.87	37.921
356.24	37.795
356.60	37.324
356.96	38.325
357.32	38.141
357.68	38.287
358.04	37.874
358.40	37.537
358.77	38.085
359.13	38.035
359.49	37.546
359.85	38.071
360.21	38.666
360.57	38.047
360.93	39.210
361.29	40.351
361.66	39.030
362.02	39.736
362.38	39.916
362.74	39.665
363.10	40.096
363.46	40.928
363.82	39.773
364.18	39.831
364.54	40.387
364.90	40.468
365.26	39.517
365.62	40.533
365.98	40.504
366.35	40.805
366.71	41.293
367.07	40.866
367.43	40.840
367.79	41.938
368.15	42.207
368.51	41.001
368.87	41.411
369.23	39.933
369.59	43.101
369.95	42.123
370.31	42.741
370.67	41.472
371.03	41.828
371.39	41.773
371.75	43.054
372.11	42.818
372.47	42.519
372.83	41.819
373.19	42.028
373.55	43.089
373.91	42.672
374.27	43.338
374.63	42.625
374.99	42.308
375.35	42.792
375.71	43.355
376.07	42.350
376.42	43.577
376.78	44.935
377.14	42.982
377.50	44.086
377.86	44.458
378.22	42.994
378.58	44.768
378.94	43.192
379.30	43.292
379.66	44.562
380.02	44.259
380.38	45.219
380.74	44.676
381.09	44.948
381.45	43.920
381.81	44.496
382.17	44.952
382.53	44.561
382.89	44.752
383.25	45.545
383.61	45.428
383.97	44.346
384.32	45.574
384.68	44.026
385.04	45.228
385.40	46.258
385.76	46.424
386.12	44.225
386.48	45.588
386.83	45.173
387.19	44.959
387.55	45.129
387.91	44.521
388.27	44.342
388.62	44.845
388.98	45.065
389.34	44.785
389.70	46.310
390.06	45.589
390.42	44.819
390.77	45.154
391.13	45.833
391.49	45.169
391.85	45.273
392.20	45.552
392.56	45.540
392.92	45.420
393.28	45.992
393.64	44.134
393.99	45.322
394.35	45.678
394.71	45.269
395.07	45.269
395.42	45.802
395.78	45.338
396.14	45.633
396.50	44.418
396.85	46.333
397.21	44.911
397.57	44.935
397.92	45.991
398.28	45.845
398.64	44.908
399.00	44.607
399.35	45.131
399.71	44.565
400.07	46.322
400.42	44.994
400.78	44.618
401.14	44.052
401.49	45.139
401.85	45.814
402.21	45.423
402.57	45.364
402.92	44.858
403.28	45.082
403.63	44.690
403.99	43.884
404.35	43.945
404.70	44.023
405.06	43.587
405.42	43.852
405.77	44.275
406.13	43.868
406.49	44.313
406.84	44.598
407.20	44.885
407.55	43.973
407.91	43.809
408.27	43.875
408.62	42.990
408.98	43.819
409.34	42.639
409.69	44.623
410.05	42.966
410.40	44.374
410.76	42.905
411.11	44.535
411.47	42.506
411.83	44.444
412.18	43.313
412.54	43.391
412.89	44.121
413.25	44.470
413.60	43.825
413.96	43.240
414.31	42.096
414.67	43.948
415.03	43.015
415.38	42.938
415.74	42.700
416.09	43.430
416.45	42.517
416.80	43.268
417.16	42.401
417.51	42.590
417.87	42.857
418.22	42.156
418.58	42.007
418.93	43.772
419.29	41.924
419.64	42.857
420.00	43.739
420.35	42.785
420.71	41.700
421.06	42.266
421.42	43.349
421.77	42.111
422.12	41.015
422.48	42.448
422.83	43.045
423.19	42.281
423.54	43.363
423.90	41.855
424.25	42.720
424.61	41.676
424.96	43.383
425.31	42.251
425.67	42.566
426.02	42.999
426.38	40.930
426.73	41.462
427.09	42.849
427.44	41.344
427.79	41.183
428.15	41.781
428.50	42.865
428.85	41.906
429.21	41.596
429.56	41.905
429.92	42.310
430.27	41.446
430.62	41.768
430.98	42.056
431.33	42.180
431.68	40.805
432.04	42.306
432.39	42.100
432.74	42.922
433.10	42.185
433.45	41.472
433.80	41.148
434.16	41.581
434.51	42.754
434.86	42.074
435.22	42.083
435.57	42.689
435.92	42.515
436.28	42.662
436.63	43.528
436.98	41.600
437.34	42.165
437.69	42.323
438.04	42.200
438.39	42.102
438.75	42.225
439.10	42.865
439.45	42.146
439.81	42.655
440.16	42.949
440.51	42.252
440.86	42.968
441.22	42.122
441.57	42.191
441.92	41.562
442.27	41.818
442.63	41.878
442.98	42.583
443.33	42.557
443.68	42.170
444.03	43.932
444.39	42.441
444.74	42.879
445.09	41.865
445.44	43.045
445.79	42.433
446.15	42.549
446.50	42.067
446.85	43.677
447.20	42.843
447.55	42.887
447.91	41.885
448.26	42.283
448.61	41.870
448.96	43.026
449.31	41.622
449.66	41.612
450.02	42.616
450.37	42.941
450.72	42.142
451.07	42.995
451.42	43.039
451.77	41.245
452.12	44.131
452.47	41.830
452.83	43.018
453.18	41.623
453.53	42.677
453.88	41.745
454.23	41.808
454.58	42.948
454.93	40.959
455.28	42.264
455.63	42.126
455.98	43.184
456.34	41.284
456.69	42.269
457.04	42.317
457.39	42.018
457.74	42.562
458.09	41.241
458.44	42.403
458.79	41.619
459.14	41.321
459.49	41.653
459.84	41.343
460.19	41.477
460.54	42.987
460.89	41.821
461.24	41.092
461.59	41.616
461.94	40.616
462.29	42.441
462.64	43.150
462.99	41.620
463.34	41.986
463.69	41.090
464.04	41.801
464.39	42.937
464.74	40.821
465.09	41.753
465.44	42.114
465.79	41.565
466.14	40.959
466.49	42.053
466.84	42.920
467.19	42.312
467.54	40.599
467.89	41.609
468.24	41.662
468.59	41.112
468.94	41.434
469.29	40.732
469.64	42.975
469.99	42.894
470.34	42.512
470.68	43.336
471.03	42.895
471.38	41.400
471.73	42.523
472.08	42.005
472.43	41.421
472.78	41.625
473.13	41.530
473.48	41.994
473.83	42.020
474.17	41.208
474.52	42.273
474.87	41.251
475.22	42.366
475.57	41.745
475.92	41.463
476.27	42.492
476.61	41.329
476.96	41.397
477.31	41.535
477.66	42.078
478.01	41.688
478.36	41.176
478.70	42.709
479.05	43.303
479.40	42.349
479.75	41.787
480.10	42.065
480.45	41.294
480.79	42.177
481.14	40.533
481.49	42.344
481.84	41.079
482.19	41.849
482.53	42.195
482.88	41.693
483.23	41.974
483.58	41.223
483.92	40.913
484.27	41.406
484.62	40.635
484.97	41.524
485.31	40.056
485.66	37.888
486.01	36.824
486.36	37.288
486.70	39.371
487.05	41.462
487.40	41.676
487.75	42.214
488.09	42.209
488.44	41.245
488.79	41.079
489.13	41.057
489.48	40.466
489.83	40.845
490.17	40.138
490.52	40.189
490.87	40.821
491.22	40.165
491.56	40.316
491.91	41.300
492.26	40.762
492.60	40.490
492.95	40.061
493.30	40.520
493.64	40.867
493.99	40.263
494.34	40.200
494.68	40.642
495.03	40.220
495.37	41.101
495.72	40.816
496.07	40.096
496.41	39.940
496.76	39.700
497.11	40.510
497.45	39.879
497.80	40.737
498.14	40.000
498.49	40.303
498.84	41.316
499.18	39.361
499.53	40.807
499.87	40.000
500.22	39.760
500.56	39.631
500.91	40.824
501.26	40.182
501.60	39.638
501.95	39.991
502.29	40.588
502.64	41.408
502.98	40.121
503.33	40.432
503.67	40.602
504.02	40.762
504.36	41.421
504.71	41.479
505.06	40.155
505.40	40.768
505.75	40.619
506.09	41.344
506.44	41.736
506.78	41.009
507.13	41.217
507.47	42.018
507.82	41.430
508.16	41.061
508.51	40.647
508.85	41.427
509.19	40.692
509.54	40.538
509.88	41.088
510.23	43.079
510.57	41.469
510.92	41.606
511.26	40.693
511.61	40.174
511.95	41.191
512.30	40.867
512.64	40.080
512.98	42.321
513.33	42.994
513.67	41.713
514.02	41.850
514.36	41.176
514.70	40.781
515.05	42.284
515.39	43.622
515.74	42.789
516.08	42.578
516.42	42.334
516.77	42.850
517.11	42.187
517.46	43.425
517.80	43.399
518.14	43.254
518.49	44.143
518.83	41.778
519.17	41.249
519.52	43.187
519.86	42.661
520.20	42.758
520.55	41.785
520.89	43.750
521.23	43.551
521.58	44.407
521.92	42.833
522.26	44.215
522.61	43.924
522.95	43.368
523.29	44.195
523.64	43.890
523.98	43.639
524.32	43.725
524.66	44.622
525.01	42.865
525.35	43.366
525.69	43.387
526.04	43.111
526.38	43.736
526.72	43.541
527.06	43.695
527.41	43.265
527.75	44.121
528.09	43.802
528.43	42.984
528.78	42.370
529.12	43.922
529.46	42.664
529.80	42.849
530.15	43.188
530.49	42.764
530.83	44.274
531.17	43.130
531.51	43.863
531.86	44.050
532.20	43.841
532.54	43.088
532.88	43.030
533.22	41.603
533.57	43.739
533.91	43.098
534.25	42.114
534.59	43.218
534.93	42.558
535.27	42.535
535.62	42.922
535.96	42.475
536.30	43.126
536.64	43.724
536.98	42.558
537.32	44.074
537.66	42.608
538.01	41.088
538.35	42.753
538.69	41.106
539.03	43.041
539.37	41.932
539.71	42.883
540.05	41.487
540.39	41.259
540.73	41.348
541.07	42.244
541.42	40.284
541.76	40.925
542.10	41.737
542.44	41.657
542.78	42.032
543.12	41.240
543.46	41.453
543.80	40.408
544.14	40.874
544.48	40.898
544.82	42.490
545.16	42.218
545.50	42.301
545.84	40.355
546.18	41.481
546.52	41.656
546.86	41.572
547.20	41.031
547.54	41.261
547.88	41.290
548.22	41.053
548.56	39.614
548.90	41.015
549.24	39.635
549.58	40.631
549.92	40.816
550.26	40.647
550.60	42.183
550.94	41.656
551.28	40.594
551.62	41.981
551.96	40.906
552.30	41.236
552.64	41.195
552.98	40.237
553.32	40.514
553.66	40.450
554.00	40.353
554.34	41.055
554.68	39.574
555.02	40.736
555.36	41.157
555.69	39.526
556.03	39.155
556.37	39.612
556.71	40.266
557.05	40.319
557.39	39.350
557.73	40.225
558.07	40.000
558.41	40.133
558.75	40.568
559.08	41.127
559.42	39.986
559.76	40.841
560.10	39.250
560.44	39.248
560.78	39.812
561.12	39.409
561.45	39.842
561.79	39.316
562.13	39.125
562.47	39.334
562.81	38.608
563.15	38.636
563.48	38.533
563.82	40.508
564.16	36.887
564.50	38.617
564.84	38.407
565.17	38.529
565.51	37.169
565.85	38.895
566.19	38.191
566.52	37.800
566.86	38.596
567.20	37.140
567.54	37.706
567.88	37.411
568.21	37.796
568.55	37.458
568.89	36.677
569.23	36.248
569.56	35.483
569.90	35.032
570.24	35.076
570.57	34.830
570.91	34.997
571.25	34.915
571.59	34.623
571.92	34.168
572.26	34.119
572.60	34.262
572.93	34.400
573.27	34.701
573.61	34.145
573.95	34.037
574.28	33.030
574.62	33.583
574.96	32.775
575.29	32.496
575.63	32.640
575.97	33.317
576.30	33.728
576.64	32.904
576.98	33.007
577.31	32.895
577.65	33.739
577.98	32.587
578.32	32.469
578.66	32.322
578.99	32.849
579.33	33.393
579.67	33.658
580.00	33.378
580.34	32.853
580.67	32.480
581.01	32.345
581.35	32.184
581.68	32.103
582.02	31.580
582.35	31.930
582.69	32.347
583.02	32.573
583.36	33.559
583.70	33.651
584.03	33.261
584.37	33.473
584.70	32.836
585.04	32.806
585.37	31.485
585.71	31.672
586.04	31.858
586.38	32.196
586.72	32.565
587.05	32.208
587.39	32.186
587.72	32.727
588.06	31.842
588.39	31.939
588.73	32.249
589.06	33.155
589.40	33.620
589.73	32.905
590.07	32.792
590.40	33.300
590.73	32.803
591.07	33.023
591.40	33.359
591.74	32.750
592.07	33.496
592.41	33.399
592.74	32.091
593.08	32.325
593.41	31.934
593.75	31.753
594.08	31.990
594.41	32.692
594.75	32.581
595.08	32.672
595.42	32.305
595.75	32.677
596.09	32.125
596.42	32.461
596.75	33.037
597.09	34.061
597.42	32.300
597.75	31.948
598.09	32.976
598.42	33.052
598.76	31.410
599.09	30.865
599.42	30.707
599.76	31.231
600.09	31.265
600.42	31.932
600.76	31.011
601.09	30.999
601.42	31.617
601.76	31.483
602.09	31.237
602.42	31.043
602.76	31.513
603.09	31.828
603.42	31.503
603.76	31.325
604.09	32.115
604.42	31.083
604.76	31.431
605.09	31.911
605.42	31.778
605.75	31.692
606.09	30.870
606.42	30.646
606.75	30.735
607.09	30.645
607.42	30.983
607.75	30.832
608.08	30.900
608.42	30.794
608.75	31.716
609.08	30.942
609.41	31.451
609.75	31.830
610.08	31.091
610.41	31.266
610.74	31.176
611.07	31.572
611.41	31.928
611.74	31.316
612.07	31.463
612.40	31.321
612.73	32.176
613.07	31.736
613.40	32.243
613.73	31.103
614.06	31.011
614.39	30.807
614.72	31.684
615.06	31.184
615.39	30.594
615.72	30.664
616.05	31.569
616.38	30.575
616.71	31.975
617.05	31.044
617.38	31.782
617.71	31.371
618.04	31.732
618.37	32.131
618.70	32.127
619.03	30.645
619.36	32.306
619.69	32.287
620.03	32.078
620.36	31.656
620.69	31.647
621.02	32.480
621.35	34.035
621.68	33.261
622.01	32.598
622.34	30.683
622.67	31.753
623.00	31.377
623.33	31.918
623.66	31.971
623.99	31.271
624.32	31.059
624.65	31.274
624.99	31.990
625.32	31.156
625.65	32.232
625.98	31.390
626.31	31.751
626.64	31.429
626.97	31.058
627.30	32.043
627.63	31.133
627.96	32.958
628.29	32.218
628.62	33.837
628.95	33.918
629.28	32.795
629.61	32.071
629.94	31.213
630.26	31.695
630.59	31.606
630.92	31.515
631.25	32.648
631.58	32.298
631.91	32.240
632.24	33.910
632.57	31.973
632.90	32.999
633.23	34.796
633.56	33.265
633.89	31.405
634.22	32.432
634.55	32.568
634.88	33.442
635.20	34.015
635.53	34.124
635.86	34.128
636.19	33.616
636.52	34.072
636.85	31.869
637.18	33.472
637.51	33.548
637.83	33.112
638.16	34.447
638.49	31.455
638.82	32.807
639.15	31.959
639.48	34.873
639.81	32.794
640.13	33.216
640.46	30.909
640.79	31.985
641.12	32.547
641.45	31.995
641.77	36.585
642.10	35.039
642.43	33.245
642.76	34.417
643.09	32.740
643.41	34.174
643.74	33.517
644.07	34.069
644.40	31.259
644.73	34.253
645.05	33.921
645.38	32.950
645.71	35.337
646.04	35.007
646.36	31.241
646.69	34.816
647.02	36.086
647.35	34.351
647.67	33.977
648.00	34.554
648.33	34.685
648.66	31.669
648.98	31.837
649.31	33.694
649.64	32.138
649.96	32.493
650.29	30.598
650.62	32.390
650.94	32.883
651.27	32.784
651.60	31.433
651.92	32.675
652.25	32.127
652.58	33.563
652.90	30.378
653.23	32.676
653.56	32.953
653.88	33.006
654.21	32.113
654.54	30.925
654.86	31.586
655.19	28.858
655.52	28.731
655.84	24.335
656.17	27.432
656.49	39.046
656.82	43.463
657.15	35.342
657.47	28.403
657.80	21.340
658.13	16.979
658.45	23.010
658.78	28.306
659.10	28.056
659.43	27.858
659.75	26.591
660.08	26.106
660.41	26.551
660.73	28.278
661.06	28.634
661.38	31.579
661.71	31.897
662.03	30.688
662.36	33.810
662.68	35.272
663.01	32.743
663.33	34.026
663.66	33.150
663.98	31.923
664.31	33.583
664.63	30.058
664.96	31.397
665.28	32.305
665.61	30.769
665.93	31.607
666.26	31.720
666.58	30.627
666.91	30.841
667.23	31.429
667.56	33.333
667.88	36.400
668.21	30.078
668.53	30.116
668.86	31.238
669.18	31.568
669.50	31.809
669.83	29.600
670.15	29.921
670.48	33.135
670.80	32.122
671.13	30.813
671.45	33.071
671.77	31.262
672.10	28.833
672.42	29.935
672.75	30.722
673.07	28.209
673.39	27.889
673.72	32.047
674.04	30.345
674.37	30.233
674.69	31.217
675.01	28.190
675.34	30.153
675.66	30.150
675.98	30.224
676.31	30.273
676.63	30.989
676.95	29.885
677.28	33.468
677.60	28.150
677.92	31.478
678.25	29.982
678.57	29.537
678.89	31.570
679.22	28.397
679.54	29.231
679.86	28.475
680.18	28.192
680.51	28.302
680.83	28.478
681.15	27.414
681.48	29.879
681.80	30.052
682.12	29.545
682.44	29.549
682.77	28.369
683.09	30.114
683.41	30.039
683.73	30.740
684.06	28.044
684.38	27.013
684.70	29.264
685.02	29.432
685.34	26.622
685.67	25.868
685.99	28.374
686.31	25.872
686.63	27.488
686.96	28.391
687.28	28.827
687.60	29.293
687.92	26.206
688.24	26.544
688.56	25.172
688.89	28.131
689.21	29.159
689.53	25.686
689.85	27.219
690.17	26.852
690.49	28.088
690.82	27.921
691.14	26.113
691.46	28.298
691.78	26.335
692.10	25.505
692.42	26.964
692.74	28.494
693.06	24.259
693.39	27.135
693.71	24.812
694.03	25.465
694.35	25.524
694.67	25.667
694.99	25.532
695.31	26.049
695.63	27.706
695.95	26.501
696.27	25.714
696.59	29.204
696.91	25.450
697.23	28.571
697.56	28.717
697.88	24.621
698.20	26.930
698.52	27.841
698.84	27.027
699.16	27.755
699.48	27.824
699.80	27.234
700.12	27.074
700.44	26.959
700.76	26.841
701.08	24.455
701.40	27.979
701.72	30.100
702.04	27.005
702.36	25.393
702.68	26.895
703.00	25.428
703.32	26.355
703.64	25.672
703.96	26.492
704.28	26.536
704.60	26.329
704.91	23.980
705.23	27.397
705.55	24.791
705.87	28.182
706.19	28.528
706.51	25.602
706.83	24.496
707.15	25.397
707.47	24.533
707.79	23.581
708.11	23.517
708.43	22.581
708.74	22.991
709.06	24.130
709.38	27.934
709.70	28.536
710.02	25.323
710.34	23.404
710.66	20.391
710.98	26.230
711.29	25.275
711.61	24.576
711.93	23.932
712.25	23.514
712.57	28.614
712.89	28.529
713.20	23.964
713.52	27.168
713.84	25.348
714.16	26.316
714.48	25.000
714.80	27.532
715.11	23.885
715.43	26.260
715.75	24.474
716.07	23.481
716.39	24.590
716.70	21.084
717.02	24.918
717.34	24.042
717.66	23.826
717.97	21.575
718.29	27.491
718.61	24.013
718.93	22.977
719.24	24.224
719.56	25.460
719.88	23.123
720.20	21.290
720.51	22.981
720.83	23.750
721.15	21.053
721.46	17.466
721.78	22.333
722.10	18.123
722.42	19.463
722.73	20.968
723.05	25.614
723.37	23.611
723.68	26.882
724.00	23.827
724.32	19.718
724.63	19.930
724.95	23.404
725.27	24.390
725.58	23.675
725.90	24.828
726.22	23.511
726.53	23.377
726.85	23.899
727.16	20.846
727.48	23.853
727.80	20.861
728.11	20.848
728.43	21.886
728.74	21.070
729.06	23.510
729.38	24.351
729.69	20.805
730.01	21.726
730.32	15.758
730.64	21.384
730.96	18.634
731.27	21.788
731.59	23.077
731.90	19.740
732.22	19.271
732.53	17.127
732.85	19.714
733.16	23.167
733.48	16.768
733.80	23.120
734.11	20.798
734.43	21.622
734.74	23.544
735.06	20.603
735.37	23.243
735.69	16.757
736.00	23.446
736.32	23.450
736.63	23.056
736.95	21.552
737.26	20.606
737.58	19.091
737.89	20.588
738.21	18.960
738.52	18.361
738.83	23.891
739.15	21.986
739.46	19.728
739.78	19.018
740.09	19.484
740.41	19.534
740.72	19.667
741.04	23.625
741.35	17.544
741.66	24.314
741.98	20.082
742.29	17.573
742.61	18.860
742.92	18.846
743.23	18.412
743.55	20.543
743.86	23.600
744.18	17.769
744.49	18.143
744.80	23.457
745.12	19.409
745.43	19.512
745.74	18.534
746.06	20.763
746.37	22.363
746.68	22.358
747.00	18.750
747.31	18.455
747.62	20.769
747.94	19.028
748.25	20.080
748.56	16.735
748.88	18.376
749.19	26.724
749.50	13.853
749.82	26.908
750.13	22.776
750.44	19.667
750.75	22.462
751.07	18.769
751.38	23.344
751.69	18.850
752.01	15.858
752.32	24.510
752.63	20.068
752.94	20.415
753.26	18.216
753.57	18.519
753.88	23.596
754.19	22.186
754.51	16.720
754.82	18.006
755.13	23.934
755.44	20.478
755.75	17.434
756.07	22.687
756.38	20.755
756.69	23.494
757.00	16.620
757.31	16.393
757.63	17.391
757.94	16.197
758.25	20.993
758.56	15.686
758.87	17.045
759.18	19.467
759.50	22.096
759.81	17.927
760.12	20.485
760.43	20.312
760.74	17.241
761.05	17.000
761.36	19.036
761.67	19.797
761.99	17.568
762.30	16.159
762.61	14.521
762.92	19.030
763.23	15.730
763.54	18.705
763.85	18.900
764.16	18.855
764.47	18.310
764.78	20.767
765.10	18.768
765.41	21.795
765.72	14.815
766.03	17.232
766.34	13.793
766.65	12.892
766.96	17.928
767.27	19.355
767.58	11.443
767.89	20.673
768.20	13.615
768.51	16.204
768.82	18.072
769.13	14.394
769.44	16.154
769.75	19.495
770.06	19.615
770.37	20.079
770.68	15.745
770.99	12.146
771.30	22.593
771.61	18.251
771.92	16.667
772.23	19.838
772.54	10.648
772.85	19.355
773.16	16.190
773.47	16.402
773.78	11.351
774.09	17.045
774.39	18.500
774.70	22.404
775.01	15.854
775.32	10.588
775.63	12.883
775.94	8.280
776.25	22.581
776.56	16.026
776.87	22.449
777.18	22.759
777.48	12.587
777.79	12.162
778.10	8.088
778.41	13.194
778.72	17.931
779.03	16.667
779.34	17.576
779.65	18.135
779.95	20.000
780.26	19.318
780.57	16.129
780.88	23.188
781.19	16.774
781.50	15.882
781.80	17.204
782.11	14.815
782.42	9.091
782.73	12.575
783.04	21.788
783.34	11.515
783.65	8.497
783.96	11.801
784.27	14.881
784.57	13.907
784.88	12.857
785.19	18.110
785.50	17.323
785.81	12.030
786.11	18.462
786.42	4.317
786.73	12.230
787.04	11.278
787.34	12.295
787.65	12.800
787.96	17.164
788.26	23.776
788.57	18.182
788.88	8.553
789.19	15.686
789.49	15.068
789.80	9.929
790.11	19.685
790.41	4.687
790.72	3.390
791.03	-0.971
791.33	7.826
791.64	10.526
791.95	5.357
792.25	20.952
792.56	10.714
792.87	9.375
793.17	9.821
793.48	0.000
793.79	-3.614
794.09	11.009
794.40	4.587
794.70	7.483
795.01	5.844
795.32	10.959
795.62	11.972
795.93	6.818
796.23	14.754
796.54	7.143
796.85	4.255
797.15	15.217
797.46	-5.479
797.76	-6.250
798.07	6.522
798.37	1.031
798.68	14.286
798.99	-8.046
799.29	0.000
799.60	8.511
799.90	-7.229
800.21	-20.000
800.51	5.970
800.82	-4.412
801.12	-6.849
801.43	-5.882
801.73	-6.780
802.04	-6.061
802.34	-10.000
802.65	-5.085
802.95	1.493
803.26	-5.085
803.56	6.849
803.87	-5.714
804.17	5.479
804.48	-19.298
804.78	4.167
805.09	-12.069
805.39	6.757
805.70	-5.634
806.00	9.756
806.30	3.614
806.61	5.479
806.91	0.962
807.22	0.000
807.52	-6.897
807.83	4.167
808.13	9.639
808.43	5.618
808.74	2.500
809.04	7.353
809.35	12.000
809.65	0.000
809.95	-1.370
810.26	0.000
810.56	3.448
810.86	2.941
811.17	-7.018
811.47	-21.311
811.77	-20.000
812.08	10.169
812.38	16.667
812.69	-6.897
812.99	-5.660
813.29	-43.590
813.59	-12.000
813.90	-3.509
814.20	3.636
814.50	8.451
814.81	2.564
815.11	4.918
815.41	0.000
815.72	8.621
816.02	-10.714
816.32	4.444
816.62	9.091
816.93	-6.667
817.23	0.000
817.53	-12.766
817.84	23.810
818.14	-29.412
818.44	-24.490
818.74	4.444
819.04	-20.513
819.35	-11.429
819.65	-34.615
819.95	-5.660
820.25	-4.444
820.56	-33.333
820.86	-9.375
821.16	-5.128
821.46	-30.233
821.76	-32.000
822.07	16.071
822.37	-23.913
822.67	-23.404
822.97	-32.432
823.27	-15.000
823.57	-6.122
823.88	-4.444
824.18	-10.000
824.48	-13.333
824.78	-20.000
825.08	-15.152
825.38	8.889
825.69	-17.021
825.99	22.222
826.29	-31.429
826.59	-28.205
826.89	-6.977
827.19	6.000
827.49	-20.588
827.79	-8.333
828.09	-43.243
828.39	-6.667
828.70	-19.512
829.00	-20.930
829.30	-57.143
829.60	-2.941
829.90	-13.043
830.20	-8.571
830.50	-31.034
830.80	-66.667
831.10	7.692
831.40	2.941
831.70	-57.143
832.00	9.677
832.30	-135.294
832.60	-79.167
832.90	-92.308
833.20	-73.684
833.50	-100.000
833.80	-47.368
834.10	-114.286
834.40	-19.444
834.70	-37.500
835.00	-48.571
835.30	2.941
835.60	-33.333
835.90	-32.000
836.20	-100.000
836.50	-12.000
836.80	-15.152
837.10	-51.852
837.40	-37.037
837.70	-81.250
838.00	3.571
838.30	-69.565
838.60	-13.793
838.90	-85.714
839.19	-60.870
839.49	-183.333
839.79	-30.435
840.09	-106.250
840.39	-65.000
840.69	-12.903
840.99	-25.000
841.29	-113.333
841.59	-31.579
841.88	15.385
842.18	-26.923
842.48	-140.000
842.78	-50.000
843.08	-23.333
843.38	-16.129
843.68	-100.000
843.97	-11.765
844.27	-87.500
844.57	-47.368
844.87	-190.000
845.17	-73.333
845.47	-52.381
845.76	-80.952
846.06	-177.778
846.36	-88.235
846.66	-26.923
846.96	-53.333
847.25	0.000
847.55	-21.739
847.85	-25.000
848.15	-35.294
848.44	-72.727
848.74	-4.762
849.04	-33.333
849.34	-81.250
849.63	-21.739
849.93	400.000
850.23	-60.000
850.53	-7.692
850.82	-45.455
851.12	-4.545
851.42	-81.818
851.71	-53.846
852.01	-85.000
852.31	-84.615
852.61	-26.316
852.90	-83.333
853.20	-27.778
853.50	-188.889
853.79	-52.381
854.09	-50.000
854.39	-125.000
854.68	-32.258
854.98	-80.769
855.28	-100.000
855.57	-39.286
855.87	-64.000
856.17	-59.091
856.46	3.704
856.76	-66.667
857.05	-47.826
857.35	-75.000
857.65	-130.769
857.94	-33.333
858.24	-18.519
858.53	-47.826
858.83	-41.176
859.13	-58.824
859.42	-64.706
859.72	-28.571
860.01	-35.000
860.31	-200.000
860.60	-120.000
860.90	-86.667
861.20	-61.111
861.49	-92.308
861.79	-50.000
862.08	-107.692
862.38	-15.625
862.67	-47.059
862.97	-68.750
863.26	-211.111
863.56	-110.000
863.85	-54.545
864.15	-22.222
864.44	-533.333
864.74	-21.429
865.03	-25.000
865.33	-190.000
865.62	-54.839
865.92	4.545
866.21	-34.783
866.51	-71.429
866.80	-420.000
867.10	-125.000
867.39	-208.333
867.69	2900.000
867.98	-242.857
868.27	-58.824
868.57	-2900.000
868.86	-200.000
869.16	-61.905
869.45	-20.833
869.75	27.273
870.04	-171.429
870.33	-91.667
870.63	-271.429
870.92	-250.000
871.22	-187.500
871.51	-181.818
871.80	-733.333
872.10	-1200.000
>>>>>End Processed Spectral Data<<<<<
