SpectraSuite Data File
++++++++++++++++++++++++++++++++++++
Date: Thu May 14 16:06:06 PDT 2015
User: schluterlab
Dark Spectrum Present: Yes
Reference Spectrum Present: Yes
Number of Sampled Component Spectra: 1
Spectrometers: USB2E3373
Integration Time (usec): 3000 (USB2E3373)
Spectra Averaged: 3 (USB2E3373)
Boxcar Smoothing: 0 (USB2E3373)
Correct for Electrical Dark: No (USB2E3373)
Strobe/Lamp Enabled: No (USB2E3373)
Correct for Detector Non-linearity: No (USB2E3373)
Correct for Stray Light: No (USB2E3373)
Number of Pixels in Processed Spectrum: 2048
>>>>>Begin Processed Spectral Data<<<<<
178.53	0.000
178.91	185.714
179.29	-2200.000
179.67	-1300.000
180.04	178.571
180.42	120.000
180.80	260.000
181.18	-1200.000
181.56	-500.000
181.94	325.000
182.31	-100.000
182.69	233.333
183.07	-750.000
183.45	450.000
183.83	-266.667
184.20	-266.667
184.58	300.000
184.96	-500.000
185.34	-66.667
185.72	-80.000
186.09	288.889
186.47	700.000
186.85	520.000
187.23	-211.111
187.61	-2100.000
187.98	480.000
188.36	600.000
188.74	-325.000
189.12	-566.667
189.49	-87.500
189.87	-87.500
190.25	-111.111
190.63	-200.000
191.00	-77.778
191.38	0.000
191.76	-475.000
192.14	-150.000
192.51	300.000
192.89	-116.667
193.27	0.000
193.65	-100.000
194.02	-2500.000
194.40	-314.286
194.78	214.286
195.15	0.000
195.53	-127.273
195.91	0.000
196.29	-350.000
196.66	-23.077
197.04	-1300.000
197.42	-142.857
197.79	-450.000
198.17	-150.000
198.55	-300.000
198.92	-22.222
199.30	-175.000
199.68	-54.545
200.05	-92.857
200.43	-1000.000
200.81	242.857
201.18	0.000
201.56	288.889
201.94	0.000
202.31	900.000
202.69	-244.444
203.07	1400.000
203.44	-77.778
203.82	-325.000
204.19	-33.333
204.57	-200.000
204.95	-125.000
205.32	-400.000
205.70	450.000
206.08	-233.333
206.45	-233.333
206.83	460.000
207.20	-216.667
207.58	-220.000
207.96	-316.667
208.33	-116.667
208.71	158.333
209.08	-50.000
209.46	0.000
209.84	266.667
210.21	450.000
210.59	800.000
210.96	700.000
211.34	-150.000
211.71	-150.000
212.09	-1600.000
212.46	0.000
212.84	1100.000
213.22	-280.000
213.59	-225.000
213.97	-110.000
214.34	-333.333
214.72	333.333
215.09	-250.000
215.47	0.000
215.84	171.429
216.22	1350.000
216.59	-120.000
216.97	-120.000
217.34	-275.000
217.72	-162.500
218.09	-400.000
218.47	-325.000
218.84	0.000
219.22	240.000
219.59	-58.824
219.97	-40.000
220.34	1000.000
220.72	-133.333
221.09	-53.846
221.47	-233.333
221.84	-120.000
222.22	-314.286
222.59	0.000
222.97	-100.000
223.34	-460.000
223.72	-2500.000
224.09	-400.000
224.46	-375.000
224.84	-140.000
225.21	-300.000
225.59	-550.000
225.96	-350.000
226.34	-30.769
226.71	200.000
227.08	-500.000
227.46	-40.000
227.83	-250.000
228.21	-31.579
228.58	175.000
228.95	800.000
229.33	-125.000
229.70	-120.000
230.08	31.579
230.45	70.000
230.82	-433.333
231.20	-57.143
231.57	-16.667
231.95	-90.909
232.32	-172.727
232.69	-25.000
233.07	-450.000
233.44	-35.294
233.81	-140.000
234.19	-11.111
234.56	-50.000
234.93	0.000
235.31	-68.421
235.68	-111.111
236.05	-85.000
236.43	0.000
236.80	4.000
237.17	-33.333
237.55	-45.455
237.92	-160.000
238.29	-29.032
238.67	-38.636
239.04	-38.889
239.41	-26.190
239.79	-30.435
240.16	-3.704
240.53	-8.696
240.91	-19.608
241.28	-27.869
241.65	1.493
242.02	-2.703
242.40	0.000
242.77	4.000
243.14	-14.634
243.51	-17.105
243.89	-6.410
244.26	10.891
244.63	3.922
245.00	4.673
245.38	0.000
245.75	-0.885
246.12	13.492
246.49	3.101
246.87	8.571
247.24	9.272
247.61	0.658
247.98	6.711
248.36	2.469
248.73	4.294
249.10	8.197
249.47	8.458
249.84	9.948
250.22	6.736
250.59	6.111
250.96	8.182
251.33	2.041
251.70	9.829
252.08	10.000
252.45	7.377
252.82	7.851
253.19	5.078
253.56	8.745
253.94	3.846
254.31	6.061
254.68	9.091
255.05	11.075
255.42	8.503
255.79	5.178
256.16	6.623
256.54	6.954
256.91	9.508
257.28	8.525
257.65	5.096
258.02	5.900
258.39	9.402
258.76	14.373
259.14	12.069
259.51	12.680
259.88	8.499
260.25	10.833
260.62	10.137
260.99	10.109
261.36	12.869
261.73	9.284
262.10	8.516
262.47	9.920
262.85	15.152
263.22	6.494
263.59	7.632
263.96	12.276
264.33	9.719
264.70	9.630
265.07	12.411
265.44	13.605
265.81	10.417
266.18	12.472
266.55	12.500
266.92	9.339
267.29	12.473
267.66	9.756
268.03	11.354
268.40	10.856
268.77	10.478
269.14	7.269
269.51	11.404
269.88	12.090
270.25	9.658
270.62	11.392
270.99	13.131
271.36	11.287
271.73	11.198
272.10	11.222
272.47	9.419
272.84	10.643
273.21	11.222
273.58	9.879
273.95	10.192
274.32	8.745
274.69	8.897
275.06	12.271
275.43	10.166
275.80	11.111
276.17	10.000
276.54	11.194
276.91	10.376
277.28	11.212
277.65	10.772
278.02	11.765
278.39	11.232
278.76	9.490
279.13	10.461
279.50	10.653
279.87	10.733
280.23	8.099
280.60	11.864
280.97	11.678
281.34	7.980
281.71	11.337
282.08	10.299
282.45	9.820
282.82	10.361
283.19	10.985
283.56	8.852
283.92	11.862
284.29	12.322
284.66	11.987
285.03	9.615
285.40	9.274
285.77	8.669
286.14	13.282
286.51	9.285
286.87	8.847
287.24	8.735
287.61	11.360
287.98	8.308
288.35	9.320
288.72	10.207
289.08	11.713
289.45	9.172
289.82	8.283
290.19	10.345
290.56	10.845
290.93	11.127
291.29	11.157
291.66	8.264
292.03	8.684
292.40	9.932
292.77	9.299
293.13	9.066
293.50	8.016
293.87	9.262
294.24	11.600
294.60	10.240
294.97	9.128
295.34	10.243
295.71	9.206
296.08	8.915
296.44	10.539
296.81	9.501
297.18	9.589
297.55	8.019
297.91	9.134
298.28	8.057
298.65	8.680
299.02	8.973
299.38	9.382
299.75	8.879
300.12	8.333
300.48	8.756
300.85	8.999
301.22	8.613
301.59	7.534
301.95	7.797
302.32	8.333
302.69	7.229
303.05	9.467
303.42	8.537
303.79	9.375
304.15	8.097
304.52	8.351
304.89	7.853
305.25	8.178
305.62	9.300
305.99	9.485
306.35	8.266
306.72	7.859
307.09	8.832
307.45	9.420
307.82	8.375
308.19	8.274
308.55	8.582
308.92	8.666
309.29	8.333
309.65	8.285
310.02	9.208
310.38	9.350
310.75	10.097
311.12	9.204
311.48	8.602
311.85	9.212
312.22	9.488
312.58	9.953
312.95	8.604
313.31	9.033
313.68	9.799
314.05	11.201
314.41	10.018
314.78	10.536
315.14	10.073
315.51	10.434
315.87	11.701
316.24	10.959
316.61	11.012
316.97	10.860
317.34	11.287
317.70	10.306
318.07	11.464
318.43	12.075
318.80	12.542
319.16	12.017
319.53	10.711
319.89	11.218
320.26	13.256
320.62	12.677
320.99	13.389
321.35	12.662
321.72	13.674
322.08	12.714
322.45	12.827
322.81	13.177
323.18	13.186
323.54	14.224
323.91	15.036
324.27	13.425
324.64	14.610
325.00	13.682
325.37	14.988
325.73	15.372
326.10	14.923
326.46	15.554
326.83	15.853
327.19	15.827
327.56	15.889
327.92	15.500
328.29	15.000
328.65	15.745
329.01	15.736
329.38	16.765
329.74	17.894
330.11	16.524
330.47	16.596
330.84	17.227
331.20	17.583
331.56	16.551
331.93	16.987
332.29	17.203
332.66	17.857
333.02	16.332
333.38	16.862
333.75	16.498
334.11	17.765
334.48	16.584
334.84	18.267
335.20	17.800
335.57	17.875
335.93	17.355
336.29	15.973
336.66	17.578
337.02	18.562
337.38	18.707
337.75	17.686
338.11	18.503
338.47	18.610
338.84	17.343
339.20	16.175
339.56	17.628
339.93	17.734
340.29	17.472
340.65	16.383
341.02	17.797
341.38	18.189
341.74	18.321
342.11	17.216
342.47	17.236
342.83	18.116
343.20	17.661
343.56	17.322
343.92	18.175
344.28	18.984
344.65	18.605
345.01	17.941
345.37	18.429
345.73	17.849
346.10	18.643
346.46	17.089
346.82	19.101
347.19	17.800
347.55	18.665
347.91	17.831
348.27	18.361
348.63	19.040
349.00	18.345
349.36	18.662
349.72	18.452
350.08	18.574
350.45	18.403
350.81	18.250
351.17	17.669
351.53	18.575
351.89	19.590
352.26	19.104
352.62	19.254
352.98	18.702
353.34	17.849
353.70	19.800
354.07	19.151
354.43	18.299
354.79	18.325
355.15	18.985
355.51	20.833
355.87	18.250
356.24	19.544
356.60	19.586
356.96	19.570
357.32	19.851
357.68	19.400
358.04	19.611
358.40	19.925
358.77	20.468
359.13	19.793
359.49	19.703
359.85	20.667
360.21	20.588
360.57	19.167
360.93	19.605
361.29	19.789
361.66	21.361
362.02	22.617
362.38	21.082
362.74	21.089
363.10	20.770
363.46	21.330
363.82	20.739
364.18	20.971
364.54	21.093
364.90	21.940
365.26	22.621
365.62	21.867
365.98	21.375
366.35	21.946
366.71	21.769
367.07	23.275
367.43	21.930
367.79	22.296
368.15	23.144
368.51	21.651
368.87	22.534
369.23	22.467
369.59	22.541
369.95	22.380
370.31	22.890
370.67	23.384
371.03	22.992
371.39	23.237
371.75	23.040
372.11	23.306
372.47	23.223
372.83	24.476
373.19	23.215
373.55	23.509
373.91	23.722
374.27	23.480
374.63	23.681
374.99	24.072
375.35	24.675
375.71	23.935
376.07	23.628
376.42	24.055
376.78	25.171
377.14	23.082
377.50	24.794
377.86	24.692
378.22	25.749
378.58	25.386
378.94	24.883
379.30	24.253
379.66	25.220
380.02	25.101
380.38	25.691
380.74	25.690
381.09	26.132
381.45	25.739
381.81	26.288
382.17	25.891
382.53	26.082
382.89	25.451
383.25	26.084
383.61	25.984
383.97	26.207
384.32	27.512
384.68	26.218
385.04	27.299
385.40	27.519
385.76	27.081
386.12	26.930
386.48	26.588
386.83	27.116
387.19	27.115
387.55	26.937
387.91	27.112
388.27	28.118
388.62	26.747
388.98	26.960
389.34	27.342
389.70	27.542
390.06	27.649
390.42	27.530
390.77	28.417
391.13	27.582
391.49	28.019
391.85	26.848
392.20	27.877
392.56	28.293
392.92	28.081
393.28	28.248
393.64	28.771
393.99	28.472
394.35	28.972
394.71	29.222
395.07	27.665
395.42	28.726
395.78	29.250
396.14	28.342
396.50	27.732
396.85	27.490
397.21	28.935
397.57	28.740
397.92	28.981
398.28	28.300
398.64	28.375
399.00	28.796
399.35	28.639
399.71	28.043
400.07	29.422
400.42	28.172
400.78	28.993
401.14	29.368
401.49	29.733
401.85	28.372
402.21	29.954
402.57	29.577
402.92	29.374
403.28	29.274
403.63	29.356
403.99	29.038
404.35	28.709
404.70	29.405
405.06	28.804
405.42	29.274
405.77	29.008
406.13	29.876
406.49	28.266
406.84	29.474
407.20	30.129
407.55	28.710
407.91	29.478
408.27	29.623
408.62	29.727
408.98	29.774
409.34	28.094
409.69	29.913
410.05	29.543
410.40	29.988
410.76	28.772
411.11	30.625
411.47	29.545
411.83	29.394
412.18	28.976
412.54	30.172
412.89	30.093
413.25	30.023
413.60	30.040
413.96	30.594
414.31	30.255
414.67	29.696
415.03	28.554
415.38	30.328
415.74	30.483
416.09	29.796
416.45	28.679
416.80	28.397
417.16	29.693
417.51	30.448
417.87	30.043
418.22	29.820
418.58	29.988
418.93	30.442
419.29	30.210
419.64	29.892
420.00	29.436
420.35	29.085
420.71	29.523
421.06	29.500
421.42	29.587
421.77	28.918
422.12	29.070
422.48	29.852
422.83	30.011
423.19	29.496
423.54	30.918
423.90	29.707
424.25	30.240
424.61	30.769
424.96	29.160
425.31	30.945
425.67	30.005
426.02	31.433
426.38	30.425
426.73	29.855
427.09	31.719
427.44	29.383
427.79	29.464
428.15	28.995
428.50	29.607
428.85	29.564
429.21	30.266
429.56	29.763
429.92	29.582
430.27	29.446
430.62	29.311
430.98	29.120
431.33	29.814
431.68	28.544
432.04	30.168
432.39	29.084
432.74	28.482
433.10	30.124
433.45	29.543
433.80	28.970
434.16	29.236
434.51	30.319
434.86	30.510
435.22	30.234
435.57	29.363
435.92	29.772
436.28	29.750
436.63	29.656
436.98	29.737
437.34	30.271
437.69	30.105
438.04	29.508
438.39	30.557
438.75	30.271
439.10	30.338
439.45	29.681
439.81	29.379
440.16	28.901
440.51	30.435
440.86	28.683
441.22	29.528
441.57	28.669
441.92	29.922
442.27	30.455
442.63	29.856
442.98	30.096
443.33	30.458
443.68	30.674
444.03	30.339
444.39	30.282
444.74	29.556
445.09	29.498
445.44	29.979
445.79	29.023
446.15	28.880
446.50	29.922
446.85	29.912
447.20	29.497
447.55	29.446
447.91	30.052
448.26	29.334
448.61	28.959
448.96	30.258
449.31	29.162
449.66	29.031
450.02	29.378
450.37	30.048
450.72	28.471
451.07	28.929
451.42	29.001
451.77	28.683
452.12	29.515
452.47	28.936
452.83	29.899
453.18	28.780
453.53	29.121
453.88	29.542
454.23	30.000
454.58	29.483
454.93	28.944
455.28	30.042
455.63	29.847
455.98	28.883
456.34	28.386
456.69	29.336
457.04	29.787
457.39	29.324
457.74	29.251
458.09	29.379
458.44	29.041
458.79	28.623
459.14	28.631
459.49	28.806
459.84	29.696
460.19	29.039
460.54	28.450
460.89	30.281
461.24	28.908
461.59	28.998
461.94	28.351
462.29	28.723
462.64	29.089
462.99	29.316
463.34	29.656
463.69	27.843
464.04	29.850
464.39	29.092
464.74	29.247
465.09	28.893
465.44	28.594
465.79	29.297
466.14	28.296
466.49	28.474
466.84	28.209
467.19	27.399
467.54	27.497
467.89	28.391
468.24	28.366
468.59	28.083
468.94	27.739
469.29	28.674
469.64	28.163
469.99	29.127
470.34	28.032
470.68	28.708
471.03	29.404
471.38	28.842
471.73	28.088
472.08	28.299
472.43	29.199
472.78	29.093
473.13	28.571
473.48	28.459
473.83	28.613
474.17	28.019
474.52	28.803
474.87	28.682
475.22	28.789
475.57	28.557
475.92	27.924
476.27	28.328
476.61	28.193
476.96	27.633
477.31	28.663
477.66	29.066
478.01	29.029
478.36	28.564
478.70	28.571
479.05	28.272
479.40	28.480
479.75	28.626
480.10	27.901
480.45	28.168
480.79	27.800
481.14	27.574
481.49	27.896
481.84	28.068
482.19	27.742
482.53	27.328
482.88	28.401
483.23	28.235
483.58	28.472
483.92	27.261
484.27	27.392
484.62	27.682
484.97	27.255
485.31	27.103
485.66	24.899
486.01	24.931
486.36	25.134
486.70	25.771
487.05	26.169
487.40	25.772
487.75	25.751
488.09	25.585
488.44	25.031
488.79	26.745
489.13	26.611
489.48	26.136
489.83	26.881
490.17	26.043
490.52	26.437
490.87	27.623
491.22	26.646
491.56	26.706
491.91	27.039
492.26	27.088
492.60	27.066
492.95	27.468
493.30	26.804
493.64	26.807
493.99	26.579
494.34	26.089
494.68	26.296
495.03	26.388
495.37	26.365
495.72	27.029
496.07	27.257
496.41	26.469
496.76	26.606
497.11	26.454
497.45	26.327
497.80	26.966
498.14	26.213
498.49	26.792
498.84	26.508
499.18	26.586
499.53	26.368
499.87	27.077
500.22	25.200
500.56	25.641
500.91	26.499
501.26	26.500
501.60	26.381
501.95	25.923
502.29	25.713
502.64	25.929
502.98	25.626
503.33	25.313
503.67	25.730
504.02	26.313
504.36	26.452
504.71	25.769
505.06	26.103
505.40	25.777
505.75	25.774
506.09	25.875
506.44	26.323
506.78	26.376
507.13	25.957
507.47	26.007
507.82	25.189
508.16	26.195
508.51	25.223
508.85	25.838
509.19	26.291
509.54	26.225
509.88	26.081
510.23	26.809
510.57	28.130
510.92	26.415
511.26	26.551
511.61	25.205
511.95	26.306
512.30	26.440
512.64	25.937
512.98	25.413
513.33	26.361
513.67	25.905
514.02	26.878
514.36	27.161
514.70	26.927
515.05	27.112
515.39	27.087
515.74	27.359
516.08	26.202
516.42	27.577
516.77	26.709
517.11	26.405
517.46	26.935
517.80	27.418
518.14	28.400
518.49	26.518
518.83	26.770
519.17	26.010
519.52	26.520
519.86	27.086
520.20	26.784
520.55	26.670
520.89	27.984
521.23	27.415
521.58	27.288
521.92	26.459
522.26	26.403
522.61	27.836
522.95	28.201
523.29	27.184
523.64	27.298
523.98	27.325
524.32	28.309
524.66	27.376
525.01	26.557
525.35	27.111
525.69	27.552
526.04	27.038
526.38	28.391
526.72	28.143
527.06	27.742
527.41	27.172
527.75	27.791
528.09	27.273
528.43	27.827
528.78	26.879
529.12	26.892
529.46	27.656
529.80	27.803
530.15	27.304
530.49	27.699
530.83	28.040
531.17	27.061
531.51	28.339
531.86	27.584
532.20	27.744
532.54	26.990
532.88	27.212
533.22	26.812
533.57	25.909
533.91	26.599
534.25	27.191
534.59	27.471
534.93	26.146
535.27	26.592
535.62	27.061
535.96	28.123
536.30	26.616
536.64	27.988
536.98	26.753
537.32	27.284
537.66	27.698
538.01	26.586
538.35	26.979
538.69	26.683
539.03	27.100
539.37	26.148
539.71	26.486
540.05	27.458
540.39	26.100
540.73	26.108
541.07	27.284
541.42	25.930
541.76	25.563
542.10	26.719
542.44	25.457
542.78	26.217
543.12	26.281
543.46	26.252
543.80	24.760
544.14	26.451
544.48	26.005
544.82	26.332
545.16	25.462
545.50	25.464
545.84	25.658
546.18	27.037
546.52	26.306
546.86	25.597
547.20	26.463
547.54	26.030
547.88	25.196
548.22	24.971
548.56	25.512
548.90	25.075
549.24	26.201
549.58	25.615
549.92	25.000
550.26	26.019
550.60	25.654
550.94	26.003
551.28	26.073
551.62	25.270
551.96	24.466
552.30	25.876
552.64	25.264
552.98	25.140
553.32	25.788
553.66	25.338
554.00	25.725
554.34	26.448
554.68	24.919
555.02	25.164
555.36	25.312
555.69	25.625
556.03	24.905
556.37	25.907
556.71	24.794
557.05	24.920
557.39	24.751
557.73	25.760
558.07	24.901
558.41	24.983
558.75	24.611
559.08	26.026
559.42	25.103
559.76	25.780
560.10	25.318
560.44	24.340
560.78	24.625
561.12	25.308
561.45	25.122
561.79	24.542
562.13	24.461
562.47	24.599
562.81	24.810
563.15	24.747
563.48	24.177
563.82	23.942
564.16	23.743
564.50	24.017
564.84	24.071
565.17	23.824
565.51	23.130
565.85	23.575
566.19	23.387
566.52	23.054
566.86	23.543
567.20	22.675
567.54	23.261
567.88	23.445
568.21	22.036
568.55	22.638
568.89	22.742
569.23	22.180
569.56	22.274
569.90	20.991
570.24	21.821
570.57	20.975
570.91	21.004
571.25	20.741
571.59	20.818
571.92	20.629
572.26	19.931
572.60	20.339
572.93	20.735
573.27	20.596
573.61	20.328
573.95	20.102
574.28	20.182
574.62	19.668
574.96	19.585
575.29	19.696
575.63	19.496
575.97	19.617
576.30	19.887
576.64	19.709
576.98	19.613
577.31	19.623
577.65	19.232
577.98	19.597
578.32	18.790
578.66	19.186
578.99	19.312
579.33	19.120
579.67	19.175
580.00	19.240
580.34	18.695
580.67	19.373
581.01	18.953
581.35	19.053
581.68	18.846
582.02	18.713
582.35	18.810
582.69	18.953
583.02	19.267
583.36	19.183
583.70	19.450
584.03	19.222
584.37	19.575
584.70	18.998
585.04	18.926
585.37	19.156
585.71	18.770
586.04	19.044
586.38	19.243
586.72	18.300
587.05	18.470
587.39	18.649
587.72	19.378
588.06	18.956
588.39	19.044
588.73	18.519
589.06	19.272
589.40	19.730
589.73	19.120
590.07	19.264
590.40	19.608
590.73	19.088
591.07	20.067
591.40	20.023
591.74	19.396
592.07	19.935
592.41	19.282
592.74	19.134
593.08	19.745
593.41	19.452
593.75	19.253
594.08	19.540
594.41	18.750
594.75	19.030
595.08	19.011
595.42	18.961
595.75	18.889
596.09	19.349
596.42	19.491
596.75	19.761
597.09	19.758
597.42	19.269
597.75	19.169
598.09	19.841
598.42	19.542
598.76	19.526
599.09	18.690
599.42	18.337
599.76	18.785
600.09	18.685
600.42	18.619
600.76	18.428
601.09	18.586
601.42	18.332
601.76	18.310
602.09	19.049
602.42	18.430
602.76	18.229
603.09	18.686
603.42	18.533
603.76	18.217
604.09	19.446
604.42	18.532
604.76	18.493
605.09	18.827
605.42	18.341
605.75	18.577
606.09	18.253
606.42	18.096
606.75	17.991
607.09	17.934
607.42	17.842
607.75	18.367
608.08	18.863
608.42	18.420
608.75	18.740
609.08	18.803
609.41	19.321
609.75	18.750
610.08	19.393
610.41	19.074
610.74	18.445
611.07	18.961
611.41	18.744
611.74	19.353
612.07	19.168
612.40	18.441
612.73	19.071
613.07	18.631
613.40	19.394
613.73	18.825
614.06	18.989
614.39	18.562
614.72	19.262
615.06	18.527
615.39	18.028
615.72	19.147
616.05	19.087
616.38	19.021
616.71	19.958
617.05	18.051
617.38	19.583
617.71	19.600
618.04	19.590
618.37	19.180
618.70	19.457
619.03	19.355
619.36	19.174
619.69	20.436
620.03	18.770
620.36	19.632
620.69	19.062
621.02	19.685
621.35	21.045
621.68	20.535
622.01	20.854
622.34	19.665
622.67	18.900
623.00	18.691
623.33	18.845
623.66	19.909
623.99	19.947
624.32	20.533
624.65	19.949
624.99	20.156
625.32	19.334
625.65	20.229
625.98	18.712
626.31	19.986
626.64	20.220
626.97	19.730
627.30	19.818
627.63	19.655
627.96	21.246
628.29	20.700
628.62	19.312
628.95	20.070
629.28	20.731
629.61	21.212
629.94	20.669
630.26	20.000
630.59	20.984
630.92	20.952
631.25	19.767
631.58	22.787
631.91	20.337
632.24	20.749
632.57	21.537
632.90	21.464
633.23	22.653
633.56	20.918
633.89	21.591
634.22	21.622
634.55	21.503
634.88	21.104
635.20	22.174
635.53	21.808
635.86	22.535
636.19	22.057
636.52	22.785
636.85	21.246
637.18	21.830
637.51	21.398
637.83	21.152
638.16	23.387
638.49	20.423
638.82	19.729
639.15	20.962
639.48	20.439
639.81	20.785
640.13	21.084
640.46	19.394
640.79	22.304
641.12	21.739
641.45	22.083
641.77	24.904
642.10	22.703
642.43	24.202
642.76	22.493
643.09	21.781
643.41	21.989
643.74	22.207
644.07	21.931
644.40	20.368
644.73	22.496
645.05	22.907
645.38	23.741
645.71	20.968
646.04	24.821
646.36	21.898
646.69	22.546
647.02	23.242
647.35	22.901
647.67	23.671
648.00	23.248
648.33	21.471
648.66	21.255
648.98	20.136
649.31	22.869
649.64	21.647
649.96	21.088
650.29	18.776
650.62	20.934
650.94	20.721
651.27	19.162
651.60	20.175
651.92	18.997
652.25	20.839
652.58	21.183
652.90	19.186
653.23	21.972
653.56	22.397
653.88	22.472
654.21	20.986
654.54	19.509
654.86	20.255
655.19	20.452
655.52	19.473
655.84	15.774
656.17	18.153
656.49	25.100
656.82	26.707
657.15	20.693
657.47	15.190
657.80	11.187
658.13	8.820
658.45	11.069
658.78	14.241
659.10	13.607
659.43	13.764
659.75	14.512
660.08	14.902
660.41	15.633
660.73	17.218
661.06	20.117
661.38	19.617
661.71	21.897
662.03	20.282
662.36	22.719
662.68	24.015
663.01	19.823
663.33	23.440
663.66	27.839
663.98	20.385
664.31	22.514
664.63	20.424
664.96	23.956
665.28	19.964
665.61	22.552
665.93	20.536
666.26	22.222
666.58	20.295
666.91	21.308
667.23	22.286
667.56	22.288
667.88	20.600
668.21	22.656
668.53	19.112
668.86	21.807
669.18	21.385
669.50	22.664
669.83	20.800
670.15	22.638
670.48	22.817
670.80	21.606
671.13	19.849
671.45	21.260
671.77	21.469
672.10	19.833
672.42	20.065
672.75	19.048
673.07	19.403
673.39	18.644
673.72	20.805
674.04	22.069
674.37	21.288
674.69	22.046
675.01	19.810
675.34	20.420
675.66	19.288
675.98	21.642
676.31	20.313
676.63	20.913
676.95	22.222
677.28	19.960
677.60	20.472
677.92	20.154
678.25	20.841
678.57	21.352
678.89	22.355
679.22	20.209
679.54	21.197
679.86	19.322
680.18	20.398
680.51	20.126
680.83	21.768
681.15	20.000
681.48	19.862
681.80	18.998
682.12	20.280
682.44	19.533
682.77	19.681
683.09	19.318
683.41	19.574
683.73	20.683
684.06	19.373
684.38	18.426
684.70	18.312
685.02	20.310
685.34	18.303
685.67	18.770
685.99	17.945
686.31	15.116
686.63	17.220
686.96	18.927
687.28	17.915
687.60	17.340
687.92	17.846
688.24	17.529
688.56	17.241
688.89	18.875
689.21	19.569
689.53	19.216
689.85	16.568
690.17	16.481
690.49	18.924
690.82	18.812
691.14	18.016
691.46	16.444
691.78	19.521
692.10	18.716
692.42	17.143
692.74	17.967
693.06	15.185
693.39	20.114
693.71	16.917
694.03	21.561
694.35	16.000
694.67	17.864
694.99	19.574
695.31	17.881
695.63	18.615
695.95	16.977
696.27	18.022
696.59	20.575
696.91	19.369
697.23	18.462
697.56	17.515
697.88	18.561
698.20	17.137
698.52	22.159
698.84	19.958
699.16	18.980
699.48	17.155
699.80	18.511
700.12	19.214
700.44	20.276
700.76	18.052
701.08	18.644
701.40	19.948
701.72	20.398
702.04	20.856
702.36	18.325
702.68	16.381
703.00	18.582
703.32	19.458
703.64	17.359
703.96	19.093
704.28	20.639
704.60	19.494
704.91	18.367
705.23	21.644
705.55	18.106
705.87	17.273
706.19	21.472
706.51	16.265
706.83	17.579
707.15	17.989
707.47	15.654
707.79	17.249
708.11	15.890
708.43	14.839
708.74	15.179
709.06	17.401
709.38	20.188
709.70	19.355
710.02	14.987
710.34	18.883
710.66	16.480
710.98	16.667
711.29	14.011
711.61	19.209
711.93	19.373
712.25	17.568
712.57	21.239
712.89	19.706
713.20	18.343
713.52	17.919
713.84	20.334
714.16	17.632
714.48	18.041
714.80	17.662
715.11	14.698
715.43	18.302
715.75	16.579
716.07	16.298
716.39	19.126
716.70	16.566
717.02	17.377
717.34	16.725
717.66	16.779
717.97	14.384
718.29	14.433
718.61	18.750
718.93	14.239
719.24	19.565
719.56	21.472
719.88	18.318
720.20	15.806
720.51	14.596
720.83	15.938
721.15	15.461
721.46	10.959
721.78	16.000
722.10	18.123
722.42	15.772
722.73	18.710
723.05	16.842
723.37	14.931
723.68	19.355
724.00	19.495
724.32	13.380
724.63	18.182
724.95	22.340
725.27	14.286
725.58	15.548
725.90	22.414
726.22	17.555
726.53	16.883
726.85	18.553
727.16	13.897
727.48	16.820
727.80	15.563
728.11	15.194
728.43	20.202
728.74	14.716
729.06	16.887
729.38	14.610
729.69	14.430
730.01	15.179
730.32	12.121
730.64	15.409
730.96	14.907
731.27	18.436
731.59	15.110
731.90	15.065
732.22	13.802
732.53	11.602
732.85	14.286
733.16	14.956
733.48	12.805
733.80	13.370
734.11	12.536
734.43	16.216
734.74	17.468
735.06	15.327
735.37	16.486
735.69	12.973
736.00	16.384
736.32	15.094
736.63	15.278
736.95	14.080
737.26	15.455
737.58	12.727
737.89	18.529
738.21	12.232
738.52	11.148
738.83	15.358
739.15	11.702
739.46	18.367
739.78	16.564
740.09	14.040
740.41	15.743
740.72	16.667
741.04	17.152
741.35	18.596
741.66	15.294
741.98	18.443
742.29	11.715
742.61	14.035
742.92	15.000
743.23	13.357
743.55	12.403
743.86	15.200
744.18	14.876
744.49	11.814
744.80	20.576
745.12	18.565
745.43	14.228
745.74	10.776
746.06	10.169
746.37	18.565
746.68	20.325
747.00	19.167
747.31	13.734
747.62	19.231
747.94	14.170
748.25	16.064
748.56	13.878
748.88	17.521
749.19	16.810
749.50	13.853
749.82	20.884
750.13	15.658
750.44	11.333
750.75	11.385
751.07	13.846
751.38	16.719
751.69	15.974
752.01	14.887
752.32	15.686
752.63	15.986
752.94	11.073
753.26	15.242
753.57	10.370
753.88	13.483
754.19	14.469
754.51	15.756
754.82	14.469
755.13	14.098
755.44	14.676
755.75	11.184
756.07	16.418
756.38	16.667
756.69	14.157
757.00	13.296
757.31	13.934
757.63	12.532
757.94	15.023
758.25	13.093
758.56	12.854
758.87	13.636
759.18	13.333
759.50	16.714
759.81	15.686
760.12	10.512
760.43	14.583
760.74	12.562
761.05	14.750
761.36	10.843
761.67	14.467
761.99	15.676
762.30	13.415
762.61	11.881
762.92	15.299
763.23	14.981
763.54	17.626
763.85	16.151
764.16	13.468
764.47	14.789
764.78	15.016
765.10	11.730
765.41	15.641
765.72	11.905
766.03	13.842
766.34	12.539
766.65	10.453
766.96	12.749
767.27	11.060
767.58	7.960
767.89	19.231
768.20	15.962
768.51	10.648
768.82	21.687
769.13	11.742
769.44	5.385
769.75	12.996
770.06	11.923
770.37	15.354
770.68	7.234
770.99	6.478
771.30	15.926
771.61	11.027
771.92	9.259
772.23	14.980
772.54	10.185
772.85	19.355
773.16	12.381
773.47	11.111
773.78	5.946
774.09	17.045
774.39	19.000
774.70	12.022
775.01	9.146
775.32	7.059
775.63	7.362
775.94	6.369
776.25	17.419
776.56	17.949
776.87	14.966
777.18	17.931
777.48	7.692
777.79	12.162
778.10	12.500
778.41	9.722
778.72	6.207
779.03	11.111
779.34	12.727
779.65	9.845
779.95	15.556
780.26	7.386
780.57	11.613
780.88	8.696
781.19	10.323
781.50	14.118
781.80	13.978
782.11	10.053
782.42	8.081
782.73	8.383
783.04	11.732
783.34	8.485
783.65	1.307
783.96	10.559
784.27	7.738
784.57	11.258
784.88	10.000
785.19	9.449
785.50	13.386
785.81	7.519
786.11	17.692
786.42	5.755
786.73	4.317
787.04	9.023
787.34	0.000
787.65	11.200
787.96	2.239
788.26	18.182
788.57	16.084
788.88	11.842
789.19	9.150
789.49	6.849
789.80	11.348
790.11	14.173
790.41	7.813
790.72	8.475
791.03	-3.883
791.33	4.348
791.64	17.544
791.95	-1.786
792.25	5.714
792.56	14.286
792.87	1.042
793.17	19.643
793.48	1.042
793.79	-9.639
794.09	1.835
794.40	7.339
794.70	10.204
795.01	7.792
795.32	9.589
795.62	7.042
795.93	3.030
796.23	5.738
796.54	8.929
796.85	6.383
797.15	4.348
797.46	6.849
797.76	-1.250
798.07	5.435
798.37	-6.186
798.68	-5.195
798.99	9.195
799.29	17.978
799.60	9.574
799.90	3.614
800.21	4.615
800.51	-4.478
800.82	0.000
801.12	-27.397
801.43	-17.647
801.73	-16.949
802.04	-4.545
802.34	-16.667
802.65	-1.695
802.95	11.940
803.26	11.864
803.56	-2.740
803.87	2.857
804.17	8.219
804.48	-22.807
804.78	5.556
805.09	-6.897
805.39	12.162
805.70	0.000
806.00	12.195
806.30	-4.819
806.61	1.370
806.91	6.731
807.22	15.556
807.52	1.149
807.83	11.111
808.13	9.639
808.43	10.112
808.74	7.500
809.04	-8.824
809.35	-12.000
809.65	8.571
809.95	9.589
810.26	-8.772
810.56	-20.690
810.86	4.412
811.17	-14.035
811.47	-14.754
811.77	-17.778
812.08	-5.085
812.38	-6.667
812.69	-5.172
812.99	11.321
813.29	-30.769
813.59	-2.000
813.90	5.263
814.20	-30.909
814.50	7.042
814.81	0.000
815.11	1.639
815.41	-11.940
815.72	12.069
816.02	-8.929
816.32	-20.000
816.62	-6.818
816.93	-20.000
817.23	9.259
817.53	-21.277
817.84	-7.143
818.14	-35.294
818.44	-14.286
818.74	-24.444
819.04	-41.026
819.35	-25.714
819.65	-30.769
819.95	-11.321
820.25	-11.111
820.56	-19.048
820.86	-21.875
821.16	-23.077
821.46	-46.512
821.76	-12.000
822.07	-1.786
822.37	-23.913
822.67	-21.277
822.97	-32.432
823.27	-25.000
823.57	0.000
823.88	-2.222
824.18	12.500
824.48	-6.667
824.78	-40.000
825.08	-18.182
825.38	2.222
825.69	-8.511
825.99	-16.667
826.29	-25.714
826.59	-2.564
826.89	-39.535
827.19	-18.000
827.49	-26.471
827.79	2.083
828.09	-24.324
828.39	-23.333
828.70	-4.878
829.00	-9.302
829.30	-50.000
829.60	-29.412
829.90	-6.522
830.20	-28.571
830.50	-27.586
830.80	-55.556
831.10	-65.385
831.40	-38.235
831.70	-19.048
832.00	6.452
832.30	-111.765
832.60	-29.167
832.90	-92.308
833.20	-57.895
833.50	-100.000
833.80	-63.158
834.10	-109.524
834.40	-13.889
834.70	-15.625
835.00	-51.429
835.30	2.941
835.60	-13.333
835.90	-40.000
836.20	-113.636
836.50	-20.000
836.80	-39.394
837.10	-48.148
837.40	-40.741
837.70	-162.500
838.00	10.714
838.30	-47.826
838.60	0.000
838.90	-92.857
839.19	-117.391
839.49	-166.667
839.79	-47.826
840.09	-106.250
840.39	-55.000
840.69	-19.355
840.99	-57.143
841.29	-133.333
841.59	-110.526
841.88	-17.949
842.18	0.000
842.48	-120.000
842.78	-70.000
843.08	-33.333
843.38	-3.226
843.68	-105.556
843.97	5.882
844.27	-43.750
844.57	-52.632
844.87	-40.000
845.17	-53.333
845.47	9.524
845.76	-71.429
846.06	-155.556
846.36	-58.824
846.66	0.000
846.96	-100.000
847.25	-70.588
847.55	-8.696
847.85	-65.000
848.15	-41.176
848.44	-136.364
848.74	-52.381
849.04	-50.000
849.34	-56.250
849.63	-52.174
849.93	1350.000
850.23	-26.667
850.53	-7.692
850.82	-54.545
851.12	-50.000
851.42	-118.182
851.71	-30.769
852.01	-25.000
852.31	-107.692
852.61	-73.684
852.90	-58.333
853.20	-55.556
853.50	-311.111
853.79	-80.952
854.09	-77.273
854.39	-191.667
854.68	-64.516
854.98	-30.769
855.28	-50.000
855.57	-28.571
855.87	-44.000
856.17	-45.455
856.46	-40.741
856.76	-66.667
857.05	-26.087
857.35	-29.167
857.65	-84.615
857.94	-38.095
858.24	-44.444
858.53	-69.565
858.83	-105.882
859.13	-82.353
859.42	-94.118
859.72	-50.000
860.01	-30.000
860.31	-177.778
860.60	-130.000
860.90	-33.333
861.20	-83.333
861.49	0.000
861.79	6.667
862.08	-100.000
862.38	-18.750
862.67	-82.353
862.97	-25.000
863.26	-66.667
863.56	-60.000
863.85	-118.182
864.15	-27.778
864.44	-466.667
864.74	-85.714
865.03	-81.250
865.33	-280.000
865.62	-70.968
865.92	-45.455
866.21	-26.087
866.51	-85.714
866.80	-200.000
867.10	-108.333
867.39	-125.000
867.69	900.000
867.98	-171.429
868.27	-64.706
868.57	-2200.000
868.86	-120.000
869.16	-42.857
869.45	-4.167
869.75	-45.455
870.04	-185.714
870.33	-50.000
870.63	-157.143
870.92	-125.000
871.22	-350.000
871.51	-118.182
871.80	-900.000
872.10	-550.000
>>>>>End Processed Spectral Data<<<<<
