SpectraSuite Data File
++++++++++++++++++++++++++++++++++++
Date: Thu May 14 16:10:29 PDT 2015
User: schluterlab
Dark Spectrum Present: Yes
Reference Spectrum Present: Yes
Number of Sampled Component Spectra: 1
Spectrometers: USB2E3373
Integration Time (usec): 3000 (USB2E3373)
Spectra Averaged: 3 (USB2E3373)
Boxcar Smoothing: 0 (USB2E3373)
Correct for Electrical Dark: No (USB2E3373)
Strobe/Lamp Enabled: No (USB2E3373)
Correct for Detector Non-linearity: No (USB2E3373)
Correct for Stray Light: No (USB2E3373)
Number of Pixels in Processed Spectrum: 2048
>>>>>Begin Processed Spectral Data<<<<<
178.53	0.000
178.91	128.571
179.29	-2400.000
179.67	-1600.000
180.04	157.143
180.42	100.000
180.80	320.000
181.18	-800.000
181.56	-100.000
181.94	275.000
182.31	-325.000
182.69	633.333
183.07	-300.000
183.45	475.000
183.83	-183.333
184.20	-200.000
184.58	500.000
184.96	-450.000
185.34	-66.667
185.72	40.000
186.09	288.889
186.47	450.000
186.85	340.000
187.23	-211.111
187.61	-1800.000
187.98	300.000
188.36	525.000
188.74	-150.000
189.12	-66.667
189.49	-12.500
189.87	-250.000
190.25	-22.222
190.63	-160.000
191.00	-188.889
191.38	0.000
191.76	-225.000
192.14	-150.000
192.51	850.000
192.89	-100.000
193.27	0.000
193.65	-14.286
194.02	-1400.000
194.40	-171.429
194.78	142.857
195.15	0.000
195.53	-36.364
195.91	0.000
196.29	-75.000
196.66	-107.692
197.04	-1800.000
197.42	-142.857
197.79	-500.000
198.17	-175.000
198.55	-71.429
198.92	-55.556
199.30	-150.000
199.68	18.182
200.05	-57.143
200.43	-400.000
200.81	142.857
201.18	0.000
201.56	88.889
201.94	0.000
202.31	333.333
202.69	-66.667
203.07	500.000
203.44	-122.222
203.82	-550.000
204.19	-83.333
204.57	-266.667
204.95	-162.500
205.32	-1300.000
205.70	125.000
206.08	-200.000
206.45	-133.333
206.83	460.000
207.20	-183.333
207.58	-280.000
207.96	-266.667
208.33	-33.333
208.71	125.000
209.08	-100.000
209.46	0.000
209.84	366.667
210.21	600.000
210.59	750.000
210.96	433.333
211.34	-225.000
211.71	-137.500
212.09	-1700.000
212.46	0.000
212.84	1150.000
213.22	-200.000
213.59	-300.000
213.97	-110.000
214.34	-433.333
214.72	133.333
215.09	-275.000
215.47	0.000
215.84	128.571
216.22	850.000
216.59	-300.000
216.97	-320.000
217.34	-25.000
217.72	-100.000
218.09	-75.000
218.47	-225.000
218.84	0.000
219.22	160.000
219.59	-52.941
219.97	-30.000
220.34	350.000
220.72	-133.333
221.09	23.077
221.47	-633.333
221.84	-90.000
222.22	-157.143
222.59	0.000
222.97	-112.500
223.34	-420.000
223.72	-700.000
224.09	-200.000
224.46	-375.000
224.84	-60.000
225.21	-114.286
225.59	-150.000
225.96	-400.000
226.34	-19.231
226.71	300.000
227.08	-600.000
227.46	-13.333
227.83	-150.000
228.21	31.579
228.58	112.500
228.95	800.000
229.33	-66.667
229.70	-70.000
230.08	15.789
230.45	140.000
230.82	-300.000
231.20	-14.286
231.57	-58.333
231.95	-45.455
232.32	-9.091
232.69	-35.000
233.07	-350.000
233.44	-100.000
233.81	-130.000
234.19	-50.000
234.56	-22.727
234.93	13.793
235.31	-36.842
235.68	22.222
236.05	-50.000
236.43	30.769
236.80	48.000
237.17	-3.704
237.55	-27.273
237.92	-110.000
238.29	-25.806
238.67	-4.545
239.04	-19.444
239.41	-9.524
239.79	0.000
240.16	3.704
240.53	-8.696
240.91	0.000
241.28	-1.639
241.65	7.463
242.02	9.459
242.40	-7.692
242.77	-1.333
243.14	-3.659
243.51	-10.526
243.89	-12.821
244.26	7.921
244.63	2.941
245.00	0.935
245.38	10.526
245.75	-2.655
246.12	11.905
246.49	-0.775
246.87	6.429
247.24	13.907
247.61	4.605
247.98	4.027
248.36	9.259
248.73	5.521
249.10	8.197
249.47	13.433
249.84	13.089
250.22	4.663
250.59	7.222
250.96	10.909
251.33	6.122
251.70	10.684
252.08	11.250
252.45	11.475
252.82	6.612
253.19	10.156
253.56	11.787
253.94	8.077
254.31	10.606
254.68	13.287
255.05	15.309
255.42	11.905
255.79	10.356
256.16	10.927
256.54	5.960
256.91	14.754
257.28	8.525
257.65	8.280
258.02	9.735
258.39	13.390
258.76	11.315
259.14	14.368
259.51	10.951
259.88	7.932
260.25	9.722
260.62	12.329
260.99	17.213
261.36	12.601
261.73	9.019
262.10	9.341
262.47	11.260
262.85	14.646
263.22	9.091
263.59	9.211
263.96	11.509
264.33	9.207
264.70	12.840
265.07	12.649
265.44	13.152
265.81	12.500
266.18	12.925
266.55	11.384
266.92	10.023
267.29	14.004
267.66	11.308
268.03	11.135
268.40	10.647
268.77	12.073
269.14	11.013
269.51	12.939
269.88	13.525
270.25	12.475
270.62	11.181
270.99	12.323
271.36	11.881
271.73	11.591
272.10	12.224
272.47	12.024
272.84	9.438
273.21	10.822
273.58	13.710
273.95	10.769
274.32	9.506
274.69	10.445
275.06	10.256
275.43	9.797
275.80	10.758
276.17	11.111
276.54	11.007
276.91	11.807
277.28	12.297
277.65	10.413
278.02	9.743
278.39	11.051
278.76	13.181
279.13	12.943
279.50	12.543
279.87	11.449
280.23	9.331
280.60	10.847
280.97	11.678
281.34	9.338
281.71	12.521
282.08	9.967
282.45	11.129
282.82	12.088
283.19	10.824
283.56	10.164
283.92	11.111
284.29	11.848
284.66	12.479
285.03	10.096
285.40	10.201
285.77	12.229
286.14	12.672
286.51	11.263
286.87	10.427
287.24	11.295
287.61	10.463
287.98	10.725
288.35	11.391
288.72	11.834
289.08	10.542
289.45	10.059
289.82	10.693
290.19	11.494
290.56	9.437
290.93	10.984
291.29	10.468
291.66	9.366
292.03	10.176
292.40	11.293
292.77	9.569
293.13	9.878
293.50	9.461
293.87	9.128
294.24	10.800
294.60	9.482
294.97	8.591
295.34	11.780
295.71	9.206
296.08	9.690
296.44	10.539
296.81	9.988
297.18	8.842
297.55	7.783
297.91	9.371
298.28	8.175
298.65	9.394
299.02	8.737
299.38	10.183
299.75	10.047
300.12	10.301
300.48	9.562
300.85	8.886
301.22	10.291
301.59	8.562
301.95	8.814
302.32	9.778
302.69	7.777
303.05	8.923
303.42	9.424
303.79	8.438
304.15	9.253
304.52	9.091
304.89	8.168
305.25	8.075
305.62	7.941
305.99	8.969
306.35	9.073
306.72	9.204
307.09	8.528
307.45	10.145
307.82	8.880
308.19	6.862
308.55	9.450
308.92	9.542
309.29	7.950
309.65	9.454
310.02	7.228
310.38	9.350
310.75	8.641
311.12	10.163
311.48	8.309
311.85	9.497
312.22	8.729
312.58	9.296
312.95	9.369
313.31	10.750
313.68	9.707
314.05	9.846
314.41	10.929
314.78	10.445
315.14	10.526
315.51	10.711
315.87	11.521
316.24	11.142
316.61	10.924
316.97	12.308
317.34	10.847
317.70	12.576
318.07	12.875
318.43	12.670
318.80	13.211
319.16	13.391
319.53	12.168
319.89	12.358
320.26	13.523
320.62	13.298
320.99	14.681
321.35	14.880
321.72	15.256
322.08	14.247
322.45	15.808
322.81	15.975
323.18	15.221
323.54	17.069
323.91	17.082
324.27	17.470
324.64	18.808
325.00	16.998
325.37	19.410
325.73	19.174
326.10	18.978
326.46	19.951
326.83	20.416
327.19	21.339
327.56	21.423
327.92	21.086
328.29	20.806
328.65	21.189
329.01	21.743
329.38	21.904
329.74	23.202
330.11	23.887
330.47	21.988
330.84	23.084
331.20	25.083
331.56	23.570
331.93	24.937
332.29	24.153
332.66	23.007
333.02	24.707
333.38	23.238
333.75	24.916
334.11	24.687
334.48	24.257
334.84	25.743
335.20	23.174
335.57	26.138
335.93	24.711
336.29	24.875
336.66	24.895
337.02	25.920
337.38	25.765
337.75	25.372
338.11	25.063
338.47	25.393
338.84	26.142
339.20	25.105
339.56	26.359
339.93	25.698
340.29	25.443
340.65	25.791
341.02	27.294
341.38	25.950
341.74	25.666
342.11	25.986
342.47	25.496
342.83	27.053
343.20	26.656
343.56	25.341
343.92	27.062
344.28	26.250
344.65	27.287
345.01	26.989
345.37	26.750
345.73	26.033
346.10	27.223
346.46	26.899
346.82	27.940
347.19	27.273
347.55	27.390
347.91	27.415
348.27	27.997
348.63	27.494
349.00	26.771
349.36	28.030
349.72	27.753
350.08	26.746
350.45	27.833
350.81	28.281
351.17	27.669
351.53	28.506
351.89	28.094
352.26	28.060
352.62	28.284
352.98	28.626
353.34	28.529
353.70	28.351
354.07	29.061
354.43	28.550
354.79	29.245
355.15	29.581
355.51	29.094
355.87	29.020
356.24	30.038
356.60	29.047
356.96	29.429
357.32	29.665
357.68	29.575
358.04	29.865
358.40	29.552
358.77	29.313
359.13	30.502
359.49	29.071
359.85	29.297
360.21	31.062
360.57	30.581
360.93	29.549
361.29	30.035
361.66	30.630
362.02	30.828
362.38	30.921
362.74	30.726
363.10	30.674
363.46	31.787
363.82	31.321
364.18	31.879
364.54	31.535
364.90	32.508
365.26	31.379
365.62	33.200
365.98	32.403
366.35	32.886
366.71	33.197
367.07	33.153
367.43	32.567
367.79	33.975
368.15	34.114
368.51	33.965
368.87	33.573
369.23	33.133
369.59	34.085
369.95	33.671
370.31	34.301
370.67	34.182
371.03	33.033
371.39	33.512
371.75	34.457
372.11	33.537
372.47	34.326
372.83	35.144
373.19	34.156
373.55	34.553
373.91	33.470
374.27	34.994
374.63	36.062
374.99	34.483
375.35	36.039
375.71	35.419
376.07	36.217
376.42	35.705
376.78	36.047
377.14	35.309
377.50	36.306
377.86	36.761
378.22	37.305
378.58	37.337
378.94	37.148
379.30	36.438
379.66	38.213
380.02	38.257
380.38	37.788
380.74	37.634
381.09	37.515
381.45	38.977
381.81	39.637
382.17	38.302
382.53	37.895
382.89	37.810
383.25	38.042
383.61	38.715
383.97	39.458
384.32	40.072
384.68	38.515
385.04	40.312
385.40	39.835
385.76	41.032
386.12	40.275
386.48	39.824
386.83	40.942
387.19	39.397
387.55	38.791
387.91	40.411
388.27	41.339
388.62	40.664
388.98	39.255
389.34	42.133
389.70	41.139
390.06	41.385
390.42	41.205
390.77	41.240
391.13	41.491
391.49	42.391
391.85	41.758
392.20	41.400
392.56	41.406
392.92	41.658
393.28	42.012
393.64	41.620
393.99	42.940
394.35	42.932
394.71	42.994
395.07	42.575
395.42	41.633
395.78	43.327
396.14	42.602
396.50	42.696
396.85	42.099
397.21	42.544
397.57	43.640
397.92	44.215
398.28	42.531
398.64	43.192
399.00	42.932
399.35	42.827
399.71	42.500
400.07	43.346
400.42	43.714
400.78	43.345
401.14	43.540
401.49	44.002
401.85	43.547
402.21	44.090
402.57	44.484
402.92	43.913
403.28	43.560
403.63	44.988
403.99	44.418
404.35	43.377
404.70	43.683
405.06	42.826
405.42	44.379
405.77	44.384
406.13	43.976
406.49	45.270
406.84	44.377
407.20	43.656
407.55	44.155
407.91	45.003
408.27	44.287
408.62	44.910
408.98	44.748
409.34	44.106
409.69	44.808
410.05	45.369
410.40	45.766
410.76	44.083
411.11	45.061
411.47	45.762
411.83	45.620
412.18	46.325
412.54	45.762
412.89	45.285
413.25	45.937
413.60	45.663
413.96	44.464
414.31	44.363
414.67	45.140
415.03	44.492
415.38	46.154
415.74	45.693
416.09	45.342
416.45	44.959
416.80	45.410
417.16	45.722
417.51	45.019
417.87	45.248
418.22	45.269
418.58	45.167
418.93	45.925
419.29	45.746
419.64	45.078
420.00	46.113
420.35	46.491
420.71	44.917
421.06	44.796
421.42	45.814
421.77	44.803
422.12	45.032
422.48	45.264
422.83	46.221
423.19	45.570
423.54	46.460
423.90	44.561
424.25	45.867
424.61	45.982
424.96	45.909
425.31	45.807
425.67	45.518
426.02	47.205
426.38	45.695
426.73	45.424
427.09	46.886
427.44	45.385
427.79	46.324
428.15	46.347
428.50	44.719
428.85	45.121
429.21	46.436
429.56	45.459
429.92	44.717
430.27	45.494
430.62	44.895
430.98	45.745
431.33	45.357
431.68	45.067
432.04	44.997
432.39	45.046
432.74	45.719
433.10	44.673
433.45	44.816
433.80	45.386
434.16	46.023
434.51	46.763
434.86	46.417
435.22	45.590
435.57	45.696
435.92	45.298
436.28	45.620
436.63	46.313
436.98	45.089
437.34	45.378
437.69	44.579
438.04	44.897
438.39	44.744
438.75	45.600
439.10	45.402
439.45	44.494
439.81	43.955
440.16	45.040
440.51	45.318
440.86	44.969
441.22	44.855
441.57	45.755
441.92	44.083
442.27	44.394
442.63	45.156
442.98	44.504
443.33	44.187
443.68	44.797
444.03	45.484
444.39	44.244
444.74	44.359
445.09	43.639
445.44	44.310
445.79	44.109
446.15	43.834
446.50	43.618
446.85	44.747
447.20	43.569
447.55	44.038
447.91	44.241
448.26	42.970
448.61	43.464
448.96	44.635
449.31	42.577
449.66	42.048
450.02	43.091
450.37	43.154
450.72	43.111
451.07	42.597
451.42	43.154
451.77	41.579
452.12	43.059
452.47	42.662
452.83	44.538
453.18	42.615
453.53	42.791
453.88	42.849
454.23	43.051
454.58	42.948
454.93	41.930
455.28	42.926
455.63	41.899
455.98	41.285
456.34	41.755
456.69	42.622
457.04	42.199
457.39	42.517
457.74	41.611
458.09	42.175
458.44	41.756
458.79	41.619
459.14	41.374
459.49	41.483
459.84	40.294
460.19	40.866
460.54	41.113
460.89	41.186
461.24	40.172
461.59	40.288
461.94	40.331
462.29	41.041
462.64	39.891
462.99	39.925
463.34	40.883
463.69	39.039
464.04	40.356
464.39	40.135
464.74	38.712
465.09	40.542
465.44	39.109
465.79	40.243
466.14	38.927
466.49	39.211
466.84	38.567
467.19	38.960
467.54	37.485
467.89	37.586
468.24	38.061
468.59	38.854
468.94	38.112
469.29	37.193
469.64	36.745
469.99	37.667
470.34	37.624
470.68	38.414
471.03	37.656
471.38	37.345
471.73	36.801
472.08	37.944
472.43	37.146
472.78	37.280
473.13	37.674
473.48	37.885
473.83	36.970
474.17	36.342
474.52	37.222
474.87	35.216
475.22	35.775
475.57	36.916
475.92	35.938
476.27	35.410
476.61	35.670
476.96	35.401
477.31	35.545
477.66	35.572
478.01	35.384
478.36	34.895
478.70	35.369
479.05	35.941
479.40	35.291
479.75	34.966
480.10	35.197
480.45	35.415
480.79	34.739
481.14	34.007
481.49	34.393
481.84	33.986
482.19	33.462
482.53	35.024
482.88	34.515
483.23	33.882
483.58	33.668
483.92	32.846
484.27	33.827
484.62	33.622
484.97	33.709
485.31	32.911
485.66	32.001
486.01	31.210
486.36	32.083
486.70	32.948
487.05	33.201
487.40	32.668
487.75	32.646
488.09	32.516
488.44	31.628
488.79	32.074
489.13	31.789
489.48	31.262
489.83	31.630
490.17	31.754
490.52	31.199
490.87	32.149
491.22	31.672
491.56	31.741
491.91	30.615
492.26	31.328
492.60	31.351
492.95	31.066
493.30	30.883
493.64	31.537
493.99	31.579
494.34	31.054
494.68	30.535
495.03	30.749
495.37	30.315
495.72	30.340
496.07	30.543
496.41	30.716
496.76	29.817
497.11	29.597
497.45	29.650
497.80	30.209
498.14	30.249
498.49	30.193
498.84	29.205
499.18	29.330
499.53	29.058
499.87	29.275
500.22	29.163
500.56	29.420
500.91	29.382
501.26	28.955
501.60	28.458
501.95	29.657
502.29	28.653
502.64	28.203
502.98	27.998
503.33	27.905
503.67	27.431
504.02	28.196
504.36	28.195
504.71	27.928
505.06	27.513
505.40	27.331
505.75	28.279
506.09	27.394
506.44	27.112
506.78	28.028
507.13	27.201
507.47	27.901
507.82	27.273
508.16	26.960
508.51	26.957
508.85	27.303
509.19	27.523
509.54	27.474
509.88	26.858
510.23	26.761
510.57	27.211
510.92	26.899
511.26	26.503
511.61	25.447
511.95	26.306
512.30	26.489
512.64	25.437
512.98	25.663
513.33	26.210
513.67	25.650
514.02	26.265
514.36	26.292
514.70	25.729
515.05	25.965
515.39	25.617
515.74	26.670
516.08	25.515
516.42	26.374
516.77	26.393
517.11	24.910
517.46	25.663
517.80	26.082
518.14	24.918
518.49	25.651
518.83	24.747
519.17	24.394
519.52	25.210
519.86	25.238
520.20	25.612
520.55	25.027
520.89	24.662
521.23	24.735
521.58	25.367
521.92	25.156
522.26	24.800
522.61	24.826
522.95	24.798
523.29	24.770
523.64	24.496
523.98	25.214
524.32	25.387
524.66	24.986
525.01	23.726
525.35	23.320
525.69	24.710
526.04	23.995
526.38	25.575
526.72	24.510
527.06	24.809
527.41	23.848
527.75	24.881
528.09	24.262
528.43	24.156
528.78	24.335
529.12	23.394
529.46	23.328
529.80	23.741
530.15	23.826
530.49	23.250
530.83	24.026
531.17	23.357
531.51	22.623
531.86	23.558
532.20	24.390
532.54	22.202
532.88	23.152
533.22	23.689
533.57	23.370
533.91	23.064
534.25	23.120
534.59	23.966
534.93	22.864
535.27	22.986
535.62	22.854
535.96	22.894
536.30	22.797
536.64	23.123
536.98	23.063
537.32	22.654
537.66	23.269
538.01	22.417
538.35	22.046
538.69	22.536
539.03	22.624
539.37	22.438
539.71	23.183
540.05	23.201
540.39	22.372
540.73	21.797
541.07	22.256
541.42	21.914
541.76	21.945
542.10	21.713
542.44	22.168
542.78	21.655
543.12	21.871
543.46	22.039
543.80	21.523
544.14	21.664
544.48	21.749
544.82	21.604
545.16	22.302
545.50	21.090
545.84	21.555
546.18	22.654
546.52	21.210
546.86	20.881
547.20	20.611
547.54	20.911
547.88	20.916
548.22	20.994
548.56	21.182
548.90	21.075
549.24	20.973
549.58	21.767
549.92	21.301
550.26	20.777
550.60	20.996
550.94	20.505
551.28	20.792
551.62	21.024
551.96	20.388
552.30	21.670
552.64	20.411
552.98	20.399
553.32	20.707
553.66	20.322
554.00	21.311
554.34	20.978
554.68	19.948
555.02	20.499
555.36	21.039
555.69	20.115
556.03	19.672
556.37	21.026
556.71	20.799
557.05	20.256
557.39	19.376
557.73	20.476
558.07	20.132
558.41	21.528
558.75	19.946
559.08	20.877
559.42	20.096
559.76	20.760
560.10	20.764
560.44	19.393
560.78	20.688
561.12	20.135
561.45	20.377
561.79	20.269
562.13	20.641
562.47	19.482
562.81	19.810
563.15	20.202
563.48	19.888
563.82	19.407
564.16	19.443
564.50	19.428
564.84	20.118
565.17	20.412
565.51	19.448
565.85	20.012
566.19	19.585
566.52	18.841
566.86	19.864
567.20	18.651
567.54	19.012
567.88	19.470
568.21	18.874
568.55	19.712
568.89	19.564
569.23	18.800
569.56	19.070
569.90	18.710
570.24	18.921
570.57	18.730
570.91	18.647
571.25	18.571
571.59	19.009
571.92	18.284
572.26	18.105
572.60	18.291
572.93	18.480
573.27	19.078
573.61	18.872
573.95	18.257
574.28	18.243
574.62	18.145
574.96	17.777
575.29	18.286
575.63	17.903
575.97	18.084
576.30	17.987
576.64	17.657
576.98	18.018
577.31	18.397
577.65	18.077
577.98	17.978
578.32	17.742
578.66	18.206
578.99	18.042
579.33	17.964
579.67	17.702
580.00	17.824
580.34	18.041
580.67	17.542
581.01	18.044
581.35	17.689
581.68	17.657
582.02	17.834
582.35	17.889
582.69	17.653
583.02	17.810
583.36	17.971
583.70	17.564
584.03	17.975
584.37	17.749
584.70	17.555
585.04	17.322
585.37	17.808
585.71	17.411
586.04	17.305
586.38	17.340
586.72	17.799
587.05	16.986
587.39	17.651
587.72	17.847
588.06	17.456
588.39	18.123
588.73	17.672
589.06	17.015
589.40	17.087
589.73	17.866
590.07	17.838
590.40	17.884
590.73	17.497
591.07	17.684
591.40	17.302
591.74	17.210
592.07	17.418
592.41	17.863
592.74	17.394
593.08	17.484
593.41	16.973
593.75	17.385
594.08	17.116
594.41	17.019
594.75	16.705
595.08	17.261
595.42	17.045
595.75	17.242
596.09	17.113
596.42	17.234
596.75	16.905
597.09	16.929
597.42	17.481
597.75	17.013
598.09	17.183
598.42	17.491
598.76	16.851
599.09	16.518
599.42	16.493
599.76	16.870
600.09	16.950
600.42	17.084
600.76	17.074
601.09	16.694
601.42	16.547
601.76	16.414
602.09	16.726
602.42	16.467
602.76	16.827
603.09	17.070
603.42	16.510
603.76	15.821
604.09	17.282
604.42	16.734
604.76	16.210
605.09	16.554
605.42	16.308
605.75	16.192
606.09	16.424
606.42	16.271
606.75	16.717
607.09	16.551
607.42	16.301
607.75	16.843
608.08	16.496
608.42	16.445
608.75	17.123
609.08	15.620
609.41	16.542
609.75	16.607
610.08	17.018
610.41	16.822
610.74	16.471
611.07	16.829
611.41	16.816
611.74	16.998
612.07	16.877
612.40	15.779
612.73	16.235
613.07	16.381
613.40	16.987
613.73	16.659
614.06	16.634
614.39	16.181
614.72	16.351
615.06	16.218
615.39	15.998
615.72	16.256
616.05	16.367
616.38	15.691
616.71	16.405
617.05	15.815
617.38	16.265
617.71	15.713
618.04	16.999
618.37	16.831
618.70	16.346
619.03	16.786
619.36	15.906
619.69	16.400
620.03	16.196
620.36	16.380
620.69	15.978
621.02	16.404
621.35	16.546
621.68	16.703
622.01	16.085
622.34	15.411
622.67	16.632
623.00	15.385
623.33	17.253
623.66	16.861
623.99	15.076
624.32	17.024
624.65	15.766
624.99	16.125
625.32	17.309
625.65	17.330
625.98	15.864
626.31	16.300
626.64	16.190
626.97	15.004
627.30	14.806
627.63	16.204
627.96	17.793
628.29	16.576
628.62	14.861
628.95	16.126
629.28	15.548
629.61	16.414
629.94	15.816
630.26	16.441
630.59	16.149
630.92	15.065
631.25	15.832
631.58	17.043
631.91	15.745
632.24	15.562
632.57	15.655
632.90	16.550
633.23	17.245
633.56	17.041
633.89	14.153
634.22	15.385
634.55	15.971
634.88	14.935
635.20	17.008
635.53	16.497
635.86	15.385
636.19	16.331
636.52	15.717
636.85	16.241
637.18	15.073
637.51	15.161
637.83	15.393
638.16	16.820
638.49	14.671
638.82	15.445
639.15	15.120
639.48	16.166
639.81	16.744
640.13	17.668
640.46	14.545
640.79	16.299
641.12	15.404
641.45	15.433
641.77	18.870
642.10	15.354
642.43	17.154
642.76	15.583
643.09	14.521
643.41	16.106
643.74	14.621
644.07	16.552
644.40	17.115
644.73	15.094
645.05	16.446
645.38	16.115
645.71	16.569
646.04	17.504
646.36	15.182
646.69	15.644
647.02	17.125
647.35	17.405
647.67	16.264
648.00	16.242
648.33	14.264
648.66	14.836
648.98	17.007
649.31	15.832
649.64	16.467
649.96	15.252
650.29	13.908
650.62	13.861
650.94	16.066
651.27	14.072
651.60	15.351
651.92	14.134
652.25	16.353
652.58	13.755
652.90	13.517
653.23	15.070
653.56	15.121
653.88	16.152
654.21	13.944
654.54	15.173
654.86	15.156
655.19	13.676
655.52	14.605
655.84	13.934
656.17	16.965
656.49	24.090
656.82	26.936
657.15	21.058
657.47	16.063
657.80	11.595
658.13	9.143
658.45	12.173
658.78	14.436
659.10	14.052
659.43	14.243
659.75	14.066
660.08	13.838
660.41	13.978
660.73	13.113
661.06	12.482
661.38	14.514
661.71	15.862
662.03	15.168
662.36	16.637
662.68	15.572
663.01	16.460
663.33	15.123
663.66	16.667
663.98	14.038
664.31	15.197
664.63	13.295
664.96	14.156
665.28	13.067
665.61	16.084
665.93	11.429
666.26	15.950
666.58	13.653
666.91	16.636
667.23	14.095
667.56	14.990
667.88	16.200
668.21	12.891
668.53	12.162
668.86	14.931
669.18	15.071
669.50	12.724
669.83	13.800
670.15	14.370
670.48	15.079
670.80	11.472
671.13	14.745
671.45	14.764
671.77	15.254
672.10	11.833
672.42	12.298
672.75	11.674
673.07	14.627
673.39	14.946
673.72	16.275
674.04	13.966
674.37	15.027
674.69	15.520
675.01	12.571
675.34	13.740
675.66	14.232
675.98	16.418
676.31	14.062
676.63	16.730
676.95	14.751
677.28	13.911
677.60	12.402
677.92	13.628
678.25	14.077
678.57	16.014
678.89	15.870
679.22	12.718
679.54	14.530
679.86	12.881
680.18	15.091
680.51	12.579
680.83	13.748
681.15	12.759
681.48	15.889
681.80	14.508
682.12	15.035
682.44	14.357
682.77	12.234
683.09	12.311
683.41	12.791
683.73	12.144
684.06	14.207
684.38	10.555
684.70	14.542
685.02	14.974
685.34	13.478
685.67	13.249
685.99	12.730
686.31	10.174
686.63	14.218
686.96	13.091
687.28	12.866
687.60	12.121
687.92	12.701
688.24	15.025
688.56	11.897
688.89	13.430
689.21	14.873
689.53	10.784
689.85	11.243
690.17	12.407
690.49	15.538
690.82	12.475
691.14	10.931
691.46	13.767
691.78	14.549
692.10	13.945
692.42	12.679
692.74	12.704
693.06	11.852
693.39	13.852
693.71	11.654
694.03	12.825
694.35	13.333
694.67	13.552
694.99	14.894
695.31	12.583
695.63	13.420
695.95	14.286
696.27	12.088
696.59	15.708
696.91	14.640
697.23	13.407
697.56	12.016
697.88	11.553
698.20	13.183
698.52	14.773
698.84	12.266
699.16	16.939
699.48	11.715
699.80	14.681
700.12	12.664
700.44	12.442
700.76	13.539
701.08	13.559
701.40	13.472
701.72	13.184
702.04	13.904
702.36	10.471
702.68	12.225
703.00	11.736
703.32	10.099
703.64	14.181
703.96	13.126
704.28	12.285
704.60	12.658
704.91	13.265
705.23	14.795
705.55	12.813
705.87	9.697
706.19	14.110
706.51	10.241
706.83	13.256
707.15	10.053
707.47	10.981
707.79	11.572
708.11	8.686
708.43	11.828
708.74	9.598
709.06	12.065
709.38	15.023
709.70	14.888
710.02	14.470
710.34	14.096
710.66	11.453
710.98	9.290
711.29	10.714
711.61	13.277
711.93	12.821
712.25	13.243
712.57	14.749
712.89	17.647
713.20	12.426
713.52	10.983
713.84	11.142
714.16	12.368
714.48	10.309
714.80	15.065
715.11	10.499
715.43	13.263
715.75	13.158
716.07	11.878
716.39	14.481
716.70	9.036
717.02	10.164
717.34	9.756
717.66	7.383
717.97	7.534
718.29	12.027
718.61	12.500
718.93	12.945
719.24	10.559
719.56	11.043
719.88	12.312
720.20	13.226
720.51	12.733
720.83	12.813
721.15	9.211
721.46	6.164
721.78	10.667
722.10	9.061
722.42	9.732
722.73	14.194
723.05	11.930
723.37	9.722
723.68	12.903
724.00	9.386
724.32	10.563
724.63	10.490
724.95	12.766
725.27	14.286
725.58	9.187
725.90	14.138
726.22	11.599
726.53	12.987
726.85	13.836
727.16	12.991
727.48	15.291
727.80	9.272
728.11	8.481
728.43	11.111
728.74	7.692
729.06	13.576
729.38	10.390
729.69	10.738
730.01	12.798
730.32	10.000
730.64	11.006
730.96	12.112
731.27	17.039
731.59	10.165
731.90	8.831
732.22	10.417
732.53	9.392
732.85	12.286
733.16	12.610
733.48	11.585
733.80	6.964
734.11	11.966
734.43	10.811
734.74	12.658
735.06	10.804
735.37	10.811
735.69	11.622
736.00	11.017
736.32	12.668
736.63	8.056
736.95	11.782
737.26	10.606
737.58	9.697
737.89	13.824
738.21	8.869
738.52	8.852
738.83	16.724
739.15	9.220
739.46	9.864
739.78	11.656
740.09	8.883
740.41	9.621
740.72	7.667
741.04	14.563
741.35	12.281
741.66	10.980
741.98	10.246
742.29	10.460
742.61	17.105
742.92	12.308
743.23	13.357
743.55	12.016
743.86	12.000
744.18	5.785
744.49	7.173
744.80	13.580
745.12	13.502
745.43	8.943
745.74	12.931
746.06	13.136
746.37	10.970
746.68	15.854
747.00	10.833
747.31	10.730
747.62	13.462
747.94	6.073
748.25	10.040
748.56	8.980
748.88	13.248
749.19	12.069
749.50	7.359
749.82	15.261
750.13	11.032
750.44	9.000
750.75	9.846
751.07	11.385
751.38	11.356
751.69	13.099
752.01	9.385
752.32	9.804
752.63	10.204
752.94	9.343
753.26	8.922
753.57	9.259
753.88	8.989
754.19	9.325
754.51	10.289
754.82	11.897
755.13	10.820
755.44	11.604
755.75	10.197
756.07	11.940
756.38	11.006
756.69	12.048
757.00	6.371
757.31	10.109
757.63	9.719
757.94	9.859
758.25	13.544
758.56	10.240
758.87	11.364
759.18	8.800
759.50	10.198
759.81	8.964
760.12	8.895
760.43	10.417
760.74	14.286
761.05	11.750
761.36	9.157
761.67	9.391
761.99	13.243
762.30	9.451
762.61	6.601
762.92	9.701
763.23	9.363
763.54	12.590
763.85	8.247
764.16	13.131
764.47	7.746
764.78	14.377
765.10	9.384
765.41	12.051
765.72	5.556
766.03	12.712
766.34	8.777
766.65	10.105
766.96	7.570
767.27	11.060
767.58	7.960
767.89	12.500
768.20	5.634
768.51	9.722
768.82	10.843
769.13	9.091
769.44	3.846
769.75	10.469
770.06	9.615
770.37	9.843
770.68	12.766
770.99	4.453
771.30	15.926
771.61	11.407
771.92	8.148
772.23	8.907
772.54	5.556
772.85	14.286
773.16	13.333
773.47	8.995
773.78	1.622
774.09	6.818
774.39	17.000
774.70	14.208
775.01	6.098
775.32	7.647
775.63	7.362
775.94	3.185
776.25	11.613
776.56	16.026
776.87	11.565
777.18	6.207
777.48	1.399
777.79	6.757
778.10	3.676
778.41	8.333
778.72	10.345
779.03	1.852
779.34	2.424
779.65	10.363
779.95	11.111
780.26	7.386
780.57	8.387
780.88	7.971
781.19	10.323
781.50	9.412
781.80	9.140
782.11	5.820
782.42	5.051
782.73	7.784
783.04	10.056
783.34	3.030
783.65	5.229
783.96	7.453
784.27	4.762
784.57	9.934
784.88	7.143
785.19	0.000
785.50	3.150
785.81	2.256
786.11	10.769
786.42	2.158
786.73	8.633
787.04	16.541
787.34	2.459
787.65	3.200
787.96	9.701
788.26	16.084
788.57	9.091
788.88	4.605
789.19	18.954
789.49	13.699
789.80	11.348
790.11	5.512
790.41	13.281
790.72	7.627
791.03	-2.913
791.33	9.565
791.64	7.018
791.95	9.821
792.25	2.857
792.56	3.571
792.87	0.000
793.17	11.607
793.48	5.208
793.79	-2.410
794.09	-1.835
794.40	0.000
794.70	16.327
795.01	1.948
795.32	3.425
795.62	7.746
795.93	3.788
796.23	13.115
796.54	1.786
796.85	-2.128
797.15	0.000
797.46	-6.849
797.76	5.000
798.07	2.174
798.37	-3.093
798.68	-5.195
798.99	-1.149
799.29	-4.494
799.60	9.574
799.90	-1.205
800.21	-4.615
800.51	-2.985
800.82	0.000
801.12	-4.110
801.43	-13.235
801.73	-5.085
802.04	-4.545
802.34	-18.333
802.65	-1.695
802.95	-13.433
803.26	0.000
803.56	-4.110
803.87	2.857
804.17	-5.479
804.48	-14.035
804.78	13.889
805.09	-12.069
805.39	8.108
805.70	2.817
806.00	0.000
806.30	-6.024
806.61	-5.479
806.91	8.654
807.22	3.333
807.52	-5.747
807.83	5.556
808.13	1.205
808.43	-2.247
808.74	0.000
809.04	-16.176
809.35	-10.667
809.65	-11.429
809.95	2.740
810.26	-22.807
810.56	-5.172
810.86	14.706
811.17	-3.509
811.47	-18.033
811.77	-37.778
812.08	-5.085
812.38	-1.667
812.69	-5.172
812.99	-13.208
813.29	-38.462
813.59	-8.000
813.90	7.018
814.20	-12.727
814.50	-1.408
814.81	-2.564
815.11	-8.197
815.41	-1.493
815.72	6.897
816.02	7.143
816.32	2.222
816.62	-13.636
816.93	-31.111
817.23	-9.259
817.53	-6.383
817.84	16.667
818.14	-11.765
818.44	-6.122
818.74	-15.556
819.04	-35.897
819.35	-31.429
819.65	-26.923
819.95	1.887
820.25	-6.667
820.56	-26.190
820.86	-31.250
821.16	-17.949
821.46	0.000
821.76	-28.000
822.07	-17.857
822.37	0.000
822.67	-4.255
822.97	-27.027
823.27	-15.000
823.57	2.041
823.88	-8.889
824.18	-15.000
824.48	-46.667
824.78	-32.000
825.08	-18.182
825.38	13.333
825.69	-10.638
825.99	-2.778
826.29	-25.714
826.59	0.000
826.89	-37.209
827.19	-14.000
827.49	-5.882
827.79	-4.167
828.09	-54.054
828.39	-13.333
828.70	-19.512
829.00	-16.279
829.30	-10.714
829.60	0.000
829.90	-17.391
830.20	-5.714
830.50	-27.586
830.80	5.556
831.10	-57.692
831.40	-26.471
831.70	4.762
832.00	22.581
832.30	-129.412
832.60	-45.833
832.90	-138.462
833.20	-26.316
833.50	-65.000
833.80	-36.842
834.10	-80.952
834.40	0.000
834.70	-9.375
835.00	-42.857
835.30	5.882
835.60	-56.667
835.90	-28.000
836.20	-59.091
836.50	-40.000
836.80	-42.424
837.10	-55.556
837.40	-44.444
837.70	-131.250
838.00	-32.143
838.30	-65.217
838.60	-20.690
838.90	-28.571
839.19	-86.957
839.49	-125.000
839.79	-43.478
840.09	-43.750
840.39	15.000
840.69	22.581
840.99	-50.000
841.29	-6.667
841.59	-63.158
841.88	-25.641
842.18	0.000
842.48	-130.000
842.78	-70.000
843.08	-53.333
843.38	-3.226
843.68	-88.889
843.97	32.353
844.27	-12.500
844.57	-21.053
844.87	-70.000
845.17	-60.000
845.47	-19.048
845.76	-19.048
846.06	-211.111
846.36	-47.059
846.66	-19.231
846.96	-53.333
847.25	-11.765
847.55	-17.391
847.85	15.000
848.15	-23.529
848.44	-118.182
848.74	-33.333
849.04	-20.833
849.34	-6.250
849.63	-8.696
849.93	700.000
850.23	-60.000
850.53	23.077
850.82	-100.000
851.12	-36.364
851.42	-154.545
851.71	30.769
852.01	-60.000
852.31	-53.846
852.61	-57.895
852.90	-66.667
853.20	-61.111
853.50	-244.444
853.79	-52.381
854.09	-68.182
854.39	-100.000
854.68	-25.806
854.98	-15.385
855.28	-33.333
855.57	-35.714
855.87	-40.000
856.17	-36.364
856.46	7.407
856.76	-33.333
857.05	-43.478
857.35	-45.833
857.65	-69.231
857.94	-28.571
858.24	-14.815
858.53	4.348
858.83	-35.294
859.13	-47.059
859.42	-58.824
859.72	-92.857
860.01	-55.000
860.31	-144.444
860.60	-10.000
860.90	6.667
861.20	5.556
861.49	-84.615
861.79	-3.333
862.08	-107.692
862.38	18.750
862.67	-23.529
862.97	-100.000
863.26	-155.556
863.56	-150.000
863.85	-54.545
864.15	-11.111
864.44	-100.000
864.74	-7.143
865.03	-43.750
865.33	-180.000
865.62	-22.581
865.92	-31.818
866.21	-43.478
866.51	-50.000
866.80	-260.000
867.10	-116.667
867.39	-175.000
867.69	2200.000
867.98	-200.000
868.27	-70.588
868.57	-1500.000
868.86	-100.000
869.16	-95.238
869.45	-33.333
869.75	-81.818
870.04	-228.571
870.33	25.000
870.63	-271.429
870.92	-75.000
871.22	-212.500
871.51	-72.727
871.80	-633.333
872.10	-450.000
>>>>>End Processed Spectral Data<<<<<
