SpectraSuite Data File
++++++++++++++++++++++++++++++++++++
Date: Thu May 14 16:15:56 PDT 2015
User: schluterlab
Dark Spectrum Present: Yes
Reference Spectrum Present: Yes
Number of Sampled Component Spectra: 1
Spectrometers: USB2E3373
Integration Time (usec): 3000 (USB2E3373)
Spectra Averaged: 3 (USB2E3373)
Boxcar Smoothing: 0 (USB2E3373)
Correct for Electrical Dark: No (USB2E3373)
Strobe/Lamp Enabled: No (USB2E3373)
Correct for Detector Non-linearity: No (USB2E3373)
Correct for Stray Light: No (USB2E3373)
Number of Pixels in Processed Spectrum: 2048
>>>>>Begin Processed Spectral Data<<<<<
178.53	0.000
178.91	42.857
179.29	-1000.000
179.67	-1100.000
180.04	92.857
180.42	30.000
180.80	-20.000
181.18	-300.000
181.56	600.000
181.94	-25.000
182.31	-50.000
182.69	33.333
183.07	0.000
183.45	275.000
183.83	-83.333
184.20	-200.000
184.58	500.000
184.96	-375.000
185.34	44.444
185.72	-20.000
186.09	188.889
186.47	300.000
186.85	20.000
187.23	-177.778
187.61	-1600.000
187.98	260.000
188.36	175.000
188.74	-175.000
189.12	-266.667
189.49	6.250
189.87	-75.000
190.25	-33.333
190.63	40.000
191.00	-55.556
191.38	0.000
191.76	-250.000
192.14	33.333
192.51	200.000
192.89	-50.000
193.27	0.000
193.65	0.000
194.02	-1200.000
194.40	-57.143
194.78	-0.000
195.15	0.000
195.53	27.273
195.91	0.000
196.29	-125.000
196.66	-38.462
197.04	-1100.000
197.42	-71.429
197.79	-150.000
198.17	-12.500
198.55	-100.000
198.92	55.556
199.30	-12.500
199.68	-81.818
200.05	7.143
200.43	-950.000
200.81	271.429
201.18	0.000
201.56	200.000
201.94	0.000
202.31	366.667
202.69	-33.333
203.07	100.000
203.44	-11.111
203.82	-250.000
204.19	-25.000
204.57	-16.667
204.95	25.000
205.32	-700.000
205.70	200.000
206.08	-116.667
206.45	-16.667
206.83	140.000
207.20	-50.000
207.58	-220.000
207.96	0.000
208.33	-83.333
208.71	58.333
209.08	50.000
209.46	0.000
209.84	116.667
210.21	300.000
210.59	200.000
210.96	333.333
211.34	-100.000
211.71	-25.000
212.09	-100.000
212.46	0.000
212.84	500.000
213.22	-160.000
213.59	-75.000
213.97	-20.000
214.34	-166.667
214.72	83.333
215.09	-150.000
215.47	0.000
215.84	57.143
216.22	700.000
216.59	-40.000
216.97	80.000
217.34	-75.000
217.72	-62.500
218.09	-125.000
218.47	-75.000
218.84	0.000
219.22	40.000
219.59	-23.529
219.97	25.000
220.34	550.000
220.72	-133.333
221.09	-23.077
221.47	-33.333
221.84	-10.000
222.22	0.000
222.59	0.000
222.97	37.500
223.34	-300.000
223.72	-300.000
224.09	0.000
224.46	-175.000
224.84	-60.000
225.21	-57.143
225.59	25.000
225.96	75.000
226.34	26.923
226.71	250.000
227.08	-650.000
227.46	33.333
227.83	-225.000
228.21	15.789
228.58	125.000
228.95	300.000
229.33	75.000
229.70	-40.000
230.08	15.789
230.45	110.000
230.82	33.333
231.20	7.143
231.57	50.000
231.95	9.091
232.32	-27.273
232.69	5.000
233.07	-100.000
233.44	-41.176
233.81	-140.000
234.19	-11.111
234.56	9.091
234.93	3.448
235.31	-21.053
235.68	-16.667
236.05	0.000
236.43	23.077
236.80	8.000
237.17	11.111
237.55	12.121
237.92	-30.000
238.29	16.129
238.67	0.000
239.04	-2.778
239.41	-16.667
239.79	4.348
240.16	25.926
240.53	-10.870
240.91	-11.765
241.28	8.197
241.65	28.358
242.02	27.027
242.40	18.462
242.77	16.000
243.14	4.878
243.51	7.895
243.89	3.846
244.26	22.772
244.63	23.529
245.00	16.822
245.38	13.158
245.75	4.425
246.12	18.254
246.49	10.853
246.87	21.429
247.24	16.556
247.61	20.395
247.98	16.779
248.36	10.494
248.73	10.429
249.10	14.208
249.47	20.398
249.84	20.942
250.22	17.098
250.59	17.222
250.96	14.545
251.33	17.347
251.70	18.803
252.08	19.167
252.45	16.393
252.82	18.182
253.19	12.500
253.56	12.167
253.94	16.154
254.31	18.182
254.68	24.825
255.05	19.544
255.42	19.388
255.79	15.858
256.16	15.232
256.54	15.563
256.91	17.377
257.28	16.066
257.65	16.242
258.02	14.159
258.39	16.524
258.76	19.878
259.14	20.690
259.51	19.020
259.88	15.864
260.25	16.667
260.62	17.808
260.99	20.219
261.36	20.912
261.73	16.711
262.10	15.934
262.47	17.426
262.85	21.212
263.22	17.662
263.59	12.632
263.96	18.159
264.33	17.391
264.70	17.037
265.07	20.048
265.44	19.274
265.81	17.824
266.18	20.635
266.55	16.295
266.92	15.490
267.29	18.818
267.66	16.851
268.03	16.594
268.40	17.745
268.77	14.806
269.14	14.758
269.51	19.298
269.88	19.262
270.25	19.316
270.62	18.565
270.99	18.182
271.36	15.644
271.73	18.075
272.10	16.633
272.47	17.836
272.84	17.068
273.21	17.836
273.58	16.734
273.95	15.577
274.32	16.350
274.69	16.248
275.06	17.582
275.43	15.896
275.80	16.049
276.17	16.852
276.54	15.672
276.91	16.637
277.28	18.264
277.65	17.235
278.02	19.301
278.39	17.935
278.76	17.047
279.13	15.071
279.50	17.354
279.87	19.141
280.23	15.317
280.60	15.763
280.97	18.421
281.34	15.280
281.71	17.597
282.08	15.947
282.45	16.694
282.82	17.425
283.19	15.670
283.56	18.525
283.92	18.468
284.29	19.431
284.66	17.077
285.03	13.942
285.40	16.538
285.77	16.873
286.14	16.641
286.51	17.808
286.87	15.324
287.24	16.566
287.61	15.247
287.98	16.465
288.35	17.012
288.72	16.272
289.08	16.984
289.45	15.237
289.82	17.620
290.19	15.805
290.56	16.197
290.93	17.118
291.29	17.080
291.66	16.116
292.03	14.654
292.40	16.463
292.77	14.555
293.13	16.373
293.50	15.375
293.87	15.302
294.24	17.200
294.60	16.182
294.97	13.960
295.34	15.365
295.71	14.250
296.08	15.504
296.44	15.441
296.81	15.591
297.18	15.318
297.55	15.448
297.91	15.896
298.28	13.981
298.65	16.171
299.02	13.695
299.38	15.103
299.75	14.836
300.12	13.079
300.48	16.244
300.85	14.061
301.22	14.541
301.59	14.498
301.95	15.254
302.32	15.000
302.69	14.896
303.05	15.560
303.42	14.967
303.79	14.375
304.15	15.457
304.52	15.222
304.89	15.602
305.25	15.839
305.62	14.107
305.99	14.330
306.35	15.020
306.72	16.132
307.09	15.431
307.45	15.942
307.82	13.522
308.19	15.641
308.55	15.911
308.92	16.748
309.29	15.996
309.65	15.692
310.02	15.347
310.38	16.142
310.75	16.019
311.12	15.532
311.48	16.813
311.85	16.334
312.22	16.034
312.58	16.995
312.95	16.348
313.31	17.706
313.68	16.209
314.05	19.241
314.41	18.761
314.78	17.348
315.14	17.695
315.51	17.913
315.87	18.542
316.24	18.356
316.61	18.384
316.97	17.557
317.34	18.342
317.70	18.865
318.07	19.929
318.43	18.622
318.80	19.565
319.16	18.455
319.53	17.738
319.89	18.405
320.26	20.730
320.62	18.528
320.99	20.406
321.35	21.072
321.72	20.930
322.08	20.379
322.45	22.403
322.81	21.390
323.18	20.531
323.54	21.810
323.91	21.352
324.27	20.826
324.64	23.258
325.00	21.808
325.37	21.294
325.73	22.562
326.10	23.520
326.46	22.557
326.83	24.740
327.19	23.150
327.56	24.427
327.92	24.626
328.29	23.548
328.65	22.697
329.01	24.535
329.38	25.695
329.74	25.599
330.11	25.942
330.47	25.021
330.84	24.376
331.20	25.250
331.56	24.957
331.93	25.105
332.29	26.271
332.66	25.166
333.02	24.958
333.38	25.084
333.75	26.263
334.11	25.688
334.48	25.495
334.84	26.508
335.20	24.853
335.57	25.211
335.93	25.537
336.29	24.709
336.66	25.399
337.02	26.254
337.38	26.956
337.75	25.785
338.11	26.156
338.47	27.047
338.84	25.888
339.20	25.021
339.56	26.277
339.93	25.369
340.29	26.087
340.65	25.304
341.02	26.816
341.38	26.273
341.74	26.392
342.11	26.307
342.47	24.940
342.83	26.731
343.20	27.637
343.56	26.464
343.92	26.101
344.28	25.703
344.65	26.899
345.01	26.911
345.37	27.449
345.73	26.111
346.10	26.521
346.46	26.661
346.82	26.592
347.19	27.196
347.55	28.604
347.91	26.300
348.27	27.466
348.63	27.570
349.00	27.293
349.36	27.138
349.72	26.860
350.08	27.935
350.45	27.148
350.81	27.677
351.17	27.293
351.53	27.521
351.89	27.107
352.26	28.582
352.62	28.134
352.98	28.244
353.34	26.214
353.70	28.197
354.07	27.794
354.43	28.170
354.79	27.749
355.15	28.624
355.51	28.436
355.87	28.048
356.24	29.049
356.60	27.938
356.96	27.947
357.32	28.104
357.68	28.111
358.04	27.919
358.40	28.134
358.77	28.728
359.13	28.582
359.49	28.401
359.85	28.209
360.21	28.336
360.57	28.930
360.93	28.773
361.29	30.316
361.66	29.037
362.02	29.019
362.38	28.812
362.74	29.749
363.10	30.468
363.46	29.778
363.82	30.185
364.18	28.994
364.54	29.668
364.90	30.301
365.26	30.000
365.62	29.933
365.98	29.135
366.35	29.262
366.71	31.361
367.07	30.582
367.43	29.941
367.79	31.188
368.15	30.368
368.51	30.717
368.87	30.111
369.23	30.733
369.59	30.260
369.95	30.696
370.31	30.655
370.67	30.674
371.03	31.025
371.39	29.684
371.75	32.462
372.11	31.165
372.47	31.144
372.83	30.628
373.19	31.154
373.55	30.352
373.91	30.675
374.27	31.953
374.63	32.138
374.99	31.830
375.35	32.403
375.71	31.226
376.07	31.375
376.42	31.801
376.78	32.007
377.14	32.502
377.50	32.385
377.86	32.512
378.22	31.497
378.58	32.699
378.94	32.394
379.30	31.869
379.66	32.981
380.02	32.429
380.38	32.604
380.74	32.451
381.09	33.159
381.45	32.898
381.81	33.255
382.17	33.551
382.53	32.865
382.89	32.449
383.25	33.705
383.61	32.639
383.97	32.627
384.32	34.390
384.68	32.773
385.04	33.603
385.40	33.707
385.76	34.994
386.12	33.273
386.48	34.353
386.83	34.207
387.19	33.951
387.55	33.803
387.91	33.333
388.27	34.007
388.62	33.562
388.98	33.051
389.34	34.885
389.70	34.689
390.06	34.221
390.42	33.253
390.77	34.919
391.13	34.566
391.49	35.628
391.85	34.242
392.20	33.630
392.56	34.613
392.92	34.842
393.28	35.489
393.64	34.749
393.99	34.399
394.35	34.871
394.71	34.910
395.07	34.311
395.42	34.095
395.78	35.101
396.14	35.710
396.50	35.629
396.85	34.764
397.21	34.260
397.57	34.099
397.92	35.109
398.28	34.601
398.64	34.325
399.00	33.822
399.35	34.503
399.71	34.837
400.07	34.700
400.42	34.284
400.78	35.417
401.14	34.604
401.49	34.736
401.85	34.767
402.21	36.095
402.57	34.977
402.92	34.574
403.28	33.782
403.63	33.652
403.99	33.314
404.35	35.475
404.70	33.484
405.06	33.370
405.42	34.485
405.77	34.787
406.13	33.766
406.49	34.009
406.84	34.460
407.20	33.650
407.55	33.555
407.91	34.255
408.27	33.687
408.62	35.195
408.98	34.359
409.34	33.372
409.69	34.178
410.05	34.994
410.40	34.455
410.76	34.605
411.11	33.548
411.47	34.337
411.83	34.274
412.18	34.578
412.54	33.729
412.89	34.226
413.25	33.804
413.60	34.693
413.96	34.266
414.31	34.504
414.67	34.109
415.03	34.462
415.38	33.985
415.74	34.881
416.09	34.485
416.45	33.563
416.80	34.149
417.16	34.291
417.51	33.811
417.87	34.335
418.22	34.731
418.58	33.953
418.93	34.051
419.29	35.142
419.64	35.354
420.00	34.006
420.35	34.812
420.71	33.946
421.06	33.698
421.42	33.945
421.77	33.495
422.12	34.461
422.48	34.460
422.83	34.337
423.19	33.952
423.54	34.900
423.90	34.235
424.25	34.827
424.61	34.788
424.96	33.828
425.31	34.873
425.67	34.514
426.02	34.864
426.38	34.328
426.73	34.766
427.09	35.755
427.44	33.643
427.79	34.384
428.15	34.418
428.50	33.764
428.85	34.271
429.21	35.213
429.56	34.551
429.92	35.135
430.27	35.036
430.62	34.001
430.98	34.579
431.33	33.871
431.68	34.579
432.04	35.703
432.39	34.440
432.74	34.532
433.10	35.100
433.45	34.392
433.80	35.461
434.16	35.486
434.51	35.252
434.86	35.939
435.22	35.282
435.57	36.203
435.92	34.613
436.28	35.267
436.63	35.718
436.98	34.353
437.34	34.893
437.69	34.397
438.04	35.272
438.39	35.325
438.75	35.307
439.10	36.469
439.45	36.501
439.81	34.746
440.16	35.228
440.51	35.563
440.86	34.964
441.22	35.531
441.57	35.901
441.92	35.257
442.27	36.111
442.63	35.718
442.98	36.233
443.33	35.139
443.68	37.017
444.03	36.500
444.39	36.893
444.74	37.060
445.09	35.732
445.44	36.196
445.79	37.213
446.15	37.307
446.50	36.176
446.85	37.160
447.20	36.267
447.55	36.977
447.91	36.335
448.26	36.416
448.61	36.663
448.96	37.822
449.31	36.585
449.66	36.220
450.02	36.973
450.37	38.093
450.72	36.168
451.07	36.503
451.42	35.875
451.77	36.965
452.12	36.907
452.47	35.829
452.83	37.444
453.18	36.836
453.53	37.277
453.88	36.775
454.23	36.893
454.58	37.377
454.93	36.711
455.28	37.327
455.63	37.408
455.98	37.709
456.34	36.042
456.69	36.626
457.04	36.643
457.39	36.308
457.74	38.087
458.09	37.342
458.44	36.961
458.79	36.153
459.14	35.291
459.49	36.842
459.84	36.044
460.19	36.091
460.54	36.627
460.89	36.316
461.24	36.437
461.59	36.801
461.94	35.368
462.29	36.170
462.64	36.331
462.99	37.351
463.34	37.119
463.69	36.577
464.04	37.243
464.39	36.435
464.74	36.203
465.09	35.467
465.44	35.408
465.79	37.123
466.14	35.227
466.49	36.053
466.84	36.749
467.19	36.185
467.54	35.076
467.89	35.747
468.24	36.233
468.59	34.858
468.94	34.848
469.29	35.093
469.64	35.283
469.99	36.329
470.34	35.582
470.68	35.954
471.03	36.870
471.38	36.167
471.73	36.151
472.08	36.294
472.43	36.123
472.78	36.524
473.13	34.829
473.48	36.133
473.83	36.158
474.17	34.642
474.52	36.861
474.87	34.496
475.22	34.873
475.57	35.202
475.92	34.495
476.27	34.878
476.61	33.853
476.96	34.515
477.31	35.050
477.66	35.887
478.01	35.231
478.36	33.799
478.70	34.483
479.05	35.429
479.40	35.242
479.75	35.639
480.10	34.391
480.45	35.005
480.79	34.059
481.14	34.467
481.49	34.439
481.84	34.943
482.19	34.194
482.53	34.849
482.88	34.958
483.23	34.415
483.58	34.279
483.92	34.309
484.27	33.700
484.62	33.622
484.97	32.737
485.31	32.101
485.66	30.975
486.01	30.637
486.36	30.859
486.70	31.342
487.05	31.993
487.40	31.925
487.75	31.985
488.09	32.375
488.44	32.028
488.79	32.209
489.13	33.128
489.48	32.233
489.83	32.596
490.17	32.199
490.52	32.102
490.87	33.883
491.22	31.716
491.56	33.532
491.91	33.232
492.26	33.276
492.60	32.794
492.95	33.567
493.30	32.317
493.64	33.114
493.99	32.105
494.34	32.753
494.68	32.120
495.03	32.511
495.37	32.889
495.72	32.562
496.07	33.304
496.41	31.532
496.76	32.569
497.11	32.059
497.45	32.024
497.80	32.341
498.14	32.517
498.49	32.996
498.84	31.810
499.18	32.299
499.53	32.915
499.87	32.484
500.22	31.167
500.56	31.849
500.91	31.625
501.26	32.227
501.60	31.065
501.95	31.481
502.29	31.812
502.64	30.914
502.98	31.536
503.33	31.490
503.67	30.920
504.02	31.567
504.36	30.831
504.71	31.052
505.06	31.241
505.40	30.850
505.75	31.011
506.09	31.538
506.44	31.894
506.78	31.514
507.13	31.443
507.47	31.502
507.82	31.723
508.16	31.166
508.51	30.380
508.85	31.082
509.19	30.933
509.54	31.652
509.88	30.306
510.23	31.666
510.57	31.078
510.92	31.156
511.26	30.880
511.61	29.792
511.95	30.307
512.30	31.216
512.64	30.485
512.98	30.515
513.33	32.107
513.67	30.087
514.02	30.710
514.36	30.691
514.70	31.354
515.05	30.605
515.39	30.026
515.74	31.336
516.08	31.379
516.42	32.025
516.77	31.546
517.11	29.964
517.46	30.541
517.80	31.053
518.14	31.828
518.49	31.128
518.83	30.229
519.17	30.264
519.52	29.927
519.86	30.570
520.20	30.937
520.55	30.613
520.89	30.912
521.23	30.821
521.58	30.960
521.92	30.482
522.26	30.355
522.61	31.308
522.95	30.796
523.29	31.264
523.64	29.204
523.98	30.861
524.32	31.289
524.66	30.336
525.01	29.785
525.35	29.064
525.69	30.104
526.04	29.851
526.38	30.402
526.72	30.161
527.06	29.736
527.41	30.146
527.75	30.819
528.09	30.519
528.43	30.136
528.78	29.249
529.12	29.415
529.46	29.680
529.80	29.462
530.15	28.754
530.49	29.004
530.83	29.634
531.17	29.092
531.51	29.783
531.86	28.846
532.20	30.671
532.54	29.204
532.88	29.152
533.22	29.346
533.57	28.621
533.91	27.946
534.25	29.339
534.59	28.161
534.93	27.108
535.27	28.451
535.62	27.231
535.96	28.123
536.30	27.438
536.64	29.009
536.98	28.905
537.32	28.333
537.66	29.445
538.01	28.157
538.35	26.614
538.69	27.284
539.03	27.590
539.37	28.681
539.71	27.568
540.05	27.758
540.39	27.445
540.73	27.383
541.07	28.081
541.42	26.816
541.76	27.165
542.10	26.840
542.44	26.492
542.78	27.494
543.12	26.996
543.46	27.350
543.80	26.259
544.14	25.853
544.48	26.537
544.82	28.426
545.16	27.132
545.50	27.322
545.84	26.699
546.18	28.519
546.52	27.325
546.86	27.233
547.20	26.654
547.54	26.592
547.88	26.281
548.22	25.556
548.56	25.278
548.90	26.567
549.24	26.626
549.58	26.940
549.92	26.658
550.26	26.861
550.60	27.186
550.94	27.102
551.28	25.149
551.62	27.358
551.96	25.825
552.30	27.215
552.64	26.758
552.98	27.573
553.32	26.752
553.66	26.109
554.00	26.671
554.34	24.775
554.68	26.017
555.02	25.558
555.36	26.561
555.69	26.137
556.03	25.221
556.37	25.657
556.71	25.111
557.05	26.390
557.39	25.747
557.73	26.948
558.07	25.762
558.41	26.711
558.75	26.302
559.08	27.627
559.42	25.583
559.76	26.323
560.10	25.988
560.44	25.528
560.78	26.438
561.12	25.493
561.45	25.791
561.79	25.641
562.13	25.323
562.47	24.784
562.81	25.316
563.15	25.947
563.48	26.352
563.82	25.635
564.16	23.864
564.50	24.672
564.84	24.189
565.17	24.412
565.51	23.475
565.85	24.169
566.19	23.041
566.52	24.459
566.86	23.543
567.20	23.600
567.54	23.261
567.88	24.006
568.21	23.271
568.55	23.022
568.89	23.423
569.23	22.983
569.56	21.805
569.90	21.882
570.24	22.192
570.57	21.199
570.91	20.759
571.25	20.856
571.59	20.763
571.92	20.336
572.26	20.646
572.60	20.066
572.93	20.206
573.27	20.708
573.61	20.143
573.95	20.151
574.28	19.879
574.62	19.668
574.96	19.321
575.29	19.299
575.63	19.173
575.97	19.569
576.30	19.714
576.64	19.470
576.98	19.180
577.31	18.835
577.65	19.336
577.98	19.183
578.32	18.735
578.66	18.884
578.99	18.861
579.33	19.386
579.67	18.654
580.00	18.678
580.34	19.197
580.67	18.711
581.01	19.104
581.35	18.215
581.68	18.846
582.02	18.404
582.35	18.662
582.69	18.577
583.02	18.707
583.36	18.649
583.70	19.155
584.03	18.790
584.37	18.884
584.70	18.998
585.04	18.531
585.37	18.582
585.71	18.792
586.04	18.846
586.38	18.408
586.72	18.451
587.05	18.803
587.39	19.272
587.72	18.971
588.06	18.738
588.39	18.920
588.73	18.783
589.06	18.933
589.40	19.053
589.73	19.152
590.07	19.861
590.40	20.047
590.73	19.972
591.07	19.806
591.40	19.596
591.74	19.873
592.07	20.097
592.41	19.479
592.74	19.844
593.08	20.191
593.41	19.510
593.75	19.454
594.08	19.630
594.41	19.615
594.75	19.861
595.08	19.448
595.42	19.708
595.75	19.632
596.09	19.925
596.42	19.885
596.75	20.108
597.09	20.404
597.42	20.024
597.75	19.600
598.09	19.960
598.42	20.346
598.76	19.603
599.09	19.580
599.42	19.410
599.76	18.719
600.09	19.086
600.42	18.886
600.76	18.989
601.09	18.653
601.42	18.744
601.76	18.517
602.09	18.835
602.42	18.902
602.76	18.967
603.09	19.567
603.42	18.895
603.76	18.922
604.09	19.659
604.42	19.229
604.76	19.406
605.09	19.386
605.42	20.016
605.75	19.577
606.09	18.514
606.42	18.716
606.75	19.678
607.09	19.278
607.42	19.306
607.75	19.422
608.08	18.745
608.42	19.307
608.75	19.403
609.08	19.270
609.41	20.071
609.75	19.643
610.08	20.361
610.41	18.989
610.74	19.160
611.07	19.449
611.41	20.090
611.74	19.353
612.07	19.355
612.40	19.962
612.73	19.853
613.07	20.147
613.40	20.164
613.73	20.077
614.06	19.921
614.39	19.874
614.72	19.699
615.06	19.538
615.39	19.768
615.72	19.431
616.05	19.427
616.38	19.374
616.71	20.585
617.05	20.021
617.38	20.385
617.71	20.248
618.04	19.914
618.37	20.765
618.70	19.966
619.03	19.654
619.36	21.332
619.69	20.564
620.03	20.527
620.36	20.184
620.69	20.543
621.02	20.604
621.35	22.642
621.68	22.343
622.01	20.569
622.34	20.711
622.67	21.924
623.00	20.445
623.33	20.173
623.66	21.530
623.99	20.935
624.32	21.053
624.65	20.077
624.99	20.936
625.32	21.359
625.65	21.443
625.98	20.203
626.31	21.616
626.64	22.930
626.97	21.980
627.30	20.957
627.63	21.005
627.96	21.997
628.29	21.167
628.62	22.418
628.95	22.261
629.28	21.835
629.61	23.232
629.94	21.841
630.26	21.695
630.59	22.366
630.92	22.338
631.25	24.240
631.58	23.823
631.91	24.461
632.24	23.151
632.57	23.340
632.90	23.069
633.23	24.082
633.56	23.265
633.89	23.864
634.22	23.597
634.55	24.739
634.88	23.918
635.20	25.081
635.53	24.859
635.86	24.919
636.19	24.496
636.52	24.367
636.85	23.085
637.18	23.181
637.51	23.011
637.83	25.138
638.16	25.230
638.49	23.122
638.82	24.577
639.15	23.368
639.48	24.249
639.81	24.134
640.13	24.617
640.46	23.030
640.79	23.529
641.12	23.975
641.45	23.965
641.77	25.674
642.10	25.459
642.43	26.197
642.76	25.745
643.09	23.151
643.41	26.050
643.74	26.345
644.07	28.138
644.40	25.177
644.73	25.109
645.05	24.963
645.38	26.619
645.71	26.686
646.04	26.255
646.36	26.423
646.69	26.227
647.02	28.135
647.35	26.260
647.67	27.858
648.00	26.752
648.33	26.276
648.66	24.822
648.98	22.857
649.31	22.192
649.64	25.100
649.96	24.536
650.29	23.644
650.62	22.772
650.94	22.823
651.27	22.455
651.60	23.538
651.92	24.164
652.25	25.760
652.58	23.796
652.90	23.692
653.23	24.507
653.56	25.107
653.88	26.124
654.21	24.507
654.54	23.699
654.86	21.813
655.19	22.334
655.52	20.271
655.84	15.380
656.17	17.525
656.49	24.268
656.82	26.232
657.15	20.387
657.47	15.164
657.80	11.399
658.13	8.939
658.45	12.214
658.78	14.944
659.10	14.496
659.43	14.811
659.75	15.120
660.08	15.686
660.41	17.535
660.73	20.296
661.06	22.026
661.38	24.402
661.71	24.483
662.03	24.162
662.36	27.549
662.68	27.017
663.01	26.018
663.33	26.465
663.66	30.403
663.98	27.500
664.31	25.516
664.63	26.012
664.96	25.408
665.28	23.049
665.61	26.748
665.93	22.321
666.26	26.165
666.58	24.539
666.91	25.234
667.23	28.190
667.56	27.219
667.88	27.800
668.21	22.461
668.53	25.290
668.86	25.933
669.18	26.069
669.50	25.249
669.83	26.000
670.15	25.394
670.48	25.595
670.80	24.092
671.13	23.062
671.45	24.409
671.77	25.424
672.10	23.000
672.42	24.434
672.75	21.813
673.07	23.134
673.39	22.034
673.72	26.007
674.04	25.172
674.37	22.361
674.69	25.573
675.01	26.476
675.34	23.855
675.66	25.094
675.98	24.254
676.31	25.000
676.63	24.715
676.95	25.096
677.28	25.202
677.60	22.638
677.92	23.800
678.25	23.949
678.57	22.420
678.89	26.109
679.22	20.906
679.54	22.906
679.86	20.678
680.18	22.222
680.51	21.069
680.83	23.404
681.15	22.069
681.48	21.762
681.80	23.489
682.12	22.727
682.44	21.202
682.77	22.695
683.09	24.432
683.41	25.000
683.73	26.186
684.06	22.509
684.38	20.751
684.70	22.442
685.02	22.892
685.34	21.464
685.67	21.609
685.99	21.626
686.31	21.076
686.63	21.169
686.96	19.716
687.28	22.476
687.60	20.707
687.92	20.740
688.24	23.706
688.56	19.310
688.89	23.775
689.21	27.593
689.53	22.549
689.85	22.288
690.17	21.111
690.49	22.311
690.82	21.782
691.14	20.648
691.46	23.327
691.78	22.468
692.10	20.734
692.42	21.607
692.74	21.960
693.06	21.111
693.39	21.632
693.71	21.805
694.03	20.818
694.35	23.429
694.67	24.230
694.99	19.787
695.31	21.192
695.63	24.675
695.95	21.118
696.27	21.978
696.59	23.673
696.91	21.171
697.23	25.495
697.56	19.756
697.88	23.295
698.20	22.034
698.52	23.864
698.84	24.116
699.16	24.898
699.48	23.222
699.80	18.936
700.12	22.271
700.44	20.046
700.76	23.040
701.08	25.182
701.40	22.798
701.72	25.622
702.04	22.460
702.36	23.298
702.68	22.983
703.00	23.716
703.32	22.167
703.64	24.450
703.96	24.105
704.28	20.393
704.60	26.076
704.91	21.684
705.23	24.110
705.55	23.120
705.87	27.879
706.19	28.834
706.51	22.289
706.83	23.919
707.15	21.164
707.47	18.224
707.79	22.052
708.11	18.008
708.43	19.785
708.74	18.527
709.06	20.882
709.38	21.362
709.70	22.581
710.02	19.380
710.34	23.936
710.66	19.553
710.98	21.585
711.29	18.956
711.61	21.469
711.93	21.368
712.25	22.432
712.57	26.254
712.89	24.118
713.20	19.527
713.52	22.543
713.84	20.334
714.16	26.316
714.48	21.649
714.80	20.779
715.11	19.948
715.43	20.955
715.75	22.632
716.07	21.271
716.39	24.590
716.70	18.976
717.02	22.295
717.34	24.042
717.66	21.141
717.97	18.493
718.29	21.649
718.61	23.026
718.93	20.712
719.24	25.776
719.56	19.939
719.88	24.324
720.20	20.645
720.51	21.118
720.83	23.438
721.15	20.395
721.46	15.411
721.78	22.667
722.10	18.447
722.42	18.456
722.73	23.548
723.05	25.263
723.37	25.347
723.68	24.373
724.00	25.993
724.32	24.296
724.63	23.077
724.95	26.241
725.27	19.164
725.58	21.908
725.90	24.483
726.22	21.944
726.53	19.481
726.85	18.239
727.16	18.731
727.48	24.771
727.80	21.523
728.11	18.728
728.43	23.906
728.74	22.074
729.06	23.510
729.38	24.026
729.69	19.799
730.01	19.643
730.32	17.576
730.64	18.553
730.96	18.944
731.27	24.302
731.59	18.956
731.90	16.883
732.22	16.927
732.53	15.193
732.85	18.571
733.16	19.648
733.48	16.768
733.80	19.220
734.11	19.088
734.43	19.730
734.74	21.266
735.06	18.844
735.37	16.216
735.69	20.000
736.00	20.339
736.32	18.598
736.63	18.056
736.95	18.678
737.26	21.212
737.58	20.000
737.89	19.706
738.21	21.407
738.52	16.393
738.83	22.867
739.15	23.404
739.46	22.109
739.78	21.779
740.09	19.198
740.41	18.659
740.72	19.000
741.04	15.858
741.35	19.649
741.66	22.745
741.98	19.262
742.29	23.431
742.61	24.561
742.92	19.615
743.23	18.412
743.55	22.868
743.86	24.400
744.18	18.182
744.49	21.097
744.80	24.691
745.12	26.582
745.43	22.358
745.74	23.707
746.06	23.305
746.37	22.785
746.68	23.577
747.00	22.500
747.31	21.888
747.62	24.231
747.94	21.862
748.25	19.679
748.56	22.857
748.88	22.222
749.19	25.431
749.50	19.048
749.82	23.695
750.13	18.149
750.44	22.000
750.75	20.923
751.07	21.231
751.38	17.666
751.69	20.767
752.01	16.181
752.32	19.281
752.63	17.687
752.94	18.685
753.26	20.446
753.57	17.037
753.88	19.101
754.19	20.900
754.51	18.971
754.82	20.579
755.13	22.623
755.44	22.867
755.75	20.724
756.07	20.896
756.38	15.409
756.69	21.687
757.00	18.283
757.31	16.940
757.63	15.601
757.94	15.493
758.25	16.027
758.56	16.558
758.87	17.955
759.18	19.200
759.50	19.263
759.81	17.087
760.12	17.251
760.43	16.146
760.74	16.010
761.05	16.250
761.36	12.530
761.67	14.213
761.99	17.027
762.30	13.720
762.61	17.492
762.92	19.403
763.23	19.850
763.54	20.504
763.85	18.557
764.16	19.529
764.47	23.592
764.78	21.725
765.10	16.716
765.41	19.231
765.72	14.021
766.03	18.079
766.34	15.047
766.65	20.906
766.96	16.733
767.27	22.581
767.58	19.900
767.89	22.596
768.20	23.474
768.51	24.074
768.82	20.080
769.13	16.667
769.44	18.462
769.75	16.245
770.06	19.231
770.37	25.984
770.68	17.021
770.99	16.194
771.30	26.296
771.61	16.730
771.92	18.889
772.23	19.028
772.54	13.889
772.85	23.963
773.16	20.476
773.47	14.286
773.78	14.054
774.09	16.477
774.39	22.500
774.70	19.126
775.01	17.073
775.32	14.118
775.63	14.724
775.94	15.287
776.25	20.645
776.56	21.154
776.87	27.211
777.18	17.931
777.48	23.077
777.79	22.973
778.10	20.588
778.41	20.139
778.72	18.621
779.03	16.667
779.34	26.061
779.65	19.689
779.95	21.667
780.26	21.023
780.57	20.645
780.88	23.913
781.19	25.806
781.50	25.882
781.80	19.892
782.11	14.815
782.42	14.646
782.73	17.964
783.04	17.318
783.34	20.000
783.65	16.993
783.96	17.391
784.27	17.262
784.57	15.894
784.88	20.000
785.19	26.772
785.50	12.598
785.81	18.797
786.11	23.846
786.42	23.022
786.73	20.863
787.04	30.075
787.34	18.033
787.65	30.400
787.96	19.403
788.26	21.678
788.57	18.881
788.88	17.105
789.19	19.608
789.49	15.068
789.80	17.021
790.11	18.898
790.41	17.969
790.72	19.492
791.03	9.709
791.33	14.783
791.64	25.439
791.95	16.071
792.25	20.952
792.56	18.750
792.87	10.417
793.17	20.536
793.48	26.042
793.79	8.434
794.09	18.349
794.40	9.174
794.70	13.605
795.01	16.883
795.32	17.123
795.62	19.718
795.93	17.424
796.23	17.213
796.54	16.071
796.85	12.766
797.15	17.391
797.46	9.589
797.76	13.750
798.07	16.304
798.37	2.062
798.68	23.377
798.99	12.644
799.29	23.596
799.60	26.596
799.90	16.867
800.21	16.923
800.51	16.418
800.82	17.647
801.12	-4.110
801.43	7.353
801.73	11.864
802.04	25.758
802.34	8.333
802.65	13.559
802.95	7.463
803.26	8.475
803.56	30.137
803.87	30.000
804.17	17.808
804.48	-8.772
804.78	20.833
805.09	10.345
805.39	16.216
805.70	7.042
806.00	23.171
806.30	20.482
806.61	15.068
806.91	13.462
807.22	17.778
807.52	6.897
807.83	25.000
808.13	18.072
808.43	16.854
808.74	16.250
809.04	5.882
809.35	12.000
809.65	10.000
809.95	20.548
810.26	5.263
810.56	5.172
810.86	25.000
811.17	17.544
811.47	3.279
811.77	8.889
812.08	8.475
812.38	6.667
812.69	29.310
812.99	18.868
813.29	15.385
813.59	22.000
813.90	8.772
814.20	18.182
814.50	25.352
814.81	21.795
815.11	14.754
815.41	11.940
815.72	24.138
816.02	26.786
816.32	31.111
816.62	20.455
816.93	11.111
817.23	16.667
817.53	-10.638
817.84	40.476
818.14	41.176
818.44	12.245
818.74	26.667
819.04	-5.128
819.35	-28.571
819.65	-7.692
819.95	15.094
820.25	15.556
820.56	4.762
820.86	6.250
821.16	20.513
821.46	4.651
821.76	-2.000
822.07	21.429
822.37	23.913
822.67	12.766
822.97	-43.243
823.27	2.500
823.57	20.408
823.88	26.667
824.18	15.000
824.48	23.333
824.78	28.000
825.08	6.061
825.38	35.556
825.69	23.404
825.99	22.222
826.29	-22.857
826.59	33.333
826.89	0.000
827.19	16.000
827.49	-14.706
827.79	20.833
828.09	-13.514
828.39	16.667
828.70	4.878
829.00	4.651
829.30	-7.143
829.60	17.647
829.90	13.043
830.20	2.857
830.50	24.138
830.80	33.333
831.10	3.846
831.40	-8.824
831.70	23.810
832.00	9.677
832.30	5.882
832.60	4.167
832.90	-38.462
833.20	0.000
833.50	10.000
833.80	42.105
834.10	-19.048
834.40	-11.111
834.70	46.875
835.00	11.429
835.30	23.529
835.60	10.000
835.90	16.000
836.20	-50.000
836.50	48.000
836.80	0.000
837.10	11.111
837.40	-3.704
837.70	-50.000
838.00	10.714
838.30	21.739
838.60	3.448
838.90	-71.429
839.19	-13.043
839.49	-58.333
839.79	-8.696
840.09	-50.000
840.39	-20.000
840.69	35.484
840.99	-7.143
841.29	-13.333
841.59	42.105
841.88	33.333
842.18	-7.692
842.48	-20.000
842.78	-30.000
843.08	-3.333
843.38	22.581
843.68	-66.667
843.97	32.353
844.27	-12.500
844.57	-31.579
844.87	-20.000
845.17	13.333
845.47	42.857
845.76	33.333
846.06	11.111
846.36	-35.294
846.66	-11.538
846.96	-40.000
847.25	-29.412
847.55	39.130
847.85	20.000
848.15	58.824
848.44	72.727
848.74	28.571
849.04	-12.500
849.34	-50.000
849.63	26.087
849.93	400.000
850.23	13.333
850.53	23.077
850.82	36.364
851.12	31.818
851.42	-9.091
851.71	-46.154
852.01	-25.000
852.31	-15.385
852.61	10.526
852.90	8.333
853.20	16.667
853.50	-155.556
853.79	-19.048
854.09	13.636
854.39	-83.333
854.68	12.903
854.98	7.692
855.28	38.889
855.57	-10.714
855.87	-28.000
856.17	-9.091
856.46	29.630
856.76	-22.222
857.05	-13.043
857.35	-4.167
857.65	7.692
857.94	-14.286
858.24	14.815
858.53	4.348
858.83	-17.647
859.13	-11.765
859.42	35.294
859.72	28.571
860.01	35.000
860.31	-11.111
860.60	10.000
860.90	-6.667
861.20	5.556
861.49	-30.769
861.79	23.333
862.08	-46.154
862.38	0.000
862.67	-11.765
862.97	18.750
863.26	-122.222
863.56	-30.000
863.85	0.000
864.15	27.778
864.44	33.333
864.74	0.000
865.03	-18.750
865.33	-110.000
865.62	12.903
865.92	59.091
866.21	30.435
866.51	-7.143
866.80	-140.000
867.10	-58.333
867.39	-33.333
867.69	1900.000
867.98	-28.571
868.27	35.294
868.57	-1500.000
868.86	-140.000
869.16	-4.762
869.45	8.333
869.75	36.364
870.04	0.000
870.33	16.667
870.63	-57.143
870.92	150.000
871.22	-75.000
871.51	-27.273
871.80	-266.667
872.10	-200.000
>>>>>End Processed Spectral Data<<<<<
