SpectraSuite Data File
++++++++++++++++++++++++++++++++++++
Date: Thu May 14 16:10:24 PDT 2015
User: schluterlab
Dark Spectrum Present: Yes
Reference Spectrum Present: Yes
Number of Sampled Component Spectra: 1
Spectrometers: USB2E3373
Integration Time (usec): 3000 (USB2E3373)
Spectra Averaged: 3 (USB2E3373)
Boxcar Smoothing: 0 (USB2E3373)
Correct for Electrical Dark: No (USB2E3373)
Strobe/Lamp Enabled: No (USB2E3373)
Correct for Detector Non-linearity: No (USB2E3373)
Correct for Stray Light: No (USB2E3373)
Number of Pixels in Processed Spectrum: 2048
>>>>>Begin Processed Spectral Data<<<<<
178.53	0.000
178.91	171.429
179.29	-1600.000
179.67	-900.000
180.04	164.286
180.42	60.000
180.80	400.000
181.18	-1400.000
181.56	200.000
181.94	250.000
182.31	-250.000
182.69	200.000
183.07	-400.000
183.45	100.000
183.83	-133.333
184.20	-233.333
184.58	700.000
184.96	-350.000
185.34	-133.333
185.72	40.000
186.09	188.889
186.47	1000.000
186.85	320.000
187.23	-133.333
187.61	-2200.000
187.98	120.000
188.36	425.000
188.74	-150.000
189.12	-33.333
189.49	-37.500
189.87	-187.500
190.25	0.000
190.63	-100.000
191.00	-155.556
191.38	0.000
191.76	-200.000
192.14	-183.333
192.51	400.000
192.89	-133.333
193.27	0.000
193.65	-71.429
194.02	-1200.000
194.40	-85.714
194.78	200.000
195.15	0.000
195.53	-54.545
195.91	0.000
196.29	-25.000
196.66	-30.769
197.04	-1000.000
197.42	-142.857
197.79	-500.000
198.17	-50.000
198.55	-157.143
198.92	22.222
199.30	-137.500
199.68	-36.364
200.05	-14.286
200.43	-550.000
200.81	328.571
201.18	0.000
201.56	222.222
201.94	0.000
202.31	266.667
202.69	-122.222
203.07	1000.000
203.44	-66.667
203.82	-375.000
204.19	16.667
204.57	-133.333
204.95	-200.000
205.32	-1700.000
205.70	325.000
206.08	-266.667
206.45	-216.667
206.83	380.000
207.20	-33.333
207.58	-340.000
207.96	-233.333
208.33	100.000
208.71	91.667
209.08	-66.667
209.46	0.000
209.84	416.667
210.21	150.000
210.59	-50.000
210.96	500.000
211.34	150.000
211.71	-150.000
212.09	-1800.000
212.46	0.000
212.84	850.000
213.22	-360.000
213.59	-225.000
213.97	-80.000
214.34	-33.333
214.72	250.000
215.09	-225.000
215.47	0.000
215.84	114.286
216.22	1050.000
216.59	-160.000
216.97	-120.000
217.34	-275.000
217.72	-125.000
218.09	-350.000
218.47	-225.000
218.84	0.000
219.22	120.000
219.59	0.000
219.97	-65.000
220.34	900.000
220.72	-211.111
221.09	-30.769
221.47	-133.333
221.84	-80.000
222.22	-171.429
222.59	0.000
222.97	-25.000
223.34	-340.000
223.72	-1300.000
224.09	-425.000
224.46	-400.000
224.84	-160.000
225.21	-100.000
225.59	-275.000
225.96	-475.000
226.34	0.000
226.71	350.000
227.08	-550.000
227.46	-40.000
227.83	25.000
228.21	10.526
228.58	187.500
228.95	400.000
229.33	-33.333
229.70	-120.000
230.08	63.158
230.45	190.000
230.82	-433.333
231.20	-7.143
231.57	16.667
231.95	-36.364
232.32	-9.091
232.69	-30.000
233.07	-125.000
233.44	11.765
233.81	-10.000
234.19	44.444
234.56	-31.818
234.93	-6.897
235.31	-26.316
235.68	-27.778
236.05	-80.000
236.43	19.231
236.80	20.000
237.17	14.815
237.55	15.152
237.92	40.000
238.29	-9.677
238.67	0.000
239.04	0.000
239.41	-11.905
239.79	4.348
240.16	3.704
240.53	-6.522
240.91	-21.569
241.28	0.000
241.65	14.925
242.02	24.324
242.40	6.154
242.77	-1.333
243.14	14.634
243.51	6.579
243.89	10.256
244.26	15.842
244.63	18.627
245.00	14.953
245.38	17.544
245.75	9.735
246.12	12.698
246.49	16.279
246.87	16.429
247.24	15.894
247.61	23.026
247.98	25.503
248.36	16.049
248.73	17.178
249.10	15.847
249.47	23.881
249.84	26.702
250.22	18.135
250.59	21.667
250.96	25.455
251.33	18.367
251.70	20.513
252.08	18.750
252.45	24.180
252.82	16.942
253.19	17.969
253.56	23.194
253.94	20.385
254.31	19.318
254.68	25.175
255.05	21.824
255.42	19.728
255.79	19.741
256.16	22.185
256.54	19.868
256.91	20.328
257.28	19.672
257.65	19.108
258.02	20.649
258.39	23.932
258.76	26.300
259.14	26.724
259.51	22.190
259.88	20.680
260.25	21.111
260.62	22.740
260.99	25.410
261.36	25.469
261.73	23.342
262.10	23.077
262.47	21.716
262.85	25.253
263.22	22.338
263.59	20.000
263.96	21.739
264.33	21.228
264.70	23.951
265.07	25.537
265.44	24.490
265.81	21.991
266.18	21.769
266.55	21.205
266.92	21.868
267.29	24.726
267.66	21.729
268.03	22.271
268.40	22.129
268.77	22.551
269.14	20.044
269.51	24.123
269.88	24.180
270.25	19.718
270.62	25.316
270.99	25.859
271.36	22.376
271.73	24.754
272.10	24.048
272.47	25.050
272.84	19.076
273.21	23.848
273.58	20.968
273.95	21.346
274.32	21.673
274.69	22.631
275.06	21.795
275.43	20.148
275.80	23.986
276.17	20.185
276.54	22.201
276.91	20.036
277.28	22.604
277.65	23.519
278.02	23.897
278.39	22.101
278.76	20.914
279.13	22.518
279.50	23.540
279.87	22.182
280.23	18.662
280.60	23.390
280.97	22.368
281.34	22.241
281.71	22.504
282.08	22.093
282.45	23.241
282.82	21.036
283.19	19.709
283.56	20.984
283.92	23.724
284.29	24.013
284.66	23.317
285.03	19.872
285.40	21.484
285.77	22.910
286.14	21.527
286.51	22.374
286.87	21.169
287.24	23.042
287.61	22.272
287.98	21.148
288.35	21.302
288.72	21.006
289.08	22.548
289.45	19.675
289.82	19.880
290.19	21.695
290.56	20.845
290.93	19.401
291.29	20.661
291.66	19.697
292.03	18.453
292.40	19.864
292.77	18.598
293.13	19.350
293.50	18.922
293.87	19.329
294.24	20.933
294.60	19.848
294.97	16.779
295.34	18.566
295.71	18.537
296.08	17.442
296.44	18.137
296.81	17.905
297.18	18.182
297.55	17.689
297.91	18.031
298.28	15.995
298.65	18.549
299.02	17.828
299.38	18.078
299.75	16.822
300.12	18.634
300.48	16.820
300.85	19.348
301.22	19.463
301.59	16.553
301.95	17.514
302.32	17.667
302.69	17.415
303.05	16.540
303.42	17.073
303.79	18.125
304.15	17.245
304.52	16.385
304.89	17.906
305.25	17.391
305.62	17.555
305.99	18.351
306.35	17.440
306.72	17.477
307.09	16.244
307.45	19.048
307.82	18.567
308.19	16.347
308.55	18.226
308.92	18.403
309.29	18.582
309.65	18.519
310.02	18.713
310.38	17.913
310.75	18.835
311.12	19.367
311.48	20.528
311.85	18.803
312.22	18.311
312.58	20.000
312.95	19.598
313.31	20.145
313.68	20.879
314.05	21.771
314.41	21.676
314.78	21.526
315.14	22.414
315.51	20.591
315.87	22.502
316.24	22.557
316.61	23.002
316.97	23.258
317.34	24.515
317.70	25.677
318.07	25.661
318.43	25.595
318.80	26.672
319.16	25.665
319.53	25.364
319.89	27.520
320.26	26.868
320.62	27.571
320.99	29.640
321.35	29.482
321.72	31.163
322.08	29.757
322.45	32.159
322.81	30.144
323.18	32.035
323.54	31.897
323.91	33.808
324.27	33.563
324.64	35.013
325.00	36.070
325.37	36.691
325.73	36.860
326.10	39.740
326.46	39.658
326.83	41.393
327.19	40.787
327.56	41.344
327.92	40.677
328.29	42.419
328.65	41.457
329.01	44.078
329.38	44.229
329.74	45.719
330.11	45.377
330.47	45.746
330.84	45.736
331.20	46.333
331.56	47.140
331.93	47.950
332.29	48.475
332.66	48.837
333.02	47.906
333.38	48.070
333.75	49.327
334.11	49.291
334.48	49.670
334.84	50.892
335.20	49.034
335.57	50.084
335.93	50.248
336.29	50.333
336.66	49.117
337.02	49.749
337.38	49.915
337.75	50.826
338.11	52.565
338.47	49.711
338.84	51.438
339.20	49.874
339.56	50.247
339.93	50.575
340.29	50.322
340.65	51.825
341.02	51.157
341.38	51.576
341.74	52.058
342.11	51.971
342.47	50.357
342.83	51.449
343.20	51.922
343.56	52.366
343.92	51.641
344.28	52.031
344.65	52.558
345.01	52.574
345.37	51.944
345.73	52.689
346.10	53.432
346.46	52.453
346.82	52.060
347.19	52.941
347.55	53.566
347.91	52.972
348.27	52.883
348.63	53.008
349.00	53.393
349.36	53.011
349.72	52.455
350.08	52.080
350.45	55.589
350.81	52.036
351.17	54.361
351.53	55.497
351.89	54.518
352.26	53.134
352.62	53.209
352.98	55.038
353.34	53.398
353.70	54.777
354.07	53.577
354.43	53.986
354.79	53.702
355.15	53.348
355.51	54.094
355.87	54.600
356.24	54.601
356.60	53.215
356.96	55.745
357.32	53.903
357.68	53.807
358.04	55.240
358.40	55.821
358.77	53.874
359.13	55.096
359.49	54.870
359.85	54.460
360.21	54.878
360.57	53.984
360.93	54.372
361.29	54.737
361.66	55.250
362.02	56.507
362.38	54.954
362.74	55.168
363.10	55.846
363.46	55.679
363.82	56.250
364.18	55.595
364.54	55.602
364.90	55.117
365.26	56.828
365.62	56.067
365.98	56.569
366.35	54.899
366.71	56.190
367.07	56.157
367.43	55.023
367.79	56.005
368.15	56.990
368.51	56.292
368.87	55.323
369.23	55.600
369.59	57.377
369.95	55.308
370.31	57.529
370.67	56.121
371.03	55.679
371.39	56.145
371.75	57.084
372.11	56.640
372.47	56.669
372.83	57.526
373.19	55.771
373.55	56.369
373.91	54.669
374.27	56.274
374.63	56.360
374.99	55.968
375.35	56.234
375.71	56.710
376.07	56.553
376.42	57.557
376.78	57.489
377.14	57.143
377.50	57.432
377.86	55.296
378.22	56.886
378.58	57.372
378.94	56.103
379.30	56.825
379.66	56.496
380.02	56.030
380.38	58.007
380.74	56.282
381.09	57.491
381.45	55.284
381.81	58.255
382.17	57.007
382.53	56.784
382.89	56.433
383.25	57.913
383.61	57.350
383.97	55.889
384.32	57.536
384.68	54.930
385.04	56.796
385.40	57.690
385.76	57.093
386.12	56.792
386.48	57.353
386.83	56.615
387.19	56.315
387.55	56.984
387.91	55.936
388.27	57.275
388.62	55.040
388.98	55.612
389.34	56.629
389.70	56.769
390.06	54.944
390.42	55.060
390.77	56.291
391.13	55.927
391.49	55.737
391.85	56.000
392.20	55.516
392.56	54.400
392.92	54.580
393.28	57.214
393.64	54.581
393.99	56.769
394.35	56.367
394.71	56.886
395.07	55.509
395.42	54.597
395.78	57.038
396.14	56.566
396.50	54.929
396.85	55.456
397.21	55.562
397.57	54.770
397.92	55.498
398.28	55.024
398.64	53.719
399.00	53.822
399.35	54.450
399.71	53.424
400.07	54.913
400.42	54.773
400.78	54.340
401.14	53.273
401.49	55.429
401.85	54.419
402.21	55.041
402.57	54.049
402.92	54.551
403.28	53.981
403.63	53.938
403.99	52.850
404.35	52.359
404.70	52.578
405.06	53.261
405.42	53.923
405.77	54.308
406.13	53.593
406.49	53.829
406.84	51.302
407.20	52.487
407.55	53.907
407.91	51.980
408.27	51.413
408.62	52.880
408.98	52.757
409.34	52.962
409.69	54.512
410.05	52.462
410.40	53.480
410.76	52.720
411.11	52.601
411.47	53.071
411.83	53.674
412.18	53.494
412.54	52.223
412.89	51.746
413.25	52.483
413.60	52.326
413.96	53.147
414.31	50.822
414.67	51.461
415.03	51.631
415.38	51.261
415.74	50.947
416.09	51.018
416.45	50.407
416.80	50.490
417.16	52.107
417.51	51.059
417.87	51.196
418.22	50.599
418.58	50.372
418.93	52.736
419.29	50.986
419.64	51.080
420.00	50.267
420.35	50.870
420.71	50.488
421.06	50.144
421.42	52.007
421.77	49.973
422.12	50.476
422.48	50.845
422.83	51.533
423.19	51.194
423.54	51.327
423.90	50.469
424.25	51.147
424.61	49.713
424.96	51.236
425.31	51.486
425.67	50.564
426.02	50.083
426.38	50.631
426.73	50.446
427.09	50.750
427.44	49.754
427.79	50.083
428.15	49.658
428.50	49.607
428.85	51.206
429.21	51.277
429.56	50.494
429.92	50.418
430.27	50.313
430.62	51.197
430.98	49.385
431.33	50.929
431.68	51.054
432.04	50.330
432.39	49.973
432.74	50.228
433.10	50.676
433.45	48.718
433.80	50.161
434.16	49.380
434.51	51.182
434.86	51.412
435.22	50.372
435.57	51.474
435.92	48.414
436.28	51.195
436.63	51.065
436.98	48.470
437.34	50.113
437.69	49.312
438.04	50.185
438.39	49.684
438.75	50.249
439.10	50.687
439.45	49.357
439.81	49.831
440.16	50.402
440.51	49.554
440.86	49.250
441.22	49.518
441.57	50.367
441.92	49.564
442.27	50.152
442.63	49.478
442.98	50.267
443.33	49.711
443.68	50.050
444.03	50.047
444.39	49.607
444.74	49.260
445.09	47.795
445.44	49.842
445.79	49.282
446.15	48.972
446.50	49.354
446.85	49.514
447.20	49.081
447.55	50.209
447.91	50.052
448.26	49.736
448.61	48.300
448.96	50.536
449.31	49.470
449.66	48.856
450.02	48.840
450.37	48.588
450.72	49.031
451.07	48.633
451.42	49.393
451.77	47.749
452.12	49.266
452.47	47.534
452.83	49.212
453.18	47.402
453.53	47.846
453.88	48.537
454.23	48.136
454.58	48.694
454.93	48.968
455.28	48.164
455.63	48.096
455.98	47.598
456.34	48.645
456.69	48.736
457.04	48.109
457.39	47.173
457.74	48.770
458.09	46.733
458.44	48.276
458.79	46.725
459.14	47.929
459.49	47.538
459.84	48.636
460.19	48.418
460.54	48.438
460.89	47.962
461.24	46.667
461.59	48.091
461.94	45.636
462.29	47.144
462.64	45.987
462.99	46.955
463.34	47.047
463.69	46.073
464.04	47.526
464.39	46.076
464.74	44.869
465.09	46.886
465.44	46.567
465.79	46.959
466.14	46.378
466.49	46.053
466.84	45.950
467.19	45.202
467.54	43.831
467.89	44.540
468.24	44.875
468.59	44.412
468.94	44.464
469.29	43.971
469.64	44.565
469.99	45.443
470.34	44.926
470.68	45.249
471.03	44.532
471.38	44.735
471.73	43.888
472.08	43.845
472.43	44.070
472.78	44.018
473.13	45.638
473.48	43.565
473.83	44.515
474.17	44.431
474.52	44.137
474.87	43.411
475.22	44.056
475.57	42.887
475.92	43.654
476.27	43.610
476.61	43.094
476.96	43.691
477.31	43.465
477.66	43.652
478.01	42.603
478.36	42.722
478.70	42.611
479.05	43.916
479.40	43.040
479.75	42.363
480.10	43.108
480.45	42.981
480.79	42.540
481.14	42.785
481.49	42.481
481.84	42.994
482.19	42.538
482.53	42.108
482.88	42.667
483.23	42.508
483.58	42.052
483.92	41.445
484.27	41.829
484.62	41.749
484.97	41.330
485.31	41.535
485.66	40.616
486.01	42.087
486.36	42.966
486.70	43.288
487.05	42.809
487.40	41.212
487.75	40.789
488.09	40.575
488.44	39.642
488.79	39.292
489.13	39.971
489.48	39.806
489.83	39.759
490.17	39.166
490.52	39.696
490.87	39.129
491.22	40.728
491.56	39.846
491.91	40.078
492.26	40.156
492.60	39.878
492.95	38.964
493.30	38.817
493.64	39.466
493.99	39.254
494.34	39.111
494.68	39.529
495.03	39.559
495.37	39.325
495.72	39.456
496.07	39.089
496.41	37.838
496.76	39.324
497.11	39.108
497.45	38.541
497.80	38.827
498.14	37.642
498.49	38.051
498.84	37.797
499.18	38.327
499.53	38.610
499.87	37.890
500.22	38.914
500.56	38.282
500.91	38.032
501.26	38.136
501.60	37.782
501.95	37.603
502.29	38.219
502.64	38.435
502.98	36.928
503.33	36.890
503.67	36.808
504.02	37.128
504.36	37.846
504.71	37.115
505.06	36.880
505.40	37.340
505.75	36.658
506.09	36.142
506.44	38.022
506.78	37.064
507.13	36.192
507.47	36.239
507.82	36.553
508.16	36.233
508.51	35.584
508.85	37.034
509.19	36.476
509.54	36.071
509.88	36.231
510.23	36.085
510.57	36.781
510.92	36.768
511.26	34.969
511.61	34.428
511.95	35.237
512.30	35.500
512.64	34.983
512.98	34.767
513.33	35.333
513.67	34.829
514.02	35.769
514.36	36.419
514.70	34.740
515.05	36.705
515.39	34.961
515.74	34.995
516.08	34.971
516.42	35.583
516.77	34.858
517.11	34.244
517.46	33.775
517.80	35.061
518.14	35.038
518.49	34.165
518.83	33.795
519.17	33.010
519.52	33.910
519.86	34.847
520.20	34.771
520.55	33.625
520.89	34.009
521.23	34.506
521.58	34.124
521.92	33.258
522.26	32.818
522.61	34.144
522.95	33.852
523.29	34.138
523.64	34.025
523.98	33.714
524.32	34.155
524.66	32.442
525.01	33.579
525.35	32.223
525.69	32.831
526.04	32.377
526.38	33.103
526.72	32.930
527.06	33.842
527.41	33.061
527.75	33.848
528.09	32.704
528.43	31.972
528.78	31.734
529.12	32.282
529.46	32.434
529.80	32.895
530.15	31.826
530.49	32.028
530.83	32.054
531.17	32.497
531.51	32.190
531.86	32.031
532.20	33.415
532.54	31.538
532.88	31.394
533.22	31.939
533.57	30.583
533.91	32.492
534.25	32.052
534.59	32.759
534.93	30.617
535.27	31.211
535.62	32.064
535.96	31.900
536.30	30.905
536.64	32.132
536.98	32.103
537.32	32.099
537.66	31.628
538.01	30.876
538.35	31.608
538.69	30.349
539.03	31.269
539.37	30.271
539.71	30.871
540.05	31.475
540.39	31.479
540.73	30.905
541.07	31.392
541.42	30.183
541.76	29.478
542.10	30.519
542.44	30.390
542.78	31.387
543.12	31.347
543.46	29.853
543.80	30.156
544.14	30.461
544.48	29.905
544.82	31.718
545.16	31.127
545.50	30.437
545.84	30.374
546.18	31.914
546.52	30.255
546.86	29.497
547.20	30.789
547.54	30.150
547.88	30.500
548.22	30.000
548.56	29.140
548.90	29.493
549.24	29.909
549.58	30.915
549.92	29.974
550.26	29.385
550.60	28.909
550.94	29.043
551.28	29.373
551.62	29.178
551.96	28.479
552.30	28.999
552.64	28.874
552.98	29.445
553.32	28.553
553.66	28.939
554.00	28.815
554.34	30.180
554.68	29.245
555.02	29.304
555.36	29.323
555.69	27.803
556.03	28.689
556.37	28.974
556.71	27.394
557.05	28.179
557.39	28.069
557.73	28.336
558.07	29.205
558.41	28.638
558.75	28.059
559.08	28.045
559.42	27.778
559.76	27.612
560.10	28.600
560.44	29.156
560.78	28.312
561.12	28.756
561.45	28.893
561.79	28.083
562.13	28.343
562.47	26.695
562.81	27.152
563.15	26.705
563.48	27.906
563.82	27.570
564.16	27.317
564.50	26.937
564.84	26.844
565.17	28.294
565.51	27.100
565.85	27.613
566.19	26.325
566.52	27.677
566.86	27.617
567.20	26.971
567.54	27.456
567.88	28.491
568.21	28.854
568.55	27.962
568.89	28.597
569.23	28.221
569.56	29.035
569.90	27.833
570.24	28.567
570.57	27.389
570.91	27.373
571.25	27.770
571.59	27.776
571.92	27.639
572.26	27.713
572.60	27.300
572.93	27.275
573.27	26.749
573.61	26.681
573.95	27.604
574.28	27.494
574.62	27.217
574.96	27.106
575.29	26.504
575.63	26.611
575.97	27.377
576.30	26.178
576.64	26.891
576.98	26.788
577.31	27.135
577.65	27.033
577.98	27.071
578.32	26.218
578.66	26.800
578.99	26.336
579.33	26.234
579.67	25.657
580.00	25.849
580.34	26.396
580.67	25.949
581.01	26.049
581.35	26.320
581.68	27.028
582.02	26.938
582.35	27.442
582.69	26.685
583.02	26.481
583.36	26.453
583.70	25.540
584.03	25.894
584.37	25.426
584.70	25.721
585.04	25.413
585.37	26.293
585.71	26.688
586.04	26.398
586.38	25.998
586.72	25.646
587.05	26.017
587.39	25.904
587.72	26.268
588.06	25.653
588.39	25.268
588.73	25.556
589.06	25.113
589.40	25.323
589.73	24.968
590.07	25.464
590.40	25.828
590.73	25.345
591.07	25.577
591.40	25.156
591.74	25.278
592.07	25.010
592.41	25.237
592.74	25.133
593.08	25.732
593.41	25.809
593.75	25.460
594.08	25.114
594.41	25.417
594.75	24.942
595.08	24.495
595.42	24.968
595.75	24.669
596.09	25.347
596.42	25.403
596.75	24.431
597.09	24.929
597.42	24.315
597.75	24.422
598.09	24.841
598.42	25.010
598.76	23.653
599.09	24.920
599.42	24.338
599.76	24.497
600.09	24.925
600.42	24.958
600.76	24.538
601.09	23.996
601.42	24.065
601.76	24.241
602.09	23.838
602.42	24.573
602.76	23.985
603.09	24.339
603.42	24.314
603.76	24.278
604.09	25.124
604.42	24.000
604.76	24.201
605.09	24.372
605.42	24.522
605.75	23.538
606.09	23.815
606.42	23.787
606.75	23.801
607.09	23.195
607.42	24.470
607.75	23.994
608.08	23.717
608.42	23.861
608.75	23.673
609.08	23.896
609.41	23.776
609.75	24.018
610.08	24.099
610.41	23.874
610.74	23.992
611.07	23.446
611.41	23.274
611.74	23.880
612.07	24.310
612.40	23.289
612.73	23.619
613.07	23.325
613.40	23.340
613.73	23.640
614.06	24.436
614.39	23.712
614.72	23.193
615.06	23.532
615.39	22.958
615.72	22.938
616.05	22.729
616.38	23.966
616.71	23.929
617.05	22.524
617.38	23.542
617.71	23.650
618.04	22.396
618.37	23.497
618.70	22.964
619.03	22.461
619.36	22.688
619.69	22.998
620.03	23.352
620.36	22.822
620.69	23.257
621.02	23.753
621.35	24.020
621.68	24.223
622.01	22.420
622.34	21.757
622.67	22.337
623.00	21.997
623.33	22.760
623.66	23.281
623.99	22.317
624.32	23.912
624.65	22.523
624.99	23.862
625.32	23.710
625.65	23.129
625.98	22.441
626.31	22.962
626.64	22.564
626.97	23.181
627.30	21.868
627.63	21.530
627.96	23.799
628.29	23.191
628.62	23.258
628.95	21.823
629.28	20.476
629.61	21.801
629.94	21.925
630.26	21.271
630.59	21.416
630.92	20.693
631.25	22.987
631.58	21.751
631.91	22.118
632.24	22.094
632.57	22.201
632.90	22.066
633.23	22.449
633.56	20.918
633.89	21.694
634.22	22.141
634.55	21.503
634.88	20.779
635.20	23.036
635.53	22.034
635.86	21.668
636.19	23.754
636.52	22.363
636.85	21.042
637.18	21.933
637.51	21.290
637.83	23.256
638.16	21.429
638.49	22.066
638.82	20.744
639.15	21.306
639.48	21.363
639.81	20.092
640.13	20.495
640.46	21.212
640.79	20.956
641.12	21.491
641.45	19.950
641.77	23.235
642.10	19.685
642.43	21.543
642.76	19.919
643.09	21.370
643.41	21.429
643.74	19.724
644.07	22.621
644.40	19.802
644.73	20.319
645.05	20.705
645.38	20.432
645.71	21.114
646.04	22.812
646.36	19.708
646.69	20.706
647.02	22.324
647.35	21.527
647.67	19.807
648.00	20.701
648.33	21.021
648.66	20.685
648.98	21.361
649.31	20.433
649.64	21.912
649.96	21.353
650.29	20.306
650.62	19.519
650.94	19.520
651.27	19.461
651.60	18.567
651.92	19.605
652.25	21.708
652.58	19.532
652.90	20.930
653.23	23.099
653.56	20.542
653.88	23.736
654.21	21.549
654.54	19.364
654.86	19.122
655.19	19.699
655.52	22.426
655.84	23.940
656.17	29.205
656.49	40.642
656.82	43.565
657.15	31.803
657.47	22.687
657.80	16.166
658.13	12.289
658.45	15.799
658.78	18.441
659.10	17.049
659.43	16.816
659.75	17.146
660.08	16.359
660.41	16.460
660.73	17.560
661.06	18.062
661.38	17.544
661.71	20.000
662.03	18.695
662.36	20.215
662.68	19.887
663.01	20.000
663.33	21.550
663.66	20.696
663.98	20.000
664.31	16.510
664.63	18.304
664.96	19.782
665.28	18.693
665.61	21.154
665.93	17.679
666.26	18.817
666.58	17.159
666.91	18.879
667.23	19.238
667.56	20.118
667.88	19.800
668.21	17.188
668.53	17.954
668.86	21.022
669.18	18.330
669.50	18.688
669.83	18.000
670.15	18.307
670.48	21.429
670.80	19.120
671.13	17.769
671.45	18.898
671.77	21.846
672.10	17.833
672.42	19.256
672.75	19.816
673.07	19.552
673.39	17.103
673.72	20.805
674.04	20.345
674.37	19.320
674.69	21.340
675.01	18.476
675.34	15.458
675.66	19.288
675.98	19.776
676.31	17.773
676.63	19.962
676.95	20.498
677.28	18.347
677.60	16.142
677.92	20.345
678.25	18.464
678.57	20.819
678.89	21.160
679.22	17.247
679.54	19.316
679.86	18.305
680.18	20.066
680.51	18.396
680.83	19.804
681.15	17.931
681.48	18.653
681.80	20.380
682.12	18.881
682.44	18.531
682.77	17.908
683.09	18.561
683.41	20.155
683.73	19.924
684.06	18.450
684.38	19.499
684.70	19.031
685.02	21.859
685.34	17.970
685.67	19.874
685.99	19.785
686.31	16.570
686.63	19.747
686.96	18.612
687.28	17.101
687.60	16.498
687.92	17.685
688.24	17.028
688.56	17.586
688.89	18.875
689.21	18.004
689.53	15.490
689.85	17.554
690.17	14.815
690.49	17.530
690.82	20.396
691.14	17.409
691.46	17.782
691.78	19.521
692.10	18.532
692.42	18.750
692.74	17.786
693.06	17.037
693.39	18.975
693.71	17.293
694.03	19.517
694.35	17.714
694.67	19.097
694.99	17.234
695.31	15.894
695.63	19.264
695.95	18.012
696.27	17.802
696.59	18.805
696.91	17.568
697.23	21.538
697.56	15.479
697.88	17.045
698.20	18.644
698.52	20.265
698.84	19.543
699.16	17.755
699.48	17.782
699.80	15.957
700.12	17.031
700.44	16.129
700.76	17.815
701.08	19.128
701.40	18.394
701.72	16.169
702.04	17.380
702.36	15.183
702.68	14.425
703.00	16.626
703.32	16.995
703.64	19.315
703.96	17.661
704.28	15.233
704.60	21.519
704.91	17.602
705.23	21.370
705.55	11.421
705.87	20.909
706.19	16.258
706.51	14.458
706.83	15.850
707.15	13.492
707.47	16.822
707.79	16.157
708.11	16.525
708.43	16.989
708.74	16.518
709.06	16.937
709.38	19.014
709.70	18.859
710.02	16.021
710.34	17.021
710.66	15.922
710.98	18.852
711.29	15.934
711.61	13.842
711.93	18.234
712.25	17.297
712.57	20.944
712.89	14.412
713.20	15.089
713.52	16.763
713.84	16.713
714.16	18.421
714.48	16.753
714.80	18.961
715.11	17.585
715.43	16.711
715.75	17.632
716.07	16.851
716.39	15.574
716.70	15.663
717.02	16.721
717.34	15.331
717.66	15.772
717.97	10.616
718.29	15.808
718.61	12.829
718.93	14.563
719.24	14.907
719.56	15.951
719.88	18.919
720.20	13.871
720.51	16.770
720.83	16.250
721.15	16.776
721.46	11.301
721.78	15.667
722.10	13.269
722.42	17.785
722.73	15.484
723.05	14.035
723.37	16.319
723.68	20.789
724.00	16.606
724.32	15.493
724.63	14.336
724.95	16.667
725.27	12.892
725.58	14.488
725.90	20.690
726.22	13.480
726.53	20.130
726.85	18.239
727.16	17.523
727.48	17.125
727.80	16.887
728.11	14.488
728.43	16.835
728.74	16.054
729.06	14.901
729.38	16.558
729.69	12.752
730.01	18.155
730.32	14.545
730.64	17.296
730.96	12.112
731.27	18.994
731.59	18.407
731.90	15.325
732.22	15.104
732.53	14.917
732.85	15.714
733.16	16.129
733.48	16.159
733.80	15.042
734.11	15.954
734.43	17.838
734.74	17.468
735.06	13.568
735.37	18.108
735.69	13.514
736.00	16.384
736.32	15.094
736.63	13.056
736.95	17.816
737.26	14.242
737.58	15.758
737.89	13.824
738.21	14.373
738.52	15.410
738.83	14.334
739.15	17.730
739.46	15.306
739.78	18.098
740.09	14.900
740.41	16.618
740.72	15.333
741.04	17.152
741.35	20.000
741.66	16.471
741.98	17.623
742.29	17.155
742.61	15.351
742.92	15.000
743.23	18.051
743.55	19.380
743.86	14.400
744.18	12.810
744.49	12.658
744.80	17.284
745.12	11.814
745.43	17.886
745.74	14.224
746.06	16.525
746.37	16.456
746.68	22.764
747.00	12.500
747.31	16.738
747.62	18.846
747.94	14.575
748.25	13.655
748.56	13.878
748.88	10.684
749.19	16.379
749.50	16.883
749.82	15.261
750.13	20.641
750.44	11.000
750.75	15.692
751.07	16.923
751.38	14.511
751.69	16.613
752.01	14.239
752.32	16.013
752.63	14.626
752.94	14.533
753.26	16.729
753.57	12.963
753.88	13.858
754.19	18.650
754.51	18.328
754.82	14.469
755.13	18.033
755.44	16.724
755.75	17.434
756.07	17.313
756.38	17.296
756.69	20.783
757.00	12.465
757.31	15.301
757.63	16.113
757.94	16.901
758.25	17.381
758.56	14.597
758.87	17.955
759.18	15.733
759.50	17.847
759.81	16.807
760.12	16.173
760.43	16.927
760.74	16.010
761.05	15.750
761.36	14.940
761.67	15.736
761.99	14.595
762.30	17.073
762.61	15.512
762.92	16.045
763.23	14.981
763.54	16.547
763.85	18.557
764.16	17.508
764.47	17.254
764.78	17.252
765.10	15.249
765.41	20.513
765.72	11.640
766.03	18.927
766.34	13.166
766.65	15.331
766.96	15.538
767.27	16.129
767.58	8.458
767.89	19.231
768.20	11.737
768.51	11.574
768.82	14.859
769.13	16.288
769.44	10.769
769.75	16.245
770.06	16.923
770.37	14.173
770.68	10.638
770.99	10.931
771.30	22.222
771.61	12.167
771.92	19.630
772.23	16.599
772.54	12.963
772.85	18.433
773.16	13.333
773.47	11.640
773.78	9.730
774.09	14.773
774.39	13.500
774.70	13.115
775.01	10.366
775.32	12.941
775.63	7.975
775.94	4.459
776.25	14.194
776.56	10.256
776.87	17.687
777.18	3.448
777.48	16.084
777.79	8.784
778.10	2.206
778.41	5.556
778.72	15.172
779.03	12.963
779.34	15.152
779.65	16.062
779.95	15.556
780.26	17.045
780.57	8.387
780.88	17.391
781.19	14.839
781.50	21.176
781.80	13.441
782.11	12.698
782.42	11.616
782.73	8.383
783.04	8.939
783.34	8.485
783.65	9.150
783.96	11.180
784.27	8.929
784.57	7.947
784.88	7.143
785.19	14.173
785.50	11.811
785.81	17.293
786.11	15.385
786.42	12.950
786.73	15.108
787.04	24.060
787.34	16.393
787.65	7.200
787.96	20.149
788.26	14.685
788.57	9.790
788.88	8.553
789.19	18.301
789.49	17.808
789.80	10.638
790.11	20.472
790.41	14.844
790.72	16.949
791.03	3.883
791.33	9.565
791.64	11.404
791.95	-3.571
792.25	7.619
792.56	9.821
792.87	7.292
793.17	6.250
793.48	1.042
793.79	-4.819
794.09	13.761
794.40	11.927
794.70	13.605
795.01	12.338
795.32	11.644
795.62	14.789
795.93	4.545
796.23	13.934
796.54	6.250
796.85	7.447
797.15	-2.174
797.46	1.370
797.76	6.250
798.07	3.261
798.37	-3.093
798.68	-9.091
798.99	10.345
799.29	13.483
799.60	18.085
799.90	3.614
800.21	-4.615
800.51	-17.910
800.82	-10.294
801.12	-10.959
801.43	2.941
801.73	3.390
802.04	12.121
802.34	-16.667
802.65	-6.780
802.95	-4.478
803.26	-8.475
803.56	8.219
803.87	1.429
804.17	-2.740
804.48	-26.316
804.78	-5.556
805.09	-3.448
805.39	-1.351
805.70	-15.493
806.00	9.756
806.30	7.229
806.61	-6.849
806.91	8.654
807.22	4.444
807.52	-10.345
807.83	5.556
808.13	2.410
808.43	-2.247
808.74	-3.750
809.04	0.000
809.35	-5.333
809.65	4.286
809.95	12.329
810.26	-12.281
810.56	3.448
810.86	11.765
811.17	-15.789
811.47	1.639
811.77	-31.111
812.08	1.695
812.38	6.667
812.69	15.517
812.99	-18.868
813.29	-10.256
813.59	6.000
813.90	-10.526
814.20	7.273
814.50	16.901
814.81	14.103
815.11	3.279
815.41	4.478
815.72	10.345
816.02	10.714
816.32	20.000
816.62	0.000
816.93	4.444
817.23	5.556
817.53	-8.511
817.84	16.667
818.14	11.765
818.44	10.204
818.74	-15.556
819.04	-35.897
819.35	-34.286
819.65	-30.769
819.95	0.000
820.25	8.889
820.56	-9.524
820.86	-31.250
821.16	10.256
821.46	-11.628
821.76	-18.000
822.07	3.571
822.37	-21.739
822.67	-10.638
822.97	-29.730
823.27	-10.000
823.57	8.163
823.88	13.333
824.18	12.500
824.48	6.667
824.78	12.000
825.08	-9.091
825.38	15.556
825.69	-2.128
825.99	-13.889
826.29	-42.857
826.59	-17.949
826.89	-16.279
827.19	-2.000
827.49	5.882
827.79	10.417
828.09	-48.649
828.39	-30.000
828.70	-29.268
829.00	-30.233
829.30	-42.857
829.60	-20.588
829.90	-2.174
830.20	-37.143
830.50	-31.034
830.80	-27.778
831.10	-11.538
831.40	5.882
831.70	33.333
832.00	9.677
832.30	-117.647
832.60	-41.667
832.90	-138.462
833.20	-68.421
833.50	-85.000
833.80	-47.368
834.10	-76.190
834.40	-11.111
834.70	40.625
835.00	-5.714
835.30	-11.765
835.60	0.000
835.90	4.000
836.20	-77.273
836.50	-16.000
836.80	-45.455
837.10	3.704
837.40	-14.815
837.70	-87.500
838.00	-14.286
838.30	-47.826
838.60	-6.897
838.90	-78.571
839.19	-60.870
839.49	-150.000
839.79	-52.174
840.09	-87.500
840.39	-55.000
840.69	-29.032
840.99	-35.714
841.29	-53.333
841.59	21.053
841.88	-2.564
842.18	-38.462
842.48	-140.000
842.78	5.000
843.08	6.667
843.38	16.129
843.68	-127.778
843.97	23.529
844.27	-81.250
844.57	-47.368
844.87	-160.000
845.17	-106.667
845.47	42.857
845.76	-42.857
846.06	-155.556
846.36	-105.882
846.66	-38.462
846.96	-120.000
847.25	-64.706
847.55	26.087
847.85	50.000
848.15	-52.941
848.44	-127.273
848.74	-14.286
849.04	-16.667
849.34	-81.250
849.63	-26.087
849.93	1150.000
850.23	-66.667
850.53	50.000
850.82	-136.364
851.12	-13.636
851.42	-81.818
851.71	-15.385
852.01	-90.000
852.31	-30.769
852.61	-31.579
852.90	0.000
853.20	-50.000
853.50	-166.667
853.79	-66.667
854.09	4.545
854.39	-141.667
854.68	-9.677
854.98	-23.077
855.28	16.667
855.57	-35.714
855.87	-52.000
856.17	-54.545
856.46	7.407
856.76	-33.333
857.05	-43.478
857.35	-41.667
857.65	-138.462
857.94	-14.286
858.24	11.111
858.53	-4.348
858.83	-35.294
859.13	-5.882
859.42	0.000
859.72	-50.000
860.01	-70.000
860.31	-177.778
860.60	-120.000
860.90	-6.667
861.20	-61.111
861.49	-84.615
861.79	0.000
862.08	-107.692
862.38	-12.500
862.67	23.529
862.97	-43.750
863.26	-111.111
863.56	-20.000
863.85	-45.455
864.15	-22.222
864.44	-100.000
864.74	-28.571
865.03	-75.000
865.33	-90.000
865.62	-6.452
865.92	9.091
866.21	0.000
866.51	-35.714
866.80	-120.000
867.10	-100.000
867.39	-66.667
867.69	500.000
867.98	-42.857
868.27	17.647
868.57	-1900.000
868.86	-280.000
869.16	-38.095
869.45	-50.000
869.75	-118.182
870.04	-157.143
870.33	-58.333
870.63	-314.286
870.92	-75.000
871.22	-162.500
871.51	-72.727
871.80	-666.667
872.10	-650.000
>>>>>End Processed Spectral Data<<<<<
