SpectraSuite Data File
++++++++++++++++++++++++++++++++++++
Date: Thu May 14 16:11:37 PDT 2015
User: schluterlab
Dark Spectrum Present: Yes
Reference Spectrum Present: Yes
Number of Sampled Component Spectra: 1
Spectrometers: USB2E3373
Integration Time (usec): 3000 (USB2E3373)
Spectra Averaged: 3 (USB2E3373)
Boxcar Smoothing: 0 (USB2E3373)
Correct for Electrical Dark: No (USB2E3373)
Strobe/Lamp Enabled: No (USB2E3373)
Correct for Detector Non-linearity: No (USB2E3373)
Correct for Stray Light: No (USB2E3373)
Number of Pixels in Processed Spectrum: 2048
>>>>>Begin Processed Spectral Data<<<<<
178.53	0.000
178.91	114.286
179.29	-1100.000
179.67	-1100.000
180.04	164.286
180.42	110.000
180.80	140.000
181.18	-1100.000
181.56	-100.000
181.94	300.000
182.31	-50.000
182.69	100.000
183.07	300.000
183.45	350.000
183.83	100.000
184.20	-166.667
184.58	900.000
184.96	-125.000
185.34	0.000
185.72	-80.000
186.09	233.333
186.47	400.000
186.85	320.000
187.23	-144.444
187.61	-900.000
187.98	100.000
188.36	250.000
188.74	-200.000
189.12	-66.667
189.49	25.000
189.87	-112.500
190.25	11.111
190.63	120.000
191.00	-88.889
191.38	0.000
191.76	0.000
192.14	-116.667
192.51	450.000
192.89	0.000
193.27	0.000
193.65	-128.571
194.02	-1200.000
194.40	-28.571
194.78	214.286
195.15	0.000
195.53	18.182
195.91	0.000
196.29	-75.000
196.66	30.769
197.04	-1100.000
197.42	-142.857
197.79	-850.000
198.17	-112.500
198.55	-71.429
198.92	-55.556
199.30	-125.000
199.68	27.273
200.05	-28.571
200.43	-650.000
200.81	214.286
201.18	0.000
201.56	200.000
201.94	0.000
202.31	200.000
202.69	-44.444
203.07	1000.000
203.44	-66.667
203.82	-175.000
204.19	-50.000
204.57	-150.000
204.95	-125.000
205.32	-400.000
205.70	-75.000
206.08	-16.667
206.45	-50.000
206.83	300.000
207.20	-50.000
207.58	-180.000
207.96	-233.333
208.33	16.667
208.71	66.667
209.08	-50.000
209.46	0.000
209.84	233.333
210.21	200.000
210.59	100.000
210.96	333.333
211.34	-225.000
211.71	-137.500
212.09	-800.000
212.46	0.000
212.84	600.000
213.22	-140.000
213.59	-125.000
213.97	-90.000
214.34	-333.333
214.72	133.333
215.09	-200.000
215.47	0.000
215.84	-28.571
216.22	850.000
216.59	-140.000
216.97	-140.000
217.34	-100.000
217.72	62.500
218.09	-175.000
218.47	-300.000
218.84	0.000
219.22	80.000
219.59	-11.765
219.97	30.000
220.34	-50.000
220.72	-122.222
221.09	-46.154
221.47	100.000
221.84	-10.000
222.22	-114.286
222.59	0.000
222.97	-12.500
223.34	-80.000
223.72	100.000
224.09	-100.000
224.46	-50.000
224.84	140.000
225.21	-42.857
225.59	-325.000
225.96	-75.000
226.34	3.846
226.71	250.000
227.08	-350.000
227.46	20.000
227.83	175.000
228.21	-5.263
228.58	162.500
228.95	200.000
229.33	8.333
229.70	-40.000
230.08	42.105
230.45	90.000
230.82	-300.000
231.20	-35.714
231.57	-25.000
231.95	72.727
232.32	54.545
232.69	35.000
233.07	-275.000
233.44	-35.294
233.81	-110.000
234.19	44.444
234.56	9.091
234.93	55.172
235.31	21.053
235.68	16.667
236.05	-5.000
236.43	57.692
236.80	92.000
237.17	3.704
237.55	15.152
237.92	130.000
238.29	32.258
238.67	45.455
239.04	19.444
239.41	57.143
239.79	52.174
240.16	38.889
240.53	21.739
240.91	31.373
241.28	45.902
241.65	28.358
242.02	32.432
242.40	26.154
242.77	21.333
243.14	36.585
243.51	14.474
243.89	33.333
244.26	30.693
244.63	41.176
245.00	27.103
245.38	30.702
245.75	24.779
246.12	34.921
246.49	32.558
246.87	33.571
247.24	35.762
247.61	36.184
247.98	35.570
248.36	40.123
248.73	33.742
249.10	38.798
249.47	40.796
249.84	46.597
250.22	35.233
250.59	43.333
250.96	40.455
251.33	32.653
251.70	39.316
252.08	39.167
252.45	40.574
252.82	38.430
253.19	33.984
253.56	40.304
253.94	37.308
254.31	42.424
254.68	40.559
255.05	40.391
255.42	38.095
255.79	37.217
256.16	36.424
256.54	35.430
256.91	42.951
257.28	34.426
257.65	38.854
258.02	38.053
258.39	37.607
258.76	41.284
259.14	42.241
259.51	40.058
259.88	36.827
260.25	41.111
260.62	39.178
260.99	40.710
261.36	36.193
261.73	39.257
262.10	40.385
262.47	38.070
262.85	42.929
263.22	41.558
263.59	34.211
263.96	40.665
264.33	40.665
264.70	40.247
265.07	38.425
265.44	41.723
265.81	40.509
266.18	39.683
266.55	41.295
266.92	38.952
267.29	39.606
267.66	38.803
268.03	39.520
268.40	39.875
268.77	38.497
269.14	39.427
269.51	40.789
269.88	39.549
270.25	38.833
270.62	44.304
270.99	40.202
271.36	40.396
271.73	37.525
272.10	39.479
272.47	39.078
272.84	39.157
273.21	41.884
273.58	38.306
273.95	36.923
274.32	36.882
274.69	38.298
275.06	38.645
275.43	36.969
275.80	38.448
276.17	36.852
276.54	36.754
276.91	37.209
277.28	38.156
277.65	38.600
278.02	38.235
278.39	37.862
278.76	38.313
279.13	38.298
279.50	39.003
279.87	38.462
280.23	34.683
280.60	37.288
280.97	37.171
281.34	36.672
281.71	38.579
282.08	35.714
282.45	36.007
282.82	38.619
283.19	37.964
283.56	34.590
283.92	37.087
284.29	38.231
284.66	36.782
285.03	36.218
285.40	36.012
285.77	36.378
286.14	36.489
286.51	37.443
286.87	37.599
287.24	37.801
287.61	36.472
287.98	35.952
288.35	36.834
288.72	35.355
289.08	31.918
289.45	34.024
289.82	32.681
290.19	34.626
290.56	35.352
290.93	34.379
291.29	33.471
291.66	34.160
292.03	31.615
292.40	34.286
292.77	33.827
293.13	33.153
293.50	30.749
293.87	31.007
294.24	33.067
294.60	31.985
294.97	28.725
295.34	31.626
295.71	30.391
296.08	29.716
296.44	29.657
296.81	30.694
297.18	30.884
297.55	29.127
297.91	30.368
298.28	29.028
298.65	28.419
299.02	29.044
299.38	28.833
299.75	28.738
300.12	28.125
300.48	29.147
300.85	27.672
301.22	27.293
301.59	28.082
301.95	27.797
302.32	28.889
302.69	27.601
303.05	27.748
303.42	28.049
303.79	28.438
304.15	27.234
304.52	27.061
304.89	27.330
305.25	26.398
305.62	26.855
305.99	26.701
306.35	26.613
306.72	27.818
307.09	26.091
307.45	27.329
307.82	27.346
308.19	25.429
308.55	27.290
308.92	27.945
309.29	28.065
309.65	26.706
310.02	27.525
310.38	28.346
310.75	27.961
311.12	26.846
311.48	27.566
311.85	27.920
312.22	27.040
312.58	27.887
312.95	26.864
313.31	29.539
313.68	27.839
314.05	29.268
314.41	28.051
314.78	28.520
315.14	29.855
315.51	28.901
315.87	30.423
316.24	29.224
316.61	30.018
316.97	28.959
317.34	29.541
317.70	30.044
318.07	30.335
318.43	30.867
318.80	32.023
319.16	30.644
319.53	29.392
319.89	30.938
320.26	31.406
320.62	32.004
320.99	31.579
321.35	31.793
321.72	32.930
322.08	33.003
322.45	33.695
322.81	35.379
323.18	35.398
323.54	34.310
323.91	35.943
324.27	34.854
324.64	36.272
325.00	35.821
325.37	37.019
325.73	36.694
326.10	36.010
326.46	37.622
326.83	37.790
327.19	37.402
327.56	38.814
327.92	37.530
328.29	37.823
328.65	38.023
329.01	39.679
329.38	39.848
329.74	40.925
330.11	40.325
330.47	39.848
330.84	41.344
331.20	41.667
331.56	41.248
331.93	41.841
332.29	42.373
332.66	40.449
333.02	40.955
333.38	41.023
333.75	40.993
334.11	40.534
334.48	42.739
334.84	42.056
335.20	40.218
335.57	43.170
335.93	41.322
336.29	41.431
336.66	41.632
337.02	42.893
337.38	43.367
337.75	40.579
338.11	41.463
338.47	42.018
338.84	42.470
339.20	41.281
339.56	40.939
339.93	41.051
340.29	41.787
340.65	40.633
341.02	41.820
341.38	43.169
341.74	41.969
342.11	41.834
342.47	40.905
342.83	42.512
343.20	43.663
343.56	41.860
343.92	42.514
344.28	42.422
344.65	42.093
345.01	41.342
345.37	42.457
345.73	40.998
346.10	42.824
346.46	41.851
346.82	41.273
347.19	41.558
347.55	42.185
347.91	40.936
348.27	41.351
348.63	42.117
349.00	42.282
349.36	41.413
349.72	42.485
350.08	43.165
350.45	42.205
350.81	42.006
351.17	41.504
351.53	43.594
351.89	41.838
352.26	41.493
352.62	42.090
352.98	42.214
353.34	41.374
353.70	42.681
354.07	43.815
354.43	42.825
354.79	41.960
355.15	42.826
355.51	42.544
355.87	43.755
356.24	42.510
356.60	41.390
356.96	42.624
357.32	40.818
357.68	43.045
358.04	42.740
358.40	42.388
358.77	42.251
359.13	42.984
359.49	41.413
359.85	41.769
360.21	43.042
360.57	42.642
360.93	42.525
361.29	42.456
361.66	42.723
362.02	43.493
362.38	42.797
362.74	43.645
363.10	43.122
363.46	43.975
363.82	43.182
364.18	43.913
364.54	43.223
364.90	44.348
365.26	44.828
365.62	44.200
365.98	42.750
366.35	44.497
366.71	44.354
367.07	44.520
367.43	43.270
367.79	45.189
368.15	44.214
368.51	45.061
368.87	44.285
369.23	43.333
369.59	44.536
369.95	44.084
370.31	45.172
370.67	45.598
371.03	44.806
371.39	43.989
371.75	45.667
372.11	44.986
372.47	45.295
372.83	45.288
373.19	44.897
373.55	45.461
373.91	45.194
374.27	45.343
374.63	46.346
374.99	46.883
375.35	46.494
375.71	45.871
376.07	45.320
376.42	46.725
376.78	46.737
377.14	46.163
377.50	48.008
377.86	47.537
378.22	48.383
378.58	47.087
378.94	46.890
379.30	47.217
379.66	48.442
380.02	48.413
380.38	49.482
380.74	48.620
381.09	48.955
381.45	48.580
381.81	49.180
382.17	48.456
382.53	49.240
382.89	48.251
383.25	49.531
383.61	48.206
383.97	48.645
384.32	50.658
384.68	49.478
385.04	50.087
385.40	51.621
385.76	51.934
386.12	50.808
386.48	51.471
386.83	51.788
387.19	51.622
387.55	52.230
387.91	51.769
388.27	52.136
388.62	51.718
388.98	51.720
389.34	51.562
389.70	53.225
390.06	52.220
390.42	52.952
390.77	53.703
391.13	52.465
391.49	54.106
391.85	53.576
392.20	54.804
392.56	54.519
392.92	53.708
393.28	54.671
393.64	53.631
393.99	55.723
394.35	56.075
394.71	56.048
395.07	54.311
395.42	54.997
395.78	58.135
396.14	56.863
396.50	57.067
396.85	55.814
397.21	56.746
397.57	56.596
397.92	57.216
398.28	57.958
398.64	58.238
399.00	57.120
399.35	56.806
399.71	58.478
400.07	58.226
400.42	58.964
400.78	60.069
401.14	59.021
401.49	60.603
401.85	60.581
402.21	60.487
402.57	61.209
402.92	61.584
403.28	60.714
403.63	60.800
403.99	60.629
404.35	59.920
404.70	62.096
405.06	59.837
405.42	61.944
405.77	63.359
406.13	63.209
406.49	63.288
406.84	62.936
407.20	62.717
407.55	63.234
407.91	63.922
408.27	63.251
408.62	64.398
408.98	63.030
409.34	64.340
409.69	65.637
410.05	66.002
410.40	64.965
410.76	64.386
411.11	65.985
411.47	67.015
411.83	67.078
412.18	68.193
412.54	66.924
412.89	65.949
413.25	67.212
413.60	66.858
413.96	67.599
414.31	66.006
414.67	68.456
415.03	68.677
415.38	69.987
415.74	68.784
416.09	69.587
416.45	68.691
416.80	69.278
417.16	69.732
417.51	70.299
417.87	69.467
418.22	69.641
418.58	70.012
418.93	70.140
419.29	70.900
419.64	71.188
420.00	70.861
420.35	70.634
420.71	69.213
421.06	70.500
421.42	71.674
421.77	70.705
422.12	69.080
422.48	71.429
422.83	72.892
423.19	71.936
423.54	73.009
423.90	72.391
424.25	73.333
424.61	71.584
424.96	72.652
425.31	73.514
425.67	71.605
426.02	72.607
426.38	73.823
426.73	72.656
427.09	73.414
427.44	72.419
427.79	74.185
428.15	73.231
428.50	73.034
428.85	73.421
429.21	73.883
429.56	73.396
429.92	74.103
430.27	73.542
430.62	74.255
430.98	75.012
431.33	73.412
431.68	73.372
432.04	75.876
432.39	75.629
432.74	74.087
433.10	74.202
433.45	74.526
433.80	74.034
434.16	74.742
434.51	76.053
434.86	76.439
435.22	76.089
435.57	77.358
435.92	75.849
436.28	76.678
436.63	77.826
436.98	74.611
437.34	76.607
437.69	76.225
438.04	75.833
438.39	75.818
438.75	77.310
439.10	77.960
439.45	76.076
439.81	76.158
440.16	76.408
440.51	77.926
440.86	77.321
441.22	76.581
441.57	77.463
441.92	77.934
442.27	78.636
442.63	77.347
442.98	78.175
443.33	77.591
443.68	78.741
444.03	78.881
444.39	77.254
444.74	77.744
445.09	76.837
445.44	78.820
445.79	78.784
446.15	78.777
446.50	77.519
446.85	78.064
447.20	77.901
447.55	77.301
447.91	78.534
448.26	76.797
448.61	77.258
448.96	79.828
449.31	77.147
449.66	78.486
450.02	78.797
450.37	76.878
450.72	78.095
451.07	78.474
451.42	78.510
451.77	77.765
452.12	79.007
452.47	77.718
452.83	81.475
453.18	77.817
453.53	78.116
453.88	77.747
454.23	78.757
454.58	79.106
454.93	78.580
455.28	78.326
455.63	78.567
455.98	79.385
456.34	78.681
456.69	77.190
457.04	79.492
457.39	78.437
457.74	77.405
458.09	77.375
458.44	78.772
458.79	76.792
459.14	76.770
459.49	78.608
459.84	79.486
460.19	78.012
460.54	79.216
460.89	78.560
461.24	77.989
461.59	79.026
461.94	76.554
462.29	79.227
462.64	76.705
462.99	79.033
463.34	78.845
463.69	76.143
464.04	77.710
464.39	77.578
464.74	75.428
465.09	78.374
465.44	78.326
465.79	76.415
466.14	75.612
466.49	77.158
466.84	78.457
467.19	78.382
467.54	76.792
467.89	77.356
468.24	76.510
468.59	76.259
468.94	76.690
469.29	75.885
469.64	76.287
469.99	77.310
470.34	77.475
470.68	78.606
471.03	78.585
471.38	78.090
471.73	77.633
472.08	77.157
472.43	77.423
472.78	76.826
473.13	77.307
473.48	76.616
473.83	77.133
474.17	74.971
474.52	78.232
474.87	77.076
475.22	78.141
475.57	76.895
475.92	76.904
476.27	76.038
476.61	75.701
476.96	75.860
477.31	76.287
477.66	78.489
478.01	76.411
478.36	75.723
478.70	77.389
479.05	77.403
479.40	77.641
479.75	76.225
480.10	77.215
480.45	76.664
480.79	76.825
481.14	76.608
481.49	76.602
481.84	76.675
482.19	76.172
482.53	75.995
482.88	77.492
483.23	76.345
483.58	76.201
483.92	76.064
484.27	75.995
484.62	76.114
484.97	75.855
485.31	75.783
485.66	73.886
486.01	72.872
486.36	74.545
486.70	76.830
487.05	78.982
487.40	78.848
487.75	79.338
488.09	78.473
488.44	77.096
488.79	77.639
489.13	76.865
489.48	77.165
489.83	75.050
490.17	74.281
490.52	74.138
490.87	74.450
491.22	75.650
491.56	74.360
491.91	75.185
492.26	75.682
492.60	74.202
492.95	74.945
493.30	75.258
493.64	74.901
493.99	75.877
494.34	74.652
494.68	74.047
495.03	74.758
495.37	75.899
495.72	74.785
496.07	75.110
496.41	75.032
496.76	75.021
497.11	75.456
497.45	75.529
497.80	74.411
498.14	76.009
498.49	74.265
498.84	76.051
499.18	74.449
499.53	74.305
499.87	76.044
500.22	74.711
500.56	75.034
500.91	75.011
501.26	75.773
501.60	74.194
501.95	74.468
502.29	75.428
502.64	74.945
502.98	73.253
503.33	73.002
503.67	75.055
504.02	73.555
504.36	75.022
504.71	75.655
505.06	75.034
505.40	73.629
505.75	74.454
506.09	73.803
506.44	75.720
506.78	74.450
507.13	74.689
507.47	75.651
507.82	73.958
508.16	74.665
508.51	74.730
508.85	75.531
509.19	75.414
509.54	75.937
509.88	74.162
510.23	76.202
510.57	75.544
510.92	74.504
511.26	73.978
511.61	73.926
511.95	74.378
512.30	75.480
512.64	75.012
512.98	73.987
513.33	75.907
513.67	74.707
514.02	74.859
514.36	75.294
514.70	75.781
515.05	75.912
515.39	74.908
515.74	75.981
516.08	74.802
516.42	75.510
516.77	74.553
517.11	74.884
517.46	76.034
517.80	75.414
518.14	76.224
518.49	74.946
518.83	74.827
519.17	75.444
519.52	73.899
519.86	75.343
520.20	74.494
520.55	74.973
520.89	76.577
521.23	75.433
521.58	75.367
521.92	74.221
522.26	74.456
522.61	76.273
522.95	75.375
523.29	75.747
523.64	74.439
523.98	75.471
524.32	77.650
524.66	76.096
525.01	75.142
525.35	75.474
525.69	76.450
526.04	73.938
526.38	76.379
526.72	75.663
527.06	76.188
527.41	75.394
527.75	78.385
528.09	75.856
528.43	76.909
528.78	75.491
529.12	75.000
529.46	74.143
529.80	77.059
530.15	76.928
530.49	77.224
530.83	77.214
531.17	76.822
531.51	76.474
531.86	77.464
532.20	76.159
532.54	75.583
532.88	77.879
533.22	77.666
533.57	76.515
533.91	75.814
534.25	77.501
534.59	78.391
534.93	76.684
535.27	77.465
535.62	77.146
535.96	77.687
536.30	77.556
536.64	77.658
536.98	78.413
537.32	77.593
537.66	78.603
538.01	75.710
538.35	77.101
538.69	78.546
539.03	78.418
539.37	77.444
539.71	78.438
540.05	78.177
540.39	77.384
540.73	76.503
541.07	78.970
541.42	77.023
541.76	76.572
542.10	76.478
542.44	76.248
542.78	77.920
543.12	78.725
543.46	77.595
543.80	77.998
544.14	77.798
544.48	79.019
544.82	79.593
545.16	79.010
545.50	78.430
545.84	77.955
546.18	78.580
546.52	78.535
546.86	78.994
547.20	79.326
547.54	78.340
547.88	77.396
548.22	77.661
548.56	78.760
548.90	79.761
549.24	79.088
549.58	79.180
549.92	77.870
550.26	78.058
550.60	78.239
550.94	78.849
551.28	77.822
551.62	78.369
551.96	76.311
552.30	78.394
552.64	78.905
552.98	78.727
553.32	79.100
553.66	79.357
554.00	79.445
554.34	78.121
554.68	78.631
555.02	79.304
555.36	78.632
555.69	77.835
556.03	79.382
556.37	79.349
556.71	78.250
557.05	77.316
557.39	79.230
557.73	79.062
558.07	79.139
558.41	78.538
558.75	79.243
559.08	78.845
559.42	76.612
559.76	76.798
560.10	77.696
560.44	78.496
560.78	78.188
561.12	79.064
561.45	78.832
561.79	79.182
562.13	79.359
562.47	77.559
562.81	79.304
563.15	78.977
563.48	78.807
563.82	78.295
564.16	77.892
564.50	78.784
564.84	77.227
565.17	77.471
565.51	76.870
565.85	80.048
566.19	77.880
566.52	79.345
566.86	78.551
567.20	77.216
567.54	79.076
567.88	79.562
568.21	78.755
568.55	80.288
568.89	79.165
569.23	80.059
569.56	79.445
569.90	78.510
570.24	78.246
570.57	78.640
570.91	79.149
571.25	77.900
571.59	78.848
571.92	78.145
572.26	79.116
572.60	79.470
572.93	78.653
573.27	79.629
573.61	78.190
573.95	78.587
574.28	78.650
574.62	78.672
574.96	78.165
575.29	76.999
575.63	78.771
575.97	78.922
576.30	78.140
576.64	78.692
576.98	78.360
577.31	78.822
577.65	79.117
577.98	78.614
578.32	78.103
578.66	77.648
578.99	79.132
579.33	80.102
579.67	79.125
580.00	78.849
580.34	78.425
580.67	79.237
581.01	79.554
581.35	78.102
581.68	78.421
582.02	77.085
582.35	79.037
582.69	79.781
583.02	80.172
583.36	80.099
583.70	80.618
584.03	80.970
584.37	80.499
584.70	79.829
585.04	79.447
585.37	79.032
585.71	77.735
586.04	77.807
586.38	79.039
586.72	78.742
587.05	79.381
587.39	79.556
587.72	79.904
588.06	79.981
588.39	80.010
588.73	78.677
589.06	80.277
589.40	80.639
589.73	80.495
590.07	79.476
590.40	79.682
590.73	79.498
591.07	80.007
591.40	78.849
591.74	78.617
592.07	78.035
592.41	78.273
592.74	77.600
593.08	79.108
593.41	78.390
593.75	77.960
594.08	78.855
594.41	79.295
594.75	78.346
595.08	78.735
595.42	79.188
595.75	79.496
596.09	80.718
596.42	80.115
596.75	79.467
597.09	80.970
597.42	79.460
597.75	78.205
598.09	78.333
598.42	78.528
598.76	78.754
599.09	77.572
599.42	76.534
599.76	77.616
600.09	77.611
600.42	77.911
600.76	77.708
601.09	77.531
601.42	77.789
601.76	78.000
602.09	78.878
602.42	77.208
602.76	78.007
603.09	79.809
603.42	79.299
603.76	78.189
604.09	79.312
604.42	78.202
604.76	78.196
605.09	77.623
605.42	78.190
605.75	77.923
606.09	78.537
606.42	76.760
606.75	77.436
607.09	77.842
607.42	77.341
607.75	78.507
608.08	77.506
608.42	77.187
608.75	78.358
609.08	78.735
609.41	79.135
609.75	77.366
610.08	78.188
610.41	77.570
610.74	78.067
611.07	79.263
611.41	78.117
611.74	79.076
612.07	77.606
612.40	77.804
612.73	79.560
613.07	78.142
613.40	76.997
613.73	78.719
614.06	78.606
614.39	77.502
614.72	76.953
615.06	75.890
615.39	76.269
615.72	76.730
616.05	76.979
616.38	77.548
616.71	77.168
617.05	77.529
617.38	77.689
617.71	77.754
618.04	76.201
618.37	77.978
618.70	77.885
619.03	77.061
619.36	77.867
619.69	77.322
620.03	77.903
620.36	77.055
620.69	76.188
621.02	77.362
621.35	80.624
621.68	79.754
622.01	77.509
622.34	77.197
622.67	75.876
623.00	75.574
623.33	78.301
623.66	76.589
623.99	77.814
624.32	77.258
624.65	76.898
624.99	77.893
625.32	77.923
625.65	77.613
625.98	75.322
626.31	77.888
626.64	77.436
626.97	77.719
627.30	78.815
627.63	76.219
627.96	76.652
628.29	77.977
628.62	76.574
628.95	78.615
629.28	76.381
629.61	76.515
629.94	76.485
630.26	75.763
630.59	76.598
630.92	74.978
631.25	76.744
631.58	78.719
631.91	78.163
632.24	76.369
632.57	75.617
632.90	76.229
633.23	76.531
633.56	76.633
633.89	74.483
634.22	78.898
634.55	76.305
634.88	78.463
635.20	75.673
635.53	78.870
635.86	75.515
636.19	74.337
636.52	75.316
636.85	73.953
637.18	74.220
637.51	75.269
637.83	76.412
638.16	75.576
638.49	77.230
638.82	75.197
639.15	75.258
639.48	74.365
639.81	75.173
640.13	77.150
640.46	73.455
640.79	75.858
641.12	74.907
641.45	75.659
641.77	76.637
642.10	73.885
642.43	77.128
642.76	73.442
643.09	73.562
643.41	74.790
643.74	73.379
644.07	75.586
644.40	73.975
644.73	75.762
645.05	74.596
645.38	73.094
645.71	75.073
646.04	74.175
646.36	70.803
646.69	74.540
647.02	76.453
647.35	74.504
647.67	78.261
648.00	75.796
648.33	72.072
648.66	74.180
648.98	73.741
649.31	74.560
649.64	76.228
649.96	75.597
650.29	72.184
650.62	73.692
650.94	76.426
651.27	72.754
651.60	73.246
651.92	74.164
652.25	70.767
652.58	74.966
652.90	75.291
653.23	75.211
653.56	72.611
653.88	72.612
654.21	74.930
654.54	76.156
654.86	73.938
655.19	71.142
655.52	73.025
655.84	71.673
656.17	83.247
656.49	100.042
656.82	100.008
657.15	100.000
657.47	100.000
657.80	94.198
658.13	48.995
658.45	65.853
658.78	81.364
659.10	80.070
659.43	79.174
659.75	80.340
660.08	75.854
660.41	74.690
660.73	72.634
661.06	75.477
661.38	68.581
661.71	73.793
662.03	73.369
662.36	73.345
662.68	73.921
663.01	70.265
663.33	72.968
663.66	75.458
663.98	71.731
664.31	74.859
664.63	72.640
664.96	72.051
665.28	71.325
665.61	71.678
665.93	72.679
666.26	70.968
666.58	74.723
666.91	72.897
667.23	72.381
667.56	71.992
667.88	73.200
668.21	72.266
668.53	69.691
668.86	72.495
669.18	74.134
669.50	71.571
669.83	71.000
670.15	70.669
670.48	71.429
670.80	69.216
671.13	69.565
671.45	70.669
671.77	71.940
672.10	69.500
672.42	69.579
672.75	68.510
673.07	68.358
673.39	71.032
673.72	71.309
674.04	72.759
674.37	72.809
674.69	69.665
675.01	72.190
675.34	68.321
675.66	68.539
675.98	71.269
676.31	73.242
676.63	69.011
676.95	72.989
677.28	72.581
677.60	69.685
677.92	70.825
678.25	71.115
678.57	70.463
678.89	72.526
679.22	70.906
679.54	69.915
679.86	68.814
680.18	71.144
680.51	70.283
680.83	70.704
681.15	70.000
681.48	72.021
681.80	69.948
682.12	70.105
682.44	68.114
682.77	67.908
683.09	70.076
683.41	70.155
683.73	67.742
684.06	68.635
684.38	66.369
684.70	67.864
685.02	70.224
685.34	68.053
685.67	68.770
685.99	68.712
686.31	65.116
686.63	70.774
686.96	70.347
687.28	71.173
687.60	68.350
687.92	67.524
688.24	66.277
688.56	67.414
688.89	69.147
689.21	72.211
689.53	67.059
689.85	70.020
690.17	63.889
690.49	68.327
690.82	68.515
691.14	66.397
691.46	69.598
691.78	67.587
692.10	68.991
692.42	66.607
692.74	68.784
693.06	65.370
693.39	67.932
693.71	65.226
694.03	65.799
694.35	65.905
694.67	67.967
694.99	70.213
695.31	68.653
695.63	66.450
695.95	64.596
696.27	65.934
696.59	66.593
696.91	63.964
697.23	69.231
697.56	66.599
697.88	70.076
698.20	67.232
698.52	66.667
698.84	70.894
699.16	66.735
699.48	68.410
699.80	64.468
700.12	67.031
700.44	64.286
700.76	67.933
701.08	71.913
701.40	66.580
701.72	63.682
702.04	66.845
702.36	63.874
702.68	66.504
703.00	65.037
703.32	65.517
703.64	65.281
703.96	63.246
704.28	63.391
704.60	66.329
704.91	64.286
705.23	66.027
705.55	64.903
705.87	65.758
706.19	67.178
706.51	63.855
706.83	66.282
707.15	62.434
707.47	64.019
707.79	62.882
708.11	62.076
708.43	63.656
708.74	61.607
709.06	62.181
709.38	65.493
709.70	66.749
710.02	64.599
710.34	64.362
710.66	68.715
710.98	64.208
711.29	66.758
711.61	68.079
711.93	64.103
712.25	65.135
712.57	68.437
712.89	68.824
713.20	60.059
713.52	60.983
713.84	62.117
714.16	63.421
714.48	63.144
714.80	64.416
715.11	62.205
715.43	64.191
715.75	61.316
716.07	63.260
716.39	62.842
716.70	64.759
717.02	65.902
717.34	61.672
717.66	59.396
717.97	61.986
718.29	58.076
718.61	63.158
718.93	59.547
719.24	61.491
719.56	55.521
719.88	60.961
720.20	63.871
720.51	63.975
720.83	61.250
721.15	59.211
721.46	62.329
721.78	59.333
722.10	59.547
722.42	59.060
722.73	61.613
723.05	61.053
723.37	60.069
723.68	59.498
724.00	62.455
724.32	58.099
724.63	59.790
724.95	59.929
725.27	64.111
725.58	60.424
725.90	65.517
726.22	58.307
726.53	62.662
726.85	65.409
727.16	56.495
727.48	59.939
727.80	60.265
728.11	58.304
728.43	60.943
728.74	66.555
729.06	60.596
729.38	58.117
729.69	59.396
730.01	57.738
730.32	57.576
730.64	59.119
730.96	63.043
731.27	58.659
731.59	60.714
731.90	56.364
732.22	57.031
732.53	60.221
732.85	58.857
733.16	62.170
733.48	62.805
733.80	60.724
734.11	61.823
734.43	58.378
734.74	61.266
735.06	63.819
735.37	62.432
735.69	56.757
736.00	60.734
736.32	56.334
736.63	57.778
736.95	59.195
737.26	60.606
737.58	63.636
737.89	62.353
738.21	59.633
738.52	60.984
738.83	63.140
739.15	59.574
739.46	58.163
739.78	60.123
740.09	56.447
740.41	62.099
740.72	64.333
741.04	53.722
741.35	60.702
741.66	56.863
741.98	59.016
742.29	58.577
742.61	61.842
742.92	56.154
743.23	53.791
743.55	60.465
743.86	65.200
744.18	54.959
744.49	56.540
744.80	58.848
745.12	58.650
745.43	60.976
745.74	55.172
746.06	58.051
746.37	65.823
746.68	60.976
747.00	57.083
747.31	60.515
747.62	61.923
747.94	59.109
748.25	53.815
748.56	55.510
748.88	58.120
749.19	53.448
749.50	60.173
749.82	61.044
750.13	60.142
750.44	53.667
750.75	57.538
751.07	58.769
751.38	57.729
751.69	54.952
752.01	55.663
752.32	63.725
752.63	58.844
752.94	58.824
753.26	57.621
753.57	50.741
753.88	62.172
754.19	53.376
754.51	54.984
754.82	55.949
755.13	52.459
755.44	59.727
755.75	55.263
756.07	55.821
756.38	56.289
756.69	57.831
757.00	55.125
757.31	57.923
757.63	51.918
757.94	55.399
758.25	54.176
758.56	58.824
758.87	53.864
759.18	53.867
759.50	58.924
759.81	54.622
760.12	53.639
760.43	55.729
760.74	58.867
761.05	58.750
761.36	54.699
761.67	56.091
761.99	55.946
762.30	55.488
762.61	54.125
762.92	59.701
763.23	55.056
763.54	58.993
763.85	56.701
764.16	58.249
764.47	59.155
764.78	56.869
765.10	51.026
765.41	54.872
765.72	53.175
766.03	55.367
766.34	52.665
766.65	53.310
766.96	54.582
767.27	59.447
767.58	55.224
767.89	59.135
768.20	58.216
768.51	54.630
768.82	53.414
769.13	54.545
769.44	54.615
769.75	54.874
770.06	55.385
770.37	59.449
770.68	54.894
770.99	50.202
771.30	59.630
771.61	55.133
771.92	55.926
772.23	58.704
772.54	50.000
772.85	56.221
773.16	54.762
773.47	58.201
773.78	53.514
774.09	61.932
774.39	57.000
774.70	58.470
775.01	48.171
775.32	53.529
775.63	50.920
775.94	40.127
776.25	47.742
776.56	47.436
776.87	52.381
777.18	46.897
777.48	39.860
777.79	56.757
778.10	48.529
778.41	54.167
778.72	46.207
779.03	53.704
779.34	47.273
779.65	50.259
779.95	51.667
780.26	55.114
780.57	50.323
780.88	62.319
781.19	52.903
781.50	60.000
781.80	52.151
782.11	53.439
782.42	46.970
782.73	49.102
783.04	48.045
783.34	46.667
783.65	47.059
783.96	51.553
784.27	46.429
784.57	47.020
784.88	50.714
785.19	48.031
785.50	51.969
785.81	49.624
786.11	49.231
786.42	45.324
786.73	40.288
787.04	54.887
787.34	47.541
787.65	59.200
787.96	49.254
788.26	55.245
788.57	51.049
788.88	41.447
789.19	58.170
789.49	48.630
789.80	50.355
790.11	55.906
790.41	41.406
790.72	48.305
791.03	42.718
791.33	52.174
791.64	42.105
791.95	41.071
792.25	41.905
792.56	49.107
792.87	47.917
793.17	39.286
793.48	37.500
793.79	44.578
794.09	47.706
794.40	48.624
794.70	46.939
795.01	43.506
795.32	37.671
795.62	59.859
795.93	59.091
796.23	52.459
796.54	39.286
796.85	38.298
797.15	46.739
797.46	34.247
797.76	50.000
798.07	43.478
798.37	34.021
798.68	44.156
798.99	41.379
799.29	38.202
799.60	44.681
799.90	42.169
800.21	52.308
800.51	40.299
800.82	50.000
801.12	23.288
801.43	38.235
801.73	55.932
802.04	39.394
802.34	45.000
802.65	49.153
802.95	49.254
803.26	30.508
803.56	39.726
803.87	25.714
804.17	42.466
804.48	33.333
804.78	43.056
805.09	31.034
805.39	37.838
805.70	33.803
806.00	32.927
806.30	30.120
806.61	35.616
806.91	44.231
807.22	40.000
807.52	29.885
807.83	69.444
808.13	46.988
808.43	34.831
808.74	37.500
809.04	39.706
809.35	45.333
809.65	31.429
809.95	41.096
810.26	35.088
810.56	50.000
810.86	20.588
811.17	28.070
811.47	14.754
811.77	35.556
812.08	20.339
812.38	33.333
812.69	44.828
812.99	18.868
813.29	7.692
813.59	30.000
813.90	43.860
814.20	36.364
814.50	54.930
814.81	47.436
815.11	34.426
815.41	38.806
815.72	44.828
816.02	33.929
816.32	42.222
816.62	40.909
816.93	13.333
817.23	48.148
817.53	27.660
817.84	64.286
818.14	67.647
818.44	34.694
818.74	22.222
819.04	17.949
819.35	28.571
819.65	38.462
819.95	20.755
820.25	55.556
820.56	14.286
820.86	31.250
821.16	38.462
821.46	48.837
821.76	20.000
822.07	26.786
822.37	15.217
822.67	38.298
822.97	-18.919
823.27	17.500
823.57	57.143
823.88	26.667
824.18	60.000
824.48	40.000
824.78	44.000
825.08	24.242
825.38	31.111
825.69	29.787
825.99	44.444
826.29	17.143
826.59	28.205
826.89	27.907
827.19	24.000
827.49	5.882
827.79	37.500
828.09	16.216
828.39	36.667
828.70	24.390
829.00	27.907
829.30	7.143
829.60	50.000
829.90	19.565
830.20	25.714
830.50	3.448
830.80	38.889
831.10	46.154
831.40	-8.824
831.70	9.524
832.00	58.065
832.30	0.000
832.60	16.667
832.90	23.077
833.20	42.105
833.50	45.000
833.80	21.053
834.10	-19.048
834.40	33.333
834.70	71.875
835.00	8.571
835.30	38.235
835.60	16.667
835.90	4.000
836.20	18.182
836.50	52.000
836.80	30.303
837.10	3.704
837.40	44.444
837.70	6.250
838.00	25.000
838.30	-8.696
838.60	68.966
838.90	14.286
839.19	0.000
839.49	-91.667
839.79	56.522
840.09	-37.500
840.39	5.000
840.69	25.806
840.99	17.857
841.29	-26.667
841.59	5.263
841.88	28.205
842.18	15.385
842.48	-50.000
842.78	-5.000
843.08	-10.000
843.38	35.484
843.68	-33.333
843.97	38.235
844.27	18.750
844.57	-36.842
844.87	-70.000
845.17	-13.333
845.47	23.810
845.76	-19.048
846.06	-44.444
846.36	-29.412
846.66	-11.538
846.96	-40.000
847.25	0.000
847.55	47.826
847.85	-25.000
848.15	58.824
848.44	-54.545
848.74	80.952
849.04	-4.167
849.34	-6.250
849.63	0.000
849.93	150.000
850.23	-13.333
850.53	42.308
850.82	27.273
851.12	18.182
851.42	-81.818
851.71	30.769
852.01	-60.000
852.31	38.462
852.61	21.053
852.90	-16.667
853.20	11.111
853.50	-11.111
853.79	-61.905
854.09	9.091
854.39	-91.667
854.68	9.677
854.98	11.538
855.28	27.778
855.57	3.571
855.87	8.000
856.17	4.545
856.46	37.037
856.76	50.000
857.05	-8.696
857.35	-4.167
857.65	-38.462
857.94	-38.095
858.24	33.333
858.53	43.478
858.83	5.882
859.13	41.176
859.42	5.882
859.72	57.143
860.01	15.000
860.31	-66.667
860.60	10.000
860.90	6.667
861.20	-33.333
861.49	-38.462
861.79	16.667
862.08	-76.923
862.38	46.875
862.67	-35.294
862.97	18.750
863.26	11.111
863.56	60.000
863.85	0.000
864.15	0.000
864.44	-200.000
864.74	7.143
865.03	-25.000
865.33	-70.000
865.62	-6.452
865.92	50.000
866.21	-17.391
866.51	-28.571
866.80	-100.000
867.10	-58.333
867.39	-50.000
867.69	1100.000
867.98	-57.143
868.27	29.412
868.57	-800.000
868.86	-120.000
869.16	-14.286
869.45	-12.500
869.75	-27.273
870.04	0.000
870.33	58.333
870.63	-228.571
870.92	100.000
871.22	-50.000
871.51	-100.000
871.80	-666.667
872.10	-300.000
>>>>>End Processed Spectral Data<<<<<
