SpectraSuite Data File
++++++++++++++++++++++++++++++++++++
Date: Thu May 14 16:13:35 PDT 2015
User: schluterlab
Dark Spectrum Present: Yes
Reference Spectrum Present: Yes
Number of Sampled Component Spectra: 1
Spectrometers: USB2E3373
Integration Time (usec): 3000 (USB2E3373)
Spectra Averaged: 3 (USB2E3373)
Boxcar Smoothing: 0 (USB2E3373)
Correct for Electrical Dark: No (USB2E3373)
Strobe/Lamp Enabled: No (USB2E3373)
Correct for Detector Non-linearity: No (USB2E3373)
Correct for Stray Light: No (USB2E3373)
Number of Pixels in Processed Spectrum: 2048
>>>>>Begin Processed Spectral Data<<<<<
178.53	0.000
178.91	114.286
179.29	-1000.000
179.67	100.000
180.04	135.714
180.42	80.000
180.80	340.000
181.18	-800.000
181.56	600.000
181.94	50.000
182.31	-200.000
182.69	400.000
183.07	-50.000
183.45	25.000
183.83	-50.000
184.20	-166.667
184.58	-0.000
184.96	-350.000
185.34	-11.111
185.72	20.000
186.09	233.333
186.47	400.000
186.85	200.000
187.23	-144.444
187.61	-800.000
187.98	100.000
188.36	325.000
188.74	50.000
189.12	33.333
189.49	12.500
189.87	-162.500
190.25	-77.778
190.63	-80.000
191.00	-100.000
191.38	0.000
191.76	-275.000
192.14	-83.333
192.51	400.000
192.89	33.333
193.27	0.000
193.65	14.286
194.02	-1000.000
194.40	14.286
194.78	100.000
195.15	0.000
195.53	36.364
195.91	0.000
196.29	-25.000
196.66	-23.077
197.04	-900.000
197.42	-257.143
197.79	-650.000
198.17	-112.500
198.55	-71.429
198.92	-33.333
199.30	-50.000
199.68	-27.273
200.05	-7.143
200.43	-750.000
200.81	185.714
201.18	0.000
201.56	155.556
201.94	0.000
202.31	333.333
202.69	-111.111
203.07	-200.000
203.44	-11.111
203.82	-100.000
204.19	-33.333
204.57	-100.000
204.95	-75.000
205.32	-700.000
205.70	25.000
206.08	-66.667
206.45	-33.333
206.83	200.000
207.20	0.000
207.58	-300.000
207.96	-50.000
208.33	-100.000
208.71	41.667
209.08	83.333
209.46	0.000
209.84	33.333
210.21	300.000
210.59	150.000
210.96	533.333
211.34	0.000
211.71	-12.500
212.09	-1000.000
212.46	0.000
212.84	800.000
213.22	-180.000
213.59	-200.000
213.97	20.000
214.34	-133.333
214.72	233.333
215.09	-75.000
215.47	0.000
215.84	114.286
216.22	700.000
216.59	60.000
216.97	-220.000
217.34	-100.000
217.72	-12.500
218.09	-100.000
218.47	-175.000
218.84	0.000
219.22	180.000
219.59	-58.824
219.97	10.000
220.34	750.000
220.72	-77.778
221.09	-7.692
221.47	-166.667
221.84	-100.000
222.22	-71.429
222.59	0.000
222.97	25.000
223.34	-220.000
223.72	-1200.000
224.09	-250.000
224.46	-225.000
224.84	80.000
225.21	-114.286
225.59	-450.000
225.96	-275.000
226.34	19.231
226.71	216.667
227.08	-500.000
227.46	13.333
227.83	-75.000
228.21	-21.053
228.58	37.500
228.95	250.000
229.33	8.333
229.70	-120.000
230.08	57.895
230.45	60.000
230.82	33.333
231.20	0.000
231.57	0.000
231.95	0.000
232.32	-27.273
232.69	0.000
233.07	-325.000
233.44	-29.412
233.81	-50.000
234.19	22.222
234.56	18.182
234.93	27.586
235.31	5.263
235.68	-22.222
236.05	-15.000
236.43	11.538
236.80	48.000
237.17	-14.815
237.55	-9.091
237.92	-100.000
238.29	0.000
238.67	2.273
239.04	19.444
239.41	-7.143
239.79	4.348
240.16	5.556
240.53	-2.174
240.91	-13.725
241.28	4.918
241.65	22.388
242.02	13.514
242.40	7.692
242.77	4.000
243.14	-2.439
243.51	-18.421
243.89	0.000
244.26	6.931
244.63	10.784
245.00	0.000
245.38	7.895
245.75	-6.195
246.12	10.317
246.49	3.101
246.87	8.571
247.24	10.596
247.61	14.474
247.98	11.409
248.36	6.790
248.73	-1.227
249.10	5.464
249.47	6.965
249.84	13.089
250.22	4.663
250.59	8.333
250.96	10.000
251.33	5.102
251.70	9.829
252.08	7.500
252.45	9.016
252.82	7.025
253.19	5.469
253.56	9.886
253.94	8.462
254.31	7.197
254.68	12.587
255.05	10.098
255.42	5.102
255.79	7.443
256.16	7.616
256.54	8.609
256.91	9.508
257.28	8.525
257.65	7.962
258.02	8.850
258.39	9.402
258.76	11.927
259.14	9.770
259.51	9.798
259.88	7.649
260.25	6.667
260.62	9.041
260.99	12.842
261.36	13.405
261.73	6.897
262.10	9.615
262.47	5.898
262.85	9.596
263.22	7.532
263.59	5.526
263.96	9.463
264.33	8.951
264.70	9.136
265.07	10.024
265.44	13.152
265.81	8.565
266.18	9.524
266.55	12.500
266.92	9.567
267.29	10.941
267.66	8.647
268.03	8.952
268.40	10.021
268.77	7.973
269.14	6.388
269.51	10.746
269.88	9.836
270.25	9.256
270.62	11.814
270.99	12.121
271.36	11.485
271.73	10.020
272.10	10.822
272.47	9.218
272.84	8.434
273.21	8.617
273.58	7.661
273.95	8.269
274.32	7.985
274.69	8.124
275.06	10.073
275.43	9.612
275.80	9.347
276.17	7.778
276.54	6.903
276.91	7.692
277.28	9.584
277.65	10.233
278.02	8.456
278.39	8.877
278.76	8.260
279.13	7.447
279.50	9.278
279.87	9.839
280.23	9.155
280.60	10.000
280.97	8.882
281.34	7.301
281.71	11.337
282.08	9.468
282.45	8.347
282.82	6.436
283.19	7.916
283.56	9.508
283.92	10.360
284.29	11.690
284.66	8.539
285.03	7.532
285.40	10.510
285.77	9.443
286.14	9.924
286.51	9.589
286.87	7.425
287.24	10.090
287.61	8.371
287.98	6.798
288.35	10.059
288.72	9.911
289.08	8.346
289.45	6.213
289.82	7.982
290.19	9.483
290.56	9.296
290.93	6.847
291.29	8.678
291.66	8.815
292.03	6.377
292.40	9.388
292.77	9.164
293.13	7.984
293.50	7.096
293.87	6.846
294.24	8.800
294.60	9.229
294.97	6.980
295.34	9.219
295.71	6.810
296.08	7.881
296.44	8.578
296.81	9.257
297.18	7.721
297.55	7.193
297.91	7.473
298.28	8.294
298.65	8.561
299.02	6.730
299.38	8.124
299.75	7.710
300.12	7.639
300.48	7.949
300.85	6.524
301.22	8.837
301.59	7.991
301.95	9.040
302.32	9.000
302.69	8.215
303.05	8.379
303.42	8.980
303.79	9.167
304.15	9.569
304.52	8.457
304.89	8.796
305.25	9.317
305.62	8.046
305.99	7.526
306.35	8.972
306.72	7.239
307.09	8.528
307.45	9.006
307.82	9.284
308.19	9.990
308.55	9.354
308.92	9.542
309.29	9.195
309.65	9.357
310.02	8.713
310.38	9.941
310.75	9.612
311.12	9.875
311.48	10.166
311.85	10.066
312.22	10.531
312.58	10.423
312.95	9.751
313.31	11.743
313.68	10.897
314.05	12.466
314.41	13.024
314.78	12.534
315.14	12.704
315.51	13.204
315.87	13.231
316.24	12.694
316.61	13.854
316.97	13.756
317.34	13.845
317.70	14.236
318.07	14.550
318.43	14.796
318.80	16.388
319.16	15.193
319.53	14.225
319.89	13.672
320.26	16.014
320.62	14.982
320.99	15.328
321.35	15.250
321.72	17.488
322.08	16.862
322.45	16.712
322.81	17.238
323.18	16.460
323.54	18.621
323.91	16.904
324.27	17.126
324.64	19.312
325.00	17.993
325.37	19.083
325.73	18.512
326.10	19.870
326.46	20.195
326.83	20.336
327.19	20.394
327.56	20.553
327.92	19.906
328.29	20.806
328.65	20.101
329.01	20.220
329.38	21.314
329.74	20.890
330.11	21.490
330.47	21.146
330.84	21.705
331.20	21.083
331.56	21.750
331.93	22.678
332.29	21.695
332.66	21.678
333.02	22.362
333.38	20.721
333.75	21.633
334.11	22.519
334.48	21.947
334.84	23.534
335.20	22.670
335.57	22.344
335.93	23.471
336.29	22.213
336.66	22.540
337.02	22.324
337.38	22.704
337.75	22.479
338.11	23.129
338.47	22.581
338.84	21.912
339.20	21.988
339.56	21.417
339.93	22.906
340.29	21.256
340.65	21.736
341.02	24.022
341.38	23.686
341.74	21.711
342.11	23.331
342.47	21.763
342.83	23.591
343.20	22.567
343.56	23.978
343.92	23.939
344.28	23.672
344.65	23.643
345.01	23.947
345.37	24.961
345.73	23.539
346.10	24.103
346.46	23.655
346.82	23.970
347.19	24.217
347.55	24.810
347.91	23.997
348.27	23.672
348.63	25.057
349.00	24.161
349.36	23.123
349.72	24.256
350.08	24.368
350.45	24.563
350.81	24.585
351.17	25.113
351.53	25.701
351.89	25.057
352.26	24.776
352.62	23.358
352.98	24.351
353.34	23.077
353.70	25.270
354.07	25.484
354.43	24.601
354.79	25.280
355.15	24.283
355.51	25.439
355.87	24.383
356.24	25.019
356.60	24.834
356.96	26.168
357.32	23.792
357.68	25.256
358.04	25.075
358.40	25.522
358.77	26.462
359.13	25.111
359.49	25.353
359.85	26.033
360.21	25.538
360.57	25.700
360.93	24.824
361.29	25.404
361.66	26.068
362.02	26.653
362.38	26.634
362.74	26.466
363.10	26.410
363.46	27.008
363.82	25.710
364.18	27.234
364.54	26.072
364.90	27.090
365.26	26.690
365.62	27.133
365.98	26.481
366.35	26.644
366.71	26.463
367.07	27.131
367.43	26.855
367.79	27.538
368.15	28.027
368.51	26.725
368.87	26.845
369.23	27.200
369.59	27.596
369.95	27.451
370.31	27.954
370.67	28.267
371.03	27.632
371.39	26.125
371.75	27.579
372.11	27.439
372.47	27.150
372.83	28.076
373.19	28.953
373.55	27.913
373.91	27.335
374.27	27.555
374.63	28.890
374.99	27.984
375.35	28.506
375.71	28.258
376.07	28.857
376.42	27.897
376.78	29.397
377.14	29.133
377.50	29.096
377.86	29.433
378.22	28.743
378.58	29.727
378.94	29.167
379.30	28.940
379.66	29.101
380.02	30.006
380.38	30.242
380.74	30.197
381.09	29.326
381.45	29.886
381.81	31.148
382.17	30.404
382.53	30.526
382.89	29.740
383.25	31.184
383.61	30.440
383.97	30.742
384.32	31.400
384.68	30.336
385.04	30.538
385.40	32.528
385.76	31.653
386.12	30.999
386.48	32.588
386.83	32.122
387.19	31.402
387.55	30.986
387.91	31.450
388.27	32.159
388.62	30.985
388.98	31.416
389.34	32.410
389.70	31.958
390.06	31.794
390.42	32.410
390.77	32.631
391.13	32.336
391.49	32.367
391.85	31.576
392.20	32.859
392.56	32.546
392.92	32.388
393.28	32.670
393.64	31.899
393.99	33.236
394.35	32.301
394.71	32.515
395.07	32.455
395.42	32.553
395.78	33.151
396.14	33.096
396.50	33.432
396.85	33.572
397.21	32.840
397.57	33.216
397.92	32.761
398.28	32.645
398.64	32.838
399.00	33.141
399.35	32.775
399.71	33.207
400.07	33.801
400.42	33.178
400.78	33.160
401.14	33.523
401.49	33.712
401.85	33.488
402.21	33.893
402.57	33.979
402.92	33.983
403.28	33.548
403.63	34.069
403.99	34.145
404.35	33.087
404.70	34.164
405.06	32.935
405.42	34.368
405.77	34.079
406.13	33.820
406.49	33.615
406.84	34.183
407.20	33.706
407.55	34.222
407.91	34.129
408.27	33.510
408.62	34.613
408.98	34.068
409.34	34.135
409.69	34.487
410.05	33.705
410.40	34.745
410.76	34.605
411.11	34.132
411.47	34.214
411.83	34.744
412.18	35.060
412.54	34.558
412.89	35.623
413.25	35.327
413.60	35.325
413.96	34.324
414.31	33.938
414.67	35.599
415.03	34.031
415.38	35.309
415.74	34.698
416.09	34.793
416.45	33.813
416.80	33.537
417.16	35.504
417.51	35.056
417.87	34.519
418.22	34.731
418.58	33.953
418.93	35.448
419.29	35.203
419.64	34.694
420.00	34.777
420.35	35.205
420.71	33.774
421.06	33.583
421.42	34.862
421.77	34.141
422.12	34.778
422.48	35.023
422.83	34.064
423.19	34.854
423.54	34.956
423.90	33.849
424.25	34.240
424.61	33.984
424.96	34.377
425.31	34.713
425.67	33.977
426.02	34.698
426.38	34.328
426.73	34.096
427.09	35.698
427.44	35.117
427.79	34.826
428.15	34.304
428.50	34.607
428.85	34.271
429.21	33.883
429.56	34.501
429.92	33.907
430.27	34.458
430.62	34.245
430.98	34.186
431.33	34.311
431.68	32.902
432.04	34.485
432.39	33.958
432.74	34.304
433.10	34.721
433.45	34.281
433.80	33.584
434.16	34.401
434.51	34.841
434.86	35.396
435.22	35.016
435.57	34.080
435.92	34.891
436.28	34.073
436.63	35.063
436.98	33.870
437.34	33.878
437.69	33.462
438.04	35.061
438.39	35.210
438.75	34.366
439.10	34.567
439.45	34.209
439.81	34.011
440.16	32.815
440.51	33.278
440.86	34.853
441.22	34.727
441.57	35.535
441.92	34.384
442.27	34.798
442.63	34.923
442.98	35.646
443.33	34.613
443.68	35.183
444.03	34.760
444.39	35.368
444.74	34.967
445.09	33.857
445.44	34.457
445.79	34.531
446.15	34.943
446.50	33.437
446.85	34.728
447.20	35.251
447.55	34.833
447.91	34.084
448.26	34.672
448.61	34.697
448.96	35.891
449.31	34.199
449.66	34.150
450.02	34.177
450.37	33.990
450.72	34.123
451.07	33.770
451.42	33.622
451.77	33.741
452.12	34.481
452.47	33.749
452.83	34.459
453.18	33.800
453.53	34.118
453.88	33.131
454.23	34.463
454.58	34.591
454.93	33.131
455.28	35.160
455.63	33.371
455.98	33.352
456.34	33.687
456.69	34.744
457.04	33.452
457.39	32.594
457.74	34.564
458.09	33.224
458.44	33.351
458.79	32.646
459.14	33.089
459.49	34.861
459.84	32.791
460.19	32.649
460.54	33.674
460.89	32.769
461.24	31.552
461.59	33.260
461.94	32.059
462.29	33.203
462.64	31.804
462.99	32.329
463.34	32.966
463.69	32.708
464.04	32.462
464.39	32.623
464.74	32.098
465.09	32.757
465.44	32.242
465.79	33.263
466.14	31.110
466.49	31.316
466.84	32.066
467.19	31.734
467.54	30.259
467.89	31.207
468.24	31.579
468.59	30.747
468.94	30.944
469.29	30.894
469.64	31.214
469.99	31.421
470.34	31.188
470.68	31.852
471.03	31.041
471.38	30.870
471.73	30.169
472.08	30.647
472.43	31.126
472.78	30.856
473.13	30.152
473.48	29.970
473.83	31.341
474.17	29.953
474.52	30.788
474.87	30.509
475.22	30.986
475.57	30.166
475.92	30.214
476.27	30.564
476.61	29.595
476.96	29.249
477.31	29.901
477.66	29.801
478.01	29.588
478.36	29.711
478.70	29.458
479.05	29.652
479.40	29.269
479.75	30.211
480.10	29.465
480.45	28.760
480.79	28.798
481.14	29.044
481.49	29.032
481.84	29.112
482.19	28.688
482.53	29.252
482.88	29.198
483.23	28.813
483.58	27.904
483.92	28.014
484.27	28.577
484.62	28.135
484.97	28.305
485.31	27.913
485.66	27.491
486.01	26.925
486.36	27.246
486.70	27.858
487.05	28.447
487.40	28.326
487.75	27.710
488.09	27.754
488.44	27.589
488.79	27.150
489.13	27.444
489.48	26.680
489.83	27.243
490.17	26.407
490.52	27.791
490.87	27.665
491.22	27.860
491.56	26.664
491.91	26.646
492.26	26.569
492.60	26.891
492.95	26.634
493.30	26.356
493.64	26.150
493.99	26.360
494.34	25.305
494.68	25.824
495.03	26.167
495.37	26.187
495.72	26.168
496.07	26.819
496.41	25.783
496.76	25.813
497.11	25.945
497.45	25.939
497.80	26.344
498.14	26.395
498.49	25.551
498.84	25.914
499.18	25.866
499.53	25.830
499.87	25.934
500.22	24.533
500.56	25.731
500.91	25.355
501.26	25.318
501.60	25.453
501.95	24.577
502.29	25.713
502.64	25.186
502.98	25.453
503.33	24.363
503.67	24.422
504.02	24.781
504.36	24.263
504.71	24.805
505.06	24.284
505.40	24.589
505.75	25.091
506.09	24.954
506.44	24.838
506.78	24.862
507.13	24.574
507.47	24.633
507.82	24.716
508.16	24.474
508.51	23.816
508.85	24.563
509.19	24.633
509.54	24.688
509.88	23.992
510.23	24.284
510.57	24.166
510.92	23.464
511.26	23.425
511.61	22.887
511.95	23.084
512.30	24.323
512.64	22.889
512.98	23.512
513.33	24.446
513.67	23.508
514.02	24.016
514.36	24.297
514.70	23.229
515.05	23.201
515.39	23.465
515.74	23.966
516.08	23.349
516.42	24.280
516.77	23.344
517.11	23.156
517.46	23.277
517.80	24.372
518.14	23.449
518.49	22.668
518.83	22.991
519.17	22.348
519.52	23.061
519.86	22.862
520.20	23.163
520.55	22.508
520.89	22.354
521.23	22.836
521.58	22.938
521.92	22.380
522.26	22.852
522.61	22.512
522.95	21.799
523.29	22.126
523.64	22.085
523.98	23.274
524.32	22.350
524.66	22.140
525.01	22.084
525.35	22.631
525.69	21.926
526.04	21.986
526.38	22.529
526.72	22.434
527.06	22.346
527.41	21.983
527.75	22.922
528.09	22.373
528.43	21.906
528.78	21.676
529.12	21.560
529.46	21.698
529.80	22.082
530.15	21.913
530.49	21.649
530.83	22.314
531.17	21.505
531.51	22.323
531.86	22.476
532.20	22.744
532.54	20.586
532.88	22.121
533.22	21.037
533.57	22.389
533.91	21.324
534.25	21.651
534.59	21.379
534.93	21.109
535.27	22.028
535.62	22.229
535.96	21.441
536.30	20.740
536.64	21.682
536.98	21.279
537.32	21.049
537.66	22.146
538.01	21.208
538.35	20.341
538.69	21.334
539.03	21.950
539.37	21.025
539.71	21.502
540.05	21.463
540.39	20.966
540.73	21.736
541.07	21.091
541.42	20.614
541.76	20.285
542.10	20.929
542.44	20.219
542.78	21.168
543.12	20.799
543.46	20.391
543.80	20.084
544.14	20.706
544.48	21.158
544.82	20.646
545.16	20.572
545.50	20.551
545.84	20.392
546.18	21.605
546.52	20.191
546.86	20.881
547.20	20.802
547.54	19.101
547.88	20.494
548.22	19.825
548.56	20.070
548.90	19.761
549.24	19.392
549.58	21.136
549.92	20.153
550.26	20.129
550.60	19.400
550.94	20.116
551.28	19.274
551.62	20.081
551.96	19.612
552.30	20.331
552.64	19.415
552.98	19.651
553.32	19.550
553.66	19.550
554.00	20.429
554.34	19.241
554.68	19.174
555.02	19.514
555.36	20.250
555.69	19.475
556.03	19.357
556.37	19.650
556.71	18.833
557.05	19.233
557.39	19.708
557.73	19.419
558.07	19.073
558.41	18.804
558.75	18.864
559.08	19.763
559.42	18.930
559.76	20.014
560.10	19.223
560.44	19.195
560.78	19.750
561.12	18.288
561.45	18.370
561.79	19.414
562.13	19.532
562.47	18.434
562.81	18.481
563.15	20.076
563.48	18.894
563.82	18.863
564.16	18.534
564.50	18.594
564.84	18.407
565.17	18.647
565.51	17.894
565.85	18.587
566.19	18.433
566.52	18.315
566.86	18.619
567.20	18.543
567.54	18.853
567.88	18.603
568.21	18.874
568.55	18.369
568.89	18.112
569.23	18.716
569.56	17.624
569.90	18.318
570.24	17.572
570.57	17.832
570.91	18.126
571.25	17.819
571.59	18.508
571.92	18.017
572.26	17.946
572.60	17.609
572.93	18.508
573.27	18.151
573.61	17.867
573.95	17.383
574.28	17.659
574.62	17.508
574.96	17.203
575.29	17.273
575.63	17.279
575.97	17.796
576.30	17.345
576.64	17.466
576.98	17.517
577.31	17.389
577.65	17.458
577.98	17.225
578.32	17.669
578.66	17.188
578.99	16.936
579.33	17.608
579.67	17.294
580.00	17.285
580.34	17.277
580.67	16.968
581.01	17.027
581.35	17.261
581.68	17.019
582.02	16.710
582.35	17.642
582.69	17.072
583.02	17.081
583.36	17.396
583.70	17.201
584.03	16.991
584.37	16.761
584.70	16.968
585.04	16.880
585.37	17.101
585.71	16.850
586.04	16.931
586.38	16.667
586.72	16.821
587.05	16.526
587.39	17.377
587.72	17.249
588.06	16.852
588.39	16.754
588.73	16.561
589.06	16.789
589.40	16.718
589.73	16.967
590.07	17.042
590.40	16.903
590.73	16.543
591.07	16.828
591.40	16.757
591.74	16.812
592.07	17.012
592.41	16.680
592.74	16.649
593.08	17.070
593.41	16.710
593.75	16.494
594.08	16.874
594.41	16.410
594.75	16.473
595.08	16.588
595.42	17.305
595.75	16.532
596.09	16.706
596.42	16.804
596.75	16.442
597.09	16.808
597.42	16.170
597.75	16.582
598.09	16.667
598.42	16.848
598.76	16.393
599.09	16.305
599.42	16.561
599.76	15.946
600.09	16.250
600.42	15.983
600.76	15.951
601.09	16.296
601.42	16.135
601.76	16.448
602.09	15.940
602.42	16.212
602.76	16.015
603.09	16.079
603.42	16.077
603.76	15.292
604.09	16.643
604.42	16.440
604.76	15.639
605.09	16.354
605.42	16.627
605.75	15.923
606.09	15.827
606.42	15.688
606.75	15.967
607.09	15.131
607.42	16.108
607.75	16.061
608.08	16.022
608.42	15.639
608.75	16.252
609.08	15.832
609.41	16.277
609.75	15.402
610.08	15.963
610.41	15.421
610.74	16.050
611.07	15.453
611.41	16.233
611.74	16.259
612.07	16.410
612.40	15.732
612.73	15.501
613.07	15.403
613.40	16.218
613.73	15.696
614.06	15.260
614.39	16.035
614.72	15.672
615.06	15.784
615.39	15.418
615.72	15.640
616.05	15.347
616.38	16.044
616.71	16.301
617.05	15.442
617.38	15.570
617.71	15.983
618.04	15.812
618.37	16.066
618.70	16.459
619.03	15.830
619.36	14.735
619.69	16.528
620.03	15.694
620.36	15.092
620.69	15.916
621.02	15.289
621.35	15.457
621.68	15.980
622.01	16.299
622.34	14.714
622.67	15.395
623.00	14.440
623.33	16.257
623.66	16.407
623.99	15.602
624.32	15.660
624.65	15.187
624.99	15.540
625.32	16.460
625.65	14.633
625.98	15.390
626.31	16.159
626.64	15.604
626.97	15.304
627.30	14.882
627.63	15.604
627.96	16.141
628.29	14.708
628.62	16.037
628.95	15.513
629.28	15.123
629.61	15.236
629.94	14.812
630.26	14.492
630.59	14.335
630.92	14.545
631.25	16.637
631.58	15.537
631.91	16.401
632.24	16.138
632.57	14.801
632.90	16.148
633.23	15.000
633.56	15.612
633.89	14.566
634.22	16.112
634.55	16.075
634.88	15.909
635.20	15.931
635.53	14.802
635.86	15.168
636.19	15.589
636.52	16.456
636.85	13.892
637.18	15.281
637.51	14.624
637.83	14.618
638.16	15.668
638.49	14.319
638.82	14.431
639.15	12.371
639.48	17.436
639.81	15.127
640.13	15.077
640.46	14.424
640.79	14.583
641.12	15.280
641.45	14.304
641.77	16.175
642.10	15.354
642.43	14.761
642.76	14.228
643.09	15.068
643.41	13.305
643.74	14.207
644.07	14.897
644.40	13.720
644.73	15.675
645.05	13.656
645.38	16.259
645.71	14.663
646.04	15.782
646.36	15.036
646.69	15.491
647.02	15.902
647.35	16.489
647.67	14.493
648.00	14.013
648.33	15.165
648.66	14.123
648.98	13.469
649.31	15.020
649.64	14.608
649.96	14.324
650.29	13.352
650.62	14.286
650.94	13.814
651.27	13.323
651.60	14.766
651.92	13.982
652.25	14.616
652.58	13.067
652.90	13.372
653.23	16.479
653.56	13.552
653.88	16.854
654.21	16.056
654.54	11.127
654.86	13.314
655.19	12.923
655.52	14.366
655.84	13.835
656.17	15.727
656.49	22.791
656.82	24.773
657.15	19.326
657.47	14.859
657.80	10.941
658.13	8.727
658.45	11.300
658.78	13.870
659.10	13.162
659.43	13.734
659.75	13.296
660.08	13.277
660.41	12.986
660.73	12.771
661.06	13.363
661.38	12.759
661.71	13.621
662.03	14.462
662.36	13.596
662.68	13.696
663.01	14.159
663.33	14.178
663.66	15.751
663.98	13.269
664.31	14.634
664.63	12.524
664.96	14.701
665.28	11.434
665.61	13.462
665.93	13.393
666.26	13.799
666.58	13.838
666.91	13.645
667.23	14.095
667.56	14.793
667.88	14.600
668.21	10.352
668.53	12.355
668.86	15.128
669.18	13.238
669.50	14.314
669.83	11.000
670.15	13.780
670.48	13.889
670.80	12.237
671.13	11.909
671.45	14.764
671.77	15.443
672.10	12.500
672.42	13.592
672.75	11.214
673.07	13.134
673.39	13.559
673.72	14.597
674.04	12.241
674.37	13.775
674.69	13.757
675.01	14.286
675.34	13.931
675.66	14.419
675.98	12.873
676.31	13.086
676.63	16.350
676.95	16.284
677.28	11.694
677.60	14.567
677.92	13.820
678.25	14.625
678.57	12.633
678.89	15.529
679.22	12.892
679.54	13.162
679.86	11.864
680.18	11.443
680.51	13.208
680.83	13.912
681.15	11.724
681.48	14.853
681.80	14.508
682.12	13.636
682.44	11.686
682.77	12.589
683.09	14.015
683.41	13.178
683.73	11.575
684.06	12.731
684.38	12.165
684.70	14.363
685.02	13.941
685.34	12.812
685.67	11.356
685.99	11.963
686.31	12.791
686.63	10.742
686.96	12.461
687.28	13.029
687.60	11.448
687.92	10.772
688.24	13.189
688.56	11.034
688.89	13.430
689.21	13.699
689.53	11.569
689.85	12.821
690.17	13.889
690.49	12.550
690.82	12.673
691.14	11.943
691.46	11.663
691.78	16.390
692.10	11.376
692.42	12.143
692.74	10.345
693.06	9.444
693.39	12.903
693.71	10.338
694.03	12.639
694.35	11.619
694.67	11.910
694.99	11.064
695.31	13.024
695.63	13.853
695.95	9.317
696.27	11.868
696.59	12.389
696.91	13.288
697.23	14.286
697.56	11.202
697.88	11.932
698.20	12.429
698.52	15.152
698.84	13.098
699.16	12.653
699.48	12.971
699.80	12.979
700.12	12.882
700.44	11.521
700.76	12.352
701.08	13.317
701.40	12.694
701.72	12.687
702.04	13.904
702.36	13.613
702.68	11.736
703.00	11.247
703.32	10.345
703.64	11.002
703.96	12.411
704.28	13.022
704.60	13.671
704.91	9.184
705.23	11.507
705.55	13.649
705.87	9.697
706.19	15.644
706.51	9.036
706.83	11.239
707.15	12.963
707.47	10.748
707.79	11.354
708.11	8.686
708.43	10.108
708.74	8.036
709.06	12.297
709.38	10.798
709.70	16.625
710.02	12.145
710.34	12.234
710.66	9.777
710.98	10.656
711.29	10.440
711.61	13.559
711.93	13.675
712.25	9.459
712.57	12.094
712.89	13.824
713.20	10.947
713.52	13.873
713.84	11.978
714.16	12.895
714.48	10.567
714.80	14.805
715.11	6.824
715.43	10.875
715.75	11.842
716.07	11.602
716.39	13.661
716.70	11.145
717.02	11.148
717.34	10.105
717.66	9.396
717.97	12.329
718.29	7.904
718.61	10.526
718.93	10.356
719.24	15.217
719.56	8.589
719.88	12.012
720.20	10.000
720.51	12.422
720.83	12.813
721.15	10.855
721.46	4.452
721.78	8.667
722.10	10.356
722.42	9.060
722.73	9.355
723.05	11.228
723.37	10.417
723.68	8.961
724.00	9.025
724.32	10.915
724.63	12.238
724.95	11.348
725.27	10.453
725.58	9.541
725.90	13.793
726.22	10.031
726.53	14.286
726.85	9.119
727.16	13.897
727.48	12.844
727.80	14.238
728.11	8.481
728.43	10.101
728.74	11.371
729.06	14.901
729.38	7.468
729.69	9.396
730.01	9.524
730.32	10.000
730.64	12.893
730.96	6.522
731.27	11.732
731.59	9.341
731.90	6.753
732.22	9.896
732.53	6.630
732.85	11.714
733.16	11.437
733.48	7.622
733.80	10.306
734.11	10.541
734.43	12.432
734.74	14.684
735.06	10.302
735.37	13.514
735.69	12.432
736.00	11.299
736.32	11.051
736.63	9.444
736.95	10.057
737.26	9.697
737.58	9.394
737.89	12.647
738.21	8.257
738.52	9.508
738.83	10.922
739.15	8.865
739.46	10.204
739.78	11.963
740.09	10.602
740.41	12.536
740.72	9.000
741.04	12.298
741.35	18.596
741.66	11.765
741.98	14.754
742.29	12.134
742.61	10.526
742.92	10.385
743.23	12.996
743.55	6.202
743.86	8.800
744.18	4.959
744.49	2.110
744.80	13.169
745.12	11.814
745.43	13.008
745.74	9.483
746.06	13.136
746.37	14.346
746.68	10.163
747.00	5.833
747.31	10.300
747.62	11.923
747.94	7.287
748.25	11.245
748.56	10.204
748.88	11.966
749.19	14.655
749.50	7.359
749.82	12.048
750.13	15.658
750.44	9.000
750.75	8.000
751.07	9.846
751.38	8.202
751.69	11.821
752.01	8.738
752.32	11.438
752.63	10.544
752.94	8.997
753.26	5.576
753.57	7.778
753.88	10.112
754.19	10.611
754.51	11.576
754.82	10.932
755.13	17.377
755.44	12.969
755.75	9.211
756.07	14.030
756.38	10.377
756.69	11.446
757.00	9.418
757.31	11.475
757.63	9.207
757.94	8.920
758.25	10.835
758.56	8.497
758.87	12.727
759.18	10.933
759.50	12.748
759.81	12.325
760.12	10.243
760.43	11.979
760.74	10.591
761.05	11.250
761.36	6.747
761.67	9.391
761.99	11.081
762.30	10.366
762.61	9.571
762.92	8.955
763.23	11.610
763.54	8.633
763.85	8.935
764.16	11.448
764.47	9.507
764.78	11.502
765.10	8.504
765.41	12.308
765.72	8.201
766.03	10.169
766.34	8.464
766.65	5.575
766.96	8.765
767.27	8.756
767.58	2.985
767.89	11.538
768.20	13.615
768.51	7.407
768.82	10.442
769.13	9.848
769.44	5.385
769.75	13.357
770.06	12.308
770.37	12.992
770.68	4.255
770.99	2.024
771.30	15.926
771.61	8.745
771.92	7.778
772.23	8.907
772.54	2.315
772.85	9.677
773.16	11.429
773.47	2.116
773.78	2.703
774.09	11.364
774.39	16.500
774.70	9.290
775.01	8.537
775.32	5.294
775.63	8.589
775.94	2.548
776.25	9.032
776.56	13.462
776.87	11.565
777.18	3.448
777.48	10.490
777.79	7.432
778.10	5.147
778.41	13.194
778.72	11.724
779.03	11.728
779.34	11.515
779.65	8.290
779.95	8.333
780.26	11.364
780.57	7.742
780.88	13.043
781.19	13.548
781.50	11.176
781.80	14.516
782.11	10.053
782.42	6.566
782.73	7.784
783.04	8.939
783.34	6.667
783.65	1.307
783.96	10.559
784.27	13.095
784.57	9.272
784.88	8.571
785.19	7.874
785.50	10.236
785.81	9.023
786.11	15.385
786.42	2.158
786.73	7.914
787.04	7.519
787.34	13.115
787.65	3.200
787.96	13.433
788.26	9.790
788.57	17.483
788.88	12.500
789.19	13.725
789.49	6.849
789.80	7.092
790.11	6.299
790.41	3.125
790.72	10.169
791.03	-0.971
791.33	12.174
791.64	13.158
791.95	8.036
792.25	9.524
792.56	14.286
792.87	11.458
793.17	10.714
793.48	6.250
793.79	-4.819
794.09	1.835
794.40	3.670
794.70	10.884
795.01	7.143
795.32	9.589
795.62	10.563
795.93	-1.515
796.23	8.197
796.54	0.893
796.85	7.447
797.15	8.696
797.46	1.370
797.76	5.000
798.07	16.304
798.37	-10.309
798.68	-10.390
798.99	19.540
799.29	1.124
799.60	6.383
799.90	7.229
800.21	1.538
800.51	0.000
800.82	-1.471
801.12	-10.959
801.43	-7.353
801.73	-6.780
802.04	-7.576
802.34	-13.333
802.65	8.475
802.95	7.463
803.26	-5.085
803.56	5.479
803.87	20.000
804.17	4.110
804.48	-7.018
804.78	-8.333
805.09	0.000
805.39	2.703
805.70	-12.676
806.00	12.195
806.30	3.614
806.61	6.849
806.91	11.538
807.22	4.444
807.52	-5.747
807.83	9.722
808.13	18.072
808.43	20.225
808.74	5.000
809.04	5.882
809.35	16.000
809.65	-1.429
809.95	8.219
810.26	-14.035
810.56	-8.621
810.86	5.882
811.17	-15.789
811.47	-6.557
811.77	-2.222
812.08	6.780
812.38	28.333
812.69	10.345
812.99	-3.774
813.29	-10.256
813.59	12.000
813.90	10.526
814.20	0.000
814.50	7.042
814.81	8.974
815.11	18.033
815.41	-4.478
815.72	6.897
816.02	7.143
816.32	8.889
816.62	4.545
816.93	6.667
817.23	7.407
817.53	-17.021
817.84	14.286
818.14	-11.765
818.44	-2.041
818.74	0.000
819.04	-17.949
819.35	-51.429
819.65	-69.231
819.95	5.660
820.25	20.000
820.56	-11.905
820.86	0.000
821.16	-2.564
821.46	-6.977
821.76	-22.000
822.07	8.929
822.37	-8.696
822.67	-2.128
822.97	-21.622
823.27	5.000
823.57	12.245
823.88	15.556
824.18	5.000
824.48	-33.333
824.78	-48.000
825.08	-18.182
825.38	17.778
825.69	8.511
825.99	0.000
826.29	-22.857
826.59	0.000
826.89	-23.256
827.19	-6.000
827.49	-2.941
827.79	18.750
828.09	-13.514
828.39	-13.333
828.70	7.317
829.00	-11.628
829.30	-7.143
829.60	0.000
829.90	0.000
830.20	-17.143
830.50	-34.483
830.80	-27.778
831.10	-19.231
831.40	-11.765
831.70	-23.810
832.00	22.581
832.30	-70.588
832.60	-54.167
832.90	-92.308
833.20	-36.842
833.50	-20.000
833.80	-36.842
834.10	-85.714
834.40	-8.333
834.70	3.125
835.00	-5.714
835.30	35.294
835.60	0.000
835.90	36.000
836.20	-113.636
836.50	-24.000
836.80	-51.515
837.10	-18.519
837.40	-40.741
837.70	-100.000
838.00	3.571
838.30	-17.391
838.60	17.241
838.90	-50.000
839.19	-78.261
839.49	-91.667
839.79	-8.696
840.09	-56.250
840.39	15.000
840.69	12.903
840.99	-17.857
841.29	-80.000
841.59	-36.842
841.88	51.282
842.18	-7.692
842.48	-70.000
842.78	-15.000
843.08	-13.333
843.38	16.129
843.68	-11.111
843.97	8.824
844.27	-31.250
844.57	-68.421
844.87	-30.000
845.17	-6.667
845.47	9.524
845.76	-23.810
846.06	-144.444
846.36	-29.412
846.66	-7.692
846.96	-60.000
847.25	-129.412
847.55	17.391
847.85	15.000
848.15	35.294
848.44	-45.455
848.74	19.048
849.04	-25.000
849.34	-43.750
849.63	-21.739
849.93	800.000
850.23	-66.667
850.53	46.154
850.82	-18.182
851.12	27.273
851.42	-36.364
851.71	61.538
852.01	-10.000
852.31	-53.846
852.61	-21.053
852.90	-66.667
853.20	-16.667
853.50	-44.444
853.79	-47.619
854.09	4.545
854.39	-50.000
854.68	-3.226
854.98	3.846
855.28	22.222
855.57	-3.571
855.87	-16.000
856.17	-50.000
856.46	-18.519
856.76	-5.556
857.05	-8.696
857.35	0.000
857.65	-23.077
857.94	-42.857
858.24	25.926
858.53	8.696
858.83	5.882
859.13	5.882
859.42	17.647
859.72	50.000
860.01	-50.000
860.31	-77.778
860.60	-30.000
860.90	-13.333
861.20	-50.000
861.49	-61.538
861.79	16.667
862.08	-15.385
862.38	12.500
862.67	-41.176
862.97	-37.500
863.26	-55.556
863.56	10.000
863.85	-136.364
864.15	-5.556
864.44	-100.000
864.74	-21.429
865.03	0.000
865.33	-110.000
865.62	-29.032
865.92	18.182
866.21	4.348
866.51	-71.429
866.80	-60.000
867.10	-50.000
867.39	-133.333
867.69	100.000
867.98	100.000
868.27	35.294
868.57	-1200.000
868.86	-60.000
869.16	-52.381
869.45	0.000
869.75	27.273
870.04	-42.857
870.33	16.667
870.63	-85.714
870.92	75.000
871.22	-87.500
871.51	-136.364
871.80	-333.333
872.10	-200.000
>>>>>End Processed Spectral Data<<<<<
