SpectraSuite Data File
++++++++++++++++++++++++++++++++++++
Date: Thu May 14 16:15:52 PDT 2015
User: schluterlab
Dark Spectrum Present: Yes
Reference Spectrum Present: Yes
Number of Sampled Component Spectra: 1
Spectrometers: USB2E3373
Integration Time (usec): 3000 (USB2E3373)
Spectra Averaged: 3 (USB2E3373)
Boxcar Smoothing: 0 (USB2E3373)
Correct for Electrical Dark: No (USB2E3373)
Strobe/Lamp Enabled: No (USB2E3373)
Correct for Detector Non-linearity: No (USB2E3373)
Correct for Stray Light: No (USB2E3373)
Number of Pixels in Processed Spectrum: 2048
>>>>>Begin Processed Spectral Data<<<<<
178.53	0.000
178.91	-14.286
179.29	-1700.000
179.67	-800.000
180.04	128.571
180.42	10.000
180.80	40.000
181.18	-700.000
181.56	500.000
181.94	175.000
182.31	-50.000
182.69	-166.667
183.07	0.000
183.45	200.000
183.83	-33.333
184.20	266.667
184.58	-800.000
184.96	-200.000
185.34	-44.444
185.72	-120.000
186.09	222.222
186.47	450.000
186.85	100.000
187.23	-88.889
187.61	-1100.000
187.98	180.000
188.36	400.000
188.74	-125.000
189.12	-100.000
189.49	0.000
189.87	-162.500
190.25	0.000
190.63	40.000
191.00	-111.111
191.38	0.000
191.76	-175.000
192.14	50.000
192.51	-0.000
192.89	33.333
193.27	0.000
193.65	-100.000
194.02	-1600.000
194.40	-28.571
194.78	214.286
195.15	0.000
195.53	63.636
195.91	0.000
196.29	100.000
196.66	-46.154
197.04	-300.000
197.42	-57.143
197.79	0.000
198.17	25.000
198.55	-114.286
198.92	66.667
199.30	-12.500
199.68	63.636
200.05	28.571
200.43	-50.000
200.81	185.714
201.18	0.000
201.56	188.889
201.94	0.000
202.31	100.000
202.69	-88.889
203.07	-0.000
203.44	-122.222
203.82	-250.000
204.19	25.000
204.57	-100.000
204.95	-137.500
205.32	-900.000
205.70	175.000
206.08	-50.000
206.45	-166.667
206.83	540.000
207.20	-150.000
207.58	-180.000
207.96	-100.000
208.33	16.667
208.71	100.000
209.08	-16.667
209.46	0.000
209.84	250.000
210.21	450.000
210.59	450.000
210.96	100.000
211.34	-25.000
211.71	-50.000
212.09	-100.000
212.46	0.000
212.84	450.000
213.22	-120.000
213.59	0.000
213.97	50.000
214.34	-300.000
214.72	66.667
215.09	-100.000
215.47	0.000
215.84	185.714
216.22	850.000
216.59	-80.000
216.97	-140.000
217.34	-300.000
217.72	0.000
218.09	-225.000
218.47	-175.000
218.84	0.000
219.22	20.000
219.59	-11.765
219.97	15.000
220.34	100.000
220.72	-122.222
221.09	-15.385
221.47	-133.333
221.84	-60.000
222.22	-114.286
222.59	0.000
222.97	-100.000
223.34	-240.000
223.72	-700.000
224.09	-150.000
224.46	-200.000
224.84	80.000
225.21	-157.143
225.59	-425.000
225.96	-375.000
226.34	3.846
226.71	216.667
227.08	-100.000
227.46	-6.667
227.83	-125.000
228.21	15.789
228.58	100.000
228.95	250.000
229.33	25.000
229.70	0.000
230.08	73.684
230.45	-20.000
230.82	0.000
231.20	-7.143
231.57	16.667
231.95	-36.364
232.32	-27.273
232.69	25.000
233.07	-100.000
233.44	-17.647
233.81	-80.000
234.19	72.222
234.56	68.182
234.93	27.586
235.31	-26.316
235.68	16.667
236.05	-60.000
236.43	30.769
236.80	28.000
237.17	40.741
237.55	3.030
237.92	-120.000
238.29	3.226
238.67	6.818
239.04	11.111
239.41	4.762
239.79	13.043
240.16	-11.111
240.53	-6.522
240.91	-9.804
241.28	18.033
241.65	5.970
242.02	16.216
242.40	4.615
242.77	8.000
243.14	12.195
243.51	1.316
243.89	6.410
244.26	9.901
244.63	16.667
245.00	15.888
245.38	13.158
245.75	-7.080
246.12	12.698
246.49	12.403
246.87	17.857
247.24	15.232
247.61	19.737
247.98	10.067
248.36	12.346
248.73	8.589
249.10	15.301
249.47	19.900
249.84	16.230
250.22	16.062
250.59	13.889
250.96	20.000
251.33	14.286
251.70	13.248
252.08	13.333
252.45	18.443
252.82	9.504
253.19	10.156
253.56	17.110
253.94	12.308
254.31	13.636
254.68	16.434
255.05	18.893
255.42	14.286
255.79	16.181
256.16	16.556
256.54	13.907
256.91	19.672
257.28	14.426
257.65	11.783
258.02	14.454
258.39	14.815
258.76	17.431
259.14	16.379
259.51	14.409
259.88	15.297
260.25	13.889
260.62	18.356
260.99	18.579
261.36	15.818
261.73	12.997
262.10	15.385
262.47	15.550
262.85	18.687
263.22	12.208
263.59	12.632
263.96	14.322
264.33	13.043
264.70	16.543
265.07	17.422
265.44	20.181
265.81	15.972
266.18	16.553
266.55	16.295
266.92	12.984
267.29	14.880
267.66	15.078
268.03	15.939
268.40	13.779
268.77	16.173
269.14	13.877
269.51	13.158
269.88	14.549
270.25	13.682
270.62	13.502
270.99	16.768
271.36	16.040
271.73	14.931
272.10	18.637
272.47	10.621
272.84	16.667
273.21	16.032
273.58	15.323
273.95	15.577
274.32	14.449
274.69	14.313
275.06	15.934
275.43	12.384
275.80	15.873
276.17	12.593
276.54	14.552
276.91	13.596
277.28	14.467
277.65	15.440
278.02	16.912
278.39	15.580
278.76	13.708
279.13	15.071
279.50	17.010
279.87	15.564
280.23	13.732
280.60	15.424
280.97	13.322
281.34	13.073
281.71	14.721
282.08	15.615
282.45	14.894
282.82	13.187
283.19	13.893
283.56	15.902
283.92	14.865
284.29	15.956
284.66	15.928
285.03	12.821
285.40	15.301
285.77	16.873
286.14	15.878
286.51	14.612
286.87	13.902
287.24	14.307
287.61	13.303
287.98	13.746
288.35	14.201
288.72	14.645
289.08	12.738
289.45	12.426
289.82	14.608
290.19	13.937
290.56	15.070
290.93	13.695
291.29	14.738
291.66	13.912
292.03	13.840
292.40	14.014
292.77	14.555
293.13	14.073
293.50	13.666
293.87	15.034
294.24	14.267
294.60	13.274
294.97	12.886
295.34	14.341
295.71	13.493
296.08	13.049
296.44	14.216
296.81	14.373
297.18	12.329
297.55	13.797
297.91	13.523
298.28	12.204
298.65	13.199
299.02	13.459
299.38	15.103
299.75	13.435
300.12	13.542
300.48	13.710
300.85	13.161
301.22	12.752
301.59	12.785
301.95	12.994
302.32	14.778
302.69	13.472
303.05	13.058
303.42	14.080
303.79	12.188
304.15	14.932
304.52	10.571
304.89	13.822
305.25	12.112
305.62	13.898
305.99	13.608
306.35	13.710
306.72	14.478
307.09	14.010
307.45	14.079
307.82	13.623
308.19	13.623
308.55	14.079
308.92	13.535
309.29	13.506
309.65	14.133
310.02	14.554
310.38	14.173
310.75	13.786
311.12	14.957
311.48	13.978
311.85	14.435
312.22	14.896
312.58	14.648
312.95	12.141
313.31	14.815
313.68	14.652
314.05	15.086
314.41	14.845
314.78	14.532
315.14	15.064
315.51	15.605
315.87	16.112
316.24	15.616
316.61	16.252
316.97	15.837
317.34	15.432
317.70	16.507
318.07	16.667
318.43	15.816
318.80	16.137
319.16	16.652
319.53	14.567
319.89	15.688
320.26	17.082
320.62	15.426
320.99	16.251
321.35	15.896
321.72	17.023
322.08	16.231
322.45	16.802
322.81	17.870
323.18	16.726
323.54	18.707
323.91	16.459
324.27	17.470
324.64	17.548
325.00	17.828
325.37	18.428
325.73	18.926
326.10	18.086
326.46	19.381
326.83	18.415
327.19	18.110
327.56	18.182
327.92	18.253
328.29	17.823
328.65	17.169
329.01	18.782
329.38	18.703
329.74	19.777
330.11	19.777
330.47	18.955
330.84	19.208
331.20	18.750
331.56	17.851
331.93	20.669
332.29	19.576
332.66	18.937
333.02	18.593
333.38	18.372
333.75	19.613
334.11	18.599
334.48	18.152
334.84	20.561
335.20	19.312
335.57	18.803
335.93	19.091
336.29	18.386
336.66	18.839
337.02	18.729
337.38	19.133
337.75	18.099
338.11	18.335
338.47	19.438
338.84	17.597
339.20	17.607
339.56	18.369
339.93	19.458
340.29	18.841
340.65	18.086
341.02	18.595
341.38	19.402
341.74	18.725
342.11	17.940
342.47	17.474
342.83	19.163
343.20	19.460
343.56	18.765
343.92	18.895
344.28	18.750
344.65	20.078
345.01	18.721
345.37	18.429
345.73	17.381
346.10	19.579
346.46	17.722
346.82	18.727
347.19	20.397
347.55	18.665
347.91	18.128
348.27	18.134
348.63	18.583
349.00	19.314
349.36	18.587
349.72	18.601
350.08	18.722
350.45	18.403
350.81	19.155
351.17	18.421
351.53	18.954
351.89	20.197
352.26	19.328
352.62	18.209
352.98	18.244
353.34	17.326
353.70	18.336
354.07	19.672
354.43	17.312
354.79	18.325
355.15	18.764
355.51	17.690
355.87	18.848
356.24	18.631
356.60	18.477
356.96	18.310
357.32	17.770
357.68	18.594
358.04	17.665
358.40	18.881
358.77	19.079
359.13	18.021
359.49	17.472
359.85	18.564
360.21	19.799
360.57	17.947
360.93	18.265
361.29	19.649
361.66	18.103
362.02	18.650
362.38	19.817
362.74	18.855
363.10	18.638
363.46	18.144
363.82	18.750
364.18	19.001
364.54	19.502
364.90	18.729
365.26	18.828
365.62	19.267
365.98	18.244
366.35	19.262
366.71	18.776
367.07	19.553
367.43	19.107
367.79	19.244
368.15	18.528
368.51	18.945
368.87	19.660
369.23	18.400
369.59	18.716
369.95	18.864
370.31	19.379
370.67	18.982
371.03	19.044
371.39	19.342
371.75	19.188
372.11	18.496
372.47	19.228
372.83	19.568
373.19	18.612
373.55	18.902
373.91	18.405
374.27	18.823
374.63	19.350
374.99	18.899
375.35	19.416
375.71	19.032
376.07	19.109
376.42	18.892
376.78	19.826
377.14	19.838
377.50	18.722
377.86	19.828
378.22	19.760
378.58	18.787
378.94	19.425
379.30	18.922
379.66	19.518
380.02	19.677
380.38	20.219
380.74	19.662
381.09	18.641
381.45	19.318
381.81	20.082
382.17	19.359
382.53	19.649
382.89	19.018
383.25	19.285
383.61	18.634
383.97	19.788
384.32	19.199
384.68	18.968
385.04	20.474
385.40	19.859
385.76	19.812
386.12	19.090
386.48	19.353
386.83	20.739
387.19	19.583
387.55	18.897
387.91	20.034
388.27	19.688
388.62	19.129
388.98	18.951
389.34	20.271
389.70	19.988
390.06	20.485
390.42	18.373
390.77	19.687
391.13	18.427
391.49	19.746
391.85	19.455
392.20	19.336
392.56	19.315
392.92	19.575
393.28	19.458
393.64	19.497
393.99	19.407
394.35	20.444
394.71	19.401
395.07	18.922
395.42	18.332
395.78	19.744
396.14	19.548
396.50	18.646
396.85	18.903
397.21	19.172
397.57	19.081
397.92	19.416
398.28	18.088
398.64	18.822
399.00	18.325
399.35	18.953
399.71	19.402
400.07	18.754
400.42	19.674
400.78	19.329
401.14	18.953
401.49	18.931
401.85	19.826
402.21	19.525
402.57	19.718
402.92	19.563
403.28	18.560
403.63	18.258
403.99	18.349
404.35	19.272
404.70	18.867
405.06	18.370
405.42	19.087
405.77	19.193
406.13	18.909
406.49	18.412
406.84	19.723
407.20	19.117
407.55	18.413
407.91	18.290
408.27	18.728
408.62	18.848
408.98	18.688
409.34	17.947
409.69	19.283
410.05	18.933
410.40	18.794
410.76	19.013
411.11	18.644
411.47	18.428
411.83	18.930
412.18	19.096
412.54	18.791
412.89	18.335
413.25	18.284
413.60	18.667
413.96	18.590
414.31	18.584
414.67	19.141
415.03	18.769
415.38	18.979
415.74	17.654
416.09	17.767
416.45	17.783
416.80	17.748
417.16	17.944
417.51	18.369
417.87	18.700
418.22	18.503
418.58	18.711
418.93	18.335
419.29	18.002
419.64	17.407
420.00	17.982
420.35	18.024
420.71	17.117
421.06	18.401
421.42	18.062
421.77	17.394
422.12	17.442
422.48	18.536
422.83	18.346
423.19	18.090
423.54	18.639
423.90	17.725
424.25	17.920
424.61	17.509
424.96	18.561
425.31	18.418
425.67	18.465
426.02	17.986
426.38	18.083
426.73	18.080
427.09	19.204
427.44	17.641
427.79	18.076
428.15	17.922
428.50	17.360
428.85	17.853
429.21	18.404
429.56	17.275
429.92	18.231
430.27	18.554
430.62	17.489
430.98	17.560
431.33	17.400
431.68	17.625
432.04	17.776
432.39	17.408
432.74	18.265
433.10	18.605
433.45	17.168
433.80	18.294
434.16	18.285
434.51	17.575
434.86	18.024
435.22	19.022
435.57	18.868
435.92	17.807
436.28	18.544
436.63	18.678
436.98	17.821
437.34	17.926
437.69	17.997
438.04	18.879
438.39	18.265
438.75	18.041
439.10	18.975
439.45	18.446
439.81	17.740
440.16	18.070
440.51	18.952
440.86	18.232
441.22	18.382
441.57	19.078
441.92	18.332
442.27	19.293
442.63	17.536
442.98	18.997
443.33	18.517
443.68	18.930
444.03	19.003
444.39	18.447
444.74	18.581
445.09	17.942
445.44	18.599
445.79	18.918
446.15	18.859
446.50	18.605
446.85	18.482
447.20	19.197
447.55	19.038
447.91	18.325
448.26	18.023
448.61	19.447
448.96	20.064
449.31	18.664
449.66	17.484
450.02	19.357
450.37	18.434
450.72	18.461
451.07	18.679
451.42	17.909
451.77	18.344
452.12	18.905
452.47	18.241
452.83	19.200
453.18	19.264
453.53	19.242
453.88	18.995
454.23	19.322
454.58	18.224
454.93	18.143
455.28	19.506
455.63	19.045
455.98	18.715
456.34	18.080
456.69	18.460
457.04	18.381
457.39	19.734
457.74	19.855
458.09	17.738
458.44	18.481
458.79	18.412
459.14	19.088
459.49	19.298
459.84	19.203
460.19	18.157
460.54	18.569
460.89	18.052
461.24	18.621
461.59	19.923
461.94	18.597
462.29	19.205
462.64	18.467
462.99	18.770
463.34	19.079
463.69	17.526
464.04	18.621
464.39	18.778
464.74	17.902
465.09	18.916
465.44	18.294
465.79	18.509
466.14	17.874
466.49	18.158
466.84	17.961
467.19	18.497
467.54	18.214
467.89	18.391
468.24	18.837
468.59	17.197
468.94	17.133
469.29	17.816
469.64	17.991
469.99	17.973
470.34	18.193
470.68	18.182
471.03	18.402
471.38	19.097
471.73	18.596
472.08	18.718
472.43	18.242
472.78	18.703
473.13	18.331
473.48	17.523
473.83	18.398
474.17	17.351
474.52	18.340
474.87	17.940
475.22	18.028
475.57	18.069
475.92	17.720
476.27	17.519
476.61	16.926
476.96	17.675
477.31	18.416
477.66	18.730
478.01	18.251
478.36	17.996
478.70	17.438
479.05	18.661
479.40	17.917
479.75	17.243
480.10	17.385
480.45	17.639
480.79	17.823
481.14	17.050
481.49	17.537
481.84	18.755
482.19	17.032
482.53	17.534
482.88	17.988
483.23	17.297
483.58	17.380
483.92	17.376
484.27	16.977
484.62	17.533
484.97	17.030
485.31	17.142
485.66	16.122
486.01	15.697
486.36	15.843
486.70	16.426
487.05	16.660
487.40	16.740
487.75	16.667
488.09	16.568
488.44	16.584
488.79	16.998
489.13	16.691
489.48	16.544
489.83	16.620
490.17	16.687
490.52	17.282
490.87	17.386
491.22	16.161
491.56	16.894
491.91	17.444
492.26	17.179
492.60	17.009
492.95	16.893
493.30	16.988
493.64	16.995
493.99	17.412
494.34	16.638
494.68	16.660
495.03	16.872
495.37	16.644
495.72	16.780
496.07	16.258
496.41	16.817
496.76	16.806
497.11	16.306
497.45	16.401
497.80	17.148
498.14	16.644
498.49	16.820
498.84	16.271
499.18	17.139
499.53	16.368
499.87	16.703
500.22	15.895
500.56	16.644
500.91	17.208
501.26	16.682
501.60	16.262
501.95	17.673
502.29	16.104
502.64	16.310
502.98	16.178
503.33	16.156
503.67	16.049
504.02	16.419
504.36	16.488
504.71	15.893
505.06	16.371
505.40	16.042
505.75	16.530
506.09	16.483
506.44	16.899
506.78	16.927
507.13	16.183
507.47	16.769
507.82	15.956
508.16	16.157
508.51	15.377
508.85	15.305
509.19	16.532
509.54	17.195
509.88	16.270
510.23	16.853
510.57	16.481
510.92	16.062
511.26	15.777
511.61	15.838
511.95	16.789
512.30	16.544
512.64	15.242
512.98	16.708
513.33	15.776
513.67	16.216
514.02	16.403
514.36	16.522
514.70	16.198
515.05	16.058
515.39	16.483
515.74	17.285
516.08	16.006
516.42	17.164
516.77	16.404
517.11	15.781
517.46	15.960
517.80	16.195
518.14	17.247
518.49	16.594
518.83	17.084
519.17	15.024
519.52	16.824
519.86	16.631
520.20	16.347
520.55	15.772
520.89	16.104
521.23	16.025
521.58	15.763
521.92	16.431
522.26	16.094
522.61	17.477
522.95	16.551
523.29	16.782
523.64	15.863
523.98	16.144
524.32	17.077
524.66	16.221
525.01	15.968
525.35	15.853
525.69	16.821
526.04	16.188
526.38	16.322
526.72	16.436
527.06	15.953
527.41	16.210
527.75	16.271
528.09	16.942
528.43	16.163
528.78	15.202
529.12	15.826
529.46	14.840
529.80	15.961
530.15	16.232
530.49	15.243
530.83	16.470
531.17	15.412
531.51	16.366
531.86	16.707
532.20	16.280
532.54	15.919
532.88	15.273
533.22	16.028
533.57	15.291
533.91	16.105
534.25	15.376
534.59	16.034
534.93	14.658
535.27	15.324
535.62	15.577
535.96	15.747
536.30	16.099
536.64	15.856
536.98	16.052
537.32	15.432
537.66	16.282
538.01	15.347
538.35	15.713
538.69	14.243
539.03	15.819
539.37	16.019
539.71	14.835
540.05	16.007
540.39	14.731
540.73	14.572
541.07	14.899
541.42	15.535
541.76	14.531
542.10	15.259
542.44	14.799
542.78	15.146
543.12	15.018
543.46	15.018
543.80	15.108
544.14	15.679
544.48	15.544
544.82	15.380
545.16	15.564
545.50	15.578
545.84	14.697
546.18	16.049
546.52	15.478
546.86	15.283
547.20	15.712
547.54	14.419
547.88	14.647
548.22	14.912
548.56	14.394
548.90	15.164
549.24	15.319
549.58	15.079
549.92	14.605
550.26	15.016
550.60	14.422
550.94	15.136
551.28	15.050
551.62	14.825
551.96	14.628
552.30	15.679
552.64	16.428
552.98	14.535
553.32	14.855
553.66	14.984
554.00	15.259
554.34	14.350
554.68	14.590
555.02	14.980
555.36	15.516
555.69	15.247
556.03	14.250
556.37	14.956
556.71	14.077
557.05	14.888
557.39	15.461
557.73	15.456
558.07	14.305
558.41	15.017
558.75	15.483
559.08	14.057
559.42	15.981
559.76	15.875
560.10	14.735
560.44	15.040
560.78	15.875
561.12	14.778
561.45	14.781
561.79	14.774
562.13	14.541
562.47	13.995
562.81	14.430
563.15	13.952
563.48	14.854
563.82	14.027
564.16	13.386
564.50	13.766
564.84	14.100
565.17	14.647
565.51	13.982
565.85	14.371
566.19	14.286
566.52	14.043
566.86	14.714
567.20	12.887
567.54	14.180
567.88	13.863
568.21	14.625
568.55	13.573
568.89	13.890
569.23	13.984
569.56	12.857
569.90	13.257
570.24	12.884
570.57	12.348
570.91	12.064
571.25	12.467
571.59	12.524
571.92	12.207
572.26	12.229
572.60	12.340
572.93	12.357
573.27	12.475
573.61	12.705
573.95	12.552
574.28	12.263
574.62	12.074
574.96	11.667
575.29	11.809
575.63	11.642
575.97	11.952
576.30	11.966
576.64	11.644
576.98	12.073
577.31	11.805
577.65	11.700
577.98	11.860
578.32	11.730
578.66	11.723
578.99	11.550
579.33	11.761
579.67	11.650
580.00	11.666
580.34	11.387
580.67	11.209
581.01	11.575
581.35	11.592
581.68	11.375
582.02	11.629
582.35	11.592
582.69	12.060
583.02	11.605
583.36	11.727
583.70	11.861
584.03	11.615
584.37	11.503
584.70	11.174
585.04	11.439
585.37	11.224
585.71	11.607
586.04	11.669
586.38	11.792
586.72	10.704
587.05	11.384
587.39	11.818
587.72	11.675
588.06	11.896
588.39	12.099
588.73	11.508
589.06	11.710
589.40	12.200
589.73	11.857
590.07	12.202
590.40	12.441
590.73	12.725
591.07	12.137
591.40	11.858
591.74	12.401
592.07	12.546
592.41	11.672
592.74	12.141
593.08	12.389
593.41	12.307
593.75	11.839
594.08	11.754
594.41	12.147
594.75	11.292
595.08	11.474
595.42	12.013
595.75	11.721
596.09	12.199
596.42	12.039
596.75	12.698
597.09	12.404
597.42	12.793
597.75	11.995
598.09	12.778
598.42	12.505
598.76	11.769
599.09	12.353
599.42	11.666
599.76	11.654
600.09	12.145
600.42	12.379
600.76	11.063
601.09	12.181
601.42	11.775
601.76	11.931
602.09	11.866
602.42	11.632
602.76	12.177
603.09	11.931
603.42	11.777
603.76	11.698
604.09	12.136
604.42	12.220
604.76	11.948
605.09	12.884
605.42	11.842
605.75	12.192
606.09	11.833
606.42	11.346
606.75	11.619
607.09	11.943
607.42	12.139
607.75	12.270
608.08	11.918
608.42	11.890
608.75	12.355
609.08	12.521
609.41	11.469
609.75	12.366
610.08	12.137
610.41	12.107
610.74	12.269
611.07	12.522
611.41	12.556
611.74	12.748
612.07	12.763
612.40	11.644
612.73	12.127
613.07	12.372
613.40	12.368
613.73	12.855
614.06	12.561
614.39	12.293
614.72	12.373
615.06	12.416
615.39	11.841
615.72	12.701
616.05	12.967
616.38	12.866
616.71	12.853
617.05	12.780
617.38	12.467
617.71	13.229
618.04	12.682
618.37	13.115
618.70	12.161
619.03	12.784
619.36	12.515
619.69	12.620
620.03	12.806
620.36	12.393
620.69	13.325
621.02	13.386
621.35	13.861
621.68	12.943
622.01	13.665
622.34	12.971
622.67	12.921
623.00	12.281
623.33	13.338
623.66	13.294
623.99	12.508
624.32	14.360
624.65	12.999
624.99	13.394
625.32	13.521
625.65	13.419
625.98	12.746
626.31	12.970
626.64	14.579
626.97	12.528
627.30	12.301
627.63	13.503
627.96	14.565
628.29	13.774
628.62	12.846
628.95	14.198
629.28	13.594
629.61	13.889
629.94	13.473
630.26	13.898
630.59	12.867
630.92	12.900
631.25	14.311
631.58	14.030
631.91	13.964
632.24	14.601
632.57	14.326
632.90	13.340
633.23	15.000
633.56	14.592
633.89	14.050
634.22	14.865
634.55	15.658
634.88	14.827
635.20	15.070
635.53	15.819
635.86	16.576
636.19	15.695
636.52	15.506
636.85	13.892
637.18	13.929
637.51	13.978
637.83	15.282
638.16	13.134
638.49	15.023
638.82	16.347
639.15	13.402
639.48	14.550
639.81	15.704
640.13	14.841
640.46	14.061
640.79	13.358
641.12	15.528
641.45	14.555
641.77	16.175
642.10	13.911
642.43	14.894
642.76	13.550
643.09	13.288
643.41	13.585
643.74	14.069
644.07	16.552
644.40	15.417
644.73	14.369
645.05	15.565
645.38	14.532
645.71	15.396
646.04	17.647
646.36	15.912
646.69	16.564
647.02	17.431
647.35	17.099
647.67	15.942
648.00	16.242
648.33	14.264
648.66	14.265
648.98	14.150
649.31	15.562
649.64	15.538
649.96	15.517
650.29	14.047
650.62	15.417
650.94	13.664
651.27	13.473
651.60	15.643
651.92	13.982
652.25	15.630
652.58	13.343
652.90	12.936
653.23	16.620
653.56	15.264
653.88	17.697
654.21	15.775
654.54	15.029
654.86	14.306
655.19	12.798
655.52	13.009
655.84	10.746
656.17	12.198
656.49	17.265
656.82	18.393
657.15	14.242
657.47	10.627
657.80	7.837
658.13	6.115
658.45	8.083
658.78	9.748
659.10	9.789
659.43	9.665
659.75	9.526
660.08	10.252
660.41	11.001
660.73	10.946
661.06	12.482
661.38	13.238
661.71	15.862
662.03	13.757
662.36	16.100
662.68	16.510
663.01	14.159
663.33	17.013
663.66	15.568
663.98	14.423
664.31	16.510
664.63	14.066
664.96	14.156
665.28	14.338
665.61	17.483
665.93	13.393
666.26	15.950
666.58	14.945
666.91	17.383
667.23	16.000
667.56	17.160
667.88	13.200
668.21	13.477
668.53	15.058
668.86	13.360
669.18	16.904
669.50	16.103
669.83	13.200
670.15	15.551
670.48	17.460
670.80	14.723
671.13	14.556
671.45	16.732
671.77	15.631
672.10	14.333
672.42	13.107
672.75	13.978
673.07	13.284
673.39	12.327
673.72	14.597
674.04	13.966
674.37	15.027
674.69	14.109
675.01	14.667
675.34	15.267
675.66	13.109
675.98	13.433
676.31	13.672
676.63	15.779
676.95	15.709
677.28	13.710
677.60	12.402
677.92	15.355
678.25	16.453
678.57	15.302
678.89	15.700
679.22	13.763
679.54	13.504
679.86	15.085
680.18	14.594
680.51	15.409
680.83	14.566
681.15	12.414
681.48	13.817
681.80	12.608
682.12	13.112
682.44	15.359
682.77	13.121
683.09	14.773
683.41	16.279
683.73	14.991
684.06	14.022
684.38	12.880
684.70	12.747
685.02	14.630
685.34	11.148
685.67	11.514
685.99	11.810
686.31	13.081
686.63	14.850
686.96	11.672
687.28	15.472
687.60	11.953
687.92	14.148
688.24	14.524
688.56	12.241
688.89	15.245
689.21	16.830
689.53	10.784
689.85	13.609
690.17	11.667
690.49	13.347
690.82	12.079
691.14	12.551
691.46	15.679
691.78	15.654
692.10	12.661
692.42	13.214
692.74	12.886
693.06	12.778
693.39	13.852
693.71	12.782
694.03	14.126
694.35	12.952
694.67	14.168
694.99	14.255
695.31	12.804
695.63	14.502
695.95	14.700
696.27	12.308
696.59	14.159
696.91	13.964
697.23	16.044
697.56	14.664
697.88	12.689
698.20	14.501
698.52	14.962
698.84	12.474
699.16	14.898
699.48	14.226
699.80	14.043
700.12	15.284
700.44	12.673
700.76	13.777
701.08	15.254
701.40	13.731
701.72	17.413
702.04	15.241
702.36	10.733
702.68	13.203
703.00	16.870
703.32	11.823
703.64	14.914
703.96	16.468
704.28	16.708
704.60	13.671
704.91	13.776
705.23	17.808
705.55	15.042
705.87	16.061
706.19	16.871
706.51	14.157
706.83	14.409
707.15	11.376
707.47	10.981
707.79	13.537
708.11	7.203
708.43	13.763
708.74	9.375
709.06	12.761
709.38	15.023
709.70	15.385
710.02	12.661
710.34	14.628
710.66	10.615
710.98	13.115
711.29	12.363
711.61	14.407
711.93	15.670
712.25	16.757
712.57	15.634
712.89	17.059
713.20	13.018
713.52	15.896
713.84	11.699
714.16	17.632
714.48	14.433
714.80	14.805
715.11	10.236
715.43	15.915
715.75	14.211
716.07	15.193
716.39	16.120
716.70	11.145
717.02	18.689
717.34	11.498
717.66	14.430
717.97	10.959
718.29	15.464
718.61	13.816
718.93	14.239
719.24	15.839
719.56	15.951
719.88	10.511
720.20	13.871
720.51	12.733
720.83	9.063
721.15	11.513
721.46	8.219
721.78	13.000
722.10	11.003
722.42	13.087
722.73	10.968
723.05	11.930
723.37	11.806
723.68	16.846
724.00	14.079
724.32	11.268
724.63	13.636
724.95	12.766
725.27	11.498
725.58	9.541
725.90	11.034
726.22	8.150
726.53	15.584
726.85	13.522
727.16	17.221
727.48	12.538
727.80	13.907
728.11	8.481
728.43	11.111
728.74	11.371
729.06	10.265
729.38	14.286
729.69	15.436
730.01	12.798
730.32	8.788
730.64	12.264
730.96	8.385
731.27	13.128
731.59	13.462
731.90	10.649
732.22	12.500
732.53	7.459
732.85	12.000
733.16	12.023
733.48	11.280
733.80	12.535
734.11	12.536
734.43	11.892
734.74	14.684
735.06	12.814
735.37	9.189
735.69	10.541
736.00	12.712
736.32	13.747
736.63	11.389
736.95	11.782
737.26	12.121
737.58	10.000
737.89	12.647
738.21	8.869
738.52	13.770
738.83	15.017
739.15	10.284
739.46	12.585
739.78	10.736
740.09	11.175
740.41	13.994
740.72	10.333
741.04	12.621
741.35	11.579
741.66	11.765
741.98	11.475
742.29	13.389
742.61	13.596
742.92	8.462
743.23	13.357
743.55	13.178
743.86	14.800
744.18	8.264
744.49	7.173
744.80	15.638
745.12	12.658
745.43	10.976
745.74	6.897
746.06	13.983
746.37	13.502
746.68	12.602
747.00	10.000
747.31	9.871
747.62	20.385
747.94	9.717
748.25	7.631
748.56	11.429
748.88	13.675
749.19	12.069
749.50	13.420
749.82	15.663
750.13	14.591
750.44	10.333
750.75	12.923
751.07	16.000
751.38	11.041
751.69	10.863
752.01	10.356
752.32	13.072
752.63	13.265
752.94	10.035
753.26	9.294
753.57	11.481
753.88	13.858
754.19	14.469
754.51	12.540
754.82	15.113
755.13	15.082
755.44	11.604
755.75	13.816
756.07	16.716
756.38	9.434
756.69	15.060
757.00	11.080
757.31	10.929
757.63	8.184
757.94	8.685
758.25	12.415
758.56	11.329
758.87	11.591
759.18	10.933
759.50	10.482
759.81	8.964
760.12	11.590
760.43	14.062
760.74	13.054
761.05	10.250
761.36	10.843
761.67	9.391
761.99	11.081
762.30	9.756
762.61	9.241
762.92	12.313
763.23	13.858
763.54	12.230
763.85	13.402
764.16	12.121
764.47	13.380
764.78	12.780
765.10	9.384
765.41	13.333
765.72	7.672
766.03	14.407
766.34	11.599
766.65	9.408
766.96	11.554
767.27	12.903
767.58	7.463
767.89	15.865
768.20	16.432
768.51	6.944
768.82	15.663
769.13	12.121
769.44	10.385
769.75	14.440
770.06	15.000
770.37	18.110
770.68	6.383
770.99	7.287
771.30	13.704
771.61	9.886
771.92	11.111
772.23	11.336
772.54	5.093
772.85	16.590
773.16	11.429
773.47	6.878
773.78	9.189
774.09	10.227
774.39	15.000
774.70	15.301
775.01	4.268
775.32	10.588
775.63	12.883
775.94	7.006
776.25	10.968
776.56	20.513
776.87	20.408
777.18	12.414
777.48	9.790
777.79	8.108
778.10	13.235
778.41	11.806
778.72	17.241
779.03	8.642
779.34	12.727
779.65	15.026
779.95	11.111
780.26	8.523
780.57	12.903
780.88	10.870
781.19	16.129
781.50	11.176
781.80	15.591
782.11	14.815
782.42	7.576
782.73	8.383
783.04	9.497
783.34	10.909
783.65	7.843
783.96	11.801
784.27	8.333
784.57	11.921
784.88	7.143
785.19	8.661
785.50	0.787
785.81	9.023
786.11	11.538
786.42	1.439
786.73	13.669
787.04	14.286
787.34	11.475
787.65	12.800
787.96	10.448
788.26	20.280
788.57	13.287
788.88	11.184
789.19	16.340
789.49	8.904
789.80	17.021
790.11	16.535
790.41	7.031
790.72	11.864
791.03	4.854
791.33	8.696
791.64	14.912
791.95	8.036
792.25	13.333
792.56	10.714
792.87	16.667
793.17	19.643
793.48	11.458
793.79	7.229
794.09	8.257
794.40	9.174
794.70	8.844
795.01	7.143
795.32	6.849
795.62	9.859
795.93	9.091
796.23	6.557
796.54	8.929
796.85	1.064
797.15	8.696
797.46	2.740
797.76	2.500
798.07	13.043
798.37	1.031
798.68	-2.597
798.99	10.345
799.29	6.742
799.60	11.702
799.90	0.000
800.21	4.615
800.51	11.940
800.82	2.941
801.12	-12.329
801.43	0.000
801.73	-1.695
802.04	4.545
802.34	-1.667
802.65	5.085
802.95	5.970
803.26	3.390
803.56	4.110
803.87	10.000
804.17	10.959
804.48	1.754
804.78	1.389
805.09	-15.517
805.39	10.811
805.70	5.634
806.00	1.220
806.30	4.819
806.61	-1.370
806.91	17.308
807.22	14.444
807.52	2.299
807.83	15.278
808.13	6.024
808.43	6.742
808.74	13.750
809.04	2.941
809.35	2.667
809.65	8.571
809.95	0.000
810.26	-7.018
810.56	17.241
810.86	13.235
811.17	5.263
811.47	3.279
811.77	-13.333
812.08	10.169
812.38	-1.667
812.69	-1.724
812.99	5.660
813.29	-17.949
813.59	20.000
813.90	15.789
814.20	3.636
814.50	4.225
814.81	11.538
815.11	4.918
815.41	13.433
815.72	20.690
816.02	5.357
816.32	17.778
816.62	-2.273
816.93	-22.222
817.23	14.815
817.53	8.511
817.84	21.429
818.14	-17.647
818.44	18.367
818.74	26.667
819.04	-2.564
819.35	-5.714
819.65	-42.308
819.95	-3.774
820.25	20.000
820.56	-7.143
820.86	12.500
821.16	15.385
821.46	-13.953
821.76	-8.000
822.07	14.286
822.37	17.391
822.67	14.894
822.97	-8.108
823.27	-7.500
823.57	18.367
823.88	31.111
824.18	-15.000
824.48	3.333
824.78	8.000
825.08	-3.030
825.38	31.111
825.69	23.404
825.99	13.889
826.29	-34.286
826.59	0.000
826.89	-4.651
827.19	12.000
827.49	5.882
827.79	12.500
828.09	-24.324
828.39	16.667
828.70	-7.317
829.00	-6.977
829.30	-7.143
829.60	26.471
829.90	-4.348
830.20	-17.143
830.50	13.793
830.80	-44.444
831.10	7.692
831.40	14.706
831.70	-23.810
832.00	6.452
832.30	-82.353
832.60	4.167
832.90	-100.000
833.20	21.053
833.50	10.000
833.80	21.053
834.10	-47.619
834.40	-2.778
834.70	34.375
835.00	-5.714
835.30	-2.941
835.60	0.000
835.90	-8.000
836.20	-72.727
836.50	-8.000
836.80	-30.303
837.10	-14.815
837.40	29.630
837.70	-106.250
838.00	35.714
838.30	-30.435
838.60	10.345
838.90	-21.429
839.19	-60.870
839.49	-141.667
839.79	-39.130
840.09	-25.000
840.39	15.000
840.69	29.032
840.99	-42.857
841.29	46.667
841.59	26.316
841.88	35.897
842.18	26.923
842.48	-40.000
842.78	-15.000
843.08	23.333
843.38	32.258
843.68	-55.556
843.97	8.824
844.27	-37.500
844.57	-31.579
844.87	-110.000
845.17	-6.667
845.47	-14.286
845.76	-9.524
846.06	-177.778
846.36	-82.353
846.66	19.231
846.96	-113.333
847.25	-47.059
847.55	17.391
847.85	30.000
848.15	0.000
848.44	-18.182
848.74	-9.524
849.04	-37.500
849.34	0.000
849.63	-17.391
849.93	400.000
850.23	-6.667
850.53	34.615
850.82	-54.545
851.12	27.273
851.42	-27.273
851.71	23.077
852.01	-20.000
852.31	-15.385
852.61	-42.105
852.90	-33.333
853.20	33.333
853.50	-100.000
853.79	-47.619
854.09	-36.364
854.39	-108.333
854.68	-16.129
854.98	15.385
855.28	44.444
855.57	-17.857
855.87	-8.000
856.17	-9.091
856.46	18.519
856.76	-16.667
857.05	-56.522
857.35	-33.333
857.65	53.846
857.94	23.810
858.24	40.741
858.53	4.348
858.83	23.529
859.13	23.529
859.42	23.529
859.72	-50.000
860.01	-25.000
860.31	-33.333
860.60	-40.000
860.90	-26.667
861.20	5.556
861.49	-30.769
861.79	-16.667
862.08	-61.538
862.38	25.000
862.67	0.000
862.97	6.250
863.26	-133.333
863.56	-50.000
863.85	-63.636
864.15	0.000
864.44	-233.333
864.74	28.571
865.03	-18.750
865.33	-70.000
865.62	-9.677
865.92	18.182
866.21	17.391
866.51	-50.000
866.80	0.000
867.10	-33.333
867.39	41.667
867.69	100.000
867.98	271.429
868.27	17.647
868.57	-700.000
868.86	-190.000
869.16	-33.333
869.45	-12.500
869.75	27.273
870.04	-42.857
870.33	-33.333
870.63	-142.857
870.92	-200.000
871.22	-175.000
871.51	-18.182
871.80	-766.667
872.10	-1000.000
>>>>>End Processed Spectral Data<<<<<
