SpectraSuite Data File
++++++++++++++++++++++++++++++++++++
Date: Thu May 14 16:11:22 PDT 2015
User: schluterlab
Dark Spectrum Present: Yes
Reference Spectrum Present: Yes
Number of Sampled Component Spectra: 1
Spectrometers: USB2E3373
Integration Time (usec): 3000 (USB2E3373)
Spectra Averaged: 3 (USB2E3373)
Boxcar Smoothing: 0 (USB2E3373)
Correct for Electrical Dark: No (USB2E3373)
Strobe/Lamp Enabled: No (USB2E3373)
Correct for Detector Non-linearity: No (USB2E3373)
Correct for Stray Light: No (USB2E3373)
Number of Pixels in Processed Spectrum: 2048
>>>>>Begin Processed Spectral Data<<<<<
178.53	0.000
178.91	71.429
179.29	-1000.000
179.67	-1000.000
180.04	157.143
180.42	150.000
180.80	240.000
181.18	-1300.000
181.56	0.000
181.94	175.000
182.31	125.000
182.69	333.333
183.07	-600.000
183.45	200.000
183.83	-116.667
184.20	-233.333
184.58	200.000
184.96	-200.000
185.34	11.111
185.72	-140.000
186.09	244.444
186.47	550.000
186.85	260.000
187.23	-144.444
187.61	-1500.000
187.98	260.000
188.36	350.000
188.74	-350.000
189.12	-333.333
189.49	-12.500
189.87	-150.000
190.25	-22.222
190.63	20.000
191.00	-144.444
191.38	0.000
191.76	-550.000
192.14	-133.333
192.51	700.000
192.89	-16.667
193.27	0.000
193.65	-114.286
194.02	-600.000
194.40	-85.714
194.78	171.429
195.15	0.000
195.53	-45.455
195.91	0.000
196.29	-225.000
196.66	-69.231
197.04	-800.000
197.42	-214.286
197.79	-300.000
198.17	-75.000
198.55	-42.857
198.92	55.556
199.30	-125.000
199.68	-45.455
200.05	-14.286
200.43	-650.000
200.81	214.286
201.18	0.000
201.56	122.222
201.94	0.000
202.31	166.667
202.69	-100.000
203.07	800.000
203.44	33.333
203.82	-200.000
204.19	-33.333
204.57	-183.333
204.95	-50.000
205.32	-900.000
205.70	300.000
206.08	-116.667
206.45	-83.333
206.83	380.000
207.20	0.000
207.58	-100.000
207.96	-266.667
208.33	-16.667
208.71	125.000
209.08	116.667
209.46	0.000
209.84	350.000
210.21	450.000
210.59	450.000
210.96	733.333
211.34	-75.000
211.71	62.500
212.09	-1200.000
212.46	0.000
212.84	1500.000
213.22	-260.000
213.59	-75.000
213.97	-50.000
214.34	-333.333
214.72	183.333
215.09	-350.000
215.47	0.000
215.84	157.143
216.22	950.000
216.59	-20.000
216.97	-40.000
217.34	150.000
217.72	-75.000
218.09	-150.000
218.47	0.000
218.84	0.000
219.22	-0.000
219.59	-58.824
219.97	-45.000
220.34	500.000
220.72	-55.556
221.09	-15.385
221.47	-200.000
221.84	-10.000
222.22	-100.000
222.59	0.000
222.97	-50.000
223.34	-240.000
223.72	-1600.000
224.09	-175.000
224.46	-350.000
224.84	-100.000
225.21	-42.857
225.59	-300.000
225.96	-275.000
226.34	-11.538
226.71	233.333
227.08	-250.000
227.46	-53.333
227.83	-225.000
228.21	10.526
228.58	62.500
228.95	1000.000
229.33	-25.000
229.70	-40.000
230.08	42.105
230.45	50.000
230.82	-133.333
231.20	-57.143
231.57	16.667
231.95	-127.273
232.32	-18.182
232.69	20.000
233.07	-200.000
233.44	-58.824
233.81	-80.000
234.19	11.111
234.56	-31.818
234.93	34.483
235.31	-42.105
235.68	-16.667
236.05	-80.000
236.43	42.308
236.80	28.000
237.17	11.111
237.55	3.030
237.92	-130.000
238.29	-29.032
238.67	-11.364
239.04	5.556
239.41	-16.667
239.79	13.043
240.16	-16.667
240.53	10.870
240.91	-7.843
241.28	4.918
241.65	28.358
242.02	16.216
242.40	-1.538
242.77	8.000
243.14	-3.659
243.51	15.789
243.89	6.410
244.26	19.802
244.63	23.529
245.00	12.150
245.38	16.667
245.75	5.310
246.12	19.841
246.49	12.403
246.87	17.143
247.24	15.894
247.61	23.026
247.98	20.805
248.36	17.901
248.73	11.043
249.10	14.754
249.47	22.388
249.84	25.131
250.22	19.171
250.59	22.222
250.96	22.273
251.33	17.347
251.70	23.932
252.08	21.667
252.45	18.443
252.82	19.421
253.19	19.531
253.56	17.871
253.94	20.000
254.31	26.894
254.68	21.329
255.05	23.453
255.42	17.007
255.79	20.065
256.16	20.861
256.54	17.219
256.91	20.328
257.28	21.311
257.65	20.064
258.02	18.879
258.39	21.083
258.76	23.853
259.14	22.126
259.51	19.020
259.88	20.680
260.25	20.278
260.62	21.918
260.99	22.951
261.36	21.984
261.73	20.690
262.10	18.956
262.47	17.694
262.85	25.000
263.22	18.961
263.59	17.632
263.96	18.926
264.33	21.739
264.70	23.210
265.07	22.673
265.44	24.036
265.81	21.528
266.18	20.181
266.55	21.652
266.92	20.729
267.29	23.414
267.66	21.286
268.03	21.834
268.40	20.668
268.77	21.412
269.14	18.502
269.51	23.246
269.88	21.516
270.25	21.730
270.62	20.675
270.99	22.020
271.36	20.990
271.73	18.468
272.10	24.248
272.47	21.042
272.84	21.285
273.21	22.044
273.58	20.565
273.95	19.808
274.32	19.582
274.69	19.729
275.06	22.344
275.43	17.190
275.80	21.340
276.17	19.630
276.54	22.388
276.91	21.467
277.28	21.519
277.65	21.185
278.02	18.934
278.39	21.196
278.76	19.332
279.13	21.809
279.50	18.729
279.87	20.751
280.23	17.077
280.60	21.017
280.97	23.026
281.34	20.883
281.71	21.151
282.08	21.262
282.45	20.458
282.82	21.350
283.19	18.740
283.56	20.656
283.92	21.622
284.29	21.643
284.66	21.182
285.03	19.551
285.40	20.556
285.77	18.885
286.14	21.069
286.51	20.244
286.87	19.273
287.24	21.536
287.61	16.891
287.98	19.637
288.35	19.231
288.72	18.787
289.08	21.962
289.45	18.195
289.82	17.620
290.19	19.971
290.56	17.746
290.93	21.683
291.29	19.835
291.66	18.320
292.03	17.368
292.40	19.048
292.77	17.925
293.13	17.591
293.50	17.608
293.87	17.181
294.24	19.600
294.60	17.699
294.97	18.389
295.34	17.414
295.71	17.907
296.08	17.054
296.44	18.995
296.81	16.931
297.18	16.687
297.55	15.448
297.91	16.726
298.28	15.758
298.65	19.263
299.02	16.057
299.38	16.018
299.75	16.121
300.12	15.278
300.48	16.820
300.85	15.636
301.22	17.002
301.59	16.210
301.95	16.723
302.32	16.444
302.69	16.210
303.05	16.213
303.42	16.519
303.79	15.937
304.15	15.878
304.52	15.962
304.89	16.859
305.25	16.460
305.62	15.465
305.99	15.773
306.35	15.222
306.72	15.822
307.09	14.416
307.45	16.874
307.82	15.641
308.19	15.338
308.55	15.622
308.92	14.800
309.29	14.847
309.65	16.179
310.02	14.752
310.38	14.370
310.75	15.049
311.12	15.820
311.48	14.956
311.85	14.720
312.22	14.516
312.58	15.305
312.95	13.767
313.31	15.537
313.68	14.652
314.05	16.079
314.41	14.390
314.78	14.260
315.14	14.247
315.51	16.066
315.87	15.212
316.24	16.073
316.61	15.986
316.97	13.937
317.34	14.638
317.70	16.507
318.07	14.991
318.43	15.561
318.80	14.883
319.16	13.906
319.53	14.310
319.89	15.513
320.26	15.125
320.62	14.450
320.99	15.143
321.35	14.787
321.72	14.233
322.08	14.518
322.45	15.808
322.81	14.531
323.18	14.248
323.54	15.000
323.91	16.281
324.27	14.544
324.64	16.121
325.00	16.003
325.37	15.971
325.73	15.207
326.10	16.058
326.46	14.821
326.83	15.532
327.19	15.669
327.56	16.917
327.92	15.421
328.29	14.516
328.65	14.740
329.01	15.482
329.38	14.827
329.74	15.325
330.11	15.240
330.47	14.406
330.84	15.159
331.20	15.583
331.56	14.905
331.93	15.900
332.29	14.831
332.66	15.532
333.02	14.908
333.38	14.513
333.75	15.236
334.11	16.180
334.48	15.429
334.84	15.293
335.20	14.610
335.57	15.261
335.93	14.959
336.29	15.058
336.66	14.214
337.02	14.799
337.38	14.796
337.75	14.463
338.11	15.307
338.47	15.633
338.84	14.213
339.20	14.153
339.56	14.827
339.93	15.271
340.29	15.539
340.65	13.625
341.02	15.403
341.38	15.683
341.74	14.286
342.11	14.722
342.47	14.694
342.83	15.137
343.20	14.473
343.56	15.317
343.92	14.732
344.28	16.094
344.65	13.953
345.01	14.899
345.37	15.319
345.73	13.952
346.10	15.211
346.46	14.082
346.82	14.757
347.19	14.668
347.55	15.554
347.91	14.413
348.27	14.643
348.63	14.395
349.00	14.765
349.36	14.572
349.72	13.393
350.08	14.487
350.45	13.840
350.81	14.781
351.17	13.459
351.53	14.936
351.89	14.958
352.26	13.731
352.62	13.955
352.98	13.817
353.34	14.040
353.70	14.253
354.07	14.903
354.43	12.756
354.79	13.912
355.15	14.275
355.51	15.643
355.87	14.585
356.24	14.297
356.60	13.082
356.96	14.010
357.32	14.126
357.68	13.763
358.04	14.222
358.40	13.881
358.77	13.523
359.13	13.368
359.49	12.416
359.85	12.908
360.21	13.845
360.57	13.424
360.93	13.188
361.29	13.263
361.66	13.613
362.02	14.057
362.38	13.493
362.74	13.478
363.10	13.893
363.46	13.435
363.82	13.565
364.18	13.300
364.54	13.140
364.90	13.244
365.26	12.828
365.62	13.667
365.98	13.547
366.35	13.356
366.71	14.218
367.07	13.464
367.43	13.920
367.79	14.599
368.15	13.378
368.51	13.938
368.87	13.586
369.23	14.000
369.59	13.456
369.95	13.387
370.31	14.652
370.67	12.861
371.03	13.366
371.39	13.499
371.75	13.961
372.11	13.008
372.47	13.676
372.83	13.874
373.19	13.276
373.55	13.550
373.91	12.134
374.27	14.230
374.63	13.194
374.99	12.865
375.35	13.571
375.71	13.097
376.07	13.363
376.42	13.728
376.78	13.487
377.14	13.600
377.50	13.156
377.86	13.608
378.22	12.635
378.58	13.377
378.94	13.791
379.30	12.185
379.66	13.404
380.02	13.503
380.38	13.249
380.74	14.535
381.09	13.473
381.45	13.068
381.81	13.934
382.17	13.658
382.53	13.333
382.89	13.657
383.25	12.603
383.61	12.384
383.97	13.486
384.32	12.321
384.68	12.645
385.04	13.071
385.40	14.084
385.76	13.013
386.12	13.226
386.48	13.588
386.83	13.349
387.19	12.862
387.55	12.148
387.91	13.014
388.27	12.991
388.62	12.371
388.98	12.408
389.34	12.905
389.70	12.725
390.06	13.914
390.42	13.072
390.77	13.666
391.13	12.441
391.49	13.043
391.85	13.152
392.20	12.930
392.56	13.526
392.92	13.413
393.28	13.267
393.64	12.346
393.99	13.306
394.35	13.259
394.71	12.874
395.07	12.575
395.42	13.021
395.78	13.467
396.14	13.547
396.50	11.995
396.85	12.999
397.21	12.426
397.57	13.074
397.92	12.944
398.28	12.439
398.64	13.158
399.00	12.618
399.35	13.298
399.71	13.152
400.07	12.914
400.42	12.922
400.78	13.079
401.14	13.375
401.49	12.905
401.85	13.140
402.21	13.152
402.57	13.380
402.92	13.298
403.28	12.939
403.63	12.351
403.99	13.183
404.35	12.905
404.70	13.144
405.06	12.935
405.42	13.407
405.77	13.304
406.13	12.750
406.49	12.669
406.84	12.798
407.20	13.807
407.55	12.296
407.91	12.445
408.27	13.604
408.62	13.496
408.98	12.943
409.34	12.082
409.69	13.412
410.05	13.716
410.40	13.515
410.76	12.844
411.11	12.858
411.47	13.145
411.83	13.110
412.18	13.675
412.54	12.745
412.89	12.980
413.25	12.528
413.60	12.751
413.96	13.636
414.31	13.598
414.67	13.894
415.03	12.246
415.38	13.178
415.74	13.256
416.09	13.510
416.45	12.837
416.80	12.913
417.16	12.963
417.51	12.765
417.87	12.630
418.22	13.892
418.58	12.515
418.93	13.446
419.29	13.748
419.64	12.965
420.00	12.938
420.35	12.970
420.71	13.096
421.06	12.248
421.42	13.131
421.77	13.301
422.12	13.372
422.48	12.494
422.83	13.034
423.19	13.210
423.54	13.219
423.90	13.031
424.25	13.547
424.61	12.801
424.96	13.454
425.31	13.429
425.67	13.258
426.02	12.673
426.38	13.261
426.73	12.444
427.09	13.552
427.44	13.381
427.79	12.935
428.15	12.443
428.50	12.753
428.85	12.113
429.21	13.298
429.56	12.586
429.92	13.661
430.27	12.819
430.62	12.702
430.98	12.395
431.33	13.343
431.68	12.261
432.04	13.713
432.39	12.480
432.74	12.842
433.10	13.250
433.45	12.876
433.80	13.036
434.16	13.275
434.51	12.436
434.86	13.355
435.22	13.177
435.57	12.441
435.92	13.133
436.28	12.912
436.63	13.108
436.98	13.151
437.34	12.740
437.69	12.053
438.04	12.903
438.39	13.326
438.75	12.839
439.10	13.055
439.45	13.359
439.81	12.655
440.16	13.351
440.51	12.598
440.86	12.952
441.22	12.755
441.57	13.417
441.92	12.949
442.27	13.535
442.63	13.612
442.98	13.287
443.33	11.678
443.68	13.776
444.03	13.829
444.39	12.945
444.74	13.834
445.09	12.975
445.44	13.593
445.79	13.410
446.15	14.491
446.50	13.695
446.85	13.765
447.20	13.588
447.55	13.494
447.91	13.141
448.26	12.526
448.61	13.603
448.96	13.466
449.31	12.990
449.66	13.290
450.02	14.030
450.37	13.053
450.72	13.186
451.07	13.212
451.42	13.923
451.77	14.175
452.12	13.544
452.47	13.310
452.83	13.739
453.18	12.668
453.53	13.383
453.88	13.473
454.23	12.994
454.58	13.987
454.93	13.410
455.28	13.546
455.63	13.530
455.98	14.302
456.34	12.956
456.69	13.521
457.04	14.066
457.39	13.359
457.74	14.094
458.09	13.180
458.44	13.685
458.79	13.048
459.14	14.001
459.49	13.526
459.84	14.008
460.19	13.104
460.54	13.913
460.89	14.399
461.24	11.954
461.59	12.894
461.94	13.006
462.29	14.054
462.64	12.553
462.99	13.371
463.34	13.692
463.69	13.130
464.04	13.285
464.39	13.341
464.74	13.056
465.09	13.495
465.44	13.788
465.79	13.538
466.14	13.653
466.49	12.947
466.84	13.223
467.19	14.104
467.54	13.514
467.89	13.276
468.24	13.241
468.59	12.739
468.94	12.995
469.29	13.077
469.64	12.587
469.99	12.747
470.34	13.676
470.68	13.739
471.03	14.014
471.38	13.277
471.73	12.679
472.08	14.023
472.43	13.486
472.78	14.043
473.13	13.527
473.48	13.958
473.83	14.510
474.17	13.892
474.52	12.989
474.87	14.286
475.22	13.690
475.57	13.915
475.92	14.087
476.27	13.951
476.61	13.551
476.96	13.556
477.31	14.356
477.66	14.166
478.01	13.218
478.36	13.310
478.70	14.335
479.05	14.162
479.40	14.067
479.75	14.553
480.10	14.306
480.45	14.129
480.79	13.741
481.14	14.522
481.49	14.175
481.84	14.317
482.19	14.452
482.53	14.386
482.88	14.134
483.23	13.739
483.58	13.144
483.92	13.874
484.27	13.463
484.62	13.903
484.97	14.502
485.31	12.883
485.66	13.206
486.01	12.798
486.36	12.934
486.70	13.455
487.05	13.609
487.40	13.652
487.75	13.868
488.09	13.525
488.44	13.810
488.79	14.165
489.13	13.650
489.48	13.786
489.83	13.843
490.17	13.811
490.52	13.834
490.87	13.917
491.22	13.908
491.56	14.206
491.91	14.435
492.26	14.236
492.60	14.036
492.95	14.085
493.30	14.119
493.64	13.666
493.99	13.860
494.34	13.371
494.68	13.619
495.03	13.921
495.37	14.647
495.72	14.240
496.07	14.505
496.41	14.114
496.76	14.512
497.11	13.970
497.45	14.199
497.80	14.749
498.14	13.878
498.49	14.017
498.84	14.808
499.18	13.990
499.53	14.753
499.87	14.637
500.22	13.402
500.56	14.170
500.91	14.005
501.26	14.818
501.60	14.494
501.95	14.503
502.29	14.173
502.64	14.123
502.98	14.150
503.33	13.823
503.67	13.868
504.02	14.229
504.36	14.567
504.71	14.194
505.06	13.915
505.40	14.077
505.75	14.481
506.09	14.365
506.44	14.253
506.78	14.541
507.13	14.753
507.47	14.306
507.82	15.294
508.16	14.340
508.51	13.924
508.85	14.832
509.19	15.159
509.54	14.890
509.88	14.522
510.23	14.862
510.57	15.031
510.92	14.562
511.26	14.141
511.61	14.582
511.95	14.690
512.30	15.559
512.64	14.593
512.98	15.508
513.33	15.071
513.67	14.635
514.02	15.125
514.36	14.834
514.70	14.271
515.05	14.129
515.39	14.121
515.74	14.634
516.08	15.055
516.42	15.123
516.77	14.406
517.11	14.234
517.46	14.899
517.80	15.179
518.14	15.615
518.49	15.510
518.83	14.795
519.17	14.755
519.52	14.727
519.86	15.100
520.20	15.069
520.55	14.074
520.89	14.809
521.23	15.466
521.58	15.819
521.92	15.127
522.26	14.605
522.61	14.815
522.95	15.167
523.29	15.115
523.64	15.471
523.98	14.775
524.32	15.931
524.66	15.026
525.01	15.402
525.35	14.934
525.69	14.327
526.04	14.524
526.38	15.460
526.72	15.975
527.06	15.191
527.41	15.394
527.75	15.914
528.09	14.817
528.43	15.098
528.78	15.318
529.12	14.507
529.46	14.840
529.80	14.989
530.15	15.478
530.49	15.065
530.83	14.699
531.17	15.591
531.51	15.523
531.86	15.024
532.20	14.817
532.54	14.961
532.88	14.848
533.22	16.205
533.57	15.349
533.91	15.825
534.25	14.980
534.59	15.632
534.93	14.771
535.27	15.324
535.62	15.463
535.96	14.759
536.30	15.217
536.64	15.195
536.98	15.744
537.32	15.802
537.66	15.783
538.01	14.985
538.35	14.982
538.69	15.685
539.03	15.512
539.37	15.253
539.71	15.135
540.05	15.228
540.39	14.731
540.73	15.179
541.07	15.205
541.42	15.239
541.76	15.480
542.10	14.897
542.44	14.921
542.78	16.119
543.12	15.495
543.46	14.835
543.80	13.729
544.14	14.901
544.48	14.539
544.82	15.679
545.16	14.908
545.50	15.159
545.84	15.248
546.18	15.556
546.52	15.541
546.86	16.352
547.20	15.076
547.54	15.169
547.88	14.467
548.22	14.971
548.56	14.394
548.90	15.403
549.24	14.347
549.58	14.763
549.92	15.816
550.26	14.822
550.60	15.316
550.94	15.589
551.28	15.710
551.62	16.105
551.96	15.340
552.30	16.189
552.64	15.930
552.98	15.346
553.32	15.370
553.66	15.691
554.00	15.826
554.34	15.766
554.68	15.042
555.02	15.243
555.36	16.108
555.69	15.823
556.03	15.006
556.37	16.646
556.71	15.599
557.05	15.463
557.39	15.594
557.73	15.654
558.07	16.490
558.41	15.415
558.75	16.160
559.08	15.031
559.42	15.569
559.76	15.807
560.10	15.874
560.44	15.303
560.78	15.750
561.12	15.209
561.45	16.241
561.79	15.507
562.13	15.219
562.47	15.105
562.81	16.013
563.15	15.467
563.48	15.538
563.82	14.571
564.16	15.082
564.50	15.495
564.84	15.221
565.17	15.118
565.51	15.305
565.85	15.321
566.19	14.343
566.52	15.214
566.86	14.884
567.20	14.899
567.54	14.764
567.88	14.883
568.21	15.267
568.55	15.012
568.89	14.389
569.23	14.829
569.56	14.381
569.90	14.647
570.24	14.030
570.57	13.919
570.91	14.391
571.25	13.711
571.59	14.333
571.92	14.099
572.26	14.346
572.60	13.814
572.93	13.916
573.27	14.021
573.61	13.896
573.95	14.033
574.28	13.829
574.62	13.597
574.96	13.366
575.29	13.527
575.63	13.883
575.97	14.251
576.30	13.768
576.64	13.791
576.98	13.622
577.31	13.535
577.65	13.702
577.98	13.309
578.32	13.366
578.66	13.249
578.99	13.619
579.33	13.273
579.67	13.463
580.00	13.351
580.34	13.176
580.67	13.350
581.01	13.544
581.35	13.287
581.68	13.487
582.02	13.388
582.35	13.663
582.69	13.548
583.02	13.437
583.36	13.986
583.70	13.611
584.03	13.799
584.37	13.577
584.70	13.521
585.04	13.787
585.37	13.080
585.71	13.657
586.04	13.738
586.38	13.695
586.72	12.911
587.05	13.251
587.39	13.737
587.72	13.589
588.06	13.975
588.39	13.766
588.73	14.365
589.06	13.911
589.40	13.952
589.73	14.171
590.07	14.092
590.40	14.300
590.73	14.069
591.07	13.999
591.40	14.191
591.74	13.553
592.07	14.616
592.41	14.590
592.74	14.093
593.08	14.395
593.41	13.969
593.75	13.592
594.08	13.693
594.41	14.583
594.75	14.048
595.08	13.930
595.42	13.961
595.75	14.078
596.09	14.504
596.42	13.866
596.75	13.933
597.09	14.424
597.42	14.581
597.75	14.426
598.09	14.841
598.42	14.113
598.76	14.138
599.09	14.062
599.42	13.275
599.76	14.394
600.09	13.947
600.42	14.047
600.76	13.838
601.09	13.541
601.42	13.594
601.76	13.966
602.09	13.760
602.42	13.813
602.76	13.690
603.09	13.546
603.42	13.656
603.76	13.566
604.09	14.123
604.42	14.092
604.76	14.346
605.09	14.200
605.42	14.035
605.75	13.808
606.09	13.923
606.42	13.718
606.75	14.018
607.09	13.940
607.42	14.605
607.75	13.951
608.08	13.773
608.42	13.865
608.75	14.552
609.08	14.643
609.41	14.071
609.75	14.018
610.08	14.600
610.41	14.528
610.74	14.370
611.07	14.831
611.41	15.022
611.74	14.781
612.07	14.446
612.40	14.306
612.73	14.132
613.07	14.377
613.40	15.255
613.73	14.685
614.06	14.475
614.39	14.723
614.72	13.877
615.06	14.485
615.39	14.065
615.72	14.408
616.05	13.987
616.38	15.035
616.71	14.002
617.05	14.164
617.38	15.088
617.71	15.011
618.04	14.841
618.37	15.246
618.70	15.158
619.03	14.576
619.36	15.166
619.69	15.375
620.03	14.626
620.36	14.663
620.69	14.991
621.02	15.223
621.35	16.038
621.68	15.980
622.01	15.516
622.34	14.296
622.67	14.433
623.00	14.305
623.33	15.594
623.66	15.435
623.99	14.417
624.32	16.374
624.65	15.573
624.99	15.215
625.32	15.937
625.65	15.981
625.98	14.373
626.31	16.230
626.64	15.165
626.97	14.479
627.30	15.566
627.63	15.304
627.96	16.066
628.29	15.875
628.62	14.777
628.95	15.600
629.28	15.718
629.61	15.236
629.94	13.556
630.26	16.271
630.59	15.199
630.92	15.152
631.25	16.547
631.58	16.102
631.91	17.057
632.24	16.234
632.57	16.319
632.90	15.848
633.23	17.041
633.56	16.224
633.89	16.116
634.22	16.320
634.55	17.223
634.88	15.909
635.20	17.438
635.53	18.644
635.86	16.901
636.19	17.497
636.52	16.350
636.85	16.241
637.18	16.112
637.51	16.559
637.83	16.501
638.16	17.051
638.49	15.610
638.82	15.333
639.15	16.037
639.48	17.552
639.81	17.090
640.13	18.139
640.46	15.030
640.79	16.299
641.12	16.770
641.45	17.064
641.77	18.228
642.10	17.454
642.43	18.218
642.76	18.157
643.09	15.479
643.41	17.647
643.74	16.138
644.07	19.586
644.40	16.690
644.73	17.707
645.05	17.327
645.38	17.986
645.71	15.836
646.04	18.364
646.36	15.036
646.69	17.025
647.02	18.807
647.35	18.779
647.67	16.425
648.00	16.561
648.33	18.018
648.66	16.262
648.98	17.823
649.31	16.103
649.64	15.538
649.96	17.374
650.29	13.908
650.62	15.276
650.94	16.517
651.27	14.671
651.60	16.228
651.92	18.085
652.25	17.656
652.58	16.231
652.90	15.262
653.23	17.746
653.56	17.689
653.88	17.978
654.21	16.056
654.54	16.618
654.86	18.130
655.19	17.189
655.52	15.164
655.84	12.619
656.17	14.955
656.49	21.195
656.82	23.577
657.15	18.409
657.47	14.002
657.80	10.322
658.13	8.320
658.45	10.837
658.78	13.128
659.10	12.857
659.43	12.986
659.75	13.579
660.08	13.277
660.41	14.061
660.73	14.823
661.06	14.831
661.38	16.746
661.71	16.897
662.03	16.755
662.36	16.816
662.68	16.698
663.01	16.460
663.33	19.471
663.66	20.147
663.98	17.308
664.31	16.510
664.63	15.800
664.96	19.601
665.28	14.156
665.61	20.629
665.93	16.250
666.26	18.100
666.58	17.528
666.91	19.252
667.23	17.714
667.56	16.765
667.88	17.000
668.21	16.016
668.53	16.409
668.86	15.717
669.18	18.126
669.50	17.097
669.83	18.200
670.15	16.929
670.48	17.857
670.80	14.340
671.13	17.013
671.45	16.535
671.77	16.573
672.10	15.167
672.42	16.181
672.75	15.515
673.07	14.328
673.39	15.254
673.72	16.611
674.04	16.207
674.37	17.531
674.69	17.813
675.01	16.381
675.34	14.885
675.66	16.667
675.98	16.978
676.31	19.336
676.63	18.441
676.95	17.816
677.28	15.121
677.60	14.961
677.92	16.699
678.25	14.991
678.57	16.370
678.89	18.601
679.22	16.551
679.54	16.752
679.86	15.085
680.18	15.257
680.51	14.465
680.83	16.039
681.15	14.310
681.48	17.444
681.80	17.962
682.12	17.133
682.44	15.526
682.77	14.362
683.09	16.288
683.41	17.829
683.73	16.319
684.06	16.236
684.38	12.522
684.70	16.158
685.02	17.040
685.34	16.306
685.67	14.038
685.99	14.877
686.31	15.116
686.63	15.640
686.96	15.300
687.28	14.658
687.60	12.290
687.92	15.113
688.24	13.689
688.56	12.931
688.89	15.426
689.21	16.830
689.53	14.118
689.85	14.793
690.17	15.000
690.49	17.928
690.82	16.238
691.14	13.968
691.46	16.635
691.78	16.206
692.10	15.413
692.42	13.750
692.74	15.789
693.06	13.889
693.39	15.370
693.71	15.977
694.03	15.799
694.35	15.810
694.67	15.195
694.99	14.681
695.31	12.362
695.63	16.450
695.95	14.079
696.27	14.945
696.59	14.381
696.91	16.216
697.23	17.363
697.56	16.701
697.88	13.068
698.20	14.878
698.52	15.909
698.84	16.840
699.16	19.388
699.48	18.410
699.80	14.043
700.12	16.157
700.44	14.977
700.76	16.152
701.08	17.918
701.40	16.062
701.72	15.174
702.04	16.310
702.36	14.136
702.68	16.626
703.00	14.181
703.32	15.025
703.64	17.359
703.96	15.990
704.28	16.953
704.60	18.481
704.91	13.776
705.23	14.521
705.55	16.992
705.87	19.697
706.19	16.871
706.51	13.253
706.83	14.121
707.15	14.550
707.47	16.121
707.79	16.157
708.11	10.805
708.43	14.409
708.74	12.723
709.06	15.545
709.38	17.606
709.70	16.873
710.02	13.695
710.34	17.553
710.66	14.525
710.98	15.027
711.29	13.462
711.61	14.689
711.93	13.390
712.25	15.135
712.57	19.174
712.89	15.588
713.20	14.497
713.52	16.185
713.84	14.763
714.16	19.211
714.48	15.979
714.80	18.701
715.11	12.861
715.43	13.263
715.75	13.421
716.07	15.470
716.39	16.940
716.70	15.663
717.02	19.344
717.34	16.376
717.66	20.805
717.97	12.671
718.29	15.120
718.61	14.145
718.93	15.534
719.24	15.839
719.56	12.270
719.88	12.312
720.20	12.258
720.51	17.702
720.83	14.375
721.15	16.118
721.46	14.384
721.78	16.333
722.10	12.298
722.42	12.416
722.73	11.613
723.05	20.000
723.37	13.889
723.68	17.204
724.00	14.079
724.32	13.028
724.63	15.734
724.95	16.667
725.27	16.725
725.58	12.367
725.90	18.621
726.22	14.734
726.53	14.286
726.85	17.610
727.16	13.293
727.48	15.902
727.80	14.901
728.11	10.601
728.43	17.845
728.74	14.381
729.06	16.225
729.38	16.234
729.69	11.409
730.01	16.964
730.32	13.939
730.64	15.094
730.96	11.180
731.27	13.966
731.59	13.462
731.90	12.727
732.22	13.802
732.53	10.497
732.85	12.286
733.16	12.317
733.48	8.841
733.80	14.206
734.11	15.100
734.43	16.486
734.74	17.975
735.06	14.070
735.37	15.676
735.69	15.946
736.00	15.254
736.32	11.860
736.63	13.889
736.95	13.506
737.26	11.818
737.58	12.727
737.89	17.941
738.21	11.927
738.52	12.787
738.83	13.652
739.15	12.411
739.46	14.286
739.78	14.110
740.09	13.467
740.41	16.035
740.72	13.667
741.04	16.505
741.35	16.140
741.66	10.980
741.98	13.934
742.29	14.644
742.61	17.105
742.92	16.538
743.23	15.162
743.55	13.178
743.86	11.600
744.18	7.851
744.49	9.283
744.80	21.399
745.12	17.300
745.43	11.789
745.74	16.379
746.06	17.797
746.37	14.768
746.68	19.919
747.00	15.417
747.31	17.167
747.62	15.769
747.94	18.623
748.25	8.434
748.56	9.796
748.88	14.530
749.19	13.793
749.50	13.420
749.82	17.671
750.13	13.523
750.44	9.667
750.75	13.846
751.07	13.231
751.38	16.404
751.69	15.016
752.01	14.563
752.32	11.438
752.63	14.626
752.94	16.263
753.26	10.037
753.57	13.333
753.88	12.360
754.19	13.505
754.51	14.148
754.82	12.862
755.13	14.426
755.44	12.628
755.75	15.461
756.07	18.507
756.38	12.579
756.69	14.759
757.00	11.634
757.31	13.661
757.63	11.253
757.94	13.850
758.25	11.738
758.56	15.904
758.87	12.727
759.18	14.133
759.50	15.297
759.81	16.246
760.12	13.477
760.43	14.323
760.74	15.025
761.05	12.750
761.36	12.289
761.67	13.452
761.99	12.162
762.30	12.195
762.61	10.231
762.92	10.075
763.23	14.232
763.54	9.712
763.85	12.371
764.16	12.795
764.47	13.380
764.78	10.543
765.10	12.317
765.41	16.410
765.72	11.111
766.03	15.537
766.34	13.166
766.65	10.801
766.96	11.155
767.27	14.747
767.58	5.970
767.89	16.346
768.20	11.737
768.51	7.870
768.82	11.647
769.13	12.879
769.44	7.308
769.75	13.718
770.06	15.769
770.37	12.598
770.68	8.936
770.99	6.883
771.30	15.926
771.61	9.506
771.92	9.630
772.23	13.360
772.54	10.648
772.85	18.894
773.16	15.714
773.47	7.407
773.78	9.189
774.09	17.045
774.39	20.000
774.70	13.115
775.01	3.659
775.32	9.412
775.63	12.883
775.94	5.732
776.25	13.548
776.56	17.949
776.87	12.925
777.18	11.724
777.48	9.790
777.79	4.730
778.10	2.206
778.41	11.111
778.72	13.103
779.03	22.840
779.34	10.909
779.65	13.472
779.95	8.889
780.26	10.227
780.57	7.742
780.88	18.841
781.19	12.903
781.50	12.353
781.80	12.903
782.11	15.873
782.42	7.071
782.73	8.383
783.04	11.173
783.34	8.485
783.65	14.379
783.96	16.149
784.27	9.524
784.57	9.934
784.88	12.857
785.19	11.024
785.50	13.386
785.81	9.023
786.11	11.538
786.42	3.597
786.73	6.475
787.04	12.030
787.34	4.098
787.65	12.000
787.96	7.463
788.26	15.385
788.57	19.580
788.88	16.447
789.19	19.608
789.49	15.753
789.80	12.057
790.11	8.661
790.41	5.469
790.72	10.169
791.03	6.796
791.33	12.174
791.64	12.281
791.95	9.821
792.25	6.667
792.56	8.036
792.87	5.208
793.17	14.286
793.48	7.292
793.79	-9.639
794.09	1.835
794.40	6.422
794.70	6.803
795.01	3.896
795.32	17.123
795.62	4.225
795.93	8.333
796.23	13.115
796.54	0.000
796.85	2.128
797.15	8.696
797.46	2.740
797.76	-1.250
798.07	3.261
798.37	-7.216
798.68	3.896
798.99	2.299
799.29	6.742
799.60	3.191
799.90	2.410
800.21	-4.615
800.51	-2.985
800.82	-5.882
801.12	-2.740
801.43	1.471
801.73	0.000
802.04	4.545
802.34	1.667
802.65	-1.695
802.95	-2.985
803.26	-11.864
803.56	0.000
803.87	7.143
804.17	17.808
804.48	5.263
804.78	9.722
805.09	-18.966
805.39	2.703
805.70	-8.451
806.00	21.951
806.30	10.843
806.61	-6.849
806.91	6.731
807.22	6.667
807.52	-3.448
807.83	12.500
808.13	14.458
808.43	2.247
808.74	3.750
809.04	-1.471
809.35	-2.667
809.65	1.429
809.95	23.288
810.26	-7.018
810.56	6.897
810.86	17.647
811.17	1.754
811.47	-3.279
811.77	-26.667
812.08	-3.390
812.38	11.667
812.69	-1.724
812.99	0.000
813.29	-10.256
813.59	10.000
813.90	1.754
814.20	1.818
814.50	21.127
814.81	-2.564
815.11	11.475
815.41	11.940
815.72	20.690
816.02	-7.143
816.32	0.000
816.62	18.182
816.93	2.222
817.23	0.000
817.53	-14.894
817.84	11.905
818.14	5.882
818.44	4.082
818.74	8.889
819.04	5.128
819.35	-31.429
819.65	-65.385
819.95	9.434
820.25	22.222
820.56	4.762
820.86	-6.250
821.16	-15.385
821.46	-6.977
821.76	-22.000
822.07	0.000
822.37	4.348
822.67	19.149
822.97	-10.811
823.27	10.000
823.57	-2.041
823.88	-8.889
824.18	-2.500
824.48	-6.667
824.78	-12.000
825.08	-21.212
825.38	15.556
825.69	8.511
825.99	2.778
826.29	-20.000
826.59	12.821
826.89	-23.256
827.19	0.000
827.49	-20.588
827.79	16.667
828.09	-5.405
828.39	6.667
828.70	0.000
829.00	-18.605
829.30	-53.571
829.60	11.765
829.90	13.043
830.20	-14.286
830.50	-3.448
830.80	-33.333
831.10	-26.923
831.40	-5.882
831.70	-4.762
832.00	29.032
832.30	-135.294
832.60	-45.833
832.90	-123.077
833.20	-10.526
833.50	-20.000
833.80	-78.947
834.10	-109.524
834.40	16.667
834.70	9.375
835.00	-20.000
835.30	-5.882
835.60	-3.333
835.90	0.000
836.20	-59.091
836.50	-12.000
836.80	-3.030
837.10	0.000
837.40	-29.630
837.70	-100.000
838.00	14.286
838.30	-39.130
838.60	0.000
838.90	-28.571
839.19	-95.652
839.49	-83.333
839.79	-26.087
840.09	-75.000
840.39	-25.000
840.69	22.581
840.99	-50.000
841.29	13.333
841.59	-21.053
841.88	20.513
842.18	-26.923
842.48	-40.000
842.78	10.000
843.08	-13.333
843.38	16.129
843.68	-5.556
843.97	-8.824
844.27	-31.250
844.57	-57.895
844.87	-180.000
845.17	-80.000
845.47	-38.095
845.76	-71.429
846.06	-55.556
846.36	-52.941
846.66	-38.462
846.96	-46.667
847.25	-41.176
847.55	39.130
847.85	-30.000
848.15	-47.059
848.44	-90.909
848.74	-23.810
849.04	-16.667
849.34	-87.500
849.63	-39.130
849.93	500.000
850.23	6.667
850.53	19.231
850.82	-27.273
851.12	0.000
851.42	-36.364
851.71	61.538
852.01	0.000
852.31	-100.000
852.61	-52.632
852.90	-25.000
853.20	-5.556
853.50	-88.889
853.79	-33.333
854.09	-22.727
854.39	-125.000
854.68	-25.806
854.98	-23.077
855.28	-44.444
855.57	-25.000
855.87	-20.000
856.17	-9.091
856.46	-29.630
856.76	-50.000
857.05	-26.087
857.35	-33.333
857.65	-15.385
857.94	4.762
858.24	-3.704
858.53	-30.435
858.83	-29.412
859.13	17.647
859.42	-47.059
859.72	-21.429
860.01	-5.000
860.31	-77.778
860.60	-30.000
860.90	6.667
861.20	-33.333
861.49	-84.615
861.79	-16.667
862.08	-61.538
862.38	28.125
862.67	-11.765
862.97	-12.500
863.26	-133.333
863.56	0.000
863.85	-90.909
864.15	0.000
864.44	-333.333
864.74	-50.000
865.03	-31.250
865.33	-130.000
865.62	-32.258
865.92	-22.727
866.21	21.739
866.51	-14.286
866.80	-520.000
867.10	-175.000
867.39	-133.333
867.69	2000.000
867.98	-228.571
868.27	-47.059
868.57	-1600.000
868.86	-180.000
869.16	-47.619
869.45	25.000
869.75	-27.273
870.04	-142.857
870.33	41.667
870.63	-200.000
870.92	100.000
871.22	-175.000
871.51	-100.000
871.80	-533.333
872.10	-400.000
>>>>>End Processed Spectral Data<<<<<
