SpectraSuite Data File
++++++++++++++++++++++++++++++++++++
Date: Thu May 14 16:06:24 PDT 2015
User: schluterlab
Dark Spectrum Present: Yes
Reference Spectrum Present: Yes
Number of Sampled Component Spectra: 1
Spectrometers: USB2E3373
Integration Time (usec): 3000 (USB2E3373)
Spectra Averaged: 3 (USB2E3373)
Boxcar Smoothing: 0 (USB2E3373)
Correct for Electrical Dark: No (USB2E3373)
Strobe/Lamp Enabled: No (USB2E3373)
Correct for Detector Non-linearity: No (USB2E3373)
Correct for Stray Light: No (USB2E3373)
Number of Pixels in Processed Spectrum: 2048
>>>>>Begin Processed Spectral Data<<<<<
178.53	0.000
178.91	228.571
179.29	-2300.000
179.67	-1400.000
180.04	242.857
180.42	160.000
180.80	300.000
181.18	-1500.000
181.56	-500.000
181.94	300.000
182.31	-200.000
182.69	533.333
183.07	50.000
183.45	375.000
183.83	-283.333
184.20	-733.333
184.58	1800.000
184.96	-425.000
185.34	-166.667
185.72	-200.000
186.09	211.111
186.47	950.000
186.85	420.000
187.23	-200.000
187.61	-2200.000
187.98	340.000
188.36	525.000
188.74	-350.000
189.12	-366.667
189.49	-31.250
189.87	-225.000
190.25	-100.000
190.63	-140.000
191.00	-144.444
191.38	0.000
191.76	-525.000
192.14	-183.333
192.51	100.000
192.89	-166.667
193.27	0.000
193.65	-200.000
194.02	-3000.000
194.40	-128.571
194.78	57.143
195.15	0.000
195.53	-118.182
195.91	0.000
196.29	-200.000
196.66	-123.077
197.04	-2200.000
197.42	-200.000
197.79	-850.000
198.17	-200.000
198.55	-100.000
198.92	-166.667
199.30	-275.000
199.68	-45.455
200.05	-42.857
200.43	-600.000
200.81	314.286
201.18	0.000
201.56	333.333
201.94	0.000
202.31	600.000
202.69	-133.333
203.07	1500.000
203.44	-155.556
203.82	-400.000
204.19	-183.333
204.57	-300.000
204.95	-225.000
205.32	-2100.000
205.70	275.000
206.08	-133.333
206.45	-100.000
206.83	500.000
207.20	0.000
207.58	-220.000
207.96	-250.000
208.33	-133.333
208.71	141.667
209.08	-133.333
209.46	0.000
209.84	350.000
210.21	500.000
210.59	800.000
210.96	633.333
211.34	-25.000
211.71	-125.000
212.09	-1300.000
212.46	0.000
212.84	1150.000
213.22	-500.000
213.59	-350.000
213.97	-70.000
214.34	-633.333
214.72	400.000
215.09	-525.000
215.47	0.000
215.84	328.571
216.22	900.000
216.59	-140.000
216.97	-140.000
217.34	-250.000
217.72	-87.500
218.09	-275.000
218.47	-550.000
218.84	0.000
219.22	240.000
219.59	-29.412
219.97	5.000
220.34	550.000
220.72	-144.444
221.09	-84.615
221.47	-466.667
221.84	-20.000
222.22	-214.286
222.59	0.000
222.97	-162.500
223.34	-320.000
223.72	-1500.000
224.09	-325.000
224.46	-350.000
224.84	-340.000
225.21	-342.857
225.59	-425.000
225.96	-250.000
226.34	-11.538
226.71	250.000
227.08	-850.000
227.46	13.333
227.83	-475.000
228.21	-52.632
228.58	212.500
228.95	700.000
229.33	-100.000
229.70	-180.000
230.08	-5.263
230.45	250.000
230.82	-533.333
231.20	-57.143
231.57	-116.667
231.95	-90.909
232.32	-18.182
232.69	-55.000
233.07	-575.000
233.44	-35.294
233.81	-140.000
234.19	-38.889
234.56	-40.909
234.93	-17.241
235.31	-94.737
235.68	-61.111
236.05	-105.000
236.43	30.769
236.80	36.000
237.17	3.704
237.55	0.000
237.92	-150.000
238.29	-32.258
238.67	-13.636
239.04	-11.111
239.41	-9.524
239.79	-15.217
240.16	-9.259
240.53	-15.217
240.91	-19.608
241.28	-4.918
241.65	2.985
242.02	10.811
242.40	0.000
242.77	0.000
243.14	-9.756
243.51	-7.895
243.89	-10.256
244.26	17.822
244.63	3.922
245.00	11.215
245.38	11.404
245.75	0.000
246.12	6.349
246.49	8.527
246.87	12.143
247.24	11.921
247.61	13.816
247.98	11.409
248.36	9.259
248.73	6.748
249.10	11.475
249.47	23.383
249.84	21.466
250.22	15.544
250.59	9.444
250.96	16.364
251.33	10.204
251.70	17.521
252.08	14.583
252.45	14.754
252.82	11.983
253.19	11.719
253.56	17.871
253.94	12.308
254.31	17.803
254.68	19.580
255.05	17.590
255.42	14.626
255.79	13.592
256.16	16.225
256.54	14.570
256.91	14.426
257.28	16.066
257.65	17.197
258.02	15.339
258.39	17.664
258.76	19.878
259.14	21.552
259.51	17.579
259.88	14.448
260.25	16.944
260.62	18.356
260.99	19.126
261.36	16.086
261.73	15.650
262.10	17.582
262.47	15.550
262.85	21.212
263.22	16.104
263.59	12.632
263.96	17.391
264.33	20.972
264.70	17.531
265.07	19.093
265.44	19.728
265.81	18.519
266.18	19.955
266.55	16.964
266.92	18.907
267.29	20.569
267.66	18.847
268.03	17.686
268.40	17.745
268.77	17.995
269.14	15.419
269.51	17.982
269.88	19.467
270.25	17.505
270.62	19.620
270.99	18.990
271.36	18.416
271.73	17.485
272.10	20.040
272.47	18.637
272.84	18.273
273.21	15.832
273.58	20.161
273.95	17.115
274.32	16.160
274.69	17.602
275.06	18.315
275.43	16.081
275.80	17.813
276.17	17.037
276.54	18.657
276.91	16.279
277.28	17.902
277.65	20.287
278.02	17.279
278.39	18.116
278.76	17.399
279.13	16.135
279.50	18.385
279.87	16.816
280.23	13.908
280.60	18.136
280.97	16.776
281.34	16.638
281.71	18.951
282.08	16.777
282.45	16.858
282.82	18.053
283.19	16.478
283.56	17.049
283.92	19.069
284.29	18.325
284.66	16.913
285.03	15.705
285.40	17.002
285.77	17.647
286.14	18.626
286.51	17.352
286.87	16.904
287.24	18.373
287.61	15.396
287.98	17.221
288.35	15.385
288.72	16.864
289.08	16.837
289.45	14.497
289.82	15.211
290.19	16.379
290.56	15.493
290.93	16.833
291.29	18.182
291.66	15.152
292.03	16.689
292.40	17.687
292.77	14.555
293.13	16.103
293.50	14.586
293.87	14.899
294.24	16.800
294.60	15.297
294.97	15.302
295.34	17.029
295.71	14.124
296.08	15.633
296.44	14.216
296.81	14.982
297.18	12.827
297.55	12.972
297.91	14.235
298.28	13.507
298.65	14.269
299.02	15.348
299.38	14.302
299.75	13.318
300.12	13.426
300.48	13.479
300.85	14.398
301.22	15.324
301.59	12.215
301.95	14.802
302.32	14.778
302.69	13.910
303.05	14.581
303.42	14.412
303.79	13.125
304.15	15.037
304.52	14.693
304.89	13.822
305.25	15.010
305.62	15.465
305.99	14.227
306.35	13.911
306.72	14.891
307.09	13.299
307.45	14.596
307.82	13.925
308.19	14.430
308.55	16.104
308.92	14.411
309.29	15.038
309.65	15.107
310.02	14.257
310.38	14.469
310.75	15.146
311.12	15.724
311.48	15.347
311.85	15.005
312.22	16.224
312.58	15.869
312.95	15.488
313.31	17.254
313.68	16.758
314.05	18.067
314.41	18.397
314.78	16.712
315.14	16.878
315.51	16.620
315.87	19.532
316.24	18.174
316.61	19.183
316.97	19.548
317.34	19.136
317.70	20.000
318.07	19.400
318.43	21.429
318.80	20.987
319.16	21.202
319.53	20.223
319.89	22.436
320.26	22.509
320.62	21.809
320.99	22.253
321.35	22.366
321.72	23.907
322.08	24.707
322.45	24.210
322.81	23.375
323.18	25.575
323.54	25.776
323.91	25.801
324.27	24.441
324.64	26.196
325.00	26.368
325.37	26.454
325.73	27.686
326.10	28.224
326.46	28.583
326.83	30.104
327.19	28.583
327.56	30.593
327.92	30.685
328.29	30.161
328.65	30.653
329.01	32.318
329.38	32.266
329.74	32.277
330.11	34.932
330.47	33.614
330.84	33.333
331.20	33.500
331.56	33.969
331.93	33.891
332.29	34.746
332.66	34.136
333.02	32.831
333.38	33.138
333.75	33.502
334.11	34.779
334.48	34.653
334.84	35.344
335.20	33.753
335.57	35.160
335.93	34.711
336.29	33.860
336.66	34.903
337.02	34.030
337.38	35.799
337.75	34.463
338.11	36.669
338.47	35.649
338.84	34.095
339.20	34.541
339.56	35.173
339.93	35.632
340.29	34.944
340.65	34.550
341.02	36.073
341.38	35.408
341.74	33.737
342.11	34.433
342.47	33.598
342.83	35.668
343.20	36.141
343.56	34.162
343.92	34.668
344.28	34.688
344.65	35.504
345.01	34.789
345.37	35.537
345.73	34.139
346.10	35.257
346.46	34.889
346.82	34.906
347.19	34.607
347.55	35.736
347.91	35.513
348.27	35.129
348.63	34.577
349.00	34.825
349.36	34.424
349.72	34.301
350.08	34.844
350.45	34.677
350.81	34.992
351.17	34.361
351.53	35.102
351.89	34.093
352.26	34.179
352.62	33.806
352.98	34.427
353.34	33.682
353.70	36.441
354.07	35.320
354.43	35.232
354.79	34.630
355.15	35.026
355.51	35.307
355.87	35.079
356.24	34.677
356.60	35.107
356.96	35.137
357.32	34.349
357.68	34.480
358.04	34.132
358.40	32.612
358.77	34.576
359.13	35.229
359.49	33.829
359.85	34.373
360.21	32.999
360.57	34.027
360.93	34.344
361.29	35.579
361.66	34.685
362.02	35.769
362.38	34.996
362.74	34.916
363.10	34.525
363.46	34.626
363.82	34.801
364.18	36.031
364.54	34.716
364.90	35.452
365.26	34.207
365.62	35.067
365.98	34.649
366.35	37.047
366.71	35.510
367.07	34.844
367.43	35.982
367.79	36.165
368.15	36.120
368.51	35.386
368.87	34.357
369.23	35.067
369.59	35.519
369.95	35.227
370.31	35.179
370.67	35.007
371.03	35.180
371.39	34.856
371.75	36.589
372.11	35.569
372.47	34.597
372.83	35.668
373.19	35.690
373.55	34.824
373.91	35.242
374.27	34.799
374.63	35.386
374.99	34.151
375.35	35.779
375.71	36.258
376.07	35.249
376.42	35.202
376.78	35.861
377.14	35.246
377.50	35.927
377.86	36.330
378.22	35.569
378.58	36.088
378.94	36.092
379.30	35.267
379.66	36.273
380.02	35.718
380.38	36.521
380.74	35.437
381.09	36.121
381.45	35.114
381.81	36.885
382.17	35.392
382.53	36.023
382.89	34.368
383.25	35.580
383.61	35.185
383.97	35.159
384.32	35.945
384.68	35.615
385.04	36.669
385.40	37.301
385.76	37.104
386.12	35.787
386.48	35.471
386.83	36.293
387.19	35.863
387.55	35.329
387.91	35.788
388.27	35.508
388.62	34.937
388.98	35.759
389.34	36.181
389.70	35.677
390.06	35.524
390.42	36.627
390.77	36.905
391.13	35.387
391.49	36.111
391.85	35.576
392.20	36.240
392.56	35.381
392.92	34.951
393.28	35.876
393.64	34.078
393.99	35.503
394.35	36.273
394.71	36.287
395.07	35.988
395.42	35.465
395.78	37.355
396.14	35.948
396.50	36.164
396.85	35.122
397.21	34.852
397.57	34.923
397.92	35.968
398.28	34.927
398.64	35.469
399.00	34.188
399.35	34.921
399.71	36.087
400.07	36.103
400.42	35.506
400.78	35.995
401.14	35.800
401.49	35.190
401.85	36.453
402.21	36.501
402.57	34.859
402.92	36.229
403.28	34.660
403.63	35.084
403.99	34.561
404.35	34.963
404.70	35.524
405.06	34.946
405.42	34.953
405.77	35.442
406.13	34.738
406.49	35.923
406.84	34.737
407.20	36.054
407.55	34.343
407.91	35.764
408.27	35.159
408.62	35.660
408.98	34.823
409.34	34.487
409.69	35.785
410.05	35.346
410.40	35.731
410.76	34.773
411.11	34.541
411.47	36.118
411.83	35.509
412.18	34.157
412.54	34.736
412.89	35.797
413.25	34.199
413.60	34.463
413.96	34.674
414.31	34.108
414.67	35.480
415.03	34.954
415.38	34.931
415.74	35.247
416.09	34.608
416.45	33.939
416.80	33.415
417.16	33.844
417.51	34.122
417.87	34.764
418.22	35.150
418.58	35.502
418.93	34.633
419.29	35.018
419.64	35.234
420.00	34.718
420.35	34.868
420.71	34.693
421.06	34.273
421.42	34.346
421.77	33.980
422.12	33.985
422.48	35.023
422.83	34.173
423.19	34.005
423.54	34.956
423.90	35.064
424.25	35.093
424.61	33.927
424.96	35.255
425.31	35.297
425.67	34.407
426.02	35.529
426.38	34.156
426.73	33.426
427.09	36.275
427.44	34.080
427.79	34.936
428.15	34.132
428.50	35.112
428.85	33.984
429.21	35.479
429.56	34.501
429.92	33.956
430.27	35.084
430.62	34.441
430.98	33.792
431.33	34.115
431.68	33.908
432.04	34.891
432.39	34.976
432.74	34.075
433.10	34.884
433.45	34.058
433.80	34.710
434.16	34.762
434.51	35.200
434.86	35.831
435.22	35.016
435.57	34.552
435.92	34.947
436.28	35.210
436.63	36.155
436.98	33.226
437.34	35.062
437.69	34.728
438.04	34.215
438.39	35.497
438.75	34.588
439.10	34.937
439.45	34.209
439.81	34.011
440.16	34.638
440.51	34.615
440.86	33.852
441.22	34.459
441.57	35.535
441.92	35.160
442.27	35.354
442.63	34.128
442.98	35.326
443.33	35.139
443.68	35.877
444.03	36.077
444.39	35.414
444.74	34.967
445.09	34.516
445.44	34.668
445.79	35.105
446.15	34.481
446.50	35.866
446.85	34.582
447.20	34.768
447.55	34.833
447.91	35.026
448.26	35.518
448.61	34.538
448.96	35.354
449.31	34.252
449.66	35.131
450.02	34.494
450.37	35.109
450.72	34.499
451.07	34.909
451.42	34.084
451.77	34.519
452.12	35.835
452.47	33.987
452.83	36.261
453.18	34.559
453.53	34.061
453.88	35.671
454.23	35.367
454.58	34.765
454.93	35.376
455.28	35.039
455.63	34.792
455.98	34.972
456.34	34.688
456.69	35.038
457.04	35.225
457.39	34.756
457.74	35.682
458.09	35.036
458.44	35.776
458.79	34.863
459.14	34.662
459.49	35.484
459.84	35.152
460.19	34.814
460.54	35.718
460.89	35.786
461.24	35.057
461.59	34.975
461.94	34.683
462.29	35.722
462.64	34.460
462.99	35.844
463.34	34.718
463.69	34.877
464.04	36.076
464.39	34.809
464.74	34.436
465.09	35.294
465.44	34.657
465.79	34.744
466.14	33.403
466.49	35.316
466.84	35.647
467.19	35.029
467.54	34.548
467.89	34.770
468.24	35.346
468.59	34.800
468.94	34.324
469.29	35.153
469.64	35.346
469.99	34.863
470.34	35.087
470.68	35.612
471.03	35.298
471.38	34.990
471.73	35.371
472.08	35.850
472.43	34.497
472.78	36.398
473.13	34.197
473.48	36.073
473.83	36.564
474.17	34.701
474.52	35.298
474.87	34.884
475.22	35.155
475.57	34.112
475.92	35.490
476.27	35.037
476.61	34.631
476.96	34.463
477.31	34.604
477.66	36.516
478.01	34.672
478.36	33.799
478.70	34.581
479.05	35.276
479.40	35.291
479.75	35.351
480.10	34.628
480.45	35.324
480.79	34.875
481.14	34.972
481.49	34.848
481.84	35.596
482.19	34.409
482.53	35.418
482.88	35.224
483.23	35.394
483.58	34.803
483.92	34.663
484.27	34.462
484.62	34.117
484.97	34.759
485.31	33.685
485.66	31.110
486.01	31.431
486.36	31.195
486.70	32.723
487.05	33.994
487.40	33.922
487.75	33.969
488.09	34.150
488.44	33.816
488.79	33.761
489.13	34.830
489.48	34.019
489.83	33.642
490.17	33.414
490.52	34.278
490.87	34.222
491.22	35.442
491.56	34.300
491.91	34.758
492.26	34.271
492.60	33.537
492.95	35.103
493.30	34.110
493.64	34.560
493.99	34.868
494.34	34.538
494.68	33.533
495.03	33.216
495.37	34.842
495.72	34.512
496.07	34.619
496.41	33.805
496.76	34.404
497.11	33.673
497.45	33.923
497.80	35.007
498.14	34.512
498.49	34.467
498.84	34.415
499.18	34.188
499.53	34.574
499.87	34.593
500.22	34.105
500.56	33.693
500.91	34.050
501.26	34.364
501.60	33.893
501.95	33.435
502.29	34.489
502.64	33.887
502.98	33.520
503.33	33.261
503.67	33.450
504.02	33.669
504.36	34.182
504.71	34.130
505.06	34.061
505.40	33.912
505.75	33.424
506.09	34.530
506.44	34.030
506.78	33.807
507.13	34.025
507.47	34.107
507.82	33.665
508.16	32.457
508.51	33.521
508.85	34.483
509.19	33.681
509.54	33.622
509.88	34.483
510.23	34.288
510.57	34.751
510.92	33.962
511.26	33.285
511.61	32.352
511.95	34.114
512.30	34.072
512.64	33.683
512.98	33.617
513.33	33.821
513.67	33.962
514.02	34.083
514.36	34.066
514.70	34.010
515.05	33.733
515.39	34.173
515.74	33.987
516.08	34.865
516.42	34.223
516.77	33.912
517.11	33.522
517.46	33.722
517.80	34.580
518.14	34.712
518.49	34.599
518.83	33.635
519.17	32.795
519.52	33.176
519.86	34.002
520.20	33.866
520.55	34.885
520.89	33.840
521.23	32.942
521.58	34.350
521.92	34.618
522.26	33.162
522.61	34.491
522.95	33.160
523.29	34.655
523.64	32.960
523.98	34.455
524.32	33.926
524.66	34.548
525.01	32.956
525.35	33.372
525.69	33.933
526.04	33.639
526.38	34.310
526.72	34.314
527.06	34.487
527.41	34.169
527.75	34.442
528.09	33.825
528.43	34.044
528.78	32.717
529.12	32.741
529.46	33.165
529.80	33.181
530.15	33.971
530.49	33.452
530.83	32.704
531.17	33.572
531.51	32.431
531.86	33.954
532.20	33.841
532.54	32.555
532.88	32.848
533.22	32.999
533.57	31.391
533.91	33.389
534.25	32.448
534.59	32.816
534.93	33.107
535.27	33.352
535.62	33.087
535.96	31.784
536.30	32.139
536.64	32.733
536.98	33.764
537.32	32.778
537.66	32.377
538.01	32.508
538.35	32.460
538.69	32.031
539.03	33.047
539.37	32.921
539.71	32.252
540.05	32.434
540.39	31.785
540.73	32.544
541.07	33.906
541.42	31.955
541.76	30.486
542.10	31.182
542.44	31.669
542.78	31.752
543.12	31.347
543.46	30.769
543.80	31.655
544.14	31.897
544.48	32.979
544.82	32.256
545.16	31.366
545.50	31.037
545.84	31.353
546.18	32.778
546.52	32.420
546.86	32.327
547.20	31.934
547.54	30.774
547.88	31.103
548.22	30.351
548.56	30.252
548.90	31.045
549.24	32.219
549.58	31.167
549.92	31.250
550.26	31.780
550.60	31.717
550.94	31.242
551.28	31.551
551.62	32.412
551.96	31.327
552.30	31.740
552.64	30.554
552.98	30.443
553.32	32.090
553.66	30.997
554.00	31.211
554.34	31.210
554.68	30.600
555.02	30.355
555.36	30.966
555.69	30.109
556.03	31.400
556.37	31.164
556.71	30.564
557.05	30.479
557.39	30.524
557.73	31.176
558.07	29.934
558.41	31.163
558.75	32.049
559.08	30.828
559.42	30.933
559.76	31.954
560.10	30.543
560.44	30.805
560.78	30.687
561.12	29.495
561.45	29.805
561.79	30.037
562.13	30.006
562.47	29.346
562.81	30.253
563.15	30.114
563.48	30.143
563.82	30.290
564.16	30.042
564.50	29.201
564.84	29.558
565.17	29.824
565.51	28.539
565.85	29.097
566.19	29.320
566.52	30.252
566.86	29.202
567.20	27.841
567.54	28.465
567.88	28.644
568.21	28.607
568.55	28.201
568.89	27.916
569.23	27.714
569.56	26.807
569.90	26.764
570.24	27.352
570.57	26.203
570.91	26.363
571.25	25.832
571.59	26.051
571.92	25.933
572.26	25.463
572.60	25.880
572.93	26.078
573.27	26.328
573.61	25.887
573.95	25.807
574.28	24.644
574.62	24.920
574.96	24.680
575.29	24.587
575.63	24.879
575.97	24.910
576.30	25.241
576.64	24.720
576.98	25.103
577.31	24.923
577.65	24.701
577.98	24.059
578.32	23.938
578.66	24.444
578.99	24.391
579.33	24.411
579.67	24.887
580.00	25.129
580.34	24.455
580.67	24.360
581.01	24.405
581.35	24.196
581.68	23.762
582.02	23.616
582.35	24.087
582.69	24.051
583.02	24.369
583.36	24.584
583.70	24.744
584.03	24.502
584.37	24.611
584.70	24.425
585.04	23.785
585.37	24.260
585.71	23.538
586.04	24.218
586.38	24.443
586.72	23.966
587.05	23.791
587.39	24.383
587.72	24.330
588.06	23.791
588.39	24.496
588.73	23.968
589.06	25.085
589.40	24.524
589.73	24.775
590.07	24.934
590.40	24.713
590.73	25.345
591.07	25.540
591.40	24.495
591.74	25.119
592.07	25.579
592.41	24.685
592.74	24.530
593.08	24.108
593.41	24.351
593.75	24.109
594.08	24.205
594.41	24.423
594.75	24.444
595.08	24.293
595.42	24.058
595.75	24.378
596.09	25.042
596.42	25.116
596.75	24.855
597.09	25.495
597.42	24.076
597.75	24.461
598.09	25.040
598.42	25.332
598.76	24.264
599.09	23.638
599.42	23.667
599.76	23.374
600.09	24.091
600.42	24.157
600.76	24.075
601.09	23.664
601.42	23.344
601.76	24.138
602.09	24.089
602.42	23.373
602.76	24.207
603.09	23.678
603.42	23.772
603.76	23.432
604.09	24.556
604.42	23.853
604.76	23.478
605.09	23.813
605.42	23.804
605.75	23.154
606.09	23.180
606.42	23.349
606.75	23.088
607.09	23.118
607.42	24.085
607.75	23.681
608.08	23.599
608.42	23.620
608.75	23.922
609.08	23.981
609.41	23.291
609.75	23.661
610.08	24.318
610.41	23.959
610.74	23.235
611.07	24.201
611.41	24.215
611.74	24.296
612.07	24.030
612.40	24.097
612.73	23.814
613.07	24.792
613.40	24.302
613.73	24.025
614.06	23.602
614.39	24.004
614.72	23.775
615.06	23.628
615.39	23.393
615.72	23.791
616.05	24.186
616.38	24.369
616.71	24.504
617.05	23.802
617.38	24.559
617.71	24.406
618.04	23.907
618.37	24.590
618.70	24.887
619.03	24.731
619.36	25.277
619.69	24.536
620.03	24.419
620.36	24.049
620.69	24.429
621.02	24.869
621.35	27.068
621.68	25.669
622.01	25.623
622.34	24.407
622.67	25.361
623.00	23.819
623.33	24.751
623.66	24.254
623.99	24.226
624.32	25.211
624.65	23.938
624.99	24.837
625.32	25.016
625.65	25.219
625.98	24.407
626.31	24.947
626.64	25.348
626.97	25.506
627.30	24.677
627.63	24.831
627.96	26.201
628.29	23.735
628.62	25.861
628.95	27.520
629.28	25.913
629.61	25.758
629.94	24.603
630.26	25.254
630.59	24.093
630.92	25.541
631.25	26.655
631.58	25.895
631.91	26.429
632.24	26.801
632.57	25.996
632.90	25.878
633.23	25.816
633.56	26.020
633.89	26.343
634.22	26.091
634.55	26.514
634.88	25.974
635.20	27.879
635.53	26.893
635.86	26.977
636.19	27.147
636.52	27.743
636.85	24.719
637.18	26.299
637.51	25.591
637.83	27.021
638.16	27.419
638.49	26.761
638.82	27.396
639.15	27.491
639.48	28.291
639.81	27.136
640.13	27.915
640.46	25.697
640.79	25.980
641.12	26.335
641.45	26.349
641.77	28.755
642.10	26.378
642.43	28.191
642.76	27.913
643.09	27.534
643.41	27.311
643.74	27.172
644.07	27.448
644.40	25.035
644.73	27.721
645.05	26.432
645.38	27.770
645.71	27.566
646.04	28.981
646.36	28.321
646.69	28.067
647.02	26.911
647.35	29.466
647.67	28.341
648.00	28.981
648.33	28.679
648.66	26.248
648.98	25.986
649.31	25.710
649.64	27.357
649.96	26.790
650.29	24.061
650.62	26.874
650.94	25.676
651.27	24.701
651.60	25.439
651.92	25.988
652.25	25.470
652.58	25.585
652.90	24.564
653.23	25.775
653.56	28.388
653.88	29.073
654.21	23.239
654.54	24.566
654.86	25.496
655.19	22.961
655.52	22.745
655.84	18.912
656.17	21.444
656.49	30.031
656.82	33.198
657.15	26.532
657.47	20.431
657.80	15.462
658.13	12.467
658.45	16.180
658.78	20.414
659.10	20.117
659.43	19.838
659.75	19.538
660.08	19.384
660.41	20.678
660.73	22.691
661.06	23.054
661.38	24.083
661.71	24.828
662.03	26.279
662.36	30.233
662.68	25.141
663.01	25.841
663.33	27.410
663.66	26.923
663.98	25.962
664.31	24.578
664.63	24.855
664.96	26.316
665.28	25.771
665.61	26.748
665.93	25.714
666.26	25.806
666.58	26.568
666.91	27.477
667.23	27.619
667.56	26.627
667.88	24.800
668.21	23.242
668.53	23.745
668.86	25.737
669.18	24.644
669.50	27.634
669.83	24.800
670.15	27.165
670.48	28.373
670.80	26.004
671.13	26.654
671.45	25.394
671.77	25.800
672.10	23.333
672.42	23.463
672.75	24.424
673.07	22.239
673.39	23.267
673.72	23.993
674.04	26.724
674.37	21.467
674.69	24.515
675.01	24.952
675.34	21.756
675.66	24.345
675.98	25.560
676.31	23.633
676.63	26.236
676.95	25.862
677.28	25.403
677.60	26.378
677.92	23.417
678.25	25.594
678.57	25.979
678.89	26.621
679.22	23.345
679.54	23.590
679.86	22.542
680.18	23.383
680.51	24.371
680.83	21.277
681.15	23.966
681.48	22.798
681.80	22.625
682.12	27.098
682.44	23.038
682.77	25.532
683.09	27.083
683.41	24.612
683.73	23.719
684.06	23.616
684.38	24.329
684.70	25.314
685.02	23.580
685.34	22.296
685.67	20.505
685.99	21.472
686.31	20.640
686.63	22.275
686.96	23.817
687.28	22.313
687.60	21.886
687.92	21.383
688.24	25.042
688.56	21.897
688.89	23.593
689.21	23.092
689.53	22.549
689.85	23.077
690.17	21.852
690.49	23.506
690.82	23.168
691.14	22.672
691.46	23.901
691.78	22.468
692.10	23.853
692.42	20.357
692.74	21.960
693.06	21.852
693.39	24.099
693.71	22.368
694.03	22.119
694.35	20.952
694.67	20.123
694.99	23.830
695.31	22.517
695.63	24.459
695.95	20.497
696.27	21.099
696.59	22.788
696.91	23.198
697.23	26.154
697.56	20.367
697.88	19.886
698.20	22.599
698.52	25.379
698.84	22.869
699.16	21.020
699.48	21.339
699.80	20.426
700.12	21.179
700.44	23.733
700.76	24.228
701.08	22.276
701.40	22.021
701.72	23.134
702.04	24.332
702.36	20.681
702.68	21.516
703.00	23.472
703.32	23.153
703.64	22.983
703.96	21.241
704.28	19.902
704.60	23.291
704.91	22.449
705.23	23.562
705.55	22.284
705.87	24.848
706.19	22.699
706.51	20.181
706.83	17.291
707.15	23.016
707.47	20.327
707.79	20.961
708.11	16.525
708.43	19.140
708.74	19.196
709.06	20.882
709.38	21.127
709.70	22.333
710.02	21.447
710.34	24.202
710.66	18.994
710.98	19.399
711.29	21.154
711.61	19.209
711.93	21.083
712.25	21.622
712.57	22.419
712.89	23.529
713.20	20.118
713.52	23.699
713.84	22.006
714.16	23.158
714.48	22.423
714.80	22.857
715.11	19.160
715.43	21.751
715.75	19.211
716.07	17.403
716.39	21.858
716.70	20.482
717.02	23.934
717.34	18.467
717.66	22.819
717.97	19.178
718.29	20.619
718.61	23.026
718.93	18.123
719.24	18.634
719.56	20.859
719.88	20.120
720.20	20.968
720.51	20.497
720.83	20.625
721.15	17.763
721.46	19.178
721.78	22.667
722.10	18.123
722.42	19.128
722.73	18.710
723.05	20.351
723.37	20.139
723.68	19.713
724.00	20.939
724.32	21.479
724.63	20.629
724.95	20.922
725.27	18.467
725.58	17.668
725.90	23.793
726.22	18.182
726.53	20.455
726.85	22.013
727.16	17.221
727.48	21.101
727.80	22.185
728.11	19.081
728.43	22.896
728.74	20.736
729.06	19.868
729.38	19.156
729.69	16.779
730.01	18.155
730.32	16.364
730.64	19.182
730.96	18.944
731.27	19.274
731.59	19.505
731.90	16.623
732.22	21.354
732.53	16.851
732.85	20.286
733.16	19.355
733.48	14.939
733.80	19.499
734.11	15.100
734.43	18.378
734.74	18.734
735.06	18.844
735.37	20.541
735.69	17.027
736.00	18.079
736.32	17.790
736.63	20.278
736.95	16.092
737.26	18.788
737.58	14.242
737.89	21.176
738.21	17.431
738.52	16.393
738.83	17.065
739.15	19.504
739.46	17.007
739.78	19.939
740.09	16.332
740.41	18.659
740.72	17.000
741.04	21.683
741.35	21.404
741.66	19.216
741.98	16.393
742.29	20.084
742.61	21.491
742.92	18.462
743.23	19.134
743.55	17.054
743.86	21.200
744.18	16.942
744.49	15.190
744.80	20.165
745.12	17.722
745.43	19.106
745.74	13.793
746.06	19.492
746.37	16.034
746.68	26.016
747.00	15.833
747.31	17.167
747.62	23.077
747.94	18.219
748.25	17.671
748.56	18.776
748.88	19.231
749.19	18.966
749.50	16.883
749.82	21.285
750.13	23.843
750.44	17.667
750.75	17.231
751.07	19.077
751.38	20.189
751.69	15.655
752.01	19.417
752.32	20.588
752.63	14.966
752.94	16.609
753.26	16.357
753.57	16.296
753.88	12.734
754.19	20.257
754.51	18.650
754.82	17.685
755.13	20.328
755.44	18.089
755.75	18.092
756.07	18.507
756.38	15.723
756.69	22.289
757.00	15.789
757.31	18.033
757.63	18.159
757.94	18.075
758.25	17.381
758.56	16.993
758.87	17.727
759.18	15.467
759.50	21.530
759.81	16.527
760.12	18.059
760.43	16.667
760.74	16.749
761.05	13.250
761.36	17.590
761.67	12.183
761.99	14.054
762.30	15.854
762.61	17.492
762.92	21.269
763.23	18.727
763.54	15.468
763.85	18.213
764.16	16.835
764.47	18.310
764.78	14.696
765.10	21.408
765.41	18.718
765.72	13.492
766.03	19.774
766.34	14.107
766.65	14.286
766.96	14.741
767.27	18.894
767.58	11.940
767.89	22.596
768.20	15.962
768.51	14.352
768.82	20.482
769.13	12.879
769.44	8.462
769.75	16.606
770.06	15.769
770.37	20.866
770.68	8.511
770.99	9.717
771.30	23.333
771.61	13.688
771.92	13.704
772.23	18.219
772.54	12.500
772.85	18.894
773.16	15.714
773.47	15.873
773.78	5.405
774.09	17.614
774.39	19.000
774.70	18.579
775.01	16.463
775.32	8.235
775.63	14.724
775.94	9.554
776.25	18.065
776.56	22.436
776.87	19.728
777.18	16.552
777.48	10.490
777.79	11.486
778.10	4.412
778.41	12.500
778.72	8.276
779.03	13.580
779.34	18.182
779.65	11.399
779.95	18.889
780.26	18.750
780.57	15.484
780.88	17.391
781.19	9.677
781.50	15.882
781.80	11.290
782.11	14.286
782.42	9.091
782.73	7.784
783.04	11.173
783.34	12.727
783.65	10.458
783.96	7.453
784.27	14.286
784.57	12.583
784.88	17.857
785.19	15.748
785.50	12.598
785.81	6.767
786.11	7.692
786.42	5.036
786.73	12.950
787.04	21.053
787.34	11.475
787.65	14.400
787.96	5.224
788.26	11.189
788.57	14.685
788.88	7.237
789.19	18.301
789.49	13.014
789.80	12.766
790.11	11.024
790.41	12.500
790.72	6.780
791.03	-0.971
791.33	17.391
791.64	11.404
791.95	6.250
792.25	23.810
792.56	12.500
792.87	16.667
793.17	12.500
793.48	5.208
793.79	3.614
794.09	14.679
794.40	9.174
794.70	13.605
795.01	8.442
795.32	12.329
795.62	12.676
795.93	8.333
796.23	14.754
796.54	-0.893
796.85	4.255
797.15	-1.087
797.46	0.000
797.76	-5.000
798.07	5.435
798.37	-5.155
798.68	-3.896
798.99	1.149
799.29	14.607
799.60	8.511
799.90	-3.614
800.21	-7.692
800.51	2.985
800.82	4.412
801.12	-6.849
801.43	-14.706
801.73	1.695
802.04	1.515
802.34	1.667
802.65	8.475
802.95	0.000
803.26	3.390
803.56	9.589
803.87	11.429
804.17	20.548
804.48	-17.544
804.78	12.500
805.09	-8.621
805.39	-5.405
805.70	-7.042
806.00	4.878
806.30	6.024
806.61	2.740
806.91	13.462
807.22	3.333
807.52	-11.494
807.83	9.722
808.13	4.819
808.43	24.719
808.74	6.250
809.04	-8.824
809.35	12.000
809.65	0.000
809.95	12.329
810.26	3.509
810.56	13.793
810.86	13.235
811.17	8.772
811.47	-1.639
811.77	-28.889
812.08	3.390
812.38	0.000
812.69	5.172
812.99	-5.660
813.29	-10.256
813.59	4.000
813.90	0.000
814.20	5.455
814.50	8.451
814.81	8.974
815.11	18.033
815.41	8.955
815.72	5.172
816.02	-1.786
816.32	6.667
816.62	4.545
816.93	-17.778
817.23	-1.852
817.53	-23.404
817.84	11.905
818.14	-2.941
818.44	4.082
818.74	-2.222
819.04	-25.641
819.35	-5.714
819.65	-30.769
819.95	-7.547
820.25	0.000
820.56	-14.286
820.86	-15.625
821.16	-12.821
821.46	-30.233
821.76	-30.000
822.07	-1.786
822.37	-17.391
822.67	4.255
822.97	-35.135
823.27	-7.500
823.57	2.041
823.88	-4.444
824.18	5.000
824.48	-50.000
824.78	-16.000
825.08	-6.061
825.38	13.333
825.69	8.511
825.99	8.333
826.29	-60.000
826.59	-17.949
826.89	-23.256
827.19	2.000
827.49	-8.824
827.79	-18.750
828.09	-48.649
828.39	-53.333
828.70	-34.146
829.00	0.000
829.30	-53.571
829.60	-14.706
829.90	-17.391
830.20	-40.000
830.50	-37.931
830.80	-77.778
831.10	-61.538
831.40	-29.412
831.70	-23.810
832.00	16.129
832.30	-123.529
832.60	4.167
832.90	-92.308
833.20	-57.895
833.50	-90.000
833.80	-57.895
834.10	-114.286
834.40	-11.111
834.70	15.625
835.00	-51.429
835.30	-26.471
835.60	-26.667
835.90	-40.000
836.20	-86.364
836.50	-4.000
836.80	-27.273
837.10	-59.259
837.40	-33.333
837.70	-68.750
838.00	-7.143
838.30	-69.565
838.60	-13.793
838.90	-50.000
839.19	-91.304
839.49	-116.667
839.79	-69.565
840.09	-87.500
840.39	-70.000
840.69	6.452
840.99	-46.429
841.29	-46.667
841.59	-26.316
841.88	17.949
842.18	-46.154
842.48	-160.000
842.78	-80.000
843.08	20.000
843.38	16.129
843.68	-88.889
843.97	17.647
844.27	-81.250
844.57	-73.684
844.87	-160.000
845.17	-73.333
845.47	-9.524
845.76	-19.048
846.06	-122.222
846.36	-100.000
846.66	-19.231
846.96	-106.667
847.25	-76.471
847.55	-21.739
847.85	-25.000
848.15	-76.471
848.44	-163.636
848.74	-28.571
849.04	-50.000
849.34	-112.500
849.63	-39.130
849.93	1300.000
850.23	-20.000
850.53	-7.692
850.82	-90.909
851.12	-13.636
851.42	-181.818
851.71	-23.077
852.01	-65.000
852.31	-53.846
852.61	-78.947
852.90	-41.667
853.20	-100.000
853.50	-255.556
853.79	-104.762
854.09	-77.273
854.39	-158.333
854.68	-25.806
854.98	-15.385
855.28	-50.000
855.57	-53.571
855.87	-32.000
856.17	-59.091
856.46	-88.889
856.76	-83.333
857.05	-52.174
857.35	-54.167
857.65	-192.308
857.94	-33.333
858.24	11.111
858.53	-47.826
858.83	-70.588
859.13	-29.412
859.42	-52.941
859.72	-14.286
860.01	0.000
860.31	-133.333
860.60	-90.000
860.90	-60.000
861.20	-72.222
861.49	-53.846
861.79	-16.667
862.08	-115.385
862.38	12.500
862.67	-35.294
862.97	-75.000
863.26	-144.444
863.56	-130.000
863.85	-181.818
864.15	-50.000
864.44	-400.000
864.74	-71.429
865.03	-93.750
865.33	-130.000
865.62	-32.258
865.92	-13.636
866.21	0.000
866.51	-71.429
866.80	-340.000
867.10	-150.000
867.39	-150.000
867.69	2100.000
867.98	-100.000
868.27	-47.059
868.57	-1800.000
868.86	-250.000
869.16	-52.381
869.45	-16.667
869.75	-127.273
870.04	-100.000
870.33	-58.333
870.63	-400.000
870.92	-400.000
871.22	-150.000
871.51	-145.455
871.80	-433.333
872.10	-750.000
>>>>>End Processed Spectral Data<<<<<
