SpectraSuite Data File
++++++++++++++++++++++++++++++++++++
Date: Thu May 14 16:08:49 PDT 2015
User: schluterlab
Dark Spectrum Present: Yes
Reference Spectrum Present: Yes
Number of Sampled Component Spectra: 1
Spectrometers: USB2E3373
Integration Time (usec): 3000 (USB2E3373)
Spectra Averaged: 3 (USB2E3373)
Boxcar Smoothing: 0 (USB2E3373)
Correct for Electrical Dark: No (USB2E3373)
Strobe/Lamp Enabled: No (USB2E3373)
Correct for Detector Non-linearity: No (USB2E3373)
Correct for Stray Light: No (USB2E3373)
Number of Pixels in Processed Spectrum: 2048
>>>>>Begin Processed Spectral Data<<<<<
178.53	0.000
178.91	171.429
179.29	-2200.000
179.67	-1800.000
180.04	242.857
180.42	80.000
180.80	260.000
181.18	-1400.000
181.56	-1000.000
181.94	375.000
182.31	-325.000
182.69	666.667
183.07	-800.000
183.45	475.000
183.83	-316.667
184.20	-233.333
184.58	1200.000
184.96	-325.000
185.34	-155.556
185.72	-120.000
186.09	188.889
186.47	1250.000
186.85	320.000
187.23	-177.778
187.61	-1600.000
187.98	220.000
188.36	325.000
188.74	-275.000
189.12	-166.667
189.49	-43.750
189.87	-137.500
190.25	-77.778
190.63	-140.000
191.00	-200.000
191.38	0.000
191.76	-200.000
192.14	-150.000
192.51	800.000
192.89	-50.000
193.27	0.000
193.65	-185.714
194.02	-2200.000
194.40	-185.714
194.78	157.143
195.15	0.000
195.53	-54.545
195.91	0.000
196.29	-125.000
196.66	-53.846
197.04	-1500.000
197.42	-71.429
197.79	-600.000
198.17	-150.000
198.55	-128.571
198.92	-44.444
199.30	-212.500
199.68	-100.000
200.05	14.286
200.43	-700.000
200.81	242.857
201.18	0.000
201.56	233.333
201.94	0.000
202.31	466.667
202.69	-155.556
203.07	1000.000
203.44	-66.667
203.82	-450.000
204.19	-58.333
204.57	-283.333
204.95	-187.500
205.32	-1400.000
205.70	475.000
206.08	-233.333
206.45	-50.000
206.83	540.000
207.20	-116.667
207.58	-580.000
207.96	-200.000
208.33	-100.000
208.71	75.000
209.08	83.333
209.46	0.000
209.84	400.000
210.21	50.000
210.59	650.000
210.96	500.000
211.34	-125.000
211.71	-212.500
212.09	-1900.000
212.46	0.000
212.84	1350.000
213.22	-500.000
213.59	-325.000
213.97	-170.000
214.34	-466.667
214.72	350.000
215.09	-250.000
215.47	0.000
215.84	185.714
216.22	750.000
216.59	-100.000
216.97	-260.000
217.34	-500.000
217.72	-225.000
218.09	-275.000
218.47	-625.000
218.84	0.000
219.22	300.000
219.59	-88.235
219.97	-20.000
220.34	1150.000
220.72	-122.222
221.09	-38.462
221.47	-433.333
221.84	-150.000
222.22	-128.571
222.59	0.000
222.97	-75.000
223.34	-260.000
223.72	-1000.000
224.09	-200.000
224.46	-100.000
224.84	40.000
225.21	-142.857
225.59	-350.000
225.96	-300.000
226.34	-19.231
226.71	250.000
227.08	-600.000
227.46	-26.667
227.83	-175.000
228.21	-52.632
228.58	212.500
228.95	900.000
229.33	-58.333
229.70	-120.000
230.08	-21.053
230.45	170.000
230.82	-266.667
231.20	-28.571
231.57	-91.667
231.95	9.091
232.32	-72.727
232.69	-35.000
233.07	-100.000
233.44	-29.412
233.81	-100.000
234.19	-22.222
234.56	18.182
234.93	6.897
235.31	-10.526
235.68	-5.556
236.05	-90.000
236.43	-19.231
236.80	12.000
237.17	-11.111
237.55	-21.212
237.92	-130.000
238.29	9.677
238.67	-4.545
239.04	-5.556
239.41	4.762
239.79	19.565
240.16	14.815
240.53	15.217
240.91	-7.843
241.28	6.557
241.65	23.881
242.02	18.919
242.40	24.615
242.77	10.667
243.14	7.317
243.51	10.526
243.89	14.103
244.26	23.762
244.63	20.588
245.00	18.692
245.38	21.053
245.75	9.735
246.12	30.952
246.49	24.031
246.87	17.143
247.24	20.530
247.61	22.368
247.98	24.832
248.36	18.519
248.73	26.380
249.10	28.415
249.47	28.358
249.84	26.702
250.22	23.316
250.59	26.667
250.96	29.545
251.33	23.469
251.70	27.778
252.08	26.667
252.45	29.918
252.82	28.926
253.19	23.828
253.56	29.278
253.94	31.154
254.31	28.788
254.68	31.469
255.05	29.967
255.42	26.190
255.79	27.508
256.16	25.828
256.54	26.490
256.91	27.869
257.28	25.902
257.65	28.344
258.02	29.499
258.39	26.781
258.76	32.416
259.14	31.897
259.51	29.107
259.88	29.745
260.25	26.667
260.62	30.959
260.99	30.601
261.36	31.635
261.73	27.586
262.10	31.593
262.47	31.099
262.85	28.788
263.22	28.831
263.59	25.789
263.96	28.645
264.33	29.668
264.70	30.617
265.07	31.504
265.44	31.066
265.81	29.630
266.18	27.891
266.55	28.571
266.92	29.613
267.29	33.260
267.66	33.038
268.03	31.659
268.40	30.063
268.77	30.524
269.14	27.753
269.51	32.675
269.88	29.918
270.25	28.773
270.62	31.646
270.99	29.697
271.36	30.495
271.73	31.434
272.10	31.463
272.47	31.062
272.84	30.120
273.21	30.060
273.58	30.847
273.95	30.385
274.32	27.567
274.69	30.948
275.06	30.769
275.43	26.063
275.80	30.511
276.17	27.778
276.54	28.358
276.91	29.338
277.28	32.369
277.65	28.366
278.02	31.618
278.39	29.348
278.76	28.295
279.13	28.723
279.50	30.069
279.87	29.875
280.23	26.232
280.60	30.169
280.97	29.276
281.34	28.183
281.71	29.272
282.08	27.741
282.45	28.805
282.82	27.159
283.19	28.110
283.56	28.197
283.92	29.580
284.29	29.226
284.66	30.706
285.03	26.122
285.40	27.975
285.77	27.709
286.14	30.687
286.51	29.072
286.87	26.224
287.24	28.163
287.61	28.999
287.98	25.680
288.35	27.959
288.72	26.331
289.08	27.233
289.45	27.071
289.82	28.765
290.19	28.305
290.56	26.197
290.93	26.391
291.29	25.620
291.66	27.548
292.03	25.916
292.40	26.939
292.77	24.124
293.13	24.357
293.50	25.624
293.87	24.295
294.24	24.667
294.60	25.284
294.97	22.819
295.34	24.968
295.71	22.951
296.08	24.031
296.44	23.162
296.81	23.630
297.18	23.163
297.55	22.170
297.91	23.369
298.28	24.052
298.65	23.900
299.02	20.779
299.38	22.311
299.75	21.495
300.12	23.611
300.48	22.696
300.85	23.735
301.22	22.595
301.59	20.662
301.95	21.582
302.32	23.000
302.69	20.482
303.05	20.675
303.42	22.062
303.79	21.667
304.15	21.451
304.52	18.816
304.89	21.780
305.25	24.224
305.62	20.899
305.99	21.031
306.35	20.060
306.72	22.234
307.09	21.320
307.45	20.704
307.82	21.191
308.19	20.283
308.55	20.733
308.92	20.643
309.29	20.690
309.65	22.222
310.02	20.495
310.38	21.063
310.75	20.291
311.12	20.997
311.48	20.430
311.85	20.418
312.22	19.639
312.58	20.376
312.95	20.363
313.31	19.422
313.68	20.147
314.05	21.680
314.41	20.765
314.78	20.073
315.14	20.962
315.51	20.868
315.87	20.972
316.24	20.822
316.61	20.693
316.97	19.638
317.34	20.635
317.70	21.310
318.07	20.547
318.43	20.153
318.80	21.488
319.16	20.773
319.53	19.023
319.89	19.895
320.26	20.907
320.62	20.035
320.99	20.129
321.35	19.316
321.72	21.302
322.08	19.567
322.45	20.235
322.81	18.863
323.18	18.319
323.54	19.741
323.91	20.730
324.27	20.138
324.64	20.571
325.00	20.481
325.37	19.738
325.73	19.669
326.10	20.681
326.46	20.358
326.83	21.137
327.19	20.394
327.56	20.158
327.92	19.827
328.29	19.758
328.65	19.765
329.01	19.797
329.38	21.398
329.74	20.205
330.11	19.863
330.47	18.955
330.84	20.155
331.20	19.500
331.56	18.544
331.93	20.418
332.29	20.000
332.66	19.850
333.02	18.677
333.38	19.715
333.75	18.855
334.11	19.600
334.48	19.884
334.84	19.881
335.20	19.479
335.57	20.320
335.93	19.835
336.29	17.970
336.66	18.671
337.02	19.732
337.38	20.238
337.75	19.421
338.11	20.437
338.47	17.618
338.84	18.359
339.20	17.523
339.56	18.946
339.93	19.787
340.29	17.955
340.65	18.978
341.02	18.675
341.38	19.078
341.74	18.967
342.11	18.906
342.47	17.633
342.83	19.485
343.20	18.806
343.56	19.166
343.92	18.735
344.28	19.453
344.65	20.000
345.01	19.033
345.37	17.963
345.73	19.252
346.10	19.657
346.46	18.038
346.82	18.801
347.19	18.487
347.55	18.665
347.91	18.574
348.27	17.830
348.63	19.421
349.00	17.972
349.36	17.695
349.72	18.452
350.08	18.796
350.45	17.719
350.81	17.496
351.17	18.571
351.53	18.196
351.89	18.679
352.26	18.060
352.62	17.836
352.98	17.939
353.34	18.372
353.70	17.643
354.07	18.554
354.43	17.995
354.79	17.876
355.15	17.145
355.51	18.713
355.87	18.399
356.24	18.099
356.60	17.295
356.96	18.162
357.32	18.439
357.68	17.130
358.04	16.991
358.40	17.090
358.77	18.494
359.13	17.873
359.49	16.803
359.85	17.041
360.21	17.934
360.57	18.019
360.93	17.983
361.29	17.404
361.66	18.103
362.02	18.441
362.38	15.952
362.74	17.668
363.10	17.469
363.46	17.452
363.82	17.116
364.18	17.945
364.54	17.635
364.90	17.391
365.26	16.690
365.62	18.333
365.98	17.563
366.35	17.450
366.71	17.347
367.07	17.253
367.43	17.663
367.79	17.784
368.15	17.659
368.51	18.471
368.87	17.440
369.23	17.067
369.59	17.896
369.95	18.120
370.31	17.826
370.67	17.056
371.03	17.175
371.39	15.850
371.75	17.331
372.11	17.005
372.47	17.265
372.83	17.277
373.19	17.678
373.55	16.463
373.91	16.633
374.27	16.753
374.63	17.591
374.99	17.241
375.35	17.532
375.71	16.903
376.07	17.495
376.42	17.003
376.78	17.340
377.14	17.654
377.50	17.331
377.86	17.980
378.22	17.186
378.58	17.479
378.94	17.664
379.30	16.813
379.66	16.931
380.02	16.965
380.38	16.993
380.74	16.789
381.09	16.899
381.45	17.727
381.81	16.803
382.17	17.102
382.53	17.018
382.89	16.930
383.25	17.292
383.61	16.204
383.97	17.314
384.32	16.806
384.68	15.951
385.04	17.120
385.40	17.737
385.76	17.585
386.12	16.816
386.48	17.000
386.83	17.461
387.19	16.454
387.55	16.373
387.91	16.724
388.27	17.379
388.62	16.495
388.98	16.469
389.34	16.912
389.70	17.722
390.06	16.696
390.42	17.048
390.77	17.038
391.13	16.491
391.49	17.271
391.85	16.485
392.20	16.726
392.56	16.302
392.92	17.339
393.28	16.750
393.64	16.592
393.99	17.432
394.35	16.939
394.71	16.707
395.07	16.467
395.42	16.619
395.78	16.514
396.14	17.350
396.50	15.914
396.85	16.458
397.21	16.509
397.57	17.138
397.92	17.182
398.28	16.024
398.64	16.076
399.00	16.387
399.35	17.016
399.71	16.141
400.07	16.283
400.42	16.938
400.78	16.898
401.14	17.018
401.49	17.396
401.85	16.453
402.21	17.265
402.57	17.019
402.92	16.726
403.28	15.925
403.63	16.706
403.99	16.508
404.35	16.771
404.70	15.977
405.06	16.033
405.42	16.042
405.77	17.557
406.13	16.532
406.49	17.230
406.84	17.285
407.20	16.657
407.55	16.838
407.91	15.273
408.27	16.843
408.62	17.627
408.98	17.179
409.34	16.246
409.69	17.429
410.05	17.468
410.40	17.111
410.76	17.050
411.11	17.124
411.47	17.199
411.83	17.402
412.18	17.289
412.54	16.183
412.89	17.346
413.25	16.648
413.60	17.002
413.96	17.366
414.31	16.431
414.67	16.458
415.03	16.308
415.38	16.646
415.74	16.310
416.09	16.595
416.45	16.281
416.80	16.952
417.16	17.178
417.51	16.625
417.87	16.370
418.22	16.766
418.58	16.357
418.93	16.822
419.29	16.646
419.64	16.987
420.00	16.677
420.35	17.013
420.71	16.370
421.06	16.504
421.42	15.883
421.77	16.532
422.12	16.490
422.48	16.897
422.83	16.648
423.19	16.552
423.54	17.201
423.90	16.676
424.25	17.333
424.61	16.533
424.96	16.804
425.31	17.463
425.67	17.338
426.02	15.883
426.38	16.418
426.73	16.964
427.09	17.820
427.44	17.094
427.79	16.031
428.15	16.553
428.50	16.629
428.85	15.729
429.21	18.085
429.56	16.436
429.92	16.511
430.27	16.193
430.62	16.317
430.98	16.675
431.33	17.107
431.68	15.709
432.04	16.760
432.39	16.551
432.74	16.096
433.10	16.387
433.45	16.499
433.80	16.953
434.16	15.909
434.51	16.495
434.86	16.504
435.22	16.578
435.57	16.627
435.92	16.861
436.28	16.212
436.63	16.166
436.98	16.855
437.34	16.234
437.69	17.061
438.04	16.711
438.39	16.312
438.75	16.270
439.10	17.389
439.45	15.819
439.81	16.102
440.16	16.676
440.51	16.667
440.86	15.842
441.22	16.774
441.57	15.933
441.92	16.440
442.27	17.020
442.63	16.692
442.98	17.076
443.33	16.465
443.68	16.898
444.03	17.074
444.39	17.661
444.74	16.437
445.09	16.219
445.44	15.753
445.79	16.619
446.15	16.495
446.50	16.227
446.85	15.710
447.20	16.441
447.55	16.841
447.91	15.654
448.26	15.751
448.61	15.409
448.96	16.792
449.31	16.755
449.66	16.068
450.02	16.667
450.37	16.409
450.72	16.577
451.07	16.116
451.42	16.349
451.77	15.620
452.12	16.479
452.47	16.340
452.83	16.554
453.18	17.280
453.53	16.255
453.88	15.682
454.23	16.215
454.58	16.135
454.93	16.323
455.28	17.158
455.63	16.600
455.98	16.480
456.34	16.196
456.69	15.755
457.04	15.366
457.39	15.965
457.74	16.946
458.09	16.090
458.44	15.948
458.79	16.297
459.14	15.994
459.49	16.129
459.84	16.317
460.19	15.214
460.54	17.320
460.89	16.146
461.24	16.092
461.59	16.049
461.94	15.573
462.29	16.013
462.64	15.812
462.99	15.882
463.34	15.899
463.69	16.589
464.04	16.120
464.39	17.040
464.74	16.078
465.09	16.263
465.44	16.416
465.79	16.869
466.14	15.946
466.49	17.053
466.84	16.529
467.19	16.358
467.54	15.805
467.89	16.207
468.24	15.512
468.59	16.155
468.94	15.501
469.29	15.837
469.64	16.211
469.99	15.488
470.34	15.594
470.68	15.584
471.03	15.979
471.38	16.024
471.73	15.410
472.08	15.482
472.43	17.038
472.78	15.932
473.13	15.929
473.48	17.160
473.83	16.541
474.17	16.706
474.52	15.875
474.87	16.334
475.22	16.113
475.57	15.680
475.92	15.779
476.27	15.655
476.61	16.407
476.96	15.641
477.31	15.792
477.66	16.527
478.01	15.913
478.36	16.152
478.70	15.419
479.05	16.207
479.40	16.239
479.75	16.234
480.10	15.538
480.45	16.454
480.79	16.145
481.14	15.993
481.49	16.174
481.84	15.883
482.19	15.957
482.53	16.484
482.88	15.995
483.23	15.829
483.58	16.288
483.92	15.293
484.27	16.130
484.62	15.553
484.97	16.135
485.31	15.734
485.66	16.095
486.01	16.436
486.36	16.746
486.70	17.341
487.05	17.433
487.40	16.647
487.75	16.183
488.09	15.835
488.44	15.290
488.79	15.818
489.13	15.532
489.48	15.573
489.83	15.252
490.17	15.593
490.52	15.394
490.87	16.201
491.22	16.031
491.56	15.998
491.91	15.831
492.26	15.578
492.60	15.391
492.95	16.498
493.30	15.240
493.64	15.550
493.99	15.614
494.34	15.679
494.68	15.246
495.03	15.507
495.37	16.556
495.72	15.918
496.07	15.776
496.41	15.444
496.76	15.972
497.11	15.372
497.45	15.494
497.80	15.904
498.14	15.057
498.49	15.533
498.84	15.859
499.18	15.700
499.53	15.830
499.87	15.780
500.22	15.494
500.56	15.565
500.91	15.835
501.26	15.955
501.60	15.378
501.95	16.196
502.29	16.191
502.64	15.216
502.98	16.135
503.33	14.989
503.67	14.959
504.02	15.718
504.36	15.594
504.71	14.975
505.06	15.052
505.40	15.631
505.75	15.847
506.09	15.516
506.44	15.785
506.78	16.009
507.13	16.321
507.47	15.490
507.82	15.767
508.16	14.579
508.51	15.190
508.85	15.824
509.19	15.490
509.54	15.754
509.88	15.250
510.23	15.930
510.57	15.611
510.92	14.998
511.26	15.536
511.61	14.582
511.95	14.837
512.30	15.510
512.64	15.442
512.98	15.308
513.33	15.323
513.67	15.553
514.02	15.432
514.36	15.806
514.70	15.573
515.05	15.485
515.39	15.381
515.74	15.748
516.08	15.108
516.42	15.856
516.77	15.510
517.11	15.936
517.46	15.164
517.80	15.874
518.14	15.941
518.49	14.967
518.83	15.274
519.17	14.540
519.52	15.304
519.86	15.628
520.20	15.655
520.55	15.663
520.89	15.428
521.23	15.410
521.58	14.633
521.92	15.751
522.26	15.120
522.61	15.799
522.95	14.764
523.29	15.172
523.64	14.630
523.98	15.174
524.32	15.989
524.66	15.139
525.01	14.156
525.35	14.704
525.69	14.327
526.04	14.925
526.38	14.943
526.72	15.802
527.06	14.897
527.41	14.344
527.75	15.321
528.09	15.230
528.43	14.683
528.78	15.434
529.12	14.908
529.46	14.840
529.80	15.847
530.15	14.725
530.49	14.353
530.83	15.643
531.17	15.173
531.51	15.102
531.86	15.385
532.20	14.817
532.54	15.500
532.88	15.091
533.22	15.085
533.57	15.638
533.91	15.544
534.25	15.319
534.59	15.057
534.93	15.507
535.27	15.437
535.62	15.179
535.96	15.107
536.30	14.982
536.64	16.036
536.98	15.683
537.32	15.247
537.66	15.721
538.01	15.227
538.35	15.225
538.69	15.024
539.03	15.328
539.37	15.135
539.71	15.796
540.05	15.588
540.39	14.120
540.73	15.058
541.07	14.838
541.42	14.530
541.76	14.709
542.10	14.897
542.44	14.982
542.78	15.693
543.12	15.673
543.46	15.385
543.80	14.868
544.14	14.482
544.48	15.957
544.82	15.260
545.16	14.908
545.50	14.919
545.84	14.881
546.18	15.247
546.52	14.204
546.86	15.157
547.20	14.822
547.54	14.544
547.88	14.587
548.22	14.854
548.56	15.214
548.90	14.090
549.24	15.258
549.58	14.385
549.92	14.094
550.26	14.175
550.60	15.252
550.94	14.554
551.28	14.785
551.62	14.623
551.96	14.757
552.30	15.743
552.64	14.624
552.98	15.034
553.32	16.463
553.66	14.598
554.00	15.763
554.34	15.894
554.68	14.138
555.02	14.915
555.36	15.582
555.69	14.029
556.03	14.880
556.37	15.582
556.71	15.282
557.05	15.591
557.39	14.665
557.73	14.531
558.07	14.901
558.41	14.884
558.75	15.145
559.08	14.823
559.42	14.540
559.76	14.790
560.10	14.735
560.44	15.237
560.78	14.938
561.12	15.025
561.45	14.842
561.79	15.446
562.13	15.219
562.47	14.858
562.81	14.747
563.15	14.962
563.48	15.103
563.82	14.450
564.16	14.234
564.50	14.064
564.84	14.572
565.17	15.118
565.51	14.845
565.85	15.380
566.19	15.035
566.52	14.804
566.86	14.375
567.20	14.138
567.54	15.295
567.88	15.851
568.21	15.711
568.55	15.396
568.89	15.706
569.23	16.265
569.56	15.905
569.90	16.251
570.24	16.155
570.57	16.132
570.91	16.075
571.25	16.170
571.59	16.476
571.92	15.672
572.26	15.484
572.60	15.698
572.93	16.059
573.27	16.521
573.61	16.120
573.95	16.460
574.28	15.954
574.62	16.144
574.96	16.321
575.29	16.083
575.63	15.593
575.97	16.000
576.30	15.741
576.64	15.438
576.98	16.492
577.31	16.623
577.65	16.735
577.98	16.227
578.32	16.345
578.66	15.850
578.99	16.322
579.33	16.052
579.67	16.138
580.00	15.621
580.34	16.230
580.67	15.975
581.01	15.924
581.35	16.657
581.68	16.380
582.02	16.645
582.35	16.902
582.69	16.610
583.02	16.408
583.36	16.266
583.70	15.974
584.03	15.551
584.37	15.305
584.70	15.697
585.04	15.717
585.37	16.085
585.71	15.836
586.04	16.138
586.38	16.388
586.72	15.869
587.05	15.759
587.39	16.131
587.72	16.124
588.06	15.957
588.39	15.534
588.73	15.979
589.06	15.688
589.40	15.857
589.73	15.392
590.07	15.882
590.40	16.126
590.73	15.624
591.07	16.195
591.40	15.202
591.74	15.143
592.07	16.159
592.41	15.063
592.74	15.690
593.08	15.828
593.41	16.185
593.75	16.494
594.08	16.298
594.41	16.250
594.75	16.041
595.08	15.579
595.42	15.942
595.75	15.693
596.09	15.588
596.42	15.801
596.75	15.940
597.09	16.606
597.42	15.296
597.75	15.367
598.09	15.714
598.42	15.641
598.76	15.820
599.09	15.806
599.42	16.326
599.76	15.484
600.09	16.116
600.42	15.949
600.76	15.753
601.09	15.500
601.42	15.620
601.76	15.759
602.09	15.297
602.42	14.976
602.76	15.572
603.09	15.675
603.42	15.751
603.76	15.398
604.09	15.756
604.42	15.303
604.76	14.802
605.09	15.197
605.42	15.590
605.75	15.462
606.09	15.752
606.42	15.250
606.75	14.955
607.09	15.015
607.42	15.299
607.75	15.397
608.08	15.509
608.42	15.316
608.75	15.547
609.08	14.771
609.41	14.954
609.75	14.777
610.08	15.084
610.41	14.911
610.74	15.546
611.07	15.187
611.41	15.336
611.74	15.658
612.07	15.147
612.40	15.114
612.73	14.230
613.07	15.159
613.40	15.063
613.73	14.925
614.06	15.849
614.39	14.674
614.72	15.332
615.06	14.822
615.39	14.886
615.72	15.024
616.05	14.619
616.38	15.439
616.71	15.361
617.05	14.377
617.38	14.660
617.71	15.821
618.04	15.434
618.37	15.027
618.70	14.536
619.03	14.875
619.36	14.735
619.69	15.311
620.03	14.124
620.36	14.663
620.69	14.250
621.02	13.976
621.35	14.949
621.68	15.184
622.01	14.021
622.34	13.738
622.67	14.708
623.00	13.495
623.33	15.328
623.66	15.564
623.99	14.615
624.32	15.789
624.65	14.672
624.99	14.954
625.32	15.807
625.65	15.374
625.98	13.831
626.31	15.096
626.64	14.432
626.97	13.203
627.30	13.364
627.63	14.029
627.96	14.865
628.29	13.074
628.62	14.861
628.95	13.585
629.28	13.254
629.61	14.815
629.94	13.138
630.26	12.966
630.59	13.212
630.92	13.853
631.25	14.043
631.58	13.653
631.91	13.402
632.24	13.449
632.57	13.472
632.90	12.939
633.23	13.878
633.56	13.980
633.89	13.120
634.22	13.825
634.55	13.570
634.88	13.095
635.20	14.532
635.53	13.107
635.86	13.001
636.19	14.740
636.52	12.975
636.85	13.994
637.18	14.033
637.51	13.011
637.83	12.846
638.16	13.940
638.49	12.324
638.82	12.740
639.15	12.142
639.48	14.550
639.81	12.933
640.13	13.545
640.46	10.182
640.79	12.255
641.12	13.043
641.45	12.296
641.77	15.148
642.10	13.648
642.43	14.628
642.76	12.737
643.09	12.192
643.41	11.905
643.74	12.966
644.07	13.655
644.40	11.315
644.73	13.498
645.05	11.747
645.38	12.374
645.71	12.317
646.04	14.204
646.36	10.803
646.69	12.270
647.02	14.220
647.35	14.046
647.67	12.721
648.00	11.624
648.33	14.114
648.66	11.698
648.98	13.605
649.31	13.261
649.64	13.413
649.96	15.385
650.29	11.961
650.62	13.296
650.94	12.012
651.27	12.575
651.60	11.404
651.92	11.702
652.25	11.433
652.58	14.168
652.90	10.174
653.23	14.366
653.56	13.552
653.88	14.045
654.21	11.268
654.54	13.006
654.86	11.331
655.19	11.920
655.52	15.483
655.84	18.091
656.17	21.978
656.49	30.719
656.82	32.782
657.15	24.020
657.47	17.488
657.80	12.511
658.13	9.312
658.45	11.696
658.78	13.557
659.10	12.529
659.43	11.969
659.75	11.836
660.08	10.924
660.41	11.497
660.73	10.034
661.06	10.573
661.38	10.526
661.71	11.897
662.03	11.993
662.36	13.953
662.68	10.882
663.01	12.743
663.33	12.287
663.66	13.187
663.98	12.500
664.31	13.696
664.63	10.597
664.96	12.341
665.28	9.256
665.61	14.336
665.93	11.071
666.26	11.828
666.58	11.993
666.91	12.336
667.23	10.476
667.56	12.032
667.88	12.800
668.21	9.570
668.53	8.687
668.86	11.198
669.18	11.609
669.50	11.332
669.83	9.600
670.15	12.795
670.48	13.889
670.80	8.222
671.13	9.641
671.45	10.433
671.77	13.936
672.10	10.833
672.42	10.356
672.75	12.750
673.07	10.896
673.39	10.478
673.72	12.416
674.04	13.966
674.37	11.986
674.69	14.638
675.01	9.714
675.34	10.687
675.66	11.049
675.98	13.246
676.31	12.500
676.63	12.738
676.95	10.536
677.28	10.484
677.60	8.268
677.92	12.476
678.25	13.346
678.57	14.413
678.89	13.311
679.22	10.627
679.54	10.427
679.86	9.661
680.18	10.448
680.51	13.522
680.83	13.421
681.15	13.448
681.48	13.126
681.80	12.608
682.12	11.538
682.44	13.022
682.77	12.766
683.09	10.606
683.41	12.791
683.73	10.626
684.06	9.963
684.38	10.376
684.70	13.645
685.02	15.146
685.34	10.982
685.67	10.883
685.99	13.650
686.31	11.192
686.63	12.638
686.96	13.091
687.28	14.007
687.60	10.438
687.92	11.897
688.24	12.855
688.56	10.517
688.89	10.889
689.21	11.937
689.53	9.020
689.85	10.651
690.17	11.481
690.49	11.554
690.82	12.475
691.14	8.704
691.46	11.663
691.78	13.076
692.10	11.560
692.42	12.321
692.74	12.160
693.06	12.407
693.39	10.626
693.71	11.842
694.03	12.454
694.35	11.238
694.67	11.704
694.99	10.638
695.31	12.141
695.63	9.524
695.95	12.422
696.27	10.330
696.59	13.717
696.91	10.586
697.23	14.286
697.56	10.591
697.88	10.795
698.20	12.053
698.52	13.826
698.84	10.811
699.16	11.837
699.48	11.088
699.80	10.000
700.12	10.480
700.44	10.369
700.76	10.926
701.08	10.654
701.40	10.881
701.72	10.945
702.04	9.626
702.36	7.330
702.68	9.046
703.00	10.269
703.32	9.360
703.64	9.046
703.96	10.979
704.28	7.125
704.60	10.886
704.91	10.459
705.23	9.041
705.55	11.421
705.87	11.212
706.19	9.202
706.51	10.542
706.83	9.222
707.15	9.788
707.47	10.514
707.79	12.882
708.11	8.475
708.43	11.183
708.74	11.830
709.06	10.905
709.38	12.676
709.70	12.655
710.02	11.111
710.34	9.309
710.66	8.939
710.98	8.743
711.29	10.440
711.61	8.475
711.93	9.687
712.25	10.000
712.57	14.454
712.89	11.176
713.20	7.692
713.52	12.139
713.84	11.978
714.16	13.684
714.48	9.536
714.80	12.987
715.11	9.974
715.43	10.610
715.75	10.000
716.07	8.287
716.39	10.383
716.70	8.735
717.02	8.197
717.34	5.226
717.66	7.718
717.97	8.219
718.29	7.216
718.61	11.184
718.93	11.974
719.24	10.559
719.56	11.043
719.88	9.309
720.20	8.387
720.51	12.422
720.83	6.875
721.15	6.579
721.46	10.274
721.78	11.000
722.10	10.680
722.42	4.698
722.73	10.000
723.05	9.825
723.37	7.292
723.68	12.186
724.00	7.581
724.32	6.690
724.63	8.042
724.95	12.766
725.27	10.801
725.58	8.834
725.90	13.793
726.22	9.718
726.53	12.013
726.85	9.434
727.16	13.293
727.48	13.761
727.80	8.609
728.11	8.127
728.43	9.428
728.74	7.023
729.06	9.603
729.38	9.091
729.69	7.718
730.01	11.607
730.32	9.394
730.64	10.692
730.96	10.559
731.27	10.056
731.59	11.813
731.90	9.610
732.22	12.500
732.53	7.459
732.85	8.571
733.16	10.850
733.48	5.488
733.80	10.864
734.11	9.117
734.43	10.541
734.74	15.696
735.06	11.809
735.37	9.459
735.69	12.703
736.00	9.605
736.32	12.668
736.63	11.111
736.95	9.770
737.26	12.121
737.58	6.667
737.89	8.824
738.21	5.505
738.52	8.197
738.83	12.628
739.15	9.929
739.46	12.245
739.78	11.656
740.09	12.321
740.41	11.662
740.72	9.333
741.04	9.709
741.35	10.877
741.66	7.843
741.98	10.246
742.29	10.042
742.61	11.842
742.92	11.538
743.23	10.108
743.55	8.140
743.86	10.800
744.18	4.545
744.49	6.329
744.80	6.173
745.12	11.814
745.43	10.569
745.74	9.052
746.06	10.593
746.37	9.705
746.68	11.382
747.00	8.750
747.31	9.442
747.62	12.308
747.94	9.717
748.25	6.426
748.56	7.347
748.88	5.128
749.19	8.190
749.50	6.926
749.82	8.835
750.13	10.320
750.44	8.667
750.75	12.615
751.07	15.385
751.38	10.410
751.69	11.502
752.01	8.738
752.32	9.477
752.63	8.844
752.94	8.651
753.26	4.461
753.57	13.704
753.88	10.112
754.19	10.932
754.51	9.325
754.82	12.862
755.13	13.115
755.44	9.898
755.75	10.855
756.07	11.343
756.38	11.006
756.69	10.843
757.00	6.925
757.31	13.388
757.63	11.509
757.94	10.798
758.25	13.770
758.56	12.636
758.87	12.727
759.18	8.267
759.50	13.881
759.81	9.524
760.12	12.938
760.43	10.937
760.74	11.576
761.05	12.500
761.36	9.639
761.67	12.944
761.99	7.297
762.30	11.280
762.61	10.561
762.92	14.179
763.23	10.487
763.54	11.511
763.85	9.966
764.16	7.744
764.47	7.746
764.78	18.211
765.10	11.437
765.41	13.590
765.72	8.201
766.03	13.559
766.34	10.345
766.65	6.620
766.96	9.163
767.27	12.442
767.58	9.453
767.89	12.981
768.20	6.573
768.51	8.796
768.82	13.253
769.13	11.364
769.44	8.077
769.75	10.469
770.06	10.385
770.37	14.173
770.68	8.511
770.99	5.263
771.30	14.444
771.61	11.027
771.92	9.259
772.23	9.717
772.54	4.167
772.85	14.286
773.16	12.857
773.47	8.466
773.78	1.622
774.09	10.227
774.39	14.000
774.70	12.022
775.01	0.000
775.32	2.941
775.63	3.681
775.94	-3.822
776.25	5.161
776.56	8.333
776.87	7.483
777.18	12.414
777.48	4.895
777.79	4.730
778.10	3.676
778.41	8.333
778.72	2.069
779.03	11.111
779.34	12.727
779.65	9.845
779.95	10.000
780.26	9.659
780.57	10.968
780.88	7.971
781.19	7.742
781.50	10.000
781.80	11.828
782.11	11.111
782.42	7.576
782.73	1.198
783.04	9.497
783.34	0.000
783.65	6.536
783.96	4.969
784.27	3.571
784.57	6.623
784.88	4.286
785.19	6.299
785.50	8.661
785.81	3.759
786.11	7.692
786.42	2.158
786.73	2.878
787.04	12.030
787.34	6.557
787.65	1.600
787.96	11.194
788.26	9.091
788.57	15.385
788.88	5.921
789.19	12.418
789.49	10.274
789.80	12.766
790.11	3.150
790.41	7.813
790.72	5.085
791.03	0.000
791.33	7.826
791.64	3.509
791.95	0.000
792.25	1.905
792.56	1.786
792.87	-5.208
793.17	3.571
793.48	-3.125
793.79	-1.205
794.09	11.009
794.40	-0.917
794.70	6.122
795.01	-2.597
795.32	11.644
795.62	7.042
795.93	0.000
796.23	9.836
796.54	6.250
796.85	5.319
797.15	7.609
797.46	-5.479
797.76	-13.750
798.07	13.043
798.37	-7.216
798.68	-11.688
798.99	-1.149
799.29	-1.124
799.60	5.319
799.90	-2.410
800.21	-6.154
800.51	-26.866
800.82	-16.176
801.12	-5.479
801.43	-1.471
801.73	-3.390
802.04	-12.121
802.34	-13.333
802.65	-5.085
802.95	-10.448
803.26	5.085
803.56	-5.479
803.87	-7.143
804.17	4.110
804.48	-29.825
804.78	-15.278
805.09	-18.966
805.39	1.351
805.70	-7.042
806.00	17.073
806.30	-2.410
806.61	4.110
806.91	5.769
807.22	0.000
807.52	0.000
807.83	-5.556
808.13	-1.205
808.43	4.494
808.74	-2.500
809.04	-8.824
809.35	-12.000
809.65	0.000
809.95	16.438
810.26	-21.053
810.56	-8.621
810.86	0.000
811.17	-22.807
811.47	-8.197
811.77	0.000
812.08	1.695
812.38	5.000
812.69	3.448
812.99	-26.415
813.29	-15.385
813.59	2.000
813.90	-1.754
814.20	-7.273
814.50	15.493
814.81	5.128
815.11	-8.197
815.41	-22.388
815.72	13.793
816.02	-12.500
816.32	-8.889
816.62	-29.545
816.93	-37.778
817.23	-12.963
817.53	-4.255
817.84	19.048
818.14	-23.529
818.44	-10.204
818.74	-8.889
819.04	-38.462
819.35	-45.714
819.65	-57.692
819.95	-1.887
820.25	-11.111
820.56	-26.190
820.86	-28.125
821.16	-23.077
821.46	-23.256
821.76	-20.000
822.07	-1.786
822.37	-19.565
822.67	-4.255
822.97	-64.865
823.27	-25.000
823.57	-10.204
823.88	6.667
824.18	-10.000
824.48	-23.333
824.78	-56.000
825.08	-30.303
825.38	-6.667
825.69	-6.383
825.99	-22.222
826.29	-71.429
826.59	-48.718
826.89	-34.884
827.19	-22.000
827.49	-26.471
827.79	6.250
828.09	-18.919
828.39	-53.333
828.70	-19.512
829.00	11.628
829.30	-17.857
829.60	-20.588
829.90	0.000
830.20	-28.571
830.50	-34.483
830.80	-83.333
831.10	-46.154
831.40	-38.235
831.70	0.000
832.00	-9.677
832.30	-176.471
832.60	-41.667
832.90	-115.385
833.20	-78.947
833.50	-100.000
833.80	-52.632
834.10	-71.429
834.40	11.111
834.70	0.000
835.00	-62.857
835.30	-23.529
835.60	-56.667
835.90	-40.000
836.20	-63.636
836.50	-56.000
836.80	-36.364
837.10	-7.407
837.40	11.111
837.70	-87.500
838.00	0.000
838.30	-60.870
838.60	-10.345
838.90	-71.429
839.19	-69.565
839.49	-116.667
839.79	-47.826
840.09	-112.500
840.39	-55.000
840.69	-9.677
840.99	-42.857
841.29	-100.000
841.59	-73.684
841.88	-2.564
842.18	-26.923
842.48	-150.000
842.78	-40.000
843.08	-16.667
843.38	6.452
843.68	-66.667
843.97	-20.588
844.27	-37.500
844.57	-57.895
844.87	-140.000
845.17	-80.000
845.47	-38.095
845.76	-57.143
846.06	-177.778
846.36	-105.882
846.66	-23.077
846.96	-66.667
847.25	-100.000
847.55	-8.696
847.85	-15.000
848.15	-41.176
848.44	-118.182
848.74	-38.095
849.04	-83.333
849.34	-100.000
849.63	-13.043
849.93	1200.000
850.23	-140.000
850.53	-7.692
850.82	-54.545
851.12	4.545
851.42	-45.455
851.71	-53.846
852.01	-75.000
852.31	-7.692
852.61	-68.421
852.90	-25.000
853.20	-44.444
853.50	-233.333
853.79	-52.381
854.09	-72.727
854.39	-166.667
854.68	0.000
854.98	-26.923
855.28	-44.444
855.57	-32.143
855.87	-44.000
856.17	-4.545
856.46	-59.259
856.76	-83.333
857.05	-26.087
857.35	-58.333
857.65	-76.923
857.94	-52.381
858.24	-11.111
858.53	-26.087
858.83	-17.647
859.13	-52.941
859.42	-29.412
859.72	14.286
860.01	-40.000
860.31	-100.000
860.60	-90.000
860.90	-66.667
861.20	-61.111
861.49	-76.923
861.79	3.333
862.08	-76.923
862.38	-6.250
862.67	-17.647
862.97	-18.750
863.26	-144.444
863.56	-50.000
863.85	-72.727
864.15	-16.667
864.44	-333.333
864.74	-71.429
865.03	-62.500
865.33	-130.000
865.62	0.000
865.92	-36.364
866.21	0.000
866.51	-78.571
866.80	-360.000
867.10	-91.667
867.39	-133.333
867.69	1900.000
867.98	-85.714
868.27	-35.294
868.57	-2800.000
868.86	-170.000
869.16	-9.524
869.45	-29.167
869.75	36.364
870.04	-128.571
870.33	-16.667
870.63	-257.143
870.92	-100.000
871.22	-312.500
871.51	-200.000
871.80	-866.667
872.10	-600.000
>>>>>End Processed Spectral Data<<<<<
