SpectraSuite Data File
++++++++++++++++++++++++++++++++++++
Date: Thu May 14 16:20:57 PDT 2015
User: schluterlab
Dark Spectrum Present: Yes
Reference Spectrum Present: Yes
Number of Sampled Component Spectra: 1
Spectrometers: USB2E3373
Integration Time (usec): 3000 (USB2E3373)
Spectra Averaged: 3 (USB2E3373)
Boxcar Smoothing: 0 (USB2E3373)
Correct for Electrical Dark: No (USB2E3373)
Strobe/Lamp Enabled: No (USB2E3373)
Correct for Detector Non-linearity: No (USB2E3373)
Correct for Stray Light: No (USB2E3373)
Number of Pixels in Processed Spectrum: 2048
>>>>>Begin Processed Spectral Data<<<<<
178.53	0.000
178.91	14.286
179.29	-1200.000
179.67	-800.000
180.04	128.571
180.42	70.000
180.80	280.000
181.18	-400.000
181.56	500.000
181.94	75.000
182.31	-225.000
182.69	-33.333
183.07	-100.000
183.45	250.000
183.83	-100.000
184.20	-133.333
184.58	500.000
184.96	-325.000
185.34	-44.444
185.72	-100.000
186.09	100.000
186.47	550.000
186.85	340.000
187.23	-222.222
187.61	-1500.000
187.98	160.000
188.36	350.000
188.74	-350.000
189.12	-66.667
189.49	-31.250
189.87	-25.000
190.25	33.333
190.63	-200.000
191.00	-88.889
191.38	0.000
191.76	-225.000
192.14	-150.000
192.51	700.000
192.89	0.000
193.27	0.000
193.65	-42.857
194.02	-1500.000
194.40	-114.286
194.78	242.857
195.15	0.000
195.53	-9.091
195.91	0.000
196.29	100.000
196.66	-7.692
197.04	-600.000
197.42	-100.000
197.79	-350.000
198.17	25.000
198.55	-214.286
198.92	-77.778
199.30	12.500
199.68	-63.636
200.05	0.000
200.43	-550.000
200.81	328.571
201.18	0.000
201.56	166.667
201.94	0.000
202.31	366.667
202.69	-155.556
203.07	-0.000
203.44	-44.444
203.82	-450.000
204.19	-58.333
204.57	-100.000
204.95	0.000
205.32	-1700.000
205.70	500.000
206.08	-233.333
206.45	-16.667
206.83	180.000
207.20	-100.000
207.58	-200.000
207.96	-83.333
208.33	66.667
208.71	91.667
209.08	-66.667
209.46	0.000
209.84	266.667
210.21	400.000
210.59	-0.000
210.96	266.667
211.34	50.000
211.71	-87.500
212.09	-900.000
212.46	0.000
212.84	850.000
213.22	-240.000
213.59	-225.000
213.97	70.000
214.34	-200.000
214.72	183.333
215.09	-300.000
215.47	0.000
215.84	42.857
216.22	800.000
216.59	-20.000
216.97	-220.000
217.34	-325.000
217.72	-37.500
218.09	-300.000
218.47	-350.000
218.84	0.000
219.22	220.000
219.59	-5.882
219.97	30.000
220.34	550.000
220.72	-66.667
221.09	0.000
221.47	-66.667
221.84	-50.000
222.22	-171.429
222.59	0.000
222.97	-12.500
223.34	-100.000
223.72	-400.000
224.09	-250.000
224.46	-150.000
224.84	-140.000
225.21	-100.000
225.59	-450.000
225.96	-350.000
226.34	-19.231
226.71	216.667
227.08	-150.000
227.46	13.333
227.83	25.000
228.21	5.263
228.58	100.000
228.95	700.000
229.33	8.333
229.70	-60.000
230.08	10.526
230.45	180.000
230.82	-300.000
231.20	-42.857
231.57	25.000
231.95	-36.364
232.32	-45.455
232.69	-5.000
233.07	100.000
233.44	-23.529
233.81	-110.000
234.19	-16.667
234.56	4.545
234.93	20.690
235.31	-47.368
235.68	-33.333
236.05	-50.000
236.43	19.231
236.80	56.000
237.17	18.519
237.55	12.121
237.92	-30.000
238.29	0.000
238.67	22.727
239.04	0.000
239.41	-2.381
239.79	4.348
240.16	1.852
240.53	-4.348
240.91	11.765
241.28	1.639
241.65	20.896
242.02	13.514
242.40	4.615
242.77	17.333
243.14	14.634
243.51	0.000
243.89	3.846
244.26	7.921
244.63	7.843
245.00	11.215
245.38	7.895
245.75	1.770
246.12	12.698
246.49	10.078
246.87	17.857
247.24	14.570
247.61	15.132
247.98	12.752
248.36	6.173
248.73	6.135
249.10	12.568
249.47	19.403
249.84	17.801
250.22	13.472
250.59	13.333
250.96	21.364
251.33	11.224
251.70	14.530
252.08	13.750
252.45	17.623
252.82	11.570
253.19	14.844
253.56	16.350
253.94	10.769
254.31	14.015
254.68	19.930
255.05	16.287
255.42	18.707
255.79	10.032
256.16	11.921
256.54	14.901
256.91	17.377
257.28	14.754
257.65	13.057
258.02	14.454
258.39	18.519
258.76	16.514
259.14	19.253
259.51	17.003
259.88	15.581
260.25	13.056
260.62	15.616
260.99	16.940
261.36	17.158
261.73	14.324
262.10	15.110
262.47	16.354
262.85	20.455
263.22	15.844
263.59	10.526
263.96	15.090
264.33	14.834
264.70	16.543
265.07	18.138
265.44	20.862
265.81	14.120
266.18	17.914
266.55	16.518
266.92	14.351
267.29	19.037
267.66	17.517
268.03	14.847
268.40	13.779
268.77	13.440
269.14	13.216
269.51	14.693
269.88	17.418
270.25	17.706
270.62	16.245
270.99	17.980
271.36	17.228
271.73	16.503
272.10	15.832
272.47	16.633
272.84	15.663
273.21	18.637
273.58	16.532
273.95	16.731
274.32	15.209
274.69	16.634
275.06	16.484
275.43	16.266
275.80	16.226
276.17	15.926
276.54	13.993
276.91	15.921
277.28	16.456
277.65	15.619
278.02	15.993
278.39	16.123
278.76	15.993
279.13	15.426
279.50	16.151
279.87	13.238
280.23	14.085
280.60	15.593
280.97	15.296
281.34	14.431
281.71	16.582
282.08	14.950
282.45	14.239
282.82	14.600
283.19	14.378
283.56	14.426
283.92	17.117
284.29	17.536
284.66	18.391
285.03	13.942
285.40	14.992
285.77	15.170
286.14	16.031
286.51	15.068
286.87	15.324
287.24	14.006
287.61	15.097
287.98	13.746
288.35	13.757
288.72	14.793
289.08	14.056
289.45	13.314
289.82	14.458
290.19	13.218
290.56	15.493
290.93	13.124
291.29	14.325
291.66	13.912
292.03	14.111
292.40	14.558
292.77	14.016
293.13	13.261
293.50	12.484
293.87	13.154
294.24	14.933
294.60	14.033
294.97	13.289
295.34	14.597
295.71	13.493
296.08	12.016
296.44	12.990
296.81	12.911
297.18	12.453
297.55	11.910
297.91	11.744
298.28	10.190
298.65	13.199
299.02	12.515
299.38	13.158
299.75	11.565
300.12	12.500
300.48	12.788
300.85	11.249
301.22	12.192
301.59	11.872
301.95	12.542
302.32	13.333
302.69	12.048
303.05	12.405
303.42	12.195
303.79	12.812
304.15	12.198
304.52	12.474
304.89	11.099
305.25	10.973
305.62	10.449
305.99	11.134
306.35	11.089
306.72	11.479
307.09	11.371
307.45	11.801
307.82	11.100
308.19	12.109
308.55	10.993
308.92	12.366
309.29	11.590
309.65	10.136
310.02	11.584
310.38	11.220
310.75	10.971
311.12	11.601
311.48	10.753
311.85	11.206
312.22	10.721
312.58	12.207
312.95	10.612
313.31	11.924
313.68	10.714
314.05	12.556
314.41	12.022
314.78	11.626
315.14	11.887
315.51	10.619
315.87	12.511
316.24	11.689
316.61	11.723
316.97	11.765
317.34	10.670
317.70	12.314
318.07	11.640
318.43	12.075
318.80	12.542
319.16	11.845
319.53	10.968
319.89	11.832
320.26	12.100
320.62	11.170
320.99	11.450
321.35	12.384
321.72	12.000
322.08	9.648
322.45	10.569
322.81	11.733
323.18	11.327
323.54	11.293
323.91	12.456
324.27	10.241
324.64	12.762
325.00	11.028
325.37	11.794
325.73	12.066
326.10	11.841
326.46	11.075
326.83	11.449
327.19	12.047
327.56	11.937
327.92	11.094
328.29	10.403
328.65	11.307
329.01	11.506
329.38	11.289
329.74	12.329
330.11	11.045
330.47	11.120
330.84	11.197
331.20	11.167
331.56	11.785
331.93	11.464
332.29	12.458
332.66	12.791
333.02	11.139
333.38	10.822
333.75	10.606
334.11	11.510
334.48	11.139
334.84	11.470
335.20	10.999
335.57	11.551
335.93	11.653
336.29	10.150
336.66	10.849
337.02	11.706
337.38	11.310
337.75	10.413
338.11	11.606
338.47	11.497
338.84	9.983
339.20	10.278
339.56	11.779
339.93	11.576
340.29	11.031
340.65	11.679
341.02	12.051
341.38	12.288
341.74	10.654
342.11	11.585
342.47	10.723
342.83	10.467
343.20	11.284
343.56	10.986
343.92	10.809
344.28	11.250
344.65	11.085
345.01	11.310
345.37	10.886
345.73	9.743
346.10	11.778
346.46	11.630
346.82	11.910
347.19	10.542
347.55	11.229
347.91	10.550
348.27	10.774
348.63	11.120
349.00	10.365
349.36	11.599
349.72	10.342
350.08	11.367
350.45	9.506
350.81	10.106
351.17	10.827
351.53	11.296
351.89	10.858
352.26	11.119
352.62	10.448
352.98	10.229
353.34	9.858
353.70	10.401
354.07	10.879
354.43	9.795
354.79	10.995
355.15	10.670
355.51	11.257
355.87	9.798
356.24	10.342
356.60	10.126
356.96	10.749
357.32	9.591
357.68	10.395
358.04	9.656
358.40	10.299
358.77	9.795
359.13	10.487
359.49	9.740
359.85	10.080
360.21	10.617
360.57	10.194
360.93	9.803
361.29	10.877
361.66	10.138
362.02	10.717
362.38	10.119
362.74	9.288
363.10	10.591
363.46	10.111
363.82	10.440
364.18	10.063
364.54	10.858
364.90	10.033
365.26	10.138
365.62	10.267
365.98	10.415
366.35	10.268
366.71	10.884
367.07	10.555
367.43	10.243
367.79	10.617
368.15	10.769
368.51	9.946
368.87	9.667
369.23	9.400
369.59	9.495
369.95	10.007
370.31	10.533
370.67	9.904
371.03	10.526
371.39	9.201
371.75	9.766
372.11	9.756
372.47	10.020
372.83	10.209
373.19	9.473
373.55	9.688
373.91	9.543
374.27	9.832
374.63	10.014
374.99	9.483
375.35	10.844
375.71	10.323
376.07	10.006
376.42	9.698
376.78	10.566
377.14	9.233
377.50	9.614
377.86	10.961
378.22	10.000
378.58	9.988
378.94	10.153
379.30	9.783
379.66	10.464
380.02	9.233
380.38	10.772
380.74	9.577
381.09	10.395
381.45	10.000
381.81	10.831
382.17	9.739
382.53	10.058
382.89	9.707
383.25	9.906
383.61	8.912
383.97	9.187
384.32	9.689
384.68	9.861
385.04	10.642
385.40	9.782
385.76	9.906
386.12	9.695
386.48	10.647
386.83	10.787
387.19	9.038
387.55	9.155
387.91	10.103
388.27	10.046
388.62	10.424
388.98	9.137
389.34	10.194
389.70	9.355
390.06	9.591
390.42	9.639
390.77	10.295
391.13	9.448
391.49	9.843
391.85	9.030
392.20	10.261
392.56	10.219
392.92	9.924
393.28	10.448
393.64	9.385
393.99	10.343
394.35	9.463
394.71	9.940
395.07	9.581
395.42	9.880
395.78	10.725
396.14	10.042
396.50	9.561
396.85	9.481
397.21	9.527
397.57	9.776
397.92	10.137
398.28	9.669
398.64	10.069
399.00	9.162
399.35	9.948
399.71	10.598
400.07	9.882
400.42	9.139
400.78	9.606
401.14	9.676
401.49	9.778
401.85	9.477
402.21	10.313
402.57	10.739
402.92	8.747
403.28	9.719
403.63	9.547
403.99	9.204
404.35	9.949
404.70	10.142
405.06	9.946
405.42	8.899
405.77	9.815
406.13	9.670
406.49	9.628
406.84	10.083
407.20	10.006
407.55	10.176
407.91	9.365
408.27	9.658
408.62	10.646
408.98	9.925
409.34	9.853
409.69	9.580
410.05	10.023
410.40	10.151
410.76	10.151
411.11	9.760
411.47	9.889
411.83	10.935
412.18	10.181
412.54	10.729
412.89	10.594
413.25	9.650
413.60	9.477
413.96	10.315
414.31	9.632
414.67	10.555
415.03	10.092
415.38	10.214
415.74	9.957
416.09	10.302
416.45	9.831
416.80	10.649
417.16	9.579
417.51	10.710
417.87	9.810
418.22	9.940
418.58	10.099
418.93	11.001
419.29	10.543
419.64	10.264
420.00	10.386
420.35	10.780
420.71	10.684
421.06	9.891
421.42	10.092
421.77	10.824
422.12	9.514
422.48	10.292
422.83	10.186
423.19	9.443
423.54	9.900
423.90	10.271
424.25	9.973
424.61	8.955
424.96	9.885
425.31	10.775
425.67	10.413
426.02	9.685
426.38	10.218
426.73	9.431
427.09	11.649
427.44	9.776
427.79	9.895
428.15	9.760
428.50	9.551
428.85	9.587
429.21	10.638
429.56	10.020
429.92	10.467
430.27	10.651
430.62	9.770
430.98	10.182
431.33	9.726
431.68	10.010
432.04	9.802
432.39	9.909
432.74	10.388
433.10	10.438
433.45	9.866
433.80	10.354
434.16	10.537
434.51	10.329
434.86	10.315
435.22	10.149
435.57	9.788
435.92	10.740
436.28	10.182
436.63	10.322
436.98	9.769
437.34	10.541
437.69	10.237
438.04	10.629
438.39	10.167
438.75	10.459
439.10	10.624
439.45	10.341
439.81	10.339
440.16	10.080
440.51	10.535
440.86	10.506
441.22	10.343
441.57	9.958
441.92	10.718
442.27	11.212
442.63	9.985
442.98	10.993
443.33	10.363
443.68	10.555
444.03	10.442
444.39	10.911
444.74	11.026
445.09	10.593
445.44	10.590
445.79	10.489
446.15	10.740
446.50	10.026
446.85	10.603
447.20	10.735
447.55	10.983
447.91	10.628
448.26	10.571
448.61	10.414
448.96	11.320
449.31	11.241
449.66	10.403
450.02	10.601
450.37	10.176
450.72	10.172
451.07	10.364
451.42	10.687
451.77	10.839
452.12	11.061
452.47	9.982
452.83	10.360
453.18	10.917
453.53	10.856
453.88	10.878
454.23	11.695
454.58	10.447
454.93	11.226
455.28	11.258
455.63	10.858
455.98	11.285
456.34	10.601
456.69	10.935
457.04	11.229
457.39	11.197
457.74	10.906
458.09	10.763
458.44	11.153
458.79	10.572
459.14	11.064
459.49	10.413
459.84	11.647
460.19	10.772
460.54	11.016
460.89	11.064
461.24	10.920
461.59	11.732
461.94	10.724
462.29	11.254
462.64	10.561
462.99	11.551
463.34	11.356
463.69	11.372
464.04	11.451
464.39	10.987
464.74	11.174
465.09	11.073
465.44	10.944
465.79	11.581
466.14	11.152
466.49	11.211
466.84	11.129
467.19	10.636
467.54	10.928
467.89	10.345
468.24	11.302
468.59	10.307
468.94	11.131
469.29	10.618
469.64	11.380
469.99	11.536
470.34	11.757
470.68	10.731
471.03	10.871
471.38	11.707
471.73	10.988
472.08	11.929
472.43	11.439
472.78	12.028
473.13	10.936
473.48	12.810
473.83	12.072
474.17	11.489
474.52	11.245
474.87	11.628
475.22	11.380
475.57	11.838
475.92	11.697
476.27	11.448
476.61	11.942
476.96	11.210
477.31	11.386
477.66	12.959
478.01	11.337
478.36	11.515
478.70	11.379
479.05	11.196
479.40	11.550
479.75	12.248
480.10	11.795
480.45	11.942
480.79	11.882
481.14	11.857
481.49	12.222
481.84	12.359
482.19	11.699
482.53	11.937
482.88	11.431
483.23	11.472
483.58	12.009
483.92	12.012
484.27	11.854
484.62	11.345
484.97	12.170
485.31	11.475
485.66	10.235
486.01	9.917
486.36	10.256
486.70	10.758
487.05	10.638
487.40	10.727
487.75	11.120
488.09	11.017
488.44	11.097
488.79	11.332
489.13	11.767
489.48	11.223
489.83	11.308
490.17	11.462
490.52	12.151
490.87	11.760
491.22	11.352
491.56	12.329
491.91	11.906
492.26	12.981
492.60	11.850
492.95	12.286
493.30	12.192
493.64	12.571
493.99	12.325
494.34	12.413
494.68	11.392
495.03	11.982
495.37	12.117
495.72	12.472
496.07	12.533
496.41	11.883
496.76	12.552
497.11	12.272
497.45	11.998
497.80	12.439
498.14	11.973
498.49	12.040
498.84	12.888
499.18	12.641
499.53	12.422
499.87	12.220
500.22	11.754
500.56	12.101
500.91	12.403
501.26	12.636
501.60	12.373
501.95	12.245
502.29	12.813
502.64	12.243
502.98	12.425
503.33	12.009
503.67	12.124
504.02	12.259
504.36	12.913
504.71	12.724
505.06	12.233
505.40	12.203
505.75	12.341
506.09	13.168
506.44	12.767
506.78	13.073
507.13	12.771
507.47	12.648
507.82	12.216
508.16	12.763
508.51	12.330
508.85	12.896
509.19	13.406
509.54	13.112
509.88	12.482
510.23	13.502
510.57	13.678
510.92	13.595
511.26	12.506
511.61	12.409
511.95	13.080
512.30	13.048
512.64	12.944
512.98	13.507
513.33	13.558
513.67	13.463
514.02	13.541
514.36	13.197
514.70	12.917
515.05	13.556
515.39	13.596
515.74	14.051
516.08	13.312
516.42	13.919
516.77	13.460
517.11	13.100
517.46	14.528
517.80	14.110
518.14	14.091
518.49	13.937
518.83	13.411
519.17	13.247
519.52	13.889
519.86	14.150
520.20	14.963
520.55	13.910
520.89	14.471
521.23	14.294
521.58	14.350
521.92	14.278
522.26	13.688
522.61	14.236
522.95	14.360
523.29	15.115
523.64	14.126
523.98	14.889
524.32	14.728
524.66	14.229
525.01	14.326
525.35	14.072
525.69	13.863
526.04	14.237
526.38	14.655
526.72	15.225
527.06	14.076
527.41	14.752
527.75	15.143
528.09	14.522
528.43	13.854
528.78	14.220
529.12	14.048
529.46	14.896
529.80	13.673
530.15	14.261
530.49	13.998
530.83	14.286
531.17	14.397
531.51	14.140
531.86	14.123
532.20	15.244
532.54	14.363
532.88	15.273
533.22	14.850
533.57	15.407
533.91	15.039
534.25	14.245
534.59	14.425
534.93	13.243
535.27	13.690
535.62	14.497
535.96	14.236
536.30	14.336
536.64	14.895
536.98	14.883
537.32	15.000
537.66	14.910
538.01	13.474
538.35	14.068
538.69	14.002
539.03	14.715
539.37	14.134
539.71	15.075
540.05	14.508
540.39	14.120
540.73	13.358
541.07	14.776
541.42	13.999
541.76	14.887
542.10	13.812
542.44	13.581
542.78	14.781
543.12	13.766
543.46	14.408
543.80	13.549
544.14	13.944
544.48	14.066
544.82	14.722
545.16	14.848
545.50	14.739
545.84	14.146
546.18	14.691
546.52	14.968
546.86	14.465
547.20	14.313
547.54	15.169
547.88	14.708
548.22	13.860
548.56	14.745
548.90	13.731
549.24	14.711
549.58	14.953
549.92	14.158
550.26	13.916
550.60	14.869
550.94	15.071
551.28	14.983
551.62	16.307
551.96	15.405
552.30	15.296
552.64	15.370
552.98	14.847
553.32	15.048
553.66	14.534
554.00	15.132
554.34	14.286
554.68	14.719
555.02	15.243
555.36	15.122
555.69	14.414
556.03	14.187
556.37	15.645
556.71	14.394
557.05	15.399
557.39	15.328
557.73	14.597
558.07	14.238
558.41	15.150
558.75	16.227
559.08	14.196
559.42	15.158
559.76	15.536
560.10	14.735
560.44	14.512
560.78	15.125
561.12	14.778
561.45	14.659
561.79	14.835
562.13	14.356
562.47	14.858
562.81	14.810
563.15	15.657
563.48	14.978
563.82	15.175
564.16	13.870
564.50	14.124
564.84	14.041
565.17	14.647
565.51	13.464
565.85	14.905
566.19	13.882
566.52	14.219
566.86	14.035
567.20	14.138
567.54	14.180
567.88	13.914
568.21	12.945
568.55	13.717
568.89	13.618
569.23	13.139
569.56	12.349
569.90	12.580
570.24	12.580
570.57	11.931
570.91	11.911
571.25	12.294
571.59	12.051
571.92	11.407
572.26	11.435
572.60	11.302
572.93	11.634
573.27	11.576
573.61	11.567
573.95	11.435
574.28	11.329
574.62	11.187
574.96	11.160
575.29	10.950
575.63	11.180
575.97	11.401
576.30	11.177
576.64	11.167
576.98	11.481
577.31	11.367
577.65	11.040
577.98	11.013
578.32	10.535
578.66	10.648
578.99	11.120
579.33	10.894
579.67	11.219
580.00	11.261
580.34	11.191
580.67	10.591
581.01	10.948
581.35	10.910
581.68	10.967
582.02	10.847
582.35	10.967
582.69	11.050
583.02	10.503
583.36	10.844
583.70	10.861
584.03	10.847
584.37	11.034
584.70	10.978
585.04	10.928
585.37	10.981
585.71	11.046
586.04	10.832
586.38	10.956
586.72	10.855
587.05	11.435
587.39	11.070
587.72	11.292
588.06	11.267
588.39	11.426
588.73	11.058
589.06	11.174
589.40	11.401
589.73	11.536
590.07	11.605
590.40	12.306
590.73	11.771
591.07	12.547
591.40	11.820
591.74	12.043
592.07	12.789
592.41	12.303
592.74	11.892
593.08	12.197
593.41	11.811
593.75	11.552
594.08	11.360
594.41	11.474
594.75	11.524
595.08	11.440
595.42	11.916
595.75	12.141
596.09	12.403
596.42	12.146
596.75	12.505
597.09	12.040
597.42	12.237
597.75	12.074
598.09	12.143
598.42	12.425
598.76	11.655
599.09	11.712
599.42	12.001
599.76	11.720
600.09	12.279
600.42	11.612
600.76	11.691
601.09	11.650
601.42	11.329
601.76	12.241
602.09	11.758
602.42	11.632
602.76	12.030
603.09	12.041
603.42	11.814
603.76	11.734
604.09	12.456
604.42	11.450
604.76	11.682
605.09	12.286
605.42	11.922
605.75	12.231
606.09	11.870
606.42	12.112
606.75	12.181
607.09	11.367
607.42	11.908
607.75	12.583
608.08	12.668
608.42	11.729
608.75	12.396
609.08	11.800
609.41	11.866
609.75	11.875
610.08	13.325
610.41	12.574
610.74	12.185
611.07	11.812
611.41	12.646
611.74	12.564
612.07	13.090
612.40	12.785
612.73	12.714
613.07	13.105
613.40	12.849
613.73	12.855
614.06	13.199
614.39	12.877
614.72	12.227
615.06	12.608
615.39	12.373
615.72	12.891
616.05	12.336
616.38	12.765
616.71	13.166
617.05	13.312
617.38	13.590
617.71	13.121
618.04	13.168
618.37	13.716
618.70	13.744
619.03	13.381
619.36	13.748
619.69	13.773
620.03	13.245
620.36	13.558
620.69	12.893
621.02	15.026
621.35	14.296
621.68	14.967
622.01	14.947
622.34	14.644
622.67	14.570
623.00	13.158
623.33	14.731
623.66	14.202
623.99	13.759
624.32	15.465
624.65	13.900
624.99	14.044
625.32	14.696
625.65	15.172
625.98	13.627
626.31	14.529
626.64	14.652
626.97	15.079
627.30	14.655
627.63	14.329
627.96	16.742
628.29	15.486
628.62	15.197
628.95	15.513
629.28	14.613
629.61	16.330
629.94	15.900
630.26	15.932
630.59	16.494
630.92	15.411
631.25	17.710
631.58	16.667
631.91	16.870
632.24	16.715
632.57	16.603
632.90	16.148
633.23	16.939
633.56	17.347
633.89	14.876
634.22	17.464
634.55	18.267
634.88	17.208
635.20	18.730
635.53	18.418
635.86	18.635
636.19	18.134
636.52	16.772
636.85	17.160
637.18	17.775
637.51	17.527
637.83	17.719
638.16	17.972
638.49	17.723
638.82	18.151
639.15	17.182
639.48	18.360
639.81	17.436
640.13	18.963
640.46	17.212
640.79	17.402
641.12	18.012
641.45	16.562
641.77	19.769
642.10	17.585
642.43	21.011
642.76	18.428
643.09	18.219
643.41	17.507
643.74	20.276
644.07	19.862
644.40	18.246
644.73	19.158
645.05	18.355
645.38	19.281
645.71	18.622
646.04	19.943
646.36	17.518
646.69	19.018
647.02	20.336
647.35	19.847
647.67	18.841
648.00	19.586
648.33	18.468
648.66	18.688
648.98	17.007
649.31	17.321
649.64	19.655
649.96	17.241
650.29	18.637
650.62	17.822
650.94	17.868
651.27	16.916
651.60	18.713
651.92	18.237
652.25	16.498
652.58	18.982
652.90	17.442
653.23	20.563
653.56	17.832
653.88	19.522
654.21	17.042
654.54	17.775
654.86	19.830
655.19	14.931
655.52	15.323
655.84	11.091
656.17	12.478
656.49	16.841
656.82	17.918
657.15	13.453
657.47	9.914
657.80	7.142
658.13	5.648
658.45	7.484
658.78	9.123
659.10	8.970
659.43	9.575
659.75	9.647
660.08	10.140
660.41	12.655
660.73	14.709
661.06	14.684
661.38	18.182
661.71	20.345
662.03	19.224
662.36	20.572
662.68	18.762
663.01	21.062
663.33	20.416
663.66	22.161
663.98	19.423
664.31	18.949
664.63	20.809
664.96	21.053
665.28	17.786
665.61	22.902
665.93	19.643
666.26	19.713
666.58	18.450
666.91	22.991
667.23	19.810
667.56	21.499
667.88	19.000
668.21	19.336
668.53	18.919
668.86	21.218
669.18	19.145
669.50	21.869
669.83	22.000
670.15	18.307
670.48	20.040
670.80	19.312
671.13	17.958
671.45	20.079
671.77	20.527
672.10	17.500
672.42	17.314
672.75	16.436
673.07	15.970
673.39	18.028
673.72	19.631
674.04	19.655
674.37	18.068
674.69	20.282
675.01	16.190
675.34	20.802
675.66	18.914
675.98	21.082
676.31	19.531
676.63	21.293
676.95	21.839
677.28	20.565
677.60	16.732
677.92	19.002
678.25	19.378
678.57	18.683
678.89	18.942
679.22	18.641
679.54	18.462
679.86	14.068
680.18	17.081
680.51	17.296
680.83	20.295
681.15	19.138
681.48	18.480
681.80	19.171
682.12	16.434
682.44	17.195
682.77	18.617
683.09	18.939
683.41	20.736
683.73	20.493
684.06	18.819
684.38	16.637
684.70	18.312
685.02	16.867
685.34	16.306
685.67	14.826
685.99	16.871
686.31	16.424
686.63	16.746
686.96	17.192
687.28	17.101
687.60	15.993
687.92	16.238
688.24	18.197
688.56	17.069
688.89	17.786
689.21	18.982
689.53	17.647
689.85	15.582
690.17	17.222
690.49	17.928
690.82	19.406
691.14	15.587
691.46	20.650
691.78	20.810
692.10	18.349
692.42	18.036
692.74	16.515
693.06	15.556
693.39	19.355
693.71	17.481
694.03	17.844
694.35	20.571
694.67	18.275
694.99	19.149
695.31	17.219
695.63	16.883
695.95	17.184
696.27	18.681
696.59	19.248
696.91	19.369
697.23	20.000
697.56	16.293
697.88	15.530
698.20	14.878
698.52	19.508
698.84	16.008
699.16	19.388
699.48	16.736
699.80	16.170
700.12	17.904
700.44	19.585
700.76	19.952
701.08	22.276
701.40	19.171
701.72	17.413
702.04	19.519
702.36	15.183
702.68	20.049
703.00	17.604
703.32	18.719
703.64	17.848
703.96	19.093
704.28	18.919
704.60	22.532
704.91	18.878
705.23	20.822
705.55	18.663
705.87	20.909
706.19	21.166
706.51	16.265
706.83	18.156
707.15	17.460
707.47	21.028
707.79	18.341
708.11	12.924
708.43	16.129
708.74	15.848
709.06	16.473
709.38	18.545
709.70	21.340
710.02	17.829
710.34	18.085
710.66	18.156
710.98	19.945
711.29	16.209
711.61	19.209
711.93	18.519
712.25	18.649
712.57	22.124
712.89	24.706
713.20	15.976
713.52	19.653
713.84	20.056
714.16	19.211
714.48	19.845
714.80	21.039
715.11	16.535
715.43	18.037
715.75	19.737
716.07	17.680
716.39	19.672
716.70	17.470
717.02	20.984
717.34	21.254
717.66	18.792
717.97	16.438
718.29	19.931
718.61	17.434
718.93	19.417
719.24	19.255
719.56	15.644
719.88	18.318
720.20	15.806
720.51	17.391
720.83	19.063
721.15	17.105
721.46	19.178
721.78	21.000
722.10	17.152
722.42	17.785
722.73	20.645
723.05	17.544
723.37	19.097
723.68	22.939
724.00	19.856
724.32	19.366
724.63	18.881
724.95	21.986
725.27	17.422
725.58	14.488
725.90	19.655
726.22	17.555
726.53	19.805
726.85	15.409
727.16	19.335
727.48	22.324
727.80	17.219
728.11	12.721
728.43	19.529
728.74	19.064
729.06	14.901
729.38	18.506
729.69	17.785
730.01	15.774
730.32	15.152
730.64	19.811
730.96	16.770
731.27	18.156
731.59	17.033
731.90	14.805
732.22	17.187
732.53	14.641
732.85	16.000
733.16	14.956
733.48	10.671
733.80	15.320
734.11	16.524
734.43	15.405
734.74	16.456
735.06	14.573
735.37	16.486
735.69	14.595
736.00	14.407
736.32	15.903
736.63	16.389
736.95	16.954
737.26	16.667
737.58	13.333
737.89	15.588
738.21	13.150
738.52	15.410
738.83	17.747
739.15	16.312
739.46	18.027
739.78	17.485
740.09	14.040
740.41	16.327
740.72	17.000
741.04	15.210
741.35	14.386
741.66	17.647
741.98	17.213
742.29	20.084
742.61	23.246
742.92	18.077
743.23	17.329
743.55	15.891
743.86	15.200
744.18	20.248
744.49	16.878
744.80	22.634
745.12	14.346
745.43	19.106
745.74	15.948
746.06	16.949
746.37	21.097
746.68	24.797
747.00	19.583
747.31	16.738
747.62	22.692
747.94	17.814
748.25	16.867
748.56	15.102
748.88	12.821
749.19	19.828
749.50	15.584
749.82	17.269
750.13	21.352
750.44	14.333
750.75	14.462
751.07	16.000
751.38	16.404
751.69	18.530
752.01	17.476
752.32	16.667
752.63	15.306
752.94	16.955
753.26	15.985
753.57	16.296
753.88	13.483
754.19	18.971
754.51	15.756
754.82	18.006
755.13	18.033
755.44	15.700
755.75	14.803
756.07	17.015
756.38	16.038
756.69	17.169
757.00	16.620
757.31	17.213
757.63	14.578
757.94	14.085
758.25	13.995
758.56	14.161
758.87	15.455
759.18	14.400
759.50	16.714
759.81	16.527
760.12	14.016
760.43	17.187
760.74	16.995
761.05	11.000
761.36	12.289
761.67	13.959
761.99	15.405
762.30	14.024
762.61	14.521
762.92	16.418
763.23	18.727
763.54	14.029
763.85	14.089
764.16	13.131
764.47	16.197
764.78	16.294
765.10	14.370
765.41	16.923
765.72	12.169
766.03	14.972
766.34	12.853
766.65	11.498
766.96	17.131
767.27	15.668
767.58	15.920
767.89	22.596
768.20	16.901
768.51	18.519
768.82	16.466
769.13	15.152
769.44	12.692
769.75	13.718
770.06	11.154
770.37	19.291
770.68	9.787
770.99	10.526
771.30	22.963
771.61	16.730
771.92	15.185
772.23	18.219
772.54	13.889
772.85	20.276
773.16	16.667
773.47	15.344
773.78	18.919
774.09	14.205
774.39	15.000
774.70	21.858
775.01	15.854
775.32	15.882
775.63	21.472
775.94	5.732
776.25	14.194
776.56	19.231
776.87	21.769
777.18	20.690
777.48	21.678
777.79	15.541
778.10	13.971
778.41	16.667
778.72	19.310
779.03	16.667
779.34	12.727
779.65	8.290
779.95	21.111
780.26	14.205
780.57	17.419
780.88	20.290
781.19	18.065
781.50	14.706
781.80	17.742
782.11	14.815
782.42	10.101
782.73	6.587
783.04	17.877
783.34	12.727
783.65	11.765
783.96	11.801
784.27	16.071
784.57	11.258
784.88	17.143
785.19	19.685
785.50	21.260
785.81	19.549
786.11	19.231
786.42	9.353
786.73	14.388
787.04	21.053
787.34	11.475
787.65	12.000
787.96	23.134
788.26	21.678
788.57	11.888
788.88	11.184
789.19	21.569
789.49	13.699
789.80	13.475
790.11	18.110
790.41	18.750
790.72	20.339
791.03	8.738
791.33	22.609
791.64	19.298
791.95	16.964
792.25	20.000
792.56	17.857
792.87	17.708
793.17	21.429
793.48	18.750
793.79	9.639
794.09	17.431
794.40	12.844
794.70	17.007
795.01	17.532
795.32	8.904
795.62	9.155
795.93	13.636
796.23	9.016
796.54	8.036
796.85	5.319
797.15	21.739
797.46	8.219
797.76	23.750
798.07	3.261
798.37	1.031
798.68	6.494
798.99	19.540
799.29	14.607
799.60	17.021
799.90	8.434
800.21	9.231
800.51	10.448
800.82	8.824
801.12	4.110
801.43	16.176
801.73	10.169
802.04	34.848
802.34	8.333
802.65	16.949
802.95	14.925
803.26	22.034
803.56	9.589
803.87	21.429
804.17	13.699
804.48	3.509
804.78	13.889
805.09	-10.345
805.39	18.919
805.70	-2.817
806.00	14.634
806.30	10.843
806.61	12.329
806.91	21.154
807.22	11.111
807.52	8.046
807.83	29.167
808.13	19.277
808.43	14.607
808.74	12.500
809.04	-4.412
809.35	13.333
809.65	11.429
809.95	21.918
810.26	-10.526
810.56	12.069
810.86	19.118
811.17	14.035
811.47	1.639
811.77	-4.444
812.08	22.034
812.38	25.000
812.69	17.241
812.99	-5.660
813.29	0.000
813.59	12.000
813.90	14.035
814.20	9.091
814.50	23.944
814.81	11.538
815.11	19.672
815.41	14.925
815.72	13.793
816.02	7.143
816.32	26.667
816.62	36.364
816.93	-2.222
817.23	24.074
817.53	29.787
817.84	30.952
818.14	17.647
818.44	16.327
818.74	-2.222
819.04	2.564
819.35	-2.857
819.65	-19.231
819.95	11.321
820.25	2.222
820.56	-9.524
820.86	12.500
821.16	10.256
821.46	11.628
821.76	-10.000
822.07	21.429
822.37	15.217
822.67	12.766
822.97	-27.027
823.27	-22.500
823.57	20.408
823.88	24.444
824.18	15.000
824.48	3.333
824.78	12.000
825.08	12.121
825.38	20.000
825.69	12.766
825.99	16.667
826.29	-5.714
826.59	-5.128
826.89	4.651
827.19	14.000
827.49	5.882
827.79	2.083
828.09	-27.027
828.39	0.000
828.70	4.878
829.00	11.628
829.30	7.143
829.60	14.706
829.90	2.174
830.20	-2.857
830.50	-3.448
830.80	-5.556
831.10	0.000
831.40	-2.941
831.70	14.286
832.00	22.581
832.30	-94.118
832.60	-20.833
832.90	-84.615
833.20	-5.263
833.50	20.000
833.80	-5.263
834.10	-61.905
834.40	13.889
834.70	37.500
835.00	-22.857
835.30	-2.941
835.60	13.333
835.90	52.000
836.20	-54.545
836.50	44.000
836.80	-36.364
837.10	7.407
837.40	-14.815
837.70	-81.250
838.00	0.000
838.30	-8.696
838.60	20.690
838.90	-35.714
839.19	-56.522
839.49	-41.667
839.79	-30.435
840.09	-75.000
840.39	-10.000
840.69	12.903
840.99	-10.714
841.29	-40.000
841.59	-21.053
841.88	30.769
842.18	7.692
842.48	-80.000
842.78	-15.000
843.08	-10.000
843.38	9.677
843.68	-33.333
843.97	-2.941
844.27	-43.750
844.57	-10.526
844.87	0.000
845.17	-13.333
845.47	0.000
845.76	-42.857
846.06	-44.444
846.36	-41.176
846.66	11.538
846.96	-53.333
847.25	-29.412
847.55	34.783
847.85	10.000
848.15	35.294
848.44	-27.273
848.74	9.524
849.04	29.167
849.34	18.750
849.63	34.783
849.93	400.000
850.23	6.667
850.53	-30.769
850.82	-72.727
851.12	9.091
851.42	-27.273
851.71	30.769
852.01	-75.000
852.31	-7.692
852.61	5.263
852.90	25.000
853.20	16.667
853.50	-111.111
853.79	-42.857
854.09	-31.818
854.39	-75.000
854.68	3.226
854.98	-7.692
855.28	-11.111
855.57	-17.857
855.87	-16.000
856.17	4.545
856.46	3.704
856.76	-27.778
857.05	-17.391
857.35	-16.667
857.65	-61.538
857.94	14.286
858.24	33.333
858.53	43.478
858.83	-23.529
859.13	-11.765
859.42	5.882
859.72	0.000
860.01	0.000
860.31	-100.000
860.60	10.000
860.90	-46.667
861.20	-38.889
861.49	-7.692
861.79	13.333
862.08	-38.462
862.38	15.625
862.67	5.882
862.97	-6.250
863.26	-122.222
863.56	10.000
863.85	9.091
864.15	-33.333
864.44	-333.333
864.74	-35.714
865.03	-56.250
865.33	-60.000
865.62	0.000
865.92	4.545
866.21	-30.435
866.51	50.000
866.80	-60.000
867.10	-133.333
867.39	-66.667
867.69	1300.000
867.98	-100.000
868.27	0.000
868.57	-1100.000
868.86	-160.000
869.16	-42.857
869.45	0.000
869.75	36.364
870.04	14.286
870.33	50.000
870.63	-128.571
870.92	-200.000
871.22	-200.000
871.51	-72.727
871.80	-566.667
872.10	-100.000
>>>>>End Processed Spectral Data<<<<<
