SpectraSuite Data File
++++++++++++++++++++++++++++++++++++
Date: Thu May 14 16:10:15 PDT 2015
User: schluterlab
Dark Spectrum Present: Yes
Reference Spectrum Present: Yes
Number of Sampled Component Spectra: 1
Spectrometers: USB2E3373
Integration Time (usec): 3000 (USB2E3373)
Spectra Averaged: 3 (USB2E3373)
Boxcar Smoothing: 0 (USB2E3373)
Correct for Electrical Dark: No (USB2E3373)
Strobe/Lamp Enabled: No (USB2E3373)
Correct for Detector Non-linearity: No (USB2E3373)
Correct for Stray Light: No (USB2E3373)
Number of Pixels in Processed Spectrum: 2048
>>>>>Begin Processed Spectral Data<<<<<
178.53	0.000
178.91	157.143
179.29	-1800.000
179.67	-1400.000
180.04	171.429
180.42	20.000
180.80	180.000
181.18	-700.000
181.56	-100.000
181.94	425.000
182.31	-275.000
182.69	266.667
183.07	-350.000
183.45	550.000
183.83	-333.333
184.20	-333.333
184.58	1100.000
184.96	-450.000
185.34	-55.556
185.72	-140.000
186.09	222.222
186.47	600.000
186.85	320.000
187.23	-233.333
187.61	-1500.000
187.98	380.000
188.36	200.000
188.74	-225.000
189.12	-533.333
189.49	-62.500
189.87	-212.500
190.25	-33.333
190.63	-120.000
191.00	-77.778
191.38	0.000
191.76	-200.000
192.14	-166.667
192.51	750.000
192.89	-50.000
193.27	0.000
193.65	-157.143
194.02	-1400.000
194.40	-100.000
194.78	157.143
195.15	0.000
195.53	-27.273
195.91	0.000
196.29	-175.000
196.66	-69.231
197.04	-1200.000
197.42	-128.571
197.79	-600.000
198.17	-37.500
198.55	-142.857
198.92	-55.556
199.30	-187.500
199.68	0.000
200.05	-7.143
200.43	-500.000
200.81	242.857
201.18	0.000
201.56	166.667
201.94	0.000
202.31	533.333
202.69	-222.222
203.07	400.000
203.44	-122.222
203.82	-475.000
204.19	0.000
204.57	-133.333
204.95	-237.500
205.32	-900.000
205.70	125.000
206.08	-16.667
206.45	83.333
206.83	380.000
207.20	-33.333
207.58	-280.000
207.96	-133.333
208.33	-66.667
208.71	75.000
209.08	-83.333
209.46	0.000
209.84	350.000
210.21	550.000
210.59	100.000
210.96	600.000
211.34	-250.000
211.71	-125.000
212.09	-1400.000
212.46	0.000
212.84	1100.000
213.22	-300.000
213.59	-150.000
213.97	-20.000
214.34	-500.000
214.72	316.667
215.09	-275.000
215.47	0.000
215.84	142.857
216.22	1250.000
216.59	-120.000
216.97	-300.000
217.34	-100.000
217.72	-200.000
218.09	-375.000
218.47	-400.000
218.84	0.000
219.22	-0.000
219.59	-47.059
219.97	15.000
220.34	550.000
220.72	-33.333
221.09	38.462
221.47	-466.667
221.84	-60.000
222.22	-300.000
222.59	0.000
222.97	-25.000
223.34	-300.000
223.72	-1700.000
224.09	-275.000
224.46	-225.000
224.84	40.000
225.21	-157.143
225.59	-500.000
225.96	-350.000
226.34	-15.385
226.71	300.000
227.08	-600.000
227.46	-13.333
227.83	-375.000
228.21	0.000
228.58	112.500
228.95	900.000
229.33	-58.333
229.70	-50.000
230.08	36.842
230.45	140.000
230.82	33.333
231.20	-50.000
231.57	-108.333
231.95	-18.182
232.32	-9.091
232.69	-20.000
233.07	-275.000
233.44	-5.882
233.81	-60.000
234.19	0.000
234.56	13.636
234.93	13.793
235.31	0.000
235.68	-33.333
236.05	-15.000
236.43	38.462
236.80	28.000
237.17	-3.704
237.55	-18.182
237.92	-40.000
238.29	0.000
238.67	27.273
239.04	8.333
239.41	19.048
239.79	-10.870
240.16	20.370
240.53	4.348
240.91	-1.961
241.28	18.033
241.65	25.373
242.02	24.324
242.40	13.846
242.77	10.667
243.14	8.537
243.51	19.737
243.89	24.359
244.26	25.743
244.63	35.294
245.00	28.037
245.38	11.404
245.75	15.929
246.12	30.952
246.49	24.806
246.87	30.714
247.24	25.166
247.61	27.632
247.98	32.215
248.36	31.481
248.73	30.675
249.10	30.601
249.47	30.846
249.84	35.079
250.22	24.870
250.59	28.333
250.96	33.182
251.33	23.469
251.70	29.915
252.08	32.917
252.45	31.148
252.82	27.273
253.19	30.078
253.56	31.179
253.94	27.692
254.31	28.030
254.68	34.965
255.05	31.270
255.42	28.571
255.79	31.715
256.16	31.126
256.54	30.464
256.91	30.164
257.28	28.852
257.65	28.662
258.02	29.204
258.39	27.920
258.76	33.945
259.14	29.885
259.51	33.429
259.88	28.045
260.25	33.056
260.62	30.137
260.99	32.514
261.36	32.440
261.73	28.382
262.10	30.769
262.47	31.635
262.85	33.333
263.22	31.688
263.59	26.842
263.96	30.435
264.33	28.645
264.70	31.358
265.07	32.220
265.44	33.560
265.81	31.944
266.18	32.200
266.55	32.812
266.92	33.257
267.29	32.385
267.66	31.042
268.03	34.279
268.40	33.403
268.77	32.346
269.14	31.278
269.51	31.360
269.88	31.762
270.25	29.779
270.62	27.848
270.99	33.939
271.36	32.277
271.73	29.666
272.10	31.062
272.47	30.461
272.84	28.313
273.21	29.659
273.58	30.645
273.95	30.000
274.32	28.897
274.69	29.207
275.06	31.685
275.43	28.466
275.80	30.511
276.17	27.778
276.54	30.410
276.91	27.013
277.28	28.210
277.65	31.777
278.02	29.963
278.39	30.072
278.76	28.471
279.13	29.610
279.50	30.412
279.87	29.517
280.23	26.761
280.60	29.153
280.97	29.605
281.34	29.711
281.71	30.118
282.08	28.239
282.45	28.314
282.82	27.630
283.19	27.625
283.56	28.033
283.92	27.628
284.29	32.385
284.66	26.929
285.03	26.282
285.40	29.675
285.77	28.638
286.14	27.939
286.51	27.854
286.87	27.488
287.24	28.614
287.61	27.504
287.98	26.435
288.35	26.183
288.72	28.994
289.08	28.404
289.45	26.775
289.82	26.355
290.19	26.868
290.56	26.901
290.93	26.391
291.29	26.309
291.66	24.931
292.03	25.237
292.40	28.299
292.77	23.854
293.13	24.493
293.50	24.573
293.87	25.101
294.24	25.867
294.60	24.399
294.97	22.282
295.34	24.840
295.71	22.825
296.08	23.514
296.44	22.917
296.81	24.482
297.18	22.042
297.55	23.585
297.91	23.606
298.28	22.986
298.65	24.376
299.02	22.550
299.38	23.112
299.75	23.131
300.12	23.032
300.48	22.696
300.85	21.372
301.22	23.602
301.59	21.233
301.95	22.712
302.32	22.889
302.69	20.482
303.05	23.613
303.42	23.060
303.79	22.396
304.15	23.449
304.52	23.467
304.89	23.246
305.25	21.325
305.62	21.735
305.99	21.546
306.35	21.774
306.72	22.958
307.09	22.234
307.45	21.325
307.82	21.393
308.19	22.906
308.55	21.890
308.92	22.395
309.29	22.510
309.65	21.442
310.02	21.386
310.38	21.358
310.75	22.233
311.12	21.764
311.48	23.265
311.85	22.507
312.22	22.960
312.58	21.878
312.95	20.841
313.31	21.319
313.68	22.985
314.05	23.397
314.41	22.860
314.78	22.434
315.14	23.321
315.51	22.715
315.87	21.692
316.24	22.009
316.61	23.091
316.97	22.262
317.34	23.016
317.70	23.930
318.07	23.016
318.43	23.044
318.80	23.244
319.16	23.090
319.53	22.365
319.89	23.576
320.26	24.199
320.62	22.606
320.99	23.453
321.35	23.475
321.72	24.837
322.08	23.805
322.45	22.945
322.81	24.188
323.18	23.097
323.54	23.448
323.91	24.822
324.27	23.580
324.64	25.189
325.00	23.632
325.37	23.997
325.73	25.041
326.10	25.061
326.46	25.489
326.83	25.380
327.19	24.173
327.56	25.296
327.92	24.626
328.29	24.355
328.65	25.126
329.01	25.042
329.38	24.600
329.74	25.514
330.11	26.541
330.47	25.611
330.84	24.978
331.20	26.000
331.56	25.650
331.93	25.272
332.29	26.186
332.66	23.920
333.02	24.791
333.38	24.245
333.75	25.253
334.11	23.853
334.48	24.587
334.84	25.149
335.20	24.937
335.57	26.138
335.93	25.537
336.29	23.960
336.66	25.652
337.02	24.749
337.38	24.660
337.75	24.132
338.11	24.727
338.47	24.979
338.84	24.619
339.20	23.842
339.56	24.135
339.93	24.056
340.29	24.477
340.65	23.844
341.02	25.858
341.38	25.222
341.74	25.343
342.11	24.055
342.47	23.193
342.83	24.155
343.20	24.285
343.56	24.218
343.92	25.620
344.28	24.688
344.65	23.566
345.01	23.791
345.37	24.261
345.73	22.993
346.10	25.507
346.46	24.763
346.82	24.869
347.19	24.446
347.55	23.900
347.91	24.740
348.27	24.734
348.63	24.676
349.00	22.968
349.36	24.089
349.72	24.479
350.08	25.260
350.45	23.346
350.81	23.303
351.17	23.684
351.53	24.716
351.89	24.753
352.26	24.701
352.62	24.254
352.98	23.969
353.34	22.704
353.70	23.498
354.07	23.845
354.43	23.386
354.79	24.084
355.15	23.179
355.51	22.588
355.87	23.710
356.24	24.106
356.60	23.060
356.96	25.130
357.32	23.420
357.68	22.694
358.04	23.653
358.40	23.731
358.77	24.123
359.13	23.412
359.49	22.379
359.85	24.075
360.21	23.458
360.57	24.480
360.93	23.836
361.29	24.421
361.66	24.041
362.02	24.495
362.38	23.682
362.74	23.115
363.10	23.796
363.46	24.030
363.82	23.580
364.18	24.068
364.54	24.136
364.90	24.415
365.26	23.448
365.62	25.000
365.98	23.826
366.35	24.094
366.71	24.626
367.07	24.222
367.43	24.163
367.79	24.818
368.15	25.017
368.51	25.372
368.87	24.624
369.23	23.733
369.59	23.975
369.95	25.220
370.31	23.903
370.67	24.140
371.03	24.030
371.39	23.976
371.75	24.347
372.11	24.729
372.47	24.238
372.83	24.738
373.19	24.016
373.55	24.051
373.91	23.586
374.27	23.997
374.63	25.304
374.99	24.867
375.35	24.481
375.71	24.645
376.07	25.113
376.42	24.559
376.78	24.239
377.14	24.704
377.50	24.668
377.86	25.739
378.22	26.048
378.58	25.327
378.94	24.707
379.30	26.069
379.66	25.279
380.02	25.447
380.38	25.518
380.74	25.915
381.09	25.958
381.45	26.023
381.81	26.112
382.17	26.366
382.53	26.433
382.89	26.185
383.25	26.319
383.61	25.231
383.97	25.972
384.32	27.273
384.68	25.580
385.04	26.605
385.40	26.989
385.76	27.491
386.12	25.853
386.48	27.118
386.83	27.592
387.19	26.651
387.55	26.995
387.91	27.226
388.27	27.309
388.62	27.320
388.98	26.847
389.34	27.814
389.70	27.542
390.06	28.005
390.42	27.711
390.77	27.995
391.13	27.347
391.49	26.872
391.85	27.273
392.20	28.233
392.56	26.934
392.92	27.535
393.28	28.911
393.64	28.268
393.99	29.343
394.35	29.147
394.71	29.461
395.07	28.383
395.42	28.726
395.78	29.250
396.14	29.649
396.50	29.454
396.85	28.861
397.21	29.822
397.57	28.386
397.92	30.183
398.28	28.789
398.64	29.176
399.00	28.953
399.35	29.529
399.71	30.163
400.07	29.646
400.42	30.151
400.78	29.456
401.14	29.596
401.49	30.301
401.85	30.523
402.21	31.286
402.57	31.162
402.92	30.496
403.28	30.621
403.63	29.475
403.99	30.285
404.35	30.927
404.70	30.482
405.06	30.924
405.42	31.499
405.77	31.788
406.13	31.551
406.49	31.588
406.84	31.801
407.20	31.750
407.55	32.465
407.91	31.867
408.27	32.744
408.62	32.286
408.98	32.037
409.34	32.493
409.69	33.004
410.05	32.708
410.40	34.049
410.76	33.707
411.11	34.015
411.47	32.678
411.83	34.039
412.18	35.060
412.54	33.491
412.89	33.527
413.25	34.255
413.60	33.774
413.96	34.091
414.31	34.731
414.67	33.810
415.03	34.708
415.38	35.183
415.74	33.170
416.09	34.300
416.45	34.502
416.80	34.945
417.16	35.121
417.51	33.935
417.87	34.457
418.22	34.970
418.58	36.493
418.93	36.088
419.29	35.450
419.64	35.534
420.00	35.371
420.35	34.812
420.71	34.922
421.06	34.963
421.42	34.633
421.77	35.541
422.12	34.937
422.48	36.201
422.83	36.418
423.19	35.862
423.54	36.836
423.90	35.892
424.25	36.800
424.61	36.051
424.96	36.189
425.31	36.943
425.67	36.822
426.02	35.861
426.38	36.165
426.73	36.161
427.09	37.313
427.44	36.592
427.79	36.374
428.15	36.815
428.50	36.573
428.85	36.338
429.21	37.074
429.56	36.772
429.92	36.364
430.27	37.012
430.62	36.932
430.98	36.006
431.33	37.195
431.68	35.920
432.04	37.481
432.39	37.868
432.74	37.443
433.10	37.966
433.45	37.347
433.80	37.822
434.16	38.275
434.51	37.256
434.86	37.405
435.22	37.991
435.57	38.679
435.92	38.397
436.28	38.965
436.63	38.995
436.98	37.520
437.34	38.050
437.69	37.755
438.04	37.916
438.39	38.254
438.75	37.797
439.10	38.319
439.45	38.290
439.81	38.475
440.16	38.070
440.51	38.517
440.86	38.355
441.22	38.639
441.57	38.312
441.92	38.070
442.27	39.242
442.63	38.500
442.98	38.260
443.33	38.401
443.68	38.652
444.03	40.216
444.39	39.344
444.74	39.408
445.09	37.861
445.44	39.463
445.79	39.703
446.15	39.825
446.50	38.656
446.85	39.105
447.20	39.362
447.55	39.592
447.91	38.743
448.26	39.006
448.61	39.745
448.96	40.021
449.31	39.661
449.66	39.216
450.02	39.399
450.37	38.998
450.72	39.935
451.07	39.579
451.42	38.764
451.77	39.689
452.12	41.196
452.47	39.275
452.83	41.104
453.18	39.405
453.53	39.977
453.88	39.978
454.23	40.621
454.58	39.988
454.93	39.563
455.28	39.735
455.63	39.454
455.98	40.670
456.34	40.106
456.69	40.212
457.04	41.430
457.39	40.133
457.74	40.213
458.09	40.088
458.44	41.164
458.79	40.124
459.14	39.591
459.49	40.577
459.84	40.714
460.19	39.645
460.54	40.375
460.89	41.080
461.24	40.402
461.59	40.066
461.94	39.361
462.29	41.097
462.64	40.435
462.99	40.364
463.34	41.142
463.69	39.918
464.04	41.857
464.39	40.639
464.74	38.997
465.09	41.696
465.44	40.987
465.79	40.508
466.14	41.011
466.49	40.211
466.84	40.661
467.19	39.884
467.54	39.248
467.89	40.287
468.24	40.997
468.59	40.764
468.94	41.375
469.29	41.452
469.64	39.797
469.99	40.472
470.34	41.275
470.68	41.627
471.03	41.716
471.38	41.596
471.73	42.263
472.08	42.640
472.43	41.421
472.78	42.128
473.13	42.288
473.48	41.873
473.83	42.716
474.17	40.328
474.52	42.634
474.87	42.082
475.22	42.085
475.57	41.225
475.92	40.717
476.27	41.747
476.61	41.537
476.96	40.824
477.31	41.040
477.66	42.917
478.01	41.688
478.36	40.179
478.70	42.020
479.05	43.047
479.40	43.287
479.75	41.547
480.10	42.634
480.45	41.887
480.79	41.950
481.14	41.866
481.49	42.072
481.84	42.428
482.19	41.849
482.53	41.714
482.88	42.357
483.23	42.597
483.58	41.441
483.92	41.534
484.27	41.575
484.62	41.502
484.97	41.330
485.31	40.971
485.66	39.238
486.01	38.209
486.36	38.711
486.70	39.788
487.05	40.194
487.40	40.005
487.75	39.796
488.09	40.209
488.44	38.872
488.79	40.000
489.13	40.731
489.48	41.243
489.83	40.765
490.17	41.636
490.52	41.913
490.87	41.497
491.22	41.941
491.56	41.937
491.91	42.259
492.26	41.021
492.60	41.801
492.95	43.177
493.30	43.075
493.64	42.488
493.99	42.675
494.34	41.463
494.68	42.355
495.03	42.423
495.37	42.965
495.72	41.995
496.07	42.594
496.41	41.870
496.76	43.119
497.11	42.166
497.45	42.123
497.80	42.559
498.14	41.678
498.49	42.923
498.84	42.185
499.18	43.050
499.53	43.453
499.87	43.824
500.22	42.253
500.56	43.635
500.91	43.021
501.26	43.136
501.60	42.333
501.95	43.248
502.29	42.211
502.64	42.851
502.98	42.105
503.33	42.808
503.67	42.172
504.02	42.820
504.36	44.549
504.71	42.673
505.06	43.474
505.40	41.865
505.75	43.579
506.09	43.646
506.44	43.918
506.78	44.220
507.13	43.476
507.47	44.008
507.82	43.655
508.16	42.400
508.51	42.944
508.85	44.025
509.19	44.481
509.54	44.044
509.88	43.516
510.23	44.439
510.57	45.626
510.92	45.235
511.26	43.290
511.61	43.844
511.95	44.363
512.30	44.362
512.64	43.028
512.98	45.023
513.33	44.909
513.67	45.283
514.02	45.733
514.36	45.627
514.70	45.260
515.05	45.725
515.39	46.719
515.74	46.501
516.08	46.170
516.42	46.625
516.77	46.162
517.11	45.487
517.46	45.599
517.80	46.179
518.14	47.606
518.49	46.638
518.83	46.035
519.17	45.934
519.52	47.117
519.86	47.307
520.20	47.870
520.55	47.262
520.89	48.592
521.23	46.678
521.58	47.910
521.92	47.649
522.26	47.537
522.61	48.322
522.95	48.443
523.29	47.874
523.64	47.197
523.98	48.431
524.32	49.112
524.66	48.662
525.01	48.188
525.35	47.157
525.69	47.622
526.04	46.843
526.38	48.276
526.72	47.174
527.06	49.384
527.41	49.155
527.75	49.525
528.09	49.410
528.43	49.911
528.78	47.399
529.12	48.165
529.46	48.567
529.80	49.256
530.15	49.391
530.49	49.051
530.83	49.351
531.17	48.925
531.51	48.315
531.86	50.421
532.20	50.000
532.54	49.013
532.88	49.758
533.22	48.969
533.57	49.048
533.91	48.765
534.25	49.802
534.59	49.080
534.93	48.274
535.27	49.634
535.62	48.721
535.96	49.680
536.30	48.414
536.64	49.489
536.98	49.754
537.32	49.877
537.66	51.528
538.01	49.124
538.35	48.782
538.69	48.498
539.03	49.601
539.37	49.176
539.71	49.790
540.05	49.760
540.39	49.817
540.73	48.816
541.07	49.540
541.42	49.144
541.76	49.526
542.10	49.035
542.44	48.965
542.78	50.365
543.12	49.046
543.46	48.168
543.80	48.501
544.14	49.970
544.48	50.532
544.82	50.209
545.16	49.493
545.50	49.970
545.84	49.235
546.18	50.370
546.52	50.064
546.86	49.308
547.20	49.873
547.54	48.752
547.88	49.488
548.22	49.825
548.56	48.917
548.90	48.657
549.24	49.301
549.58	49.716
549.92	49.872
550.26	48.867
550.60	49.458
550.94	50.323
551.28	48.779
551.62	50.472
551.96	48.932
552.30	50.287
552.64	47.791
552.98	49.969
553.32	51.190
553.66	49.260
554.00	50.315
554.34	50.257
554.68	48.741
555.02	48.883
555.36	50.953
555.69	48.687
556.03	49.685
556.37	49.374
556.71	48.637
557.05	49.393
557.39	49.635
557.73	49.934
558.07	50.927
558.41	49.568
558.75	49.628
559.08	49.408
559.42	49.657
559.76	49.661
560.10	48.560
560.44	50.594
560.78	50.000
561.12	49.754
561.45	50.365
561.79	49.512
562.13	48.121
562.47	48.089
562.81	49.177
563.15	49.179
563.48	48.850
563.82	47.279
564.16	47.365
564.50	48.391
564.84	48.437
565.17	46.647
565.51	47.468
565.85	47.625
566.19	47.984
566.52	47.864
566.86	47.765
567.20	46.710
567.54	46.575
567.88	47.655
568.21	47.184
568.55	46.331
568.89	45.529
569.23	46.008
569.56	44.979
569.90	44.369
570.24	43.845
570.57	43.040
570.91	43.478
571.25	43.130
571.59	42.972
571.92	41.738
572.26	42.271
572.60	41.851
572.93	42.304
573.27	42.062
573.61	41.662
573.95	40.762
574.28	40.972
574.62	41.246
574.96	40.406
575.29	40.736
575.63	40.841
575.97	40.862
576.30	40.168
576.64	41.446
576.98	40.137
577.31	40.977
577.65	40.879
577.98	40.267
578.32	39.879
578.66	40.011
578.99	39.975
579.33	39.996
579.67	40.299
580.00	39.559
580.34	40.118
580.67	39.585
581.01	39.701
581.35	39.860
581.68	39.823
582.02	39.495
582.35	39.691
582.69	39.497
583.02	39.544
583.36	39.372
583.70	39.150
584.03	39.333
584.37	39.077
584.70	39.633
585.04	39.549
585.37	40.345
585.71	39.482
586.04	38.793
586.38	39.253
586.72	38.706
587.05	38.961
587.39	39.616
587.72	40.263
588.06	38.685
588.39	39.034
588.73	39.127
589.06	39.532
589.40	39.336
589.73	40.360
590.07	40.351
590.40	41.075
590.73	40.756
591.07	41.437
591.40	40.280
591.74	41.852
592.07	41.413
592.41	41.285
592.74	40.540
593.08	40.159
593.41	39.866
593.75	39.282
594.08	39.533
594.41	40.288
594.75	38.858
595.08	39.771
595.42	39.708
595.75	39.199
596.09	40.393
596.42	39.914
596.75	40.756
597.09	41.576
597.42	40.246
597.75	39.788
598.09	40.079
598.42	40.410
598.76	40.390
599.09	39.516
599.42	39.055
599.76	38.627
600.09	39.173
600.42	39.540
600.76	38.144
601.09	39.130
601.42	38.895
601.76	38.448
602.09	39.564
602.42	39.040
602.76	39.373
603.09	38.840
603.42	39.776
603.76	39.323
604.09	39.638
604.42	39.119
604.76	38.699
605.09	39.170
605.42	39.354
605.75	38.923
606.09	38.261
606.42	39.219
606.75	37.856
607.09	38.518
607.42	38.459
607.75	39.000
608.08	38.674
608.42	38.533
608.75	39.760
609.08	37.691
609.41	39.347
609.75	39.152
610.08	39.930
610.41	38.658
610.74	38.403
611.07	39.565
611.41	39.821
611.74	39.723
612.07	39.130
612.40	39.401
612.73	39.071
613.07	37.995
613.40	40.375
613.73	38.999
614.06	39.058
614.39	39.213
614.72	39.447
615.06	38.932
615.39	38.714
615.72	39.052
616.05	39.728
616.38	40.565
616.71	39.133
617.05	39.936
617.38	39.968
617.71	40.119
618.04	40.205
618.37	40.328
618.70	40.158
619.03	39.427
619.36	41.245
619.69	40.615
620.03	40.113
620.36	39.877
620.69	40.284
621.02	41.273
621.35	42.671
621.68	42.155
622.01	40.854
622.34	40.586
622.67	42.062
623.00	39.339
623.33	41.805
623.66	40.856
623.99	40.487
624.32	41.131
624.65	40.219
624.99	41.547
625.32	41.084
625.65	40.391
625.98	39.797
626.31	41.106
626.64	41.245
626.97	41.710
627.30	41.002
627.63	41.560
627.96	41.066
628.29	41.868
628.62	41.730
628.95	41.805
629.28	41.121
629.61	41.498
629.94	41.088
630.26	41.864
630.59	41.969
630.92	41.645
631.25	43.023
631.58	45.292
631.91	45.080
632.24	43.228
632.57	41.746
632.90	43.430
633.23	43.163
633.56	42.653
633.89	42.252
634.22	45.738
634.55	44.572
634.88	44.913
635.20	44.564
635.53	45.763
635.86	45.937
636.19	44.433
636.52	43.460
636.85	41.777
637.18	42.723
637.51	43.548
637.83	43.854
638.16	44.816
638.49	44.131
638.82	44.532
639.15	42.955
639.48	45.843
639.81	45.843
640.13	43.110
640.46	42.424
640.79	43.015
641.12	44.472
641.45	43.789
641.77	46.598
642.10	43.570
642.43	47.473
642.76	45.393
643.09	46.027
643.41	44.398
643.74	45.793
644.07	46.069
644.40	44.837
644.73	45.428
645.05	46.109
645.38	44.892
645.71	43.988
646.04	48.780
646.36	45.109
646.69	46.472
647.02	45.260
647.35	46.565
647.67	47.343
648.00	45.701
648.33	46.697
648.66	45.078
648.98	42.993
649.31	44.790
649.64	44.754
649.96	42.308
650.29	43.533
650.62	41.584
650.94	43.243
651.27	41.317
651.60	43.421
651.92	46.201
652.25	43.849
652.58	44.154
652.90	43.169
653.23	44.930
653.56	42.368
653.88	44.101
654.21	43.239
654.54	41.185
654.86	43.059
655.19	40.151
655.52	38.388
655.84	32.764
656.17	38.680
656.49	53.145
656.82	57.597
657.15	43.439
657.47	32.024
657.80	23.613
658.13	18.387
658.45	23.691
658.78	29.068
659.10	27.892
659.43	28.665
659.75	29.793
660.08	30.308
660.41	32.341
660.73	35.120
661.06	40.382
661.38	39.872
661.71	42.931
662.03	43.739
662.36	46.691
662.68	44.090
663.01	43.540
663.33	44.802
663.66	45.421
663.98	45.962
664.31	43.340
664.63	41.040
664.96	43.194
665.28	39.927
665.61	44.056
665.93	44.107
666.26	41.039
666.58	41.882
666.91	45.234
667.23	41.714
667.56	46.351
667.88	46.800
668.21	38.672
668.53	40.541
668.86	43.222
669.18	45.418
669.50	43.141
669.83	40.800
670.15	42.520
670.48	45.833
670.80	40.727
671.13	41.966
671.45	38.386
671.77	45.951
672.10	39.833
672.42	41.100
672.75	40.092
673.07	38.060
673.39	38.983
673.72	42.282
674.04	41.034
674.37	41.682
674.69	40.212
675.01	41.905
675.34	40.649
675.66	39.139
675.98	40.485
676.31	42.773
676.63	40.875
676.95	42.529
677.28	41.935
677.60	40.157
677.92	44.530
678.25	39.671
678.57	41.459
678.89	39.761
679.22	37.282
679.54	36.923
679.86	37.627
680.18	39.469
680.51	38.208
680.83	38.298
681.15	38.621
681.48	38.687
681.80	39.724
682.12	39.161
682.44	38.898
682.77	39.362
683.09	38.258
683.41	40.698
683.73	37.381
684.06	39.114
684.38	37.925
684.70	40.036
685.02	41.308
685.34	36.772
685.67	38.170
685.99	35.736
686.31	34.738
686.63	36.019
686.96	36.120
687.28	39.088
687.60	36.364
687.92	36.334
688.24	36.227
688.56	36.207
688.89	38.475
689.21	40.117
689.53	35.882
689.85	37.475
690.17	38.704
690.49	36.853
690.82	38.614
691.14	37.449
691.46	35.755
691.78	38.490
692.10	38.349
692.42	33.750
692.74	37.750
693.06	33.704
693.39	38.899
693.71	37.594
694.03	36.989
694.35	36.952
694.67	37.166
694.99	39.149
695.31	35.320
695.63	38.095
695.95	36.853
696.27	40.879
696.59	39.381
696.91	38.514
697.23	39.560
697.56	36.456
697.88	38.826
698.20	36.347
698.52	39.015
698.84	37.838
699.16	36.122
699.48	38.285
699.80	35.957
700.12	38.865
700.44	38.479
700.76	35.629
701.08	38.741
701.40	36.269
701.72	39.055
702.04	36.898
702.36	37.696
702.68	37.897
703.00	40.587
703.32	38.424
703.64	37.408
703.96	38.663
704.28	35.135
704.60	37.215
704.91	36.224
705.23	43.014
705.55	40.947
705.87	41.515
706.19	40.184
706.51	35.843
706.83	37.752
707.15	34.127
707.47	36.449
707.79	33.406
708.11	35.593
708.43	34.624
708.74	35.491
709.06	34.107
709.38	38.028
709.70	37.717
710.02	38.243
710.34	36.968
710.66	37.430
710.98	36.339
711.29	35.714
711.61	39.266
711.93	38.462
712.25	33.514
712.57	39.528
712.89	40.294
713.20	32.840
713.52	39.017
713.84	32.591
714.16	34.474
714.48	34.021
714.80	38.701
715.11	37.008
715.43	34.748
715.75	31.316
716.07	34.530
716.39	37.432
716.70	35.241
717.02	39.344
717.34	38.676
717.66	39.933
717.97	36.644
718.29	39.863
718.61	37.171
718.93	33.981
719.24	36.957
719.56	36.810
719.88	33.033
720.20	34.194
720.51	37.267
720.83	34.375
721.15	34.211
721.46	31.164
721.78	34.667
722.10	35.275
722.42	34.228
722.73	32.903
723.05	37.193
723.37	32.639
723.68	34.050
724.00	37.906
724.32	35.211
724.63	31.818
724.95	37.589
725.27	33.798
725.58	38.516
725.90	35.862
726.22	30.408
726.53	35.065
726.85	36.478
727.16	35.045
727.48	36.086
727.80	41.060
728.11	34.629
728.43	37.710
728.74	38.127
729.06	31.457
729.38	30.844
729.69	32.550
730.01	31.548
730.32	30.606
730.64	33.962
730.96	30.435
731.27	35.196
731.59	31.868
731.90	27.532
732.22	29.167
732.53	26.243
732.85	33.429
733.16	35.191
733.48	28.963
733.80	33.426
734.11	30.199
734.43	31.892
734.74	32.152
735.06	32.915
735.37	30.270
735.69	28.108
736.00	34.463
736.32	30.997
736.63	31.389
736.95	29.885
737.26	31.515
737.58	32.727
737.89	33.824
738.21	30.887
738.52	29.836
738.83	32.423
739.15	33.333
739.46	28.912
739.78	32.209
740.09	32.665
740.41	31.778
740.72	32.667
741.04	32.686
741.35	31.228
741.66	30.196
741.98	36.475
742.29	33.891
742.61	38.158
742.92	32.692
743.23	33.574
743.55	34.884
743.86	34.000
744.18	28.926
744.49	29.536
744.80	34.568
745.12	35.865
745.43	33.333
745.74	34.914
746.06	32.627
746.37	38.397
746.68	36.992
747.00	28.750
747.31	38.627
747.62	30.769
747.94	39.271
748.25	30.522
748.56	32.245
748.88	32.906
749.19	34.914
749.50	29.437
749.82	38.153
750.13	31.673
750.44	28.333
750.75	31.692
751.07	27.077
751.38	29.338
751.69	31.949
752.01	33.333
752.32	34.314
752.63	32.653
752.94	33.218
753.26	31.599
753.57	30.741
753.88	29.963
754.19	32.476
754.51	27.974
754.82	32.154
755.13	34.754
755.44	31.058
755.75	33.553
756.07	33.433
756.38	28.302
756.69	32.530
757.00	30.748
757.31	27.049
757.63	26.343
757.94	27.230
758.25	27.540
758.56	27.451
758.87	29.545
759.18	29.067
759.50	31.161
759.81	28.852
760.12	28.571
760.43	28.906
760.74	26.847
761.05	27.250
761.36	27.229
761.67	29.188
761.99	29.730
762.30	26.829
762.61	24.092
762.92	29.104
763.23	31.086
763.54	32.374
763.85	29.553
764.16	31.313
764.47	33.803
764.78	29.393
765.10	27.859
765.41	28.974
765.72	28.836
766.03	27.401
766.34	28.527
766.65	27.526
766.96	27.888
767.27	34.562
767.58	30.846
767.89	33.173
768.20	28.638
768.51	28.241
768.82	29.317
769.13	31.818
769.44	23.846
769.75	29.603
770.06	30.769
770.37	31.890
770.68	31.915
770.99	20.648
771.30	33.333
771.61	30.418
771.92	28.519
772.23	28.340
772.54	31.481
772.85	33.641
773.16	33.810
773.47	33.333
773.78	22.162
774.09	26.705
774.39	31.500
774.70	29.508
775.01	25.610
775.32	22.941
775.63	31.288
775.94	19.108
776.25	27.097
776.56	28.846
776.87	31.973
777.18	24.828
777.48	27.972
777.79	31.757
778.10	27.206
778.41	32.639
778.72	24.138
779.03	30.864
779.34	28.485
779.65	27.979
779.95	26.667
780.26	30.114
780.57	32.258
780.88	24.638
781.19	35.484
781.50	25.294
781.80	28.495
782.11	25.397
782.42	16.162
782.73	18.563
783.04	24.022
783.34	20.000
783.65	19.608
783.96	19.255
784.27	29.762
784.57	29.801
784.88	31.429
785.19	21.260
785.50	34.646
785.81	30.827
786.11	28.462
786.42	23.022
786.73	25.899
787.04	25.564
787.34	28.689
787.65	27.200
787.96	21.642
788.26	25.874
788.57	36.364
788.88	17.105
789.19	28.105
789.49	27.397
789.80	25.532
790.11	33.071
790.41	27.344
790.72	28.814
791.03	24.272
791.33	21.739
791.64	28.947
791.95	24.107
792.25	19.048
792.56	28.571
792.87	32.292
793.17	28.571
793.48	20.833
793.79	7.229
794.09	23.853
794.40	23.853
794.70	26.531
795.01	22.078
795.32	20.548
795.62	23.944
795.93	21.212
796.23	26.230
796.54	11.607
796.85	19.149
797.15	18.478
797.46	24.658
797.76	20.000
798.07	21.739
798.37	17.526
798.68	16.883
798.99	20.690
799.29	21.348
799.60	23.404
799.90	14.458
800.21	10.769
800.51	8.955
800.82	13.235
801.12	2.740
801.43	10.294
801.73	32.203
802.04	18.182
802.34	11.667
802.65	30.508
802.95	22.388
803.26	15.254
803.56	15.068
803.87	12.857
804.17	28.767
804.48	-5.263
804.78	36.111
805.09	8.621
805.39	22.973
805.70	-5.634
806.00	24.390
806.30	12.048
806.61	19.178
806.91	10.577
807.22	21.111
807.52	16.092
807.83	33.333
808.13	31.325
808.43	21.348
808.74	13.750
809.04	17.647
809.35	9.333
809.65	5.714
809.95	13.699
810.26	8.772
810.56	25.862
810.86	26.471
811.17	7.018
811.47	16.393
811.77	-2.222
812.08	13.559
812.38	15.000
812.69	13.793
812.99	22.642
813.29	12.821
813.59	22.000
813.90	17.544
814.20	10.909
814.50	38.028
814.81	17.949
815.11	14.754
815.41	4.478
815.72	29.310
816.02	10.714
816.32	24.444
816.62	11.364
816.93	0.000
817.23	20.370
817.53	14.894
817.84	16.667
818.14	2.941
818.44	2.041
818.74	17.778
819.04	-15.385
819.35	20.000
819.65	-26.923
819.95	5.660
820.25	17.778
820.56	7.143
820.86	-3.125
821.16	-2.564
821.46	16.279
821.76	2.000
822.07	37.500
822.37	17.391
822.67	34.043
822.97	-10.811
823.27	10.000
823.57	18.367
823.88	28.889
824.18	22.500
824.48	0.000
824.78	-24.000
825.08	24.242
825.38	35.556
825.69	10.638
825.99	8.333
826.29	-25.714
826.59	20.513
826.89	16.279
827.19	2.000
827.49	26.471
827.79	10.417
828.09	5.405
828.39	-10.000
828.70	0.000
829.00	-11.628
829.30	7.143
829.60	11.765
829.90	30.435
830.20	17.143
830.50	-10.345
830.80	-16.667
831.10	-7.692
831.40	23.529
831.70	19.048
832.00	22.581
832.30	-94.118
832.60	-4.167
832.90	-76.923
833.20	-42.105
833.50	-35.000
833.80	-36.842
834.10	-66.667
834.40	16.667
834.70	-3.125
835.00	-20.000
835.30	8.824
835.60	-23.333
835.90	-16.000
836.20	-40.909
836.50	-48.000
836.80	-33.333
837.10	-7.407
837.40	3.704
837.70	-62.500
838.00	10.714
838.30	-13.043
838.60	13.793
838.90	-28.571
839.19	-52.174
839.49	-141.667
839.79	-30.435
840.09	-87.500
840.39	-30.000
840.69	-6.452
840.99	-46.429
841.29	-60.000
841.59	10.526
841.88	0.000
842.18	-7.692
842.48	-140.000
842.78	-45.000
843.08	-3.333
843.38	0.000
843.68	-72.222
843.97	17.647
844.27	-50.000
844.57	-15.789
844.87	-130.000
845.17	-73.333
845.47	19.048
845.76	-52.381
846.06	-144.444
846.36	-41.176
846.66	-3.846
846.96	-60.000
847.25	-35.294
847.55	-8.696
847.85	0.000
848.15	-29.412
848.44	-27.273
848.74	-23.810
849.04	-45.833
849.34	-37.500
849.63	-30.435
849.93	750.000
850.23	-73.333
850.53	11.538
850.82	-36.364
851.12	9.091
851.42	9.091
851.71	76.923
852.01	-60.000
852.31	-100.000
852.61	-36.842
852.90	-41.667
853.20	-16.667
853.50	-155.556
853.79	-23.810
854.09	-18.182
854.39	-108.333
854.68	6.452
854.98	-34.615
855.28	38.889
855.57	-14.286
855.87	20.000
856.17	-22.727
856.46	-3.704
856.76	-33.333
857.05	-34.783
857.35	-16.667
857.65	-69.231
857.94	-4.762
858.24	-7.407
858.53	0.000
858.83	-41.176
859.13	-11.765
859.42	35.294
859.72	-28.571
860.01	-45.000
860.31	-66.667
860.60	-40.000
860.90	-46.667
861.20	16.667
861.49	-92.308
861.79	0.000
862.08	-84.615
862.38	-6.250
862.67	5.882
862.97	-25.000
863.26	-88.889
863.56	-110.000
863.85	-81.818
864.15	-44.444
864.44	-400.000
864.74	-50.000
865.03	-56.250
865.33	-100.000
865.62	22.581
865.92	9.091
866.21	-26.087
866.51	-35.714
866.80	-320.000
867.10	-83.333
867.39	-158.333
867.69	2100.000
867.98	-28.571
868.27	11.765
868.57	-1300.000
868.86	-80.000
869.16	-66.667
869.45	4.167
869.75	27.273
870.04	-185.714
870.33	-66.667
870.63	-271.429
870.92	-225.000
871.22	-287.500
871.51	-136.364
871.80	-600.000
872.10	-700.000
>>>>>End Processed Spectral Data<<<<<
