SpectraSuite Data File
++++++++++++++++++++++++++++++++++++
Date: Thu May 14 16:18:40 PDT 2015
User: schluterlab
Dark Spectrum Present: Yes
Reference Spectrum Present: Yes
Number of Sampled Component Spectra: 1
Spectrometers: USB2E3373
Integration Time (usec): 3000 (USB2E3373)
Spectra Averaged: 3 (USB2E3373)
Boxcar Smoothing: 0 (USB2E3373)
Correct for Electrical Dark: No (USB2E3373)
Strobe/Lamp Enabled: No (USB2E3373)
Correct for Detector Non-linearity: No (USB2E3373)
Correct for Stray Light: No (USB2E3373)
Number of Pixels in Processed Spectrum: 2048
>>>>>Begin Processed Spectral Data<<<<<
178.53	0.000
178.91	100.000
179.29	-2200.000
179.67	-1100.000
180.04	171.429
180.42	90.000
180.80	380.000
181.18	-300.000
181.56	-100.000
181.94	175.000
182.31	-100.000
182.69	33.333
183.07	-250.000
183.45	125.000
183.83	-150.000
184.20	-200.000
184.58	300.000
184.96	-100.000
185.34	-11.111
185.72	20.000
186.09	133.333
186.47	950.000
186.85	420.000
187.23	-177.778
187.61	-500.000
187.98	100.000
188.36	375.000
188.74	-125.000
189.12	-133.333
189.49	-37.500
189.87	50.000
190.25	11.111
190.63	40.000
191.00	-33.333
191.38	0.000
191.76	-200.000
192.14	33.333
192.51	200.000
192.89	33.333
193.27	0.000
193.65	-28.571
194.02	-1300.000
194.40	0.000
194.78	142.857
195.15	0.000
195.53	-72.727
195.91	0.000
196.29	-50.000
196.66	0.000
197.04	-300.000
197.42	-171.429
197.79	-300.000
198.17	-87.500
198.55	-57.143
198.92	-11.111
199.30	0.000
199.68	9.091
200.05	35.714
200.43	-400.000
200.81	100.000
201.18	0.000
201.56	200.000
201.94	0.000
202.31	33.333
202.69	-111.111
203.07	700.000
203.44	-55.556
203.82	-250.000
204.19	25.000
204.57	33.333
204.95	-150.000
205.32	200.000
205.70	-0.000
206.08	-150.000
206.45	-50.000
206.83	360.000
207.20	-83.333
207.58	-240.000
207.96	33.333
208.33	0.000
208.71	8.333
209.08	216.667
209.46	0.000
209.84	183.333
210.21	300.000
210.59	100.000
210.96	366.667
211.34	100.000
211.71	-175.000
212.09	-1100.000
212.46	0.000
212.84	950.000
213.22	-220.000
213.59	-175.000
213.97	20.000
214.34	100.000
214.72	50.000
215.09	-200.000
215.47	0.000
215.84	57.143
216.22	250.000
216.59	20.000
216.97	-160.000
217.34	-250.000
217.72	-25.000
218.09	-100.000
218.47	-150.000
218.84	0.000
219.22	20.000
219.59	-17.647
219.97	-10.000
220.34	900.000
220.72	-22.222
221.09	23.077
221.47	-300.000
221.84	-50.000
222.22	-128.571
222.59	0.000
222.97	100.000
223.34	-140.000
223.72	-900.000
224.09	-75.000
224.46	-25.000
224.84	80.000
225.21	0.000
225.59	-275.000
225.96	-275.000
226.34	23.077
226.71	-0.000
227.08	-600.000
227.46	73.333
227.83	-25.000
228.21	42.105
228.58	175.000
228.95	600.000
229.33	33.333
229.70	-70.000
230.08	63.158
230.45	120.000
230.82	-300.000
231.20	-14.286
231.57	33.333
231.95	-18.182
232.32	27.273
232.69	30.000
233.07	-250.000
233.44	23.529
233.81	10.000
234.19	11.111
234.56	22.727
234.93	20.690
235.31	-26.316
235.68	11.111
236.05	-55.000
236.43	57.692
236.80	68.000
237.17	-22.222
237.55	12.121
237.92	30.000
238.29	29.032
238.67	0.000
239.04	16.667
239.41	26.190
239.79	19.565
240.16	25.926
240.53	28.261
240.91	15.686
241.28	31.148
241.65	47.761
242.02	44.595
242.40	18.462
242.77	28.000
243.14	19.512
243.51	19.737
243.89	17.949
244.26	28.713
244.63	34.314
245.00	30.841
245.38	28.070
245.75	15.929
246.12	34.921
246.49	27.907
246.87	32.143
247.24	31.126
247.61	27.632
247.98	30.201
248.36	32.099
248.73	27.607
249.10	26.776
249.47	33.333
249.84	36.649
250.22	33.161
250.59	34.444
250.96	30.000
251.33	25.000
251.70	35.043
252.08	32.083
252.45	33.607
252.82	30.165
253.19	28.906
253.56	32.319
253.94	32.308
254.31	30.682
254.68	30.420
255.05	32.573
255.42	27.211
255.79	31.715
256.16	33.775
256.54	30.464
256.91	32.459
257.28	32.131
257.65	31.529
258.02	28.024
258.39	33.048
258.76	31.193
259.14	34.483
259.51	30.259
259.88	28.045
260.25	32.778
260.62	31.507
260.99	36.612
261.36	33.512
261.73	32.891
262.10	32.143
262.47	31.635
262.85	34.596
263.22	30.390
263.59	25.789
263.96	35.294
264.33	31.458
264.70	30.370
265.07	33.413
265.44	33.560
265.81	31.713
266.18	31.293
266.55	32.366
266.92	32.802
267.29	31.291
267.66	33.038
268.03	31.004
268.40	32.359
268.77	29.385
269.14	30.617
269.51	30.702
269.88	32.172
270.25	29.577
270.62	32.489
270.99	33.131
271.36	29.901
271.73	32.417
272.10	33.066
272.47	31.663
272.84	31.124
273.21	32.265
273.58	31.452
273.95	30.000
274.32	29.468
274.69	30.174
275.06	30.037
275.43	29.390
275.80	29.277
276.17	30.741
276.54	29.478
276.91	29.517
277.28	31.646
277.65	30.162
278.02	32.353
278.39	29.348
278.76	29.877
279.13	29.610
279.50	31.271
279.87	30.948
280.23	28.169
280.60	30.678
280.97	28.618
281.34	28.862
281.71	31.472
282.08	29.070
282.45	30.606
282.82	28.728
283.19	26.656
283.56	30.000
283.92	31.231
284.29	32.701
284.66	29.392
285.03	26.923
285.40	27.202
285.77	29.876
286.14	29.008
286.51	29.376
286.87	29.700
287.24	28.916
287.61	26.756
287.98	26.133
288.35	30.030
288.72	29.438
289.08	28.843
289.45	28.107
289.82	27.560
290.19	28.736
290.56	26.197
290.93	29.529
291.29	28.375
291.66	26.860
292.03	24.966
292.40	28.844
292.77	25.606
293.13	26.928
293.50	26.018
293.87	25.638
294.24	28.267
294.60	26.169
294.97	23.758
295.34	27.017
295.71	25.095
296.08	25.065
296.44	25.245
296.81	26.066
297.18	24.533
297.55	23.821
297.91	25.267
298.28	24.408
298.65	23.424
299.02	25.148
299.38	24.371
299.75	23.481
300.12	25.231
300.48	24.078
300.85	23.060
301.22	25.056
301.59	23.630
301.95	23.277
302.32	24.667
302.69	23.877
303.05	24.592
303.42	24.058
303.79	24.583
304.15	23.764
304.52	23.996
304.89	23.665
305.25	22.878
305.62	23.929
305.99	24.227
306.35	24.093
306.72	23.475
307.09	22.335
307.45	24.017
307.82	24.016
308.19	24.016
308.55	24.108
308.92	23.272
309.29	25.192
309.65	23.684
310.02	24.059
310.38	23.622
310.75	25.340
311.12	25.120
311.48	24.047
311.85	24.691
312.22	24.953
312.58	24.977
312.95	22.849
313.31	25.294
313.68	24.908
314.05	24.752
314.41	24.499
314.78	25.250
315.14	25.590
315.51	25.208
315.87	25.473
316.24	25.845
316.61	25.844
316.97	25.249
317.34	26.014
317.70	26.201
318.07	26.190
318.43	25.935
318.80	27.007
319.16	27.124
319.53	25.707
319.89	25.241
320.26	26.512
320.62	26.152
320.99	27.147
321.35	27.172
321.72	27.814
322.08	26.961
322.45	28.455
322.81	27.978
323.18	28.142
323.54	27.759
323.91	28.648
324.27	28.227
324.64	29.303
325.00	28.607
325.37	29.975
325.73	28.678
326.10	29.035
326.46	30.863
326.83	30.665
327.19	30.236
327.56	31.304
327.92	30.763
328.29	29.758
328.65	30.905
329.01	31.049
329.38	31.761
329.74	31.079
330.11	32.021
330.47	30.329
330.84	31.955
331.20	32.167
331.56	32.322
331.93	33.222
332.29	33.559
332.66	34.136
333.02	31.993
333.38	31.460
333.75	30.387
334.11	32.944
334.48	31.848
334.84	33.305
335.20	32.242
335.57	32.799
335.93	33.306
336.29	31.947
336.66	32.885
337.02	32.107
337.38	32.738
337.75	30.744
338.11	32.969
338.47	33.002
338.84	31.895
339.20	31.592
339.56	31.301
339.93	31.117
340.29	31.079
340.65	30.657
341.02	32.243
341.38	32.336
341.74	31.477
342.11	31.134
342.47	30.103
342.83	33.494
343.20	32.788
343.56	33.039
343.92	32.506
344.28	31.562
344.65	32.713
345.01	32.215
345.37	33.048
345.73	32.892
346.10	32.527
346.46	32.199
346.82	32.584
347.19	31.856
347.55	31.791
347.91	31.649
348.27	32.018
348.63	31.531
349.00	30.574
349.36	31.450
349.72	31.696
350.08	31.055
350.45	32.091
350.81	31.297
351.17	30.677
351.53	31.994
351.89	32.954
352.26	32.090
352.62	32.164
352.98	32.214
353.34	30.620
353.70	31.664
354.07	30.775
354.43	31.207
354.79	31.189
355.15	30.537
355.51	32.749
355.87	32.536
356.24	32.243
356.60	30.820
356.96	32.246
357.32	31.747
357.68	32.064
358.04	32.335
358.40	31.866
358.77	32.091
359.13	31.905
359.49	31.673
359.85	31.980
360.21	31.994
360.57	31.515
360.93	32.017
361.29	32.912
361.66	32.730
362.02	32.289
362.38	33.310
362.74	31.844
363.10	33.700
363.46	32.479
363.82	33.381
364.18	32.020
364.54	33.817
364.90	33.846
365.26	31.931
365.62	33.467
365.98	33.084
366.35	32.752
366.71	33.061
367.07	33.288
367.43	32.239
367.79	33.842
368.15	34.114
368.51	33.085
368.87	32.332
369.23	34.133
369.59	33.402
369.95	33.266
370.31	33.761
370.67	34.250
371.03	32.687
371.39	32.841
371.75	34.388
372.11	33.130
372.47	33.175
372.83	34.228
373.19	34.490
373.55	32.859
373.91	34.151
374.27	32.988
374.63	33.356
374.99	34.284
375.35	34.545
375.71	33.742
376.07	33.441
376.42	34.635
376.78	34.058
377.14	34.311
377.50	34.156
377.86	35.776
378.22	35.269
378.58	35.196
378.94	34.155
379.30	34.681
379.66	34.685
380.02	35.603
380.38	36.809
380.74	35.606
381.09	35.889
381.45	35.398
381.81	36.066
382.17	36.639
382.53	35.673
382.89	35.892
383.25	36.460
383.61	35.590
383.97	36.042
384.32	36.364
384.68	35.847
385.04	37.305
385.40	36.830
385.76	36.460
386.12	36.026
386.48	37.118
386.83	37.545
387.19	37.080
387.55	36.737
387.91	36.644
388.27	38.222
388.62	37.171
388.98	36.210
389.34	37.183
389.70	38.292
390.06	35.938
390.42	36.928
390.77	38.290
391.13	38.028
391.49	37.681
391.85	37.939
392.20	38.078
392.56	38.157
392.92	39.258
393.28	38.751
393.64	37.877
393.99	37.943
394.35	39.603
394.71	37.305
395.07	37.665
395.42	37.350
395.78	39.610
396.14	38.265
396.50	38.836
396.85	38.939
397.21	38.876
397.57	40.342
397.92	39.576
398.28	38.620
398.64	38.730
399.00	38.691
399.35	39.005
399.71	40.272
400.07	39.921
400.42	39.581
400.78	39.641
401.14	40.011
401.49	39.966
401.85	39.884
402.21	40.556
402.57	41.021
402.92	41.135
403.28	39.813
403.63	40.095
403.99	40.321
404.35	40.250
404.70	40.737
405.06	40.598
405.42	41.452
405.77	41.058
406.13	40.465
406.49	40.709
406.84	42.271
407.20	40.414
407.55	40.945
407.91	40.541
408.27	41.048
408.62	41.885
408.98	41.091
409.34	40.938
409.69	41.965
410.05	42.438
410.40	42.343
410.76	41.840
411.11	42.022
411.47	42.015
411.83	43.210
412.18	43.855
412.54	42.620
412.89	42.375
413.25	43.567
413.60	43.136
413.96	43.007
414.31	41.360
414.67	43.172
415.03	41.723
415.38	43.190
415.74	42.883
416.09	43.122
416.45	42.079
416.80	43.023
417.16	43.742
417.51	44.396
417.87	44.083
418.22	43.713
418.58	42.627
418.93	44.645
419.29	44.760
419.64	43.277
420.00	44.510
420.35	43.122
420.71	44.744
421.06	44.221
421.42	44.610
421.77	44.319
422.12	44.186
422.48	43.932
422.83	45.181
423.19	44.828
423.54	46.350
423.90	44.451
424.25	45.813
424.61	45.063
424.96	44.865
425.31	45.435
425.67	45.464
426.02	46.320
426.38	45.752
426.73	44.978
427.09	45.790
427.44	45.276
427.79	44.997
428.15	45.320
428.50	45.393
428.85	44.776
429.21	45.745
429.56	45.508
429.92	45.897
430.27	45.976
430.62	45.481
430.98	45.352
431.33	45.161
431.68	44.588
432.04	46.216
432.39	47.349
432.74	46.404
433.10	46.025
433.45	45.987
433.80	46.888
434.16	46.281
434.51	46.608
434.86	48.208
435.22	47.184
435.57	48.290
435.92	46.633
436.28	47.895
436.63	48.443
436.98	45.947
437.34	48.140
437.69	46.670
438.04	47.805
438.39	47.674
438.75	47.316
439.10	47.304
439.45	48.295
439.81	48.023
440.16	47.078
440.51	48.328
440.86	48.193
441.22	48.553
441.57	48.480
441.92	47.090
442.27	48.687
442.63	47.789
442.98	48.879
443.33	48.606
443.68	48.464
444.03	49.436
444.39	48.359
444.74	48.392
445.09	47.643
445.44	49.104
445.79	48.898
446.15	49.640
446.50	48.837
446.85	48.444
447.20	49.565
447.55	48.274
447.91	49.319
448.26	49.207
448.61	48.565
448.96	50.376
449.31	48.993
449.66	48.366
450.02	48.840
450.37	49.867
450.72	49.731
451.07	49.260
451.42	50.144
451.77	48.082
452.12	50.000
452.47	48.841
452.83	50.394
453.18	49.154
453.53	49.569
453.88	48.702
454.23	50.169
454.58	49.971
454.93	49.575
455.28	51.114
455.63	49.858
455.98	50.279
456.34	50.177
456.69	49.794
457.04	51.832
457.39	50.000
457.74	51.566
458.09	49.039
458.44	50.216
458.79	49.510
459.14	49.345
459.49	50.934
459.84	49.948
460.19	50.028
460.54	50.539
460.89	49.974
461.24	50.460
461.59	50.858
461.94	49.800
462.29	50.896
462.64	50.392
462.99	50.534
463.34	51.265
463.69	50.176
464.04	50.917
464.39	51.233
464.74	50.627
465.09	50.634
465.44	50.751
465.79	51.454
466.14	50.078
466.49	49.895
466.84	52.066
467.19	50.694
467.54	49.882
467.89	49.943
468.24	50.416
468.59	50.203
468.94	49.883
469.29	51.650
469.64	51.303
469.99	50.797
470.34	51.671
470.68	52.495
471.03	51.408
471.38	51.210
471.73	52.601
472.08	52.728
472.43	52.438
472.78	51.826
473.13	53.034
473.48	53.474
473.83	51.770
474.17	51.641
474.52	53.879
474.87	51.495
475.22	52.732
475.57	51.402
475.92	52.464
476.27	52.503
476.61	51.090
476.96	51.512
477.31	52.228
477.66	52.676
478.01	53.025
478.36	51.944
478.70	52.217
479.05	53.272
479.40	52.221
479.75	53.122
480.10	52.392
480.45	52.188
480.79	52.200
481.14	52.390
481.49	52.749
481.84	53.916
482.19	52.602
482.53	53.695
482.88	53.744
483.23	53.802
483.58	51.965
483.92	52.394
484.27	52.202
484.62	52.434
484.97	52.372
485.31	51.320
485.66	50.662
486.01	49.972
486.36	50.651
486.70	52.264
487.05	52.932
487.40	52.357
487.75	52.926
488.09	52.437
488.44	51.880
488.79	52.344
489.13	52.824
489.48	51.845
489.83	51.670
490.17	51.924
490.52	51.601
490.87	52.453
491.22	53.943
491.56	53.072
491.91	53.816
492.26	53.094
492.60	53.039
492.95	53.313
493.30	52.398
493.64	53.745
493.99	53.114
494.34	52.439
494.68	52.463
495.03	52.863
495.37	53.839
495.72	53.605
496.07	53.550
496.41	52.767
496.76	52.836
497.11	53.333
497.45	53.474
497.80	54.154
498.14	54.376
498.49	53.952
498.84	54.068
499.18	53.396
499.53	54.664
499.87	53.319
500.22	53.250
500.56	53.891
500.91	54.188
501.26	55.091
501.60	54.441
501.95	54.581
502.29	54.673
502.64	55.225
502.98	53.538
503.33	53.477
503.67	53.511
504.02	54.072
504.36	54.736
504.71	55.719
505.06	54.616
505.40	54.616
505.75	54.463
506.09	54.696
506.44	55.942
506.78	55.917
507.13	56.063
507.47	55.992
507.82	56.439
508.16	55.880
508.51	55.931
508.85	56.731
509.19	56.561
509.54	57.012
509.88	57.552
510.23	57.018
510.57	57.371
510.92	57.716
511.26	56.421
511.61	55.963
511.95	56.027
512.30	58.149
512.64	57.771
512.98	57.479
513.33	58.518
513.67	56.859
514.02	58.304
514.36	58.824
514.70	59.740
515.05	58.394
515.39	59.003
515.74	60.657
516.08	59.165
516.42	60.073
516.77	60.410
517.11	59.103
517.46	60.551
517.80	60.823
518.14	60.392
518.49	61.388
518.83	59.180
519.17	59.181
519.52	59.696
519.86	60.612
520.20	61.395
520.55	60.022
520.89	61.149
521.23	61.418
521.58	61.525
521.92	62.210
522.26	61.684
522.61	62.442
522.95	62.687
523.29	62.184
523.64	62.444
523.98	63.263
524.32	62.693
524.66	63.233
525.01	61.835
525.35	62.608
525.69	61.485
526.04	61.424
526.38	62.414
526.72	62.860
527.06	64.106
527.41	62.682
527.75	63.717
528.09	64.050
528.43	63.114
528.78	62.717
529.12	63.475
529.46	63.013
529.80	63.330
530.15	63.188
530.49	64.650
530.83	63.813
531.17	64.337
531.51	64.741
531.86	65.144
532.20	64.756
532.54	63.734
532.88	63.758
533.22	63.819
533.57	63.358
533.91	63.187
534.25	63.595
534.59	64.655
534.93	63.384
535.27	62.310
535.62	64.412
535.96	64.265
536.30	63.572
536.64	64.685
536.98	64.699
537.32	64.383
537.66	65.003
538.01	62.779
538.35	63.886
538.69	64.123
539.03	66.033
539.37	63.428
539.71	63.604
540.05	64.808
540.39	63.936
540.73	63.145
541.07	64.378
541.42	63.320
541.76	63.286
542.10	63.209
542.44	63.337
542.78	64.112
543.12	63.051
543.46	63.919
543.80	62.650
544.14	63.375
544.48	65.248
544.82	64.572
545.16	63.327
545.50	62.732
545.84	65.095
546.18	63.827
546.52	65.223
546.86	62.893
547.20	64.822
547.54	64.232
547.88	63.110
548.22	63.333
548.56	62.902
548.90	64.000
549.24	63.040
549.58	65.426
549.92	63.903
550.26	64.078
550.60	64.008
550.94	63.842
551.28	62.838
551.62	64.218
551.96	63.172
552.30	64.245
552.64	62.414
552.98	63.319
553.32	64.630
553.66	64.116
554.00	62.863
554.34	64.221
554.68	63.654
555.02	64.520
555.36	64.694
555.69	62.972
556.03	63.430
556.37	64.018
556.71	64.172
557.05	64.153
557.39	64.632
557.73	63.078
558.07	63.974
558.41	63.256
558.75	63.151
559.08	65.344
559.42	64.678
559.76	63.908
560.10	62.291
560.44	64.182
560.78	64.125
561.12	63.300
561.45	63.139
561.79	63.126
562.13	63.586
562.47	62.639
562.81	63.228
563.15	62.753
563.48	62.213
563.82	63.543
564.16	62.386
564.50	62.217
564.84	61.888
565.17	62.647
565.51	62.888
565.85	63.717
566.19	61.751
566.52	62.083
566.86	61.969
567.20	60.359
567.54	61.551
567.88	61.825
568.21	61.611
568.55	62.158
568.89	61.235
569.23	60.963
569.56	60.531
569.90	60.086
570.24	60.169
570.57	58.980
570.91	59.002
571.25	57.940
571.59	58.670
571.92	58.982
572.26	58.047
572.60	57.767
572.93	57.974
573.27	58.303
573.61	57.729
573.95	57.781
574.28	57.720
574.62	56.867
574.96	56.859
575.29	56.753
575.63	56.641
575.97	57.246
576.30	57.192
576.64	56.502
576.98	57.312
577.31	57.249
577.65	57.037
577.98	56.777
578.32	56.315
578.66	56.069
578.99	56.482
579.33	57.025
579.67	56.460
580.00	56.597
580.34	56.523
580.67	56.355
581.01	56.339
581.35	55.620
581.68	56.309
582.02	55.472
582.35	56.692
582.69	56.226
583.02	56.830
583.36	56.500
583.70	57.010
584.03	55.988
584.37	56.184
584.70	56.137
585.04	55.127
585.37	55.678
585.71	55.750
586.04	56.011
586.38	56.708
586.72	55.152
587.05	55.769
587.39	55.821
587.72	57.153
588.06	55.996
588.39	56.161
588.73	55.344
589.06	56.208
589.40	57.160
589.73	56.362
590.07	55.836
590.40	57.302
590.73	57.264
591.07	57.111
591.40	57.076
591.74	57.750
592.07	56.070
592.41	56.546
592.74	55.520
593.08	55.828
593.41	56.022
593.75	55.345
594.08	56.286
594.41	56.731
594.75	55.862
595.08	56.023
595.42	55.844
595.75	55.893
596.09	56.591
596.42	56.611
596.75	55.616
597.09	57.455
597.42	56.734
597.75	55.508
598.09	55.833
598.42	56.092
598.76	55.101
599.09	55.180
599.42	54.408
599.76	54.506
600.09	55.088
600.42	54.454
600.76	54.822
601.09	54.298
601.42	54.961
601.76	54.103
602.09	54.253
602.42	53.980
602.76	54.760
603.09	55.543
603.42	55.455
603.76	54.545
604.09	54.826
604.42	55.046
604.76	54.909
605.09	54.567
605.42	54.904
605.75	54.000
606.09	54.909
606.42	53.630
606.75	54.273
607.09	53.495
607.42	53.565
607.75	54.201
608.08	54.025
608.42	54.131
608.75	54.104
609.08	53.862
609.41	54.654
609.75	54.464
610.08	55.057
610.41	54.460
610.74	54.160
611.07	54.529
611.41	55.067
611.74	55.751
612.07	54.418
612.40	54.373
612.73	55.697
613.07	54.377
613.40	54.379
613.73	55.368
614.06	53.876
614.39	53.741
614.72	53.809
615.06	53.994
615.39	54.422
615.72	54.218
616.05	53.473
616.38	54.894
616.71	53.814
617.05	54.420
617.38	53.237
617.71	54.536
618.04	54.452
618.37	54.044
618.70	55.090
619.03	55.018
619.36	54.747
619.69	54.965
620.03	54.300
620.36	54.049
620.69	54.719
621.02	55.118
621.35	56.967
621.68	56.399
622.01	53.879
622.34	54.463
622.67	55.464
623.00	53.239
623.33	55.541
623.66	54.604
623.99	54.312
624.32	54.516
624.65	52.317
624.99	55.137
625.32	55.389
625.65	55.158
625.98	54.712
626.31	54.855
626.64	55.458
626.97	54.089
627.30	54.442
627.63	54.089
627.96	55.781
628.29	54.630
628.62	54.492
628.95	56.266
629.28	55.565
629.61	54.882
629.94	53.975
630.26	52.797
630.59	54.836
630.92	55.238
631.25	56.619
631.58	58.004
631.91	55.951
632.24	56.388
632.57	55.028
632.90	55.868
633.23	56.327
633.56	58.061
633.89	55.992
634.22	54.990
634.55	55.428
634.88	54.870
635.20	57.481
635.53	56.949
635.86	57.421
636.19	55.249
636.52	56.540
636.85	54.341
637.18	56.549
637.51	53.011
637.83	58.361
638.16	56.567
638.49	57.864
638.82	55.581
639.15	54.525
639.48	55.889
639.81	55.081
640.13	56.537
640.46	54.667
640.79	53.676
641.12	57.019
641.45	54.705
641.77	57.381
642.10	56.037
642.43	59.441
642.76	54.065
643.09	52.877
643.41	57.003
643.74	56.000
644.07	57.379
644.40	54.173
644.73	55.007
645.05	55.947
645.38	56.835
645.71	56.305
646.04	55.667
646.36	55.036
646.69	56.595
647.02	56.422
647.35	57.099
647.67	57.971
648.00	58.917
648.33	56.156
648.66	55.350
648.98	51.837
649.31	55.210
649.64	54.582
649.96	53.846
650.29	52.990
650.62	54.455
650.94	55.405
651.27	53.593
651.60	54.094
651.92	52.736
652.25	53.546
652.58	52.957
652.90	52.326
653.23	53.662
653.56	52.639
653.88	52.949
654.21	51.972
654.54	52.168
654.86	53.258
655.19	52.447
655.52	51.636
655.84	47.190
656.17	54.288
656.49	75.045
656.82	81.938
657.15	63.707
657.47	48.647
657.80	35.997
658.13	28.624
658.45	37.514
658.78	45.595
659.10	44.824
659.43	44.375
659.75	44.467
660.08	43.641
660.41	44.913
660.73	46.408
661.06	50.661
661.38	50.399
661.71	54.483
662.03	54.497
662.36	53.488
662.68	54.972
663.01	52.212
663.33	53.308
663.66	54.396
663.98	51.923
664.31	56.098
664.63	48.555
664.96	52.632
665.28	50.998
665.61	52.448
665.93	52.321
666.26	51.792
666.58	52.399
666.91	57.196
667.23	52.952
667.56	56.410
667.88	53.600
668.21	52.148
668.53	51.351
668.86	53.045
669.18	52.342
669.50	49.702
669.83	53.000
670.15	50.591
670.48	52.183
670.80	50.478
671.13	50.284
671.45	53.937
671.77	53.296
672.10	50.333
672.42	50.647
672.75	48.694
673.07	48.358
673.39	47.149
673.72	54.027
674.04	52.586
674.37	50.805
674.69	52.557
675.01	51.810
675.34	52.672
675.66	49.064
675.98	51.679
676.31	48.828
676.63	51.711
676.95	53.448
677.28	51.411
677.60	47.638
677.92	51.631
678.25	48.995
678.57	51.246
678.89	50.512
679.22	45.993
679.54	46.838
679.86	48.475
680.18	48.259
680.51	47.327
680.83	48.445
681.15	47.414
681.48	50.086
681.80	49.568
682.12	48.427
682.44	47.078
682.77	49.823
683.09	49.432
683.41	50.388
683.73	48.956
684.06	46.494
684.38	45.975
684.70	48.654
685.02	48.709
685.34	44.093
685.67	45.426
685.99	45.399
686.31	41.715
686.63	45.972
686.96	45.426
687.28	45.440
687.60	47.643
687.92	45.659
688.24	47.746
688.56	46.034
688.89	46.824
689.21	47.750
689.53	48.235
689.85	45.365
690.17	44.259
690.49	45.618
690.82	47.327
691.14	44.939
691.46	47.992
691.78	44.936
692.10	44.954
692.42	43.750
692.74	45.191
693.06	43.333
693.39	44.402
693.71	42.669
694.03	44.238
694.35	46.476
694.67	44.148
694.99	46.809
695.31	45.695
695.63	47.619
695.95	45.135
696.27	45.714
696.59	46.903
696.91	47.297
697.23	47.033
697.56	45.621
697.88	43.561
698.20	45.198
698.52	45.644
698.84	47.609
699.16	45.714
699.48	42.887
699.80	45.745
700.12	47.162
700.44	43.779
700.76	46.556
701.08	46.247
701.40	46.891
701.72	47.015
702.04	47.594
702.36	47.382
702.68	42.298
703.00	44.743
703.32	47.291
703.64	47.922
703.96	45.346
704.28	41.769
704.60	42.532
704.91	44.133
705.23	47.671
705.55	45.682
705.87	46.364
706.19	47.853
706.51	42.771
706.83	45.821
707.15	44.180
707.47	42.757
707.79	43.450
708.11	41.314
708.43	41.935
708.74	40.179
709.06	41.763
709.38	42.019
709.70	43.176
710.02	40.568
710.34	45.479
710.66	43.017
710.98	45.082
711.29	41.484
711.61	47.458
711.93	43.590
712.25	46.216
712.57	47.788
712.89	46.176
713.20	44.675
713.52	43.642
713.84	47.354
714.16	45.526
714.48	41.237
714.80	45.714
715.11	42.782
715.43	41.910
715.75	40.789
716.07	43.923
716.39	42.077
716.70	42.169
717.02	45.246
717.34	43.554
717.66	42.617
717.97	42.123
718.29	43.643
718.61	42.763
718.93	40.777
719.24	43.478
719.56	44.785
719.88	40.841
720.20	41.290
720.51	40.683
720.83	42.500
721.15	41.776
721.46	41.096
721.78	40.333
722.10	41.748
722.42	36.242
722.73	39.032
723.05	44.561
723.37	40.972
723.68	42.294
724.00	41.877
724.32	39.789
724.63	40.210
724.95	45.390
725.27	38.676
725.58	43.463
725.90	40.690
726.22	39.812
726.53	43.831
726.85	41.824
727.16	42.296
727.48	44.648
727.80	44.702
728.11	37.809
728.43	43.434
728.74	42.475
729.06	35.762
729.38	43.182
729.69	41.946
730.01	36.607
730.32	36.364
730.64	39.308
730.96	37.888
731.27	41.341
731.59	40.110
731.90	39.481
732.22	37.760
732.53	39.227
732.85	39.143
733.16	41.935
733.48	35.366
733.80	38.440
734.11	38.177
734.43	39.459
734.74	39.241
735.06	38.442
735.37	38.919
735.69	40.000
736.00	40.113
736.32	35.580
736.63	39.722
736.95	35.632
737.26	41.818
737.58	38.788
737.89	40.882
738.21	36.391
738.52	32.131
738.83	39.249
739.15	38.298
739.46	38.095
739.78	39.264
740.09	36.676
740.41	37.026
740.72	37.667
741.04	42.718
741.35	43.158
741.66	38.039
741.98	36.885
742.29	35.565
742.61	39.474
742.92	34.615
743.23	38.267
743.55	37.209
743.86	39.600
744.18	38.430
744.49	31.646
744.80	41.152
745.12	36.709
745.43	42.276
745.74	37.931
746.06	37.288
746.37	43.460
746.68	39.837
747.00	39.583
747.31	40.343
747.62	38.846
747.94	36.032
748.25	36.145
748.56	36.327
748.88	40.598
749.19	37.069
749.50	37.229
749.82	41.365
750.13	42.349
750.44	33.667
750.75	36.000
751.07	40.615
751.38	38.801
751.69	36.102
752.01	39.159
752.32	35.948
752.63	36.054
752.94	39.100
753.26	41.636
753.57	32.963
753.88	38.577
754.19	33.762
754.51	36.656
754.82	34.084
755.13	39.016
755.44	37.884
755.75	38.816
756.07	31.940
756.38	38.365
756.69	35.241
757.00	32.133
757.31	34.699
757.63	34.271
757.94	32.629
758.25	34.989
758.56	31.155
758.87	32.727
759.18	36.000
759.50	36.261
759.81	35.854
760.12	34.771
760.43	35.417
760.74	34.975
761.05	33.000
761.36	34.940
761.67	29.949
761.99	31.081
762.30	37.195
762.61	32.673
762.92	33.582
763.23	37.079
763.54	38.489
763.85	32.646
764.16	36.364
764.47	35.211
764.78	37.061
765.10	35.191
765.41	34.872
765.72	31.217
766.03	35.876
766.34	32.288
766.65	36.237
766.96	33.466
767.27	35.484
767.58	31.841
767.89	34.615
768.20	35.211
768.51	33.333
768.82	36.948
769.13	35.606
769.44	35.000
769.75	34.657
770.06	32.692
770.37	37.795
770.68	28.936
770.99	36.842
771.30	36.667
771.61	34.601
771.92	30.741
772.23	38.866
772.54	31.481
772.85	39.171
773.16	37.143
773.47	33.862
773.78	32.432
774.09	37.500
774.39	37.500
774.70	41.530
775.01	24.390
775.32	34.118
775.63	38.650
775.94	28.662
776.25	32.258
776.56	33.974
776.87	36.735
777.18	30.345
777.48	33.566
777.79	28.378
778.10	24.265
778.41	37.500
778.72	37.241
779.03	33.333
779.34	33.939
779.65	31.088
779.95	31.111
780.26	27.841
780.57	33.548
780.88	33.333
781.19	36.129
781.50	37.647
781.80	35.484
782.11	33.333
782.42	22.222
782.73	32.335
783.04	32.961
783.34	24.242
783.65	27.451
783.96	32.919
784.27	32.738
784.57	30.464
784.88	36.429
785.19	33.858
785.50	33.858
785.81	28.571
786.11	36.154
786.42	30.935
786.73	28.058
787.04	42.857
787.34	37.705
787.65	29.600
787.96	30.597
788.26	34.965
788.57	36.364
788.88	31.579
789.19	35.948
789.49	30.137
789.80	35.461
790.11	29.921
790.41	34.375
790.72	24.576
791.03	22.330
791.33	33.913
791.64	31.579
791.95	27.679
792.25	23.810
792.56	27.679
792.87	27.083
793.17	28.571
793.48	34.375
793.79	33.735
794.09	26.606
794.40	25.688
794.70	31.293
795.01	33.766
795.32	28.767
795.62	28.169
795.93	33.333
796.23	27.869
796.54	22.321
796.85	32.979
797.15	25.000
797.46	12.329
797.76	28.750
798.07	29.348
798.37	20.619
798.68	19.481
798.99	25.287
799.29	37.079
799.60	27.660
799.90	20.482
800.21	16.923
800.51	38.806
800.82	29.412
801.12	15.068
801.43	5.882
801.73	16.949
802.04	25.758
802.34	31.667
802.65	22.034
802.95	37.313
803.26	37.288
803.56	30.137
803.87	17.143
804.17	28.767
804.48	12.281
804.78	22.222
805.09	25.862
805.39	29.730
805.70	14.085
806.00	30.488
806.30	30.120
806.61	21.918
806.91	35.577
807.22	14.444
807.52	14.943
807.83	31.944
808.13	28.916
808.43	19.101
808.74	30.000
809.04	27.941
809.35	28.000
809.65	31.429
809.95	26.027
810.26	5.263
810.56	25.862
810.86	33.824
811.17	24.561
811.47	39.344
811.77	17.778
812.08	25.424
812.38	36.667
812.69	15.517
812.99	28.302
813.29	20.513
813.59	28.000
813.90	29.825
814.20	38.182
814.50	26.761
814.81	21.795
815.11	34.426
815.41	16.418
815.72	3.448
816.02	26.786
816.32	42.222
816.62	36.364
816.93	4.444
817.23	33.333
817.53	4.255
817.84	45.238
818.14	11.765
818.44	22.449
818.74	22.222
819.04	-10.256
819.35	25.714
819.65	-26.923
819.95	7.547
820.25	15.556
820.56	-2.381
820.86	9.375
821.16	0.000
821.46	-2.326
821.76	-4.000
822.07	32.143
822.37	19.565
822.67	14.894
822.97	-2.703
823.27	10.000
823.57	42.857
823.88	35.556
824.18	37.500
824.48	-10.000
824.78	-8.000
825.08	39.394
825.38	28.889
825.69	36.170
825.99	36.111
826.29	-20.000
826.59	0.000
826.89	9.302
827.19	24.000
827.49	23.529
827.79	31.250
828.09	-8.108
828.39	10.000
828.70	-2.439
829.00	4.651
829.30	-10.714
829.60	41.176
829.90	19.565
830.20	20.000
830.50	0.000
830.80	5.556
831.10	3.846
831.40	5.882
831.70	19.048
832.00	32.258
832.30	-17.647
832.60	16.667
832.90	-23.077
833.20	42.105
833.50	-30.000
833.80	-42.105
834.10	-38.095
834.40	0.000
834.70	28.125
835.00	2.857
835.30	5.882
835.60	-26.667
835.90	16.000
836.20	13.636
836.50	56.000
836.80	-15.152
837.10	22.222
837.40	25.926
837.70	-43.750
838.00	53.571
838.30	-21.739
838.60	20.690
838.90	64.286
839.19	-21.739
839.49	-66.667
839.79	17.391
840.09	-6.250
840.39	15.000
840.69	29.032
840.99	-14.286
841.29	40.000
841.59	26.316
841.88	33.333
842.18	3.846
842.48	20.000
842.78	0.000
843.08	30.000
843.38	32.258
843.68	5.556
843.97	20.588
844.27	-31.250
844.57	-15.789
844.87	-80.000
845.17	-40.000
845.47	19.048
845.76	-14.286
846.06	-122.222
846.36	-11.765
846.66	11.538
846.96	13.333
847.25	-41.176
847.55	13.043
847.85	15.000
848.15	41.176
848.44	-54.545
848.74	42.857
849.04	12.500
849.34	-12.500
849.63	-4.348
849.93	750.000
850.23	6.667
850.53	57.692
850.82	9.091
851.12	31.818
851.42	45.455
851.71	23.077
852.01	-10.000
852.31	-76.923
852.61	0.000
852.90	-58.333
853.20	-33.333
853.50	-66.667
853.79	-23.810
854.09	-31.818
854.39	-50.000
854.68	22.581
854.98	0.000
855.28	55.556
855.57	-10.714
855.87	16.000
856.17	-4.545
856.46	25.926
856.76	55.556
857.05	-34.783
857.35	16.667
857.65	-46.154
857.94	9.524
858.24	11.111
858.53	26.087
858.83	47.059
859.13	29.412
859.42	64.706
859.72	64.286
860.01	-45.000
860.31	-122.222
860.60	40.000
860.90	66.667
861.20	-5.556
861.49	0.000
861.79	46.667
862.08	0.000
862.38	21.875
862.67	5.882
862.97	12.500
863.26	-22.222
863.56	150.000
863.85	54.545
864.15	38.889
864.44	0.000
864.74	0.000
865.03	0.000
865.33	-60.000
865.62	-29.032
865.92	4.545
866.21	8.696
866.51	64.286
866.80	0.000
867.10	0.000
867.39	-58.333
867.69	1400.000
867.98	114.286
868.27	52.941
868.57	-1400.000
868.86	-80.000
869.16	-4.762
869.45	37.500
869.75	0.000
870.04	71.429
870.33	-25.000
870.63	-42.857
870.92	0.000
871.22	-212.500
871.51	-45.455
871.80	-400.000
872.10	50.000
>>>>>End Processed Spectral Data<<<<<
