SpectraSuite Data File
++++++++++++++++++++++++++++++++++++
Date: Thu May 14 15:50:11 PDT 2015
User: schluterlab
Dark Spectrum Present: Yes
Reference Spectrum Present: Yes
Number of Sampled Component Spectra: 1
Spectrometers: USB2E3373
Integration Time (usec): 3000 (USB2E3373)
Spectra Averaged: 3 (USB2E3373)
Boxcar Smoothing: 0 (USB2E3373)
Correct for Electrical Dark: No (USB2E3373)
Strobe/Lamp Enabled: No (USB2E3373)
Correct for Detector Non-linearity: No (USB2E3373)
Correct for Stray Light: No (USB2E3373)
Number of Pixels in Processed Spectrum: 2048
>>>>>Begin Processed Spectral Data<<<<<
178.53	0.000
178.91	600.000
179.29	-5000.000
179.67	-4500.000
180.04	450.000
180.42	440.000
180.80	1060.000
181.18	-4300.000
181.56	-3100.000
181.94	1050.000
182.31	-1000.000
182.69	1500.000
183.07	-2000.000
183.45	1075.000
183.83	-683.333
184.20	-1500.000
184.58	4000.000
184.96	-1050.000
185.34	-455.556
185.72	-620.000
186.09	600.000
186.47	2400.000
186.85	1100.000
187.23	-455.556
187.61	-4600.000
187.98	1060.000
188.36	1175.000
188.74	-1000.000
189.12	-1200.000
189.49	-200.000
189.87	-562.500
190.25	-411.111
190.63	-700.000
191.00	-533.333
191.38	0.000
191.76	-1200.000
192.14	-583.333
192.51	2450.000
192.89	-633.333
193.27	0.000
193.65	-542.857
194.02	-5500.000
194.40	-542.857
194.78	714.286
195.15	0.000
195.53	-381.818
195.91	0.000
196.29	-1100.000
196.66	-330.769
197.04	-4800.000
197.42	-728.571
197.79	-2150.000
198.17	-487.500
198.55	-557.143
198.92	-422.222
199.30	-525.000
199.68	-345.455
200.05	-335.714
200.43	-2600.000
200.81	800.000
201.18	0.000
201.56	622.222
201.94	0.000
202.31	1633.333
202.69	-477.778
203.07	4200.000
203.44	-511.111
203.82	-1075.000
204.19	-300.000
204.57	-800.000
204.95	-550.000
205.32	-4800.000
205.70	1050.000
206.08	-683.333
206.45	-716.667
206.83	1100.000
207.20	-883.333
207.58	-1160.000
207.96	-983.333
208.33	-766.667
208.71	375.000
209.08	-616.667
209.46	0.000
209.84	733.333
210.21	2200.000
210.59	2400.000
210.96	1600.000
211.34	-1025.000
211.71	-587.500
212.09	-3900.000
212.46	0.000
212.84	2800.000
213.22	-940.000
213.59	-1075.000
213.97	-430.000
214.34	-1300.000
214.72	850.000
215.09	-1000.000
215.47	0.000
215.84	700.000
216.22	2650.000
216.59	-980.000
216.97	-900.000
217.34	-975.000
217.72	-537.500
218.09	-1175.000
218.47	-1100.000
218.84	0.000
219.22	860.000
219.59	-229.412
219.97	-165.000
220.34	2550.000
220.72	-555.556
221.09	-307.692
221.47	-1433.333
221.84	-420.000
222.22	-600.000
222.59	0.000
222.97	-525.000
223.34	-960.000
223.72	-5100.000
224.09	-1175.000
224.46	-1000.000
224.84	-680.000
225.21	-628.571
225.59	-1150.000
225.96	-1250.000
226.34	-176.923
226.71	800.000
227.08	-2050.000
227.46	-313.333
227.83	-1175.000
228.21	-189.474
228.58	587.500
228.95	2600.000
229.33	-325.000
229.70	-450.000
230.08	-157.895
230.45	440.000
230.82	-1433.333
231.20	-307.143
231.57	-308.333
231.95	-372.727
232.32	-318.182
232.69	-165.000
233.07	-975.000
233.44	-211.765
233.81	-360.000
234.19	-183.333
234.56	-127.273
234.93	-86.207
235.31	-163.158
235.68	-194.444
236.05	-220.000
236.43	-76.923
236.80	-100.000
237.17	-107.407
237.55	-93.939
237.92	-350.000
238.29	-93.548
238.67	-61.364
239.04	-61.111
239.41	-57.143
239.79	-43.478
240.16	-24.074
240.53	-45.652
240.91	-52.941
241.28	-39.344
241.65	-22.388
242.02	5.405
242.40	-15.385
242.77	-16.000
243.14	-25.610
243.51	-17.105
243.89	-7.692
244.26	2.970
244.63	0.980
245.00	10.280
245.38	4.386
245.75	2.655
246.12	11.905
246.49	7.752
246.87	16.429
247.24	10.596
247.61	21.053
247.98	18.121
248.36	21.605
248.73	18.405
249.10	17.486
249.47	25.373
249.84	29.319
250.22	25.389
250.59	26.667
250.96	30.455
251.33	24.490
251.70	26.068
252.08	30.417
252.45	27.049
252.82	27.686
253.19	30.859
253.56	32.319
253.94	30.385
254.31	30.682
254.68	36.364
255.05	33.876
255.42	31.633
255.79	28.479
256.16	32.781
256.54	35.430
256.91	32.787
257.28	29.836
257.65	30.892
258.02	32.153
258.39	34.473
258.76	36.697
259.14	38.218
259.51	36.023
259.88	34.561
260.25	37.500
260.62	35.342
260.99	39.344
261.36	36.729
261.73	37.931
262.10	37.912
262.47	39.946
262.85	37.879
263.22	33.506
263.59	34.211
263.96	36.317
264.33	36.829
264.70	37.037
265.07	38.902
265.44	41.723
265.81	34.722
266.18	37.415
266.55	39.062
266.92	39.408
267.29	40.481
267.66	40.355
268.03	40.175
268.40	36.952
268.77	38.269
269.14	38.326
269.51	39.035
269.88	39.754
270.25	37.022
270.62	40.084
270.99	41.818
271.36	37.624
271.73	37.525
272.10	39.679
272.47	42.285
272.84	38.353
273.21	39.679
273.58	38.710
273.95	38.269
274.32	36.502
274.69	36.944
275.06	40.293
275.43	33.457
275.80	39.506
276.17	38.519
276.54	38.060
276.91	38.819
277.28	38.517
277.65	40.395
278.02	35.846
278.39	37.862
278.76	36.907
279.13	40.603
279.50	39.347
279.87	37.567
280.23	36.268
280.60	40.339
280.97	38.487
281.34	38.879
281.71	36.717
282.08	36.379
282.45	36.825
282.82	37.520
283.19	37.803
283.56	38.852
283.92	38.138
284.29	38.073
284.66	38.259
285.03	35.417
285.40	37.094
285.77	37.616
286.14	36.183
286.51	38.052
286.87	37.441
287.24	37.048
287.61	38.864
287.98	36.405
288.35	34.763
288.72	39.053
289.08	35.139
289.45	34.467
289.82	35.392
290.19	35.345
290.56	35.634
290.93	35.806
291.29	34.022
291.66	34.573
292.03	31.886
292.40	34.966
292.77	31.806
293.13	33.965
293.50	31.669
293.87	33.289
294.24	33.333
294.60	31.479
294.97	30.872
295.34	31.754
295.71	29.634
296.08	31.395
296.44	31.373
296.81	31.060
297.18	28.767
297.55	30.189
297.91	30.012
298.28	27.962
298.65	28.894
299.02	29.280
299.38	30.778
299.75	29.556
300.12	29.282
300.48	29.954
300.85	28.909
301.22	29.083
301.59	28.082
301.95	27.910
302.32	27.556
302.69	27.273
303.05	27.530
303.42	29.268
303.79	29.271
304.15	28.496
304.52	30.021
304.89	28.063
305.25	28.261
305.62	27.900
305.99	27.835
306.35	27.722
306.72	29.473
307.09	28.223
307.45	27.433
307.82	26.741
308.19	26.942
308.55	28.062
308.92	27.848
309.29	26.533
309.65	26.511
310.02	28.119
310.38	28.445
310.75	28.641
311.12	27.613
311.48	28.152
311.85	27.350
312.22	27.040
312.58	27.981
312.95	26.864
313.31	27.913
313.68	26.557
314.05	27.462
314.41	26.321
314.78	28.065
315.14	27.223
315.51	29.363
315.87	27.273
316.24	28.037
316.61	27.087
316.97	25.973
317.34	26.367
317.70	28.384
318.07	26.720
318.43	27.466
318.80	27.508
319.16	26.524
319.53	25.621
319.89	26.906
320.26	26.690
320.62	25.975
320.99	27.147
321.35	25.878
321.72	26.419
322.08	25.158
322.45	25.294
322.81	26.715
323.18	27.080
323.54	26.724
323.91	25.890
324.27	25.731
324.64	27.204
325.00	26.036
325.37	26.372
325.73	26.198
326.10	25.710
326.46	26.059
326.83	27.622
327.19	27.008
327.56	26.719
327.92	26.515
328.29	25.323
328.65	26.298
329.01	25.381
329.38	25.864
329.74	27.397
330.11	26.969
330.47	26.116
330.84	26.098
331.20	26.167
331.56	26.430
331.93	25.858
332.29	26.780
332.66	25.083
333.02	25.209
333.38	26.091
333.75	26.094
334.11	25.938
334.48	25.083
334.84	26.508
335.20	24.517
335.57	24.874
335.93	24.959
336.29	24.542
336.66	24.895
337.02	26.505
337.38	25.255
337.75	23.471
338.11	25.904
338.47	25.310
338.84	23.689
339.20	22.662
339.56	25.618
339.93	24.631
340.29	24.638
340.65	25.547
341.02	26.417
341.38	25.627
341.74	24.697
342.11	24.698
342.47	24.702
342.83	25.040
343.20	25.266
343.56	25.100
343.92	24.580
344.28	24.531
344.65	24.806
345.01	25.897
345.37	24.106
345.73	23.928
346.10	24.493
346.46	24.288
346.82	24.494
347.19	24.599
347.55	23.748
347.91	24.368
348.27	24.962
348.63	23.839
349.00	23.863
349.36	23.866
349.72	23.661
350.08	24.814
350.45	24.563
350.81	23.303
351.17	24.662
351.53	24.564
351.89	24.981
352.26	24.104
352.62	24.627
352.98	23.511
353.34	23.376
353.70	24.499
354.07	24.441
354.43	23.918
354.79	24.009
355.15	24.577
355.51	24.196
355.87	23.186
356.24	24.259
356.60	22.912
356.96	23.128
357.32	23.048
357.68	23.133
358.04	23.353
358.40	23.209
358.77	23.246
359.13	22.821
359.49	22.230
359.85	22.915
360.21	22.238
360.57	23.259
360.93	22.779
361.29	23.649
361.66	23.823
362.02	24.495
362.38	23.963
362.74	22.975
363.10	23.453
363.46	24.515
363.82	23.366
364.18	23.012
364.54	23.237
364.90	23.612
365.26	22.552
365.62	24.000
365.98	22.396
366.35	23.154
366.71	23.810
367.07	23.004
367.43	23.506
367.79	23.490
368.15	24.013
368.51	24.222
368.87	23.579
369.23	23.133
369.59	23.361
369.95	23.529
370.31	23.295
370.67	23.040
371.03	23.061
371.39	23.036
371.75	22.283
372.11	23.035
372.47	23.223
372.83	23.168
373.19	22.482
373.55	22.764
373.91	22.290
374.27	22.186
374.63	22.260
374.99	23.408
375.35	22.468
375.71	22.258
376.07	22.531
376.42	22.607
376.78	22.996
377.14	22.520
377.50	22.834
377.86	23.461
378.22	22.575
378.58	22.533
378.94	22.477
379.30	22.027
379.66	22.693
380.02	23.601
380.38	23.790
380.74	23.155
381.09	22.300
381.45	22.557
381.81	23.653
382.17	23.100
382.53	23.041
382.89	23.025
383.25	23.212
383.61	22.512
383.97	22.497
384.32	22.667
384.68	22.390
385.04	22.788
385.40	23.159
385.76	22.743
386.12	22.861
386.48	22.471
386.83	23.123
387.19	21.784
387.55	21.596
387.91	23.288
388.27	22.460
388.62	22.108
388.98	22.279
389.34	23.630
389.70	22.952
390.06	21.966
390.42	22.229
390.77	22.697
391.13	21.772
391.49	21.860
391.85	21.515
392.20	21.530
392.56	22.386
392.92	22.192
393.28	22.443
393.64	21.788
393.99	22.080
394.35	23.598
394.71	23.174
395.07	21.677
395.42	23.415
395.78	23.278
396.14	22.341
396.50	21.734
396.85	22.361
397.21	21.479
397.57	22.085
397.92	22.566
398.28	21.836
398.64	21.281
399.00	21.832
399.35	22.932
399.71	22.609
400.07	22.347
400.42	22.759
400.78	21.875
401.14	22.368
401.49	22.058
401.85	22.500
402.21	22.190
402.57	22.887
402.92	21.631
403.28	21.077
403.63	21.539
403.99	21.734
404.35	21.887
404.70	21.246
405.06	22.337
405.42	22.014
405.77	22.519
406.13	22.636
406.49	22.523
406.84	22.438
407.20	22.359
407.55	21.502
407.91	21.559
408.27	21.555
408.62	21.990
408.98	22.287
409.34	20.880
409.69	21.384
410.05	22.216
410.40	22.506
410.76	21.761
411.11	21.859
411.47	22.236
411.83	21.752
412.18	22.530
412.54	21.755
412.89	22.643
413.25	21.670
413.60	21.769
413.96	21.620
414.31	20.850
414.67	21.049
415.03	21.292
415.38	21.501
415.74	22.297
416.09	21.900
416.45	21.039
416.80	21.726
417.16	22.542
417.51	21.731
417.87	21.337
418.22	22.036
418.58	20.880
418.93	22.584
419.29	21.393
419.64	21.248
420.00	21.424
420.35	21.112
420.71	21.310
421.06	21.794
421.42	21.502
421.77	21.055
422.12	21.353
422.48	21.915
422.83	22.508
423.19	22.175
423.54	22.788
423.90	21.590
424.25	21.920
424.61	20.838
424.96	22.021
425.31	21.656
425.67	21.149
426.02	21.527
426.38	21.355
426.73	20.759
427.09	21.742
427.44	20.262
427.79	21.448
428.15	21.518
428.50	21.236
428.85	21.240
429.21	21.596
429.56	22.557
429.92	21.229
430.27	22.072
430.62	21.788
430.98	22.479
431.33	21.457
431.68	22.174
432.04	21.432
432.39	21.907
432.74	21.290
433.10	21.092
433.45	21.516
433.80	21.298
434.16	21.591
434.51	21.942
434.86	22.096
435.22	21.785
435.57	22.583
435.92	21.758
436.28	21.104
436.63	21.081
436.98	21.739
437.34	21.082
437.69	21.574
438.04	21.259
438.39	21.252
438.75	21.472
439.10	22.040
439.45	21.409
439.81	20.000
440.16	20.751
440.51	20.736
440.86	21.623
441.22	21.061
441.57	21.122
441.92	21.726
442.27	21.616
442.63	22.007
442.98	21.772
443.33	21.094
443.68	22.398
444.03	21.731
444.39	22.700
444.74	22.920
445.09	21.946
445.44	21.391
445.79	22.462
446.15	21.891
446.50	21.705
446.85	22.325
447.20	21.857
447.55	22.490
447.91	21.832
448.26	21.829
448.61	21.360
448.96	22.747
449.31	21.951
449.66	20.752
450.02	21.835
450.37	22.003
450.72	21.582
451.07	21.469
451.42	21.433
451.77	21.123
452.12	22.404
452.47	21.331
452.83	21.340
453.18	21.716
453.53	20.965
453.88	20.817
454.23	21.186
454.58	21.764
454.93	21.420
455.28	20.891
455.63	20.921
455.98	22.235
456.34	22.320
456.69	20.752
457.04	21.217
457.39	21.729
457.74	21.644
458.09	21.307
458.44	21.282
458.79	21.609
459.14	21.552
459.49	22.015
459.84	21.144
460.19	20.544
460.54	21.238
460.89	22.234
461.24	20.345
461.59	21.970
461.94	20.479
462.29	21.501
462.64	21.243
462.99	21.155
463.34	20.896
463.69	20.574
464.04	21.901
464.39	21.805
464.74	21.152
465.09	20.358
465.44	21.406
465.79	20.677
466.14	21.626
466.49	21.053
466.84	20.882
467.19	21.618
467.54	20.153
467.89	19.828
468.24	21.053
468.59	20.556
468.94	20.163
469.29	20.576
469.64	21.933
469.99	20.969
470.34	20.173
470.68	20.437
471.03	20.105
471.38	20.209
471.73	19.181
472.08	20.431
472.43	20.409
472.78	20.466
473.13	20.417
473.48	20.483
473.83	20.488
474.17	20.516
474.52	20.505
474.87	20.598
475.22	20.732
475.57	20.665
475.92	21.005
476.27	21.353
476.61	20.249
476.96	20.229
477.31	21.436
477.66	21.563
478.01	21.301
478.36	20.588
478.70	21.034
479.05	20.297
479.40	20.928
479.75	20.989
480.10	20.796
480.45	21.696
480.79	21.678
481.14	21.094
481.49	20.672
481.84	21.889
482.19	21.763
482.53	21.863
482.88	21.976
483.23	21.387
483.58	20.437
483.92	20.833
484.27	21.338
484.62	20.916
484.97	21.579
485.31	21.260
485.66	21.307
486.01	21.754
486.36	23.450
486.70	24.936
487.05	25.456
487.40	24.425
487.75	23.104
488.09	22.767
488.44	21.424
488.79	21.821
489.13	20.999
489.48	20.816
489.83	20.604
490.17	20.089
490.52	20.731
490.87	20.854
491.22	20.537
491.56	20.691
491.91	20.846
492.26	21.030
492.60	20.463
492.95	20.930
493.30	20.484
493.64	20.237
493.99	20.526
494.34	21.341
494.68	20.385
495.03	21.101
495.37	20.373
495.72	20.680
496.07	19.807
496.41	20.120
496.76	21.226
497.11	20.764
497.45	20.414
497.80	21.235
498.14	20.363
498.49	20.312
498.84	19.835
499.18	20.378
499.53	20.717
499.87	20.791
500.22	19.858
500.56	20.243
500.91	20.732
501.26	20.773
501.60	20.857
501.95	20.191
502.29	20.886
502.64	20.638
502.98	21.053
503.33	20.302
503.67	20.323
504.02	20.447
504.36	20.956
504.71	20.854
505.06	20.600
505.40	19.516
505.75	20.310
506.09	20.488
506.44	20.845
506.78	20.459
507.13	20.701
507.47	21.412
507.82	20.076
508.16	20.220
508.51	19.784
508.85	19.981
509.19	20.748
509.54	20.461
509.88	20.155
510.23	20.204
510.57	20.493
510.92	20.319
511.26	19.336
511.61	19.411
511.95	20.449
512.30	20.236
512.64	19.190
512.98	19.910
513.33	20.010
513.67	20.398
514.02	20.286
514.36	20.051
514.70	20.208
515.05	19.812
515.39	19.633
515.74	19.883
516.08	19.599
516.42	20.460
516.77	19.769
517.11	19.443
517.46	19.618
517.80	19.294
518.14	19.913
518.49	19.685
518.83	19.532
519.17	18.363
519.52	18.658
519.86	19.799
520.20	20.288
520.55	19.441
520.89	18.919
521.23	18.649
521.58	19.718
521.92	18.414
522.26	19.129
522.61	18.924
522.95	18.166
523.29	18.678
523.64	18.890
523.98	19.624
524.32	19.599
524.66	19.465
525.01	19.592
525.35	18.150
525.69	19.258
526.04	18.485
526.38	19.713
526.72	19.146
527.06	18.358
527.41	19.359
527.75	18.705
528.09	18.713
528.43	18.650
528.78	17.803
529.12	18.521
529.46	19.112
529.80	19.222
530.15	19.362
530.49	18.921
530.83	19.008
531.17	18.160
531.51	18.773
531.86	18.750
532.20	18.354
532.54	17.834
532.88	19.273
533.22	19.623
533.57	19.561
533.91	19.921
534.25	18.768
534.59	19.598
534.93	19.128
535.27	19.437
535.62	20.352
535.96	19.582
536.30	19.213
536.64	19.459
536.98	19.127
537.32	18.827
537.66	19.401
538.01	17.885
538.35	19.428
538.69	19.952
539.03	19.620
539.37	19.729
539.71	20.000
540.05	20.204
540.39	18.521
540.73	18.701
541.07	19.559
541.42	19.256
541.76	18.268
542.10	19.783
542.44	18.879
542.78	19.282
543.12	19.249
543.46	18.376
543.80	19.484
544.14	19.509
544.48	19.267
544.82	19.928
545.16	19.618
545.50	19.652
545.84	18.983
546.18	19.753
546.52	19.108
546.86	18.805
547.20	19.020
547.54	18.664
547.88	19.409
548.22	19.064
548.56	19.193
548.90	19.642
549.24	20.243
549.58	19.748
549.92	19.452
550.26	19.482
550.60	19.209
550.94	20.246
551.28	18.218
551.62	19.003
551.96	19.223
552.30	19.567
552.64	20.162
552.98	19.339
553.32	20.322
553.66	19.614
554.00	19.042
554.34	18.726
554.68	18.205
555.02	19.514
555.36	19.790
555.69	18.834
556.03	18.537
556.37	19.274
556.71	18.833
557.05	18.339
557.39	18.447
557.73	18.824
558.07	19.536
558.41	18.339
558.75	19.202
559.08	19.068
559.42	17.970
559.76	19.335
560.10	17.883
560.44	18.536
560.78	19.625
561.12	19.951
561.45	19.647
561.79	20.452
562.13	20.148
562.47	19.914
562.81	18.734
563.15	19.571
563.48	19.702
563.82	19.589
564.16	19.564
564.50	19.607
564.84	19.174
565.17	19.294
565.51	18.585
565.85	19.359
566.19	20.334
566.52	19.251
566.86	20.317
567.20	19.739
567.54	20.659
567.88	20.183
568.21	20.949
568.55	21.199
568.89	21.425
569.23	21.631
569.56	21.884
569.90	21.846
570.24	22.563
570.57	22.611
570.91	22.413
571.25	23.228
571.59	23.128
571.92	23.134
572.26	23.425
572.60	23.123
572.93	23.323
573.27	22.956
573.61	23.002
573.95	23.015
574.28	23.593
574.62	23.465
574.96	23.357
575.29	23.507
575.63	23.678
575.97	23.737
576.30	23.489
576.64	23.479
576.98	23.531
577.31	23.609
577.65	23.999
577.98	24.209
578.32	24.140
578.66	24.011
578.99	23.920
579.33	24.077
579.67	23.413
580.00	23.578
580.34	23.844
580.67	23.522
581.01	23.540
581.35	23.943
581.68	24.064
582.02	24.446
582.35	25.025
582.69	24.957
583.02	24.425
583.36	24.605
583.70	23.654
584.03	23.158
584.37	23.081
584.70	23.007
585.04	22.902
585.37	23.310
585.71	23.495
586.04	23.382
586.38	23.747
586.72	23.389
587.05	23.510
587.39	23.685
587.72	23.636
588.06	23.525
588.39	23.500
588.73	23.519
589.06	23.166
589.40	23.171
589.73	22.654
590.07	23.011
590.40	23.022
590.73	22.623
591.07	22.710
591.40	22.123
591.74	22.178
592.07	22.046
592.41	22.082
592.74	22.400
593.08	23.312
593.41	23.826
593.75	23.764
594.08	23.387
594.41	23.526
594.75	22.949
595.08	22.914
595.42	23.312
595.75	23.055
596.09	23.179
596.42	22.788
596.75	22.076
597.09	22.465
597.42	22.567
597.75	22.344
598.09	22.341
598.42	22.718
598.76	22.239
599.09	22.570
599.42	22.494
599.76	23.077
600.09	22.990
600.42	23.524
600.76	23.184
601.09	22.801
601.42	22.451
601.76	22.483
602.09	23.088
602.42	22.610
602.76	22.546
603.09	23.128
603.42	23.085
603.76	22.974
604.09	23.421
604.42	23.376
604.76	22.222
605.09	22.816
605.42	22.887
605.75	22.385
606.09	23.068
606.42	22.072
606.75	22.226
607.09	21.659
607.42	22.235
607.75	22.665
608.08	22.573
608.42	21.806
608.75	22.637
609.08	21.732
609.41	22.144
609.75	21.518
610.08	22.427
610.41	22.515
610.74	22.521
611.07	21.536
611.41	21.345
611.74	21.617
612.07	21.646
612.40	21.055
612.73	21.809
613.07	22.103
613.40	21.896
613.73	21.281
614.06	21.197
614.39	21.623
614.72	22.028
615.06	21.752
615.39	21.991
615.72	22.796
616.05	22.001
616.38	21.594
616.71	21.473
617.05	20.660
617.38	21.616
617.71	21.220
618.04	21.587
618.37	21.257
618.70	21.719
619.03	19.654
619.36	20.900
619.69	19.795
620.03	19.586
620.36	19.939
620.69	20.358
621.02	20.144
621.35	19.666
621.68	19.667
622.01	19.217
622.34	19.456
622.67	19.931
623.00	18.826
623.33	20.571
623.66	20.558
623.99	19.882
624.32	19.753
624.65	20.142
624.99	20.026
625.32	20.901
625.65	20.162
625.98	19.322
626.31	19.631
626.64	20.440
626.97	18.680
627.30	17.692
627.63	18.980
627.96	18.694
628.29	18.677
628.62	17.968
628.95	17.353
629.28	17.757
629.61	18.603
629.94	16.151
630.26	17.203
630.59	17.962
630.92	18.095
631.25	18.962
631.58	17.514
631.91	17.994
632.24	17.099
632.57	18.406
632.90	15.547
633.23	17.347
633.56	16.224
633.89	16.942
634.22	17.048
634.55	15.762
634.88	16.667
635.20	17.223
635.53	16.723
635.86	15.276
636.19	18.134
636.52	16.772
636.85	16.547
637.18	16.632
637.51	16.344
637.83	15.282
638.16	17.396
638.49	15.493
638.82	15.220
639.15	16.380
639.48	15.242
639.81	15.820
640.13	15.901
640.46	14.303
640.79	15.564
641.12	14.286
641.45	15.809
641.77	16.945
642.10	13.780
642.43	14.894
642.76	13.550
643.09	13.151
643.41	12.465
643.74	13.103
644.07	16.276
644.40	13.861
644.73	13.208
645.05	11.894
645.38	13.381
645.71	14.076
646.04	14.921
646.36	11.387
646.69	12.270
647.02	15.138
647.35	14.504
647.67	15.459
648.00	12.102
648.33	15.015
648.66	15.407
648.98	14.422
649.31	14.344
649.64	15.272
649.96	15.252
650.29	13.491
650.62	14.003
650.94	13.063
651.27	14.521
651.60	13.450
651.92	14.742
652.25	14.038
652.58	14.443
652.90	13.372
653.23	14.366
653.56	12.411
653.88	16.994
654.21	14.507
654.54	13.728
654.86	15.014
655.19	14.680
655.52	23.144
655.84	28.130
656.17	32.581
656.49	45.786
656.82	48.808
657.15	37.693
657.47	28.471
657.80	20.662
658.13	15.792
658.45	20.106
658.78	23.051
659.10	21.054
659.43	19.210
659.75	17.795
660.08	15.686
660.41	12.903
660.73	13.113
661.06	11.454
661.38	11.962
661.71	11.034
662.03	10.406
662.36	13.059
662.68	12.195
663.01	13.451
663.33	12.665
663.66	13.004
663.98	10.385
664.31	11.445
664.63	6.166
664.96	14.519
665.28	10.889
665.61	13.112
665.93	11.964
666.26	10.753
666.58	11.993
666.91	12.336
667.23	11.429
667.56	10.848
667.88	12.200
668.21	10.547
668.53	8.687
668.86	11.591
669.18	9.369
669.50	11.133
669.83	9.200
670.15	8.465
670.48	13.294
670.80	10.134
671.13	11.342
671.45	12.402
671.77	11.299
672.10	13.000
672.42	11.974
672.75	14.286
673.07	12.836
673.39	12.481
673.72	14.094
674.04	13.621
674.37	13.596
674.69	12.875
675.01	11.619
675.34	9.351
675.66	10.300
675.98	11.754
676.31	11.133
676.63	14.449
676.95	13.027
677.28	9.073
677.60	11.417
677.92	13.052
678.25	12.980
678.57	14.235
678.89	14.676
679.22	12.369
679.54	12.821
679.86	11.864
680.18	12.935
680.51	13.836
680.83	15.221
681.15	13.103
681.48	13.299
681.80	13.472
682.12	11.364
682.44	14.190
682.77	11.525
683.09	10.985
683.41	11.047
683.73	12.524
684.06	10.886
684.38	11.807
684.70	13.465
685.02	13.941
685.34	12.479
685.67	14.038
685.99	14.571
686.31	13.663
686.63	13.902
686.96	12.934
687.28	13.192
687.60	11.953
687.92	14.952
688.24	14.858
688.56	11.724
688.89	11.978
689.21	11.546
689.53	8.627
689.85	9.862
690.17	11.481
690.49	13.147
690.82	11.485
691.14	8.704
691.46	13.384
691.78	12.523
692.10	12.477
692.42	12.857
692.74	13.975
693.06	10.370
693.39	13.283
693.71	12.782
694.03	11.896
694.35	14.667
694.67	12.115
694.99	11.277
695.31	9.713
695.63	10.390
695.95	11.594
696.27	9.451
696.59	10.619
696.91	11.036
697.23	13.187
697.56	10.387
697.88	12.689
698.20	13.183
698.52	14.205
698.84	13.721
699.16	12.245
699.48	10.879
699.80	10.000
700.12	10.699
700.44	10.599
700.76	9.026
701.08	9.927
701.40	7.513
701.72	5.721
702.04	6.150
702.36	6.806
702.68	11.491
703.00	9.535
703.32	8.621
703.64	11.980
703.96	9.308
704.28	7.125
704.60	10.633
704.91	9.949
705.23	9.863
705.55	7.242
705.87	6.364
706.19	7.055
706.51	3.313
706.83	4.899
707.15	4.233
707.47	11.682
707.79	10.699
708.11	9.746
708.43	10.323
708.74	12.500
709.06	10.209
709.38	11.033
709.70	9.926
710.02	11.111
710.34	10.106
710.66	7.821
710.98	6.284
711.29	6.319
711.61	6.497
711.93	7.123
712.25	7.838
712.57	10.029
712.89	8.824
713.20	3.846
713.52	10.116
713.84	10.028
714.16	12.895
714.48	11.598
714.80	11.169
715.11	7.612
715.43	11.406
715.75	10.789
716.07	11.050
716.39	8.470
716.70	6.024
717.02	3.279
717.34	0.697
717.66	4.027
717.97	1.370
718.29	0.000
718.61	3.289
718.93	6.149
719.24	4.348
719.56	8.282
719.88	7.808
720.20	6.129
720.51	6.522
720.83	8.438
721.15	-1.316
721.46	1.712
721.78	5.000
722.10	3.236
722.42	1.678
722.73	6.452
723.05	6.316
723.37	5.903
723.68	2.509
724.00	6.498
724.32	4.930
724.63	2.098
724.95	3.546
725.27	3.136
725.58	2.473
725.90	3.448
726.22	3.448
726.53	6.494
726.85	7.547
727.16	5.740
727.48	9.174
727.80	7.616
728.11	3.534
728.43	6.061
728.74	4.013
729.06	4.636
729.38	9.416
729.69	5.705
730.01	5.952
730.32	5.455
730.64	7.862
730.96	5.901
731.27	10.894
731.59	8.791
731.90	8.052
732.22	11.198
732.53	8.564
732.85	10.857
733.16	6.745
733.48	6.098
733.80	7.799
734.11	9.687
734.43	11.622
734.74	14.430
735.06	9.799
735.37	11.351
735.69	11.081
736.00	9.887
736.32	7.008
736.63	10.556
736.95	8.621
737.26	11.818
737.58	1.818
737.89	10.294
738.21	4.893
738.52	4.918
738.83	6.826
739.15	4.965
739.46	6.122
739.78	9.202
740.09	5.444
740.41	7.289
740.72	5.000
741.04	7.120
741.35	6.316
741.66	1.569
741.98	4.918
742.29	-1.674
742.61	0.877
742.92	2.692
743.23	6.859
743.55	3.101
743.86	0.400
744.18	-2.479
744.49	0.422
744.80	0.823
745.12	1.266
745.43	5.285
745.74	2.586
746.06	3.390
746.37	1.688
746.68	3.659
747.00	1.250
747.31	-2.146
747.62	5.000
747.94	1.619
748.25	7.631
748.56	2.041
748.88	-2.137
749.19	5.172
749.50	-3.030
749.82	4.819
750.13	8.185
750.44	5.000
750.75	8.308
751.07	8.000
751.38	7.256
751.69	7.348
752.01	7.120
752.32	6.863
752.63	5.102
752.94	4.498
753.26	1.115
753.57	2.963
753.88	1.873
754.19	5.788
754.51	6.109
754.82	10.289
755.13	9.836
755.44	6.485
755.75	7.566
756.07	8.657
756.38	7.233
756.69	10.843
757.00	6.925
757.31	9.563
757.63	7.673
757.94	10.329
758.25	13.995
758.56	11.765
758.87	11.136
759.18	8.000
759.50	8.499
759.81	12.885
760.12	11.590
760.43	12.500
760.74	11.823
761.05	11.500
761.36	10.361
761.67	13.452
761.99	10.541
762.30	8.232
762.61	0.990
762.92	2.612
763.23	1.873
763.54	2.878
763.85	4.811
764.16	10.101
764.47	9.507
764.78	7.987
765.10	9.384
765.41	10.769
765.72	9.259
766.03	13.277
766.34	7.210
766.65	3.833
766.96	1.992
767.27	0.000
767.58	-2.488
767.89	1.442
768.20	0.000
768.51	0.000
768.82	4.016
769.13	10.985
769.44	2.692
769.75	2.166
770.06	6.538
770.37	9.843
770.68	-1.277
770.99	2.834
771.30	10.370
771.61	4.563
771.92	3.333
772.23	4.453
772.54	-8.333
772.85	5.991
773.16	0.476
773.47	0.000
773.78	-5.946
774.09	1.705
774.39	-1.000
774.70	2.186
775.01	-7.317
775.32	-5.882
775.63	-9.202
775.94	-9.554
776.25	-6.452
776.56	-3.846
776.87	-4.762
777.18	-11.724
777.48	-11.888
777.79	-7.432
778.10	-15.441
778.41	-5.556
778.72	-8.276
779.03	-11.111
779.34	-3.030
779.65	-0.518
779.95	0.000
780.26	-3.409
780.57	-7.097
780.88	-6.522
781.19	1.935
781.50	1.176
781.80	1.075
782.11	3.704
782.42	-4.040
782.73	-5.389
783.04	-5.028
783.34	-5.455
783.65	-3.922
783.96	-8.075
784.27	-9.524
784.57	-5.298
784.88	-7.857
785.19	-18.898
785.50	-15.748
785.81	-8.271
786.11	-2.308
786.42	-12.230
786.73	-12.950
787.04	-8.271
787.34	-14.754
787.65	-8.800
787.96	-5.970
788.26	-0.699
788.57	-4.895
788.88	-6.579
789.19	-1.307
789.49	-12.329
789.80	-6.383
790.11	-7.087
790.41	-14.844
790.72	-14.407
791.03	-36.893
791.33	-21.739
791.64	-12.281
791.95	-16.964
792.25	-18.095
792.56	-14.286
792.87	-20.833
793.17	-16.964
793.48	-26.042
793.79	-44.578
794.09	-23.853
794.40	-22.936
794.70	-1.361
795.01	-11.688
795.32	-6.849
795.62	0.000
795.93	-12.121
796.23	-9.016
796.54	-18.750
796.85	-24.468
797.15	-31.522
797.46	-47.945
797.76	-31.250
798.07	-28.261
798.37	-27.835
798.68	-42.857
798.99	-36.782
799.29	-25.843
799.60	-23.404
799.90	-20.482
800.21	-50.769
800.51	-52.239
800.82	-45.588
801.12	-45.205
801.43	-41.176
801.73	-64.407
802.04	-45.455
802.34	-70.000
802.65	-37.288
802.95	-41.791
803.26	-52.542
803.56	-46.575
803.87	-45.714
804.17	-32.877
804.48	-75.439
804.78	-37.500
805.09	-68.966
805.39	-44.595
805.70	-49.296
806.00	-29.268
806.30	-37.349
806.61	-43.836
806.91	-20.192
807.22	-30.000
807.52	-37.931
807.83	-36.111
808.13	-24.096
808.43	-30.337
808.74	-26.250
809.04	-58.824
809.35	-25.333
809.65	-51.429
809.95	-24.658
810.26	-52.632
810.56	-56.897
810.86	-30.882
811.17	-59.649
811.47	-70.492
811.77	-82.222
812.08	-54.237
812.38	-68.333
812.69	-39.655
812.99	-75.472
813.29	-110.256
813.59	-52.000
813.90	-42.105
814.20	-69.091
814.50	-33.803
814.81	-41.026
815.11	-50.820
815.41	-53.731
815.72	-46.552
816.02	-64.286
816.32	-71.111
816.62	-72.727
816.93	-80.000
817.23	-50.000
817.53	-72.340
817.84	-52.381
818.14	-147.059
818.44	-59.184
818.74	-80.000
819.04	-100.000
819.35	-117.143
819.65	-161.538
819.95	-67.925
820.25	-82.222
820.56	-102.381
820.86	-109.375
821.16	-87.179
821.46	-90.698
821.76	-90.000
822.07	-60.714
822.37	-82.609
822.67	-72.340
822.97	-132.432
823.27	-92.500
823.57	-46.939
823.88	-57.778
824.18	-70.000
824.48	-113.333
824.78	-156.000
825.08	-103.030
825.38	-53.333
825.69	-63.830
825.99	-111.111
826.29	-151.429
826.59	-112.821
826.89	-104.651
827.19	-70.000
827.49	-85.294
827.79	-62.500
828.09	-91.892
828.39	-133.333
828.70	-112.195
829.00	-90.698
829.30	-150.000
829.60	-91.176
829.90	-67.391
830.20	-120.000
830.50	-141.379
830.80	-205.556
831.10	-153.846
831.40	-97.059
831.70	-123.810
832.00	-58.065
832.30	-323.529
832.60	-179.167
832.90	-346.154
833.20	-210.526
833.50	-155.000
833.80	-231.579
834.10	-238.095
834.40	-102.778
834.70	-109.375
835.00	-142.857
835.30	-120.588
835.60	-150.000
835.90	-160.000
836.20	-218.182
836.50	-156.000
836.80	-148.485
837.10	-151.852
837.40	-129.630
837.70	-293.750
838.00	-121.429
838.30	-186.957
838.60	-137.931
838.90	-357.143
839.19	-239.130
839.49	-391.667
839.79	-160.870
840.09	-262.500
840.39	-245.000
840.69	-112.903
840.99	-167.857
841.29	-300.000
841.59	-221.053
841.88	-82.051
842.18	-157.692
842.48	-540.000
842.78	-270.000
843.08	-140.000
843.38	-103.226
843.68	-283.333
843.97	-97.059
844.27	-262.500
844.57	-268.421
844.87	-390.000
845.17	-260.000
845.47	-180.952
845.76	-166.667
846.06	-477.778
846.36	-288.235
846.66	-153.846
846.96	-326.667
847.25	-276.471
847.55	-204.348
847.85	-175.000
848.15	-205.882
848.44	-427.273
848.74	-176.190
849.04	-179.167
849.34	-262.500
849.63	-152.174
849.93	2650.000
850.23	-260.000
850.53	-157.692
850.82	-345.455
851.12	-140.909
851.42	-472.727
851.71	-269.231
852.01	-200.000
852.31	-261.538
852.61	-194.737
852.90	-275.000
853.20	-211.111
853.50	-588.889
853.79	-219.048
854.09	-186.364
854.39	-400.000
854.68	-96.774
854.98	-165.385
855.28	-250.000
855.57	-142.857
855.87	-144.000
856.17	-213.636
856.46	-159.259
856.76	-238.889
857.05	-152.174
857.35	-150.000
857.65	-307.692
857.94	-166.667
858.24	-103.704
858.53	-156.522
858.83	-217.647
859.13	-264.706
859.42	-264.706
859.72	-292.857
860.01	-200.000
860.31	-466.667
860.60	-410.000
860.90	-266.667
861.20	-205.556
861.49	-330.769
861.79	-123.333
862.08	-361.538
862.38	-87.500
862.67	-176.471
862.97	-275.000
863.26	-544.444
863.56	-400.000
863.85	-436.364
864.15	-188.889
864.44	-1500.000
864.74	-314.286
865.03	-300.000
865.33	-490.000
865.62	-145.161
865.92	-181.818
866.21	-139.130
866.51	-264.286
866.80	-1000.000
867.10	-408.333
867.39	-391.667
867.69	5400.000
867.98	-628.571
868.27	-200.000
868.57	-4400.000
868.86	-500.000
869.16	-209.524
869.45	-141.667
869.75	-309.091
870.04	-685.714
870.33	-416.667
870.63	-685.714
870.92	-850.000
871.22	-625.000
871.51	-427.273
871.80	-1900.000
872.10	-2450.000
>>>>>End Processed Spectral Data<<<<<
