SpectraSuite Data File
++++++++++++++++++++++++++++++++++++
Date: Thu May 14 16:13:32 PDT 2015
User: schluterlab
Dark Spectrum Present: Yes
Reference Spectrum Present: Yes
Number of Sampled Component Spectra: 1
Spectrometers: USB2E3373
Integration Time (usec): 3000 (USB2E3373)
Spectra Averaged: 3 (USB2E3373)
Boxcar Smoothing: 0 (USB2E3373)
Correct for Electrical Dark: No (USB2E3373)
Strobe/Lamp Enabled: No (USB2E3373)
Correct for Detector Non-linearity: No (USB2E3373)
Correct for Stray Light: No (USB2E3373)
Number of Pixels in Processed Spectrum: 2048
>>>>>Begin Processed Spectral Data<<<<<
178.53	0.000
178.91	71.429
179.29	-1700.000
179.67	-700.000
180.04	142.857
180.42	80.000
180.80	120.000
181.18	-700.000
181.56	700.000
181.94	200.000
182.31	-75.000
182.69	-133.333
183.07	-500.000
183.45	275.000
183.83	-133.333
184.20	-33.333
184.58	-100.000
184.96	-200.000
185.34	-66.667
185.72	140.000
186.09	211.111
186.47	500.000
186.85	200.000
187.23	-166.667
187.61	-500.000
187.98	60.000
188.36	100.000
188.74	-125.000
189.12	-200.000
189.49	6.250
189.87	-112.500
190.25	22.222
190.63	-100.000
191.00	-100.000
191.38	0.000
191.76	-200.000
192.14	-116.667
192.51	400.000
192.89	-83.333
193.27	0.000
193.65	-100.000
194.02	-1100.000
194.40	-85.714
194.78	100.000
195.15	0.000
195.53	27.273
195.91	0.000
196.29	-50.000
196.66	-23.077
197.04	-100.000
197.42	-142.857
197.79	-500.000
198.17	-175.000
198.55	-257.143
198.92	-88.889
199.30	-100.000
199.68	0.000
200.05	-28.571
200.43	-550.000
200.81	57.143
201.18	0.000
201.56	155.556
201.94	0.000
202.31	433.333
202.69	-111.111
203.07	-500.000
203.44	-44.444
203.82	-50.000
204.19	-75.000
204.57	-83.333
204.95	-37.500
205.32	-800.000
205.70	-50.000
206.08	-66.667
206.45	16.667
206.83	280.000
207.20	0.000
207.58	-240.000
207.96	-100.000
208.33	-16.667
208.71	33.333
209.08	-83.333
209.46	0.000
209.84	250.000
210.21	250.000
210.59	-50.000
210.96	300.000
211.34	-25.000
211.71	-25.000
212.09	-600.000
212.46	0.000
212.84	550.000
213.22	-420.000
213.59	-375.000
213.97	-40.000
214.34	-66.667
214.72	100.000
215.09	-225.000
215.47	0.000
215.84	128.571
216.22	150.000
216.59	100.000
216.97	-100.000
217.34	-100.000
217.72	62.500
218.09	-150.000
218.47	-200.000
218.84	0.000
219.22	40.000
219.59	35.294
219.97	20.000
220.34	400.000
220.72	-44.444
221.09	7.692
221.47	-333.333
221.84	-10.000
222.22	-100.000
222.59	0.000
222.97	12.500
223.34	-300.000
223.72	-800.000
224.09	-325.000
224.46	-25.000
224.84	-100.000
225.21	28.571
225.59	-125.000
225.96	-225.000
226.34	-3.846
226.71	200.000
227.08	-250.000
227.46	60.000
227.83	50.000
228.21	21.053
228.58	162.500
228.95	750.000
229.33	-16.667
229.70	-20.000
230.08	0.000
230.45	80.000
230.82	-166.667
231.20	7.143
231.57	25.000
231.95	-27.273
232.32	36.364
232.69	-25.000
233.07	-150.000
233.44	-5.882
233.81	0.000
234.19	16.667
234.56	4.545
234.93	10.345
235.31	-26.316
235.68	-5.556
236.05	-5.000
236.43	23.077
236.80	28.000
237.17	14.815
237.55	-9.091
237.92	-120.000
238.29	12.903
238.67	-15.909
239.04	0.000
239.41	7.143
239.79	-15.217
240.16	-1.852
240.53	-19.565
240.91	-9.804
241.28	-4.918
241.65	5.970
242.02	8.108
242.40	-1.538
242.77	0.000
243.14	-2.439
243.51	-15.789
243.89	-24.359
244.26	8.911
244.63	-2.941
245.00	6.542
245.38	-4.386
245.75	-7.965
246.12	-1.587
246.49	3.101
246.87	12.143
247.24	-2.649
247.61	-1.974
247.98	-2.685
248.36	-1.235
248.73	-11.656
249.10	0.546
249.47	4.478
249.84	6.806
250.22	1.036
250.59	-1.111
250.96	9.091
251.33	-4.082
251.70	1.709
252.08	-3.333
252.45	3.279
252.82	0.000
253.19	0.391
253.56	2.281
253.94	-1.538
254.31	4.545
254.68	5.944
255.05	4.560
255.42	1.701
255.79	0.971
256.16	0.993
256.54	0.000
256.91	3.934
257.28	1.967
257.65	0.955
258.02	1.770
258.39	0.855
258.76	7.339
259.14	4.023
259.51	3.458
259.88	0.283
260.25	1.111
260.62	0.822
260.99	5.464
261.36	5.362
261.73	1.061
262.10	-2.198
262.47	2.413
262.85	4.545
263.22	-0.260
263.59	0.526
263.96	0.256
264.33	0.767
264.70	1.975
265.07	4.773
265.44	4.989
265.81	1.852
266.18	1.814
266.55	3.125
266.92	0.683
267.29	3.720
267.66	1.774
268.03	3.930
268.40	4.384
268.77	2.733
269.14	1.322
269.51	4.825
269.88	4.713
270.25	4.024
270.62	2.954
270.99	4.242
271.36	4.950
271.73	4.912
272.10	3.808
272.47	3.006
272.84	4.217
273.21	2.605
273.58	3.427
273.95	4.231
274.32	2.281
274.69	2.128
275.06	0.549
275.43	2.033
275.80	3.704
276.17	2.778
276.54	2.799
276.91	3.041
277.28	3.797
277.65	5.027
278.02	3.125
278.39	3.261
278.76	2.285
279.13	1.773
279.50	3.952
279.87	2.504
280.23	-0.528
280.60	2.712
280.97	4.441
281.34	1.019
281.71	4.399
282.08	3.987
282.45	3.437
282.82	2.826
283.19	1.131
283.56	1.803
283.92	3.754
284.29	5.055
284.66	4.598
285.03	0.962
285.40	2.628
285.77	2.632
286.14	3.206
286.51	3.805
286.87	3.002
287.24	3.765
287.61	2.990
287.98	3.021
288.35	3.550
288.72	1.775
289.08	3.075
289.45	3.402
289.82	1.355
290.19	3.736
290.56	4.930
290.93	2.710
291.29	1.515
291.66	2.755
292.03	3.121
292.40	4.626
292.77	4.043
293.13	4.736
293.50	3.022
293.87	3.893
294.24	3.600
294.60	4.046
294.97	2.550
295.34	4.866
295.71	3.657
296.08	4.393
296.44	3.554
296.81	4.994
297.18	3.985
297.55	4.245
297.91	3.440
298.28	4.739
298.65	3.924
299.02	5.077
299.38	4.119
299.75	4.673
300.12	3.356
300.48	4.724
300.85	5.062
301.22	7.047
301.59	4.566
301.95	5.876
302.32	6.222
302.69	5.367
303.05	7.073
303.42	6.763
303.79	6.667
304.15	6.099
304.52	5.708
304.89	6.178
305.25	6.729
305.62	6.374
305.99	7.423
306.35	7.560
306.72	7.653
307.09	7.614
307.45	8.592
307.82	7.467
308.19	7.568
308.55	8.872
308.92	8.277
309.29	9.770
309.65	8.090
310.02	8.713
310.38	9.252
310.75	10.194
311.12	10.163
311.48	9.189
311.85	11.111
312.22	10.721
312.58	11.268
312.95	12.141
313.31	12.285
313.68	10.897
314.05	12.105
314.41	13.479
314.78	13.351
315.14	13.339
315.51	14.866
315.87	14.401
316.24	15.434
316.61	16.163
316.97	15.113
317.34	16.490
317.70	16.594
318.07	18.254
318.43	17.602
318.80	19.147
319.16	17.167
319.53	18.252
319.89	19.281
320.26	19.217
320.62	19.592
320.99	21.330
321.35	20.980
321.72	23.535
322.08	23.535
322.45	23.397
322.81	24.278
323.18	25.221
323.54	25.776
323.91	27.669
324.27	27.711
324.64	29.387
325.00	29.768
325.37	30.631
325.73	31.570
326.10	30.819
326.46	33.795
326.83	35.068
327.19	34.331
327.56	35.178
327.92	35.563
328.29	35.726
328.65	36.516
329.01	38.240
329.38	38.248
329.74	39.726
330.11	39.983
330.47	39.090
330.84	41.085
331.20	40.083
331.56	40.988
331.93	42.510
332.29	42.288
332.66	41.279
333.02	41.541
333.38	41.275
333.75	42.340
334.11	43.620
334.48	44.142
334.84	43.415
335.20	42.653
335.57	43.929
335.93	44.215
336.29	43.760
336.66	44.491
337.02	44.398
337.38	44.133
337.75	43.636
338.11	45.837
338.47	44.665
338.84	43.993
339.20	45.493
339.56	44.811
339.93	44.828
340.29	44.444
340.65	43.796
341.02	46.688
341.38	46.241
341.74	47.135
342.11	46.742
342.47	45.036
342.83	47.182
343.20	47.506
343.56	46.913
343.92	45.877
344.28	47.109
344.65	46.512
345.01	46.958
345.37	46.190
345.73	47.233
346.10	47.192
346.46	47.152
346.82	47.790
347.19	47.899
347.55	48.255
347.91	47.474
348.27	48.862
348.63	48.286
349.00	48.248
349.36	48.625
349.72	48.586
350.08	48.143
350.45	49.049
350.81	48.265
351.17	47.895
351.53	48.825
351.89	49.279
352.26	50.746
352.62	49.701
352.98	50.076
353.34	48.992
353.70	51.926
354.07	50.298
354.43	50.190
354.79	50.411
355.15	51.435
355.51	50.365
355.87	50.561
356.24	52.395
356.60	49.520
356.96	52.261
357.32	51.004
357.68	50.512
358.04	51.422
358.40	51.791
358.77	51.608
359.13	50.443
359.49	52.119
359.85	51.269
360.21	53.013
360.57	52.118
360.93	51.340
361.29	52.561
361.66	51.267
362.02	53.027
362.38	54.533
362.74	53.282
363.10	54.264
363.46	54.363
363.82	53.764
364.18	53.976
364.54	54.703
364.90	53.779
365.26	54.138
365.62	54.933
365.98	53.710
366.35	53.557
366.71	54.558
367.07	55.954
367.43	53.841
367.79	55.806
368.15	55.318
368.51	55.751
368.87	54.670
369.23	54.467
369.59	56.148
369.95	55.781
370.31	56.043
370.67	55.433
371.03	57.271
371.39	56.145
371.75	56.809
372.11	56.369
372.47	55.315
372.83	56.414
373.19	56.171
373.55	56.843
373.91	56.783
374.27	55.821
374.63	57.916
374.99	56.432
375.35	56.948
375.71	57.290
376.07	57.908
376.42	55.668
376.78	57.241
377.14	57.642
377.50	58.571
377.86	57.328
378.22	57.844
378.58	57.967
378.94	56.162
379.30	57.411
379.66	58.495
380.02	58.454
380.38	58.756
380.74	57.296
381.09	58.769
381.45	57.841
381.81	59.836
382.17	58.907
382.53	58.830
382.89	58.239
383.25	59.203
383.61	58.275
383.97	59.011
384.32	59.450
384.68	59.107
385.04	59.283
385.40	59.222
385.76	60.258
386.12	59.306
386.48	59.059
386.83	58.760
387.19	58.285
387.55	58.920
387.91	59.646
388.27	59.700
388.62	57.159
388.98	58.996
389.34	59.988
389.70	59.094
390.06	58.674
390.42	58.072
390.77	59.663
391.13	58.392
391.49	60.507
391.85	58.424
392.20	59.015
392.56	59.362
392.92	58.451
393.28	58.872
393.64	58.883
393.99	59.442
394.35	60.105
394.71	60.000
395.07	59.222
395.42	57.510
395.78	60.512
396.14	59.834
396.50	57.957
396.85	58.855
397.21	58.166
397.57	59.069
397.92	59.049
398.28	58.555
398.64	59.783
399.00	57.382
399.35	58.377
399.71	58.424
400.07	58.506
400.42	58.498
400.78	57.870
401.14	59.192
401.49	59.238
401.85	60.291
402.21	58.227
402.57	58.862
402.92	58.392
403.28	58.080
403.63	57.637
403.99	57.542
404.35	57.817
404.70	57.337
405.06	58.315
405.42	57.728
405.77	58.070
406.13	57.590
406.49	58.221
406.84	56.898
407.20	58.189
407.55	57.480
407.91	57.762
408.27	57.951
408.62	58.173
408.98	58.619
409.34	56.540
409.69	56.860
410.05	56.975
410.40	58.237
410.76	57.263
411.11	56.926
411.47	57.617
411.83	57.496
412.18	58.012
412.54	56.846
412.89	56.927
413.25	56.772
413.60	55.773
413.96	56.993
414.31	56.714
414.67	56.231
415.03	54.646
415.38	57.818
415.74	56.445
416.09	56.447
416.45	55.604
416.80	55.630
417.16	57.088
417.51	57.161
417.87	55.120
418.22	56.228
418.58	56.939
418.93	55.413
419.29	57.398
419.64	56.363
420.00	56.558
420.35	55.081
420.71	55.313
421.06	55.894
421.42	56.881
421.77	55.035
422.12	55.233
422.48	56.016
422.83	56.243
423.19	56.658
423.54	57.024
423.90	55.549
424.25	55.733
424.61	55.454
424.96	56.178
425.31	56.157
425.67	55.609
426.02	56.336
426.38	56.659
426.73	56.250
427.09	56.171
427.44	55.052
427.79	56.385
428.15	55.708
428.50	57.247
428.85	55.052
429.21	57.074
429.56	55.577
429.92	55.233
430.27	55.277
430.62	55.594
430.98	54.943
431.33	55.132
431.68	54.262
432.04	55.358
432.39	55.651
432.74	56.050
433.10	56.896
433.45	56.466
433.80	56.921
434.16	55.733
434.51	56.372
434.86	57.275
435.22	57.545
435.57	57.783
435.92	57.707
436.28	57.053
436.63	56.745
436.98	56.039
437.34	56.313
437.69	55.696
438.04	56.954
438.39	56.806
438.75	56.669
439.10	56.765
439.45	56.121
439.81	55.706
440.16	54.799
440.51	57.915
440.86	55.531
441.22	56.967
441.57	57.180
441.92	56.305
442.27	56.414
442.63	56.234
442.98	56.670
443.33	56.181
443.68	56.442
444.03	57.620
444.39	57.235
444.74	56.304
445.09	55.955
445.44	56.797
445.79	56.513
446.15	56.423
446.50	56.744
446.85	55.934
447.20	56.480
447.55	57.741
447.91	56.387
448.26	56.765
448.61	56.482
448.96	57.350
449.31	56.151
449.66	54.793
450.02	56.435
450.37	56.367
450.72	57.266
451.07	57.175
451.42	56.441
451.77	56.087
452.12	55.982
452.47	55.615
452.83	56.700
453.18	55.692
453.53	55.543
453.88	55.163
454.23	54.746
454.58	58.154
454.93	56.917
455.28	57.315
455.63	55.600
455.98	56.369
456.34	55.889
456.69	56.143
457.04	57.033
457.39	55.876
457.74	57.942
458.09	54.970
458.44	55.927
458.79	54.409
459.14	55.794
459.49	56.140
459.84	55.929
460.19	54.581
460.54	55.650
460.89	55.056
461.24	55.747
461.59	54.898
461.94	54.022
462.29	55.375
462.64	54.737
462.99	55.179
463.34	56.262
463.69	53.224
464.04	54.919
464.39	54.709
464.74	54.618
465.09	55.133
465.44	54.077
465.79	54.733
466.14	53.986
466.49	53.684
466.84	54.931
467.19	53.468
467.54	53.584
467.89	53.908
468.24	53.518
468.59	54.314
468.94	53.555
469.29	53.509
469.64	53.783
469.99	54.557
470.34	53.527
470.68	55.366
471.03	54.158
471.38	53.695
471.73	54.616
472.08	53.807
472.43	54.545
472.78	54.471
473.13	53.097
473.48	54.260
473.83	54.556
474.17	53.224
474.52	54.480
474.87	52.879
475.22	53.521
475.57	52.700
475.92	52.862
476.27	51.970
476.61	53.271
476.96	53.024
477.31	53.317
477.66	53.305
478.01	52.822
478.36	52.642
478.70	52.414
479.05	52.812
479.40	52.419
479.75	52.402
480.10	52.582
480.45	52.826
480.79	52.290
481.14	51.425
481.49	51.931
481.84	51.697
482.19	52.258
482.53	52.864
482.88	52.548
483.23	52.779
483.58	51.616
483.92	50.532
484.27	50.804
484.62	50.578
484.97	51.516
485.31	50.334
485.66	47.907
486.01	47.701
486.36	48.125
486.70	49.759
487.05	50.674
487.40	50.592
487.75	50.534
488.09	50.042
488.44	49.260
488.79	49.342
489.13	49.928
489.48	49.709
489.83	49.175
490.17	49.534
490.52	49.836
490.87	49.915
491.22	50.390
491.56	50.341
491.91	50.327
492.26	49.156
492.60	49.585
492.95	50.417
493.30	49.978
493.64	50.022
493.99	49.518
494.34	48.824
494.68	50.021
495.03	49.956
495.37	49.800
495.72	49.660
496.07	49.036
496.41	48.777
496.76	49.791
497.11	49.299
497.45	48.899
497.80	49.089
498.14	49.161
498.49	50.092
498.84	50.046
499.18	48.448
499.53	48.610
499.87	49.055
500.22	47.863
500.56	48.763
500.91	48.833
501.26	49.227
501.60	47.945
501.95	48.155
502.29	48.179
502.64	48.929
502.98	48.188
503.33	48.035
503.67	47.972
504.02	47.242
504.36	47.587
504.71	48.507
505.06	47.976
505.40	48.446
505.75	47.587
506.09	48.527
506.44	47.400
506.78	48.807
507.13	47.810
507.47	47.892
507.82	48.201
508.16	47.849
508.51	46.695
508.85	47.567
509.19	47.845
509.54	47.358
509.88	46.527
510.23	47.936
510.57	47.704
510.92	46.976
511.26	47.186
511.61	46.692
511.95	46.510
512.30	46.775
512.64	46.777
512.98	47.274
513.33	47.933
513.67	46.813
514.02	48.186
514.36	47.519
514.70	47.240
515.05	47.706
515.39	46.772
515.74	46.341
516.08	47.808
516.42	47.671
516.77	46.898
517.11	46.467
517.46	46.766
517.80	47.675
518.14	47.606
518.49	46.584
518.83	46.301
519.17	46.257
519.52	46.122
519.86	46.779
520.20	46.752
520.55	45.728
520.89	46.565
521.23	45.282
521.58	47.910
521.92	47.365
522.26	46.048
522.61	46.701
522.95	47.174
523.29	46.667
523.64	45.404
523.98	46.149
524.32	46.705
524.66	46.215
525.01	44.847
525.35	45.663
525.69	44.896
526.04	44.546
526.38	45.115
526.72	44.348
527.06	45.161
527.41	44.606
527.75	46.378
528.09	45.159
528.43	45.293
528.78	44.104
529.12	44.323
529.46	44.857
529.80	45.252
530.15	44.290
530.49	45.670
530.83	44.746
531.17	43.548
531.51	44.465
531.86	44.651
532.20	44.390
532.54	43.986
532.88	44.424
533.22	43.194
533.57	43.508
533.91	43.603
534.25	43.810
534.59	43.793
534.93	43.124
535.27	43.437
535.62	43.377
535.96	43.696
536.30	43.831
536.64	44.024
536.98	43.419
537.32	42.346
537.66	43.294
538.01	41.571
538.35	42.631
538.69	42.428
539.03	43.777
539.37	42.462
539.71	43.544
540.05	43.405
540.39	42.421
540.73	41.955
541.07	42.428
541.42	41.583
541.76	40.985
542.10	42.340
542.44	41.596
542.78	41.423
543.12	41.299
543.46	41.575
543.80	40.048
544.14	41.233
544.48	41.667
544.82	41.831
545.16	40.847
545.50	41.342
545.84	41.764
546.18	41.296
546.52	42.420
546.86	40.755
547.20	42.366
547.54	40.699
547.88	40.145
548.22	40.175
548.56	40.667
548.90	40.896
549.24	40.912
549.58	41.136
549.92	40.880
550.26	41.100
550.60	40.651
550.94	41.397
551.28	39.736
551.62	41.307
551.96	39.547
552.30	41.173
552.64	40.572
552.98	40.549
553.32	40.643
553.66	39.936
554.00	40.101
554.34	40.476
554.68	40.413
555.02	39.685
555.36	40.237
555.69	39.013
556.03	38.651
556.37	39.737
556.71	38.237
557.05	40.383
557.39	39.084
557.73	39.630
558.07	39.404
558.41	40.133
558.75	38.945
559.08	40.292
559.42	38.889
559.76	38.874
560.10	39.652
560.44	40.106
560.78	40.375
561.12	38.608
561.45	38.504
561.79	39.683
562.13	38.817
562.47	37.485
562.81	37.722
563.15	38.889
563.48	38.222
563.82	38.634
564.16	38.340
564.50	37.187
564.84	37.463
565.17	37.647
565.51	36.766
565.85	37.530
566.19	36.751
566.52	37.332
566.86	36.276
567.20	36.052
567.54	37.015
567.88	36.850
568.21	36.561
568.55	36.547
568.89	36.087
569.23	36.164
569.56	35.522
569.90	35.816
570.24	34.806
570.57	34.445
570.91	34.752
571.25	33.931
571.59	34.372
571.92	33.316
572.26	33.722
572.60	33.797
572.93	33.593
573.27	33.830
573.61	33.457
573.95	32.945
574.28	32.329
574.62	32.265
574.96	32.201
575.29	31.989
575.63	32.225
575.97	32.383
576.30	32.494
576.64	32.355
576.98	32.688
577.31	32.326
577.65	32.357
577.98	31.871
578.32	31.201
578.66	31.681
578.99	31.681
579.33	31.703
579.67	31.596
580.00	31.760
580.34	31.741
580.67	31.796
581.01	31.696
581.35	31.560
581.68	30.967
582.02	31.482
582.35	31.733
582.69	31.782
583.02	31.770
583.36	31.526
583.70	32.084
584.03	31.725
584.37	31.696
584.70	31.198
585.04	31.156
585.37	31.330
585.71	30.982
586.04	31.176
586.38	31.082
586.72	31.060
587.05	31.261
587.39	31.439
587.72	31.459
588.06	31.093
588.39	31.466
588.73	31.429
589.06	31.151
589.40	32.391
589.73	31.459
590.07	31.233
590.40	31.744
590.73	31.495
591.07	33.060
591.40	31.610
591.74	32.234
592.07	32.318
592.41	32.216
592.74	30.990
593.08	31.592
593.41	30.971
593.75	30.029
594.08	30.900
594.41	30.801
594.75	30.953
595.08	30.888
595.42	30.682
595.75	30.707
596.09	31.921
596.42	31.064
596.75	31.262
597.09	31.677
597.42	31.347
597.75	30.498
598.09	30.952
598.42	31.242
598.76	30.531
599.09	30.473
599.42	29.568
599.76	29.944
600.09	30.230
600.42	30.130
600.76	29.557
601.09	30.302
601.42	30.175
601.76	30.276
602.09	29.664
602.42	29.335
602.76	29.779
603.09	30.323
603.42	30.311
603.76	29.774
604.09	30.979
604.42	30.018
604.76	30.213
605.09	28.879
605.42	29.705
605.75	29.731
606.09	29.489
606.42	29.734
606.75	29.948
607.09	29.263
607.42	29.634
607.75	29.816
608.08	29.242
608.42	29.021
608.75	30.265
609.08	29.796
609.41	29.907
609.75	30.179
610.08	29.376
610.41	29.099
610.74	30.378
611.07	30.329
611.41	29.372
611.74	29.654
612.07	29.780
612.40	30.846
612.73	30.171
613.07	29.291
613.40	29.451
613.73	29.947
614.06	30.422
614.39	29.543
614.72	29.549
615.06	29.500
615.39	29.580
615.72	29.763
616.05	28.995
616.38	29.062
616.71	30.094
617.05	29.606
617.38	30.123
617.71	29.806
618.04	30.005
618.37	30.492
618.70	30.600
619.03	28.793
619.36	30.271
619.69	29.340
620.03	30.320
620.36	29.264
620.69	29.180
621.02	29.265
621.35	32.003
621.68	30.875
622.01	29.680
622.34	30.335
622.67	29.828
623.00	28.340
623.33	30.524
623.66	29.702
623.99	29.098
624.32	31.189
624.65	29.215
624.99	30.104
625.32	30.895
625.65	30.007
625.98	29.424
626.31	29.199
626.64	30.476
626.97	29.557
627.30	29.461
627.63	29.782
627.96	30.856
628.29	30.584
628.62	30.227
628.95	30.500
629.28	31.096
629.61	31.397
629.94	29.874
630.26	29.831
630.59	30.311
630.92	30.649
631.25	31.038
631.58	31.733
631.91	29.335
632.24	29.491
632.57	30.645
632.90	31.595
633.23	31.224
633.56	30.204
633.89	30.269
634.22	31.601
634.55	32.255
634.88	29.870
635.20	31.432
635.53	32.542
635.86	31.419
636.19	32.025
636.52	30.063
636.85	29.111
637.18	29.730
637.51	29.570
637.83	30.897
638.16	29.724
638.49	30.634
638.82	31.680
639.15	28.064
639.48	31.293
639.81	30.831
640.13	30.624
640.46	30.061
640.79	30.760
641.12	30.186
641.45	29.737
641.77	32.734
642.10	30.446
642.43	32.580
642.76	31.843
643.09	31.507
643.41	28.571
643.74	31.586
644.07	31.862
644.40	29.420
644.73	29.463
645.05	30.396
645.38	33.237
645.71	30.938
646.04	32.425
646.36	31.825
646.69	30.982
647.02	31.498
647.35	31.908
647.67	32.528
648.00	29.140
648.33	32.432
648.66	29.244
648.98	29.252
649.31	28.687
649.64	30.412
649.96	30.106
650.29	28.929
650.62	28.571
650.94	29.730
651.27	29.491
651.60	30.263
651.92	32.219
652.25	28.799
652.58	29.298
652.90	28.343
653.23	31.127
653.56	28.103
653.88	30.618
654.21	29.859
654.54	28.757
654.86	28.895
655.19	27.980
655.52	26.177
655.84	22.839
656.17	26.915
656.49	38.002
656.82	41.851
657.15	32.779
657.47	24.773
657.80	18.584
658.13	14.443
658.45	19.207
658.78	23.774
659.10	22.857
659.43	23.339
659.75	23.146
660.08	23.417
660.41	24.318
660.73	25.314
661.06	27.900
661.38	26.954
661.71	29.655
662.03	27.513
662.36	32.558
662.68	30.769
663.01	31.327
663.33	31.191
663.66	33.150
663.98	27.308
664.31	31.144
664.63	29.287
664.96	30.490
665.28	27.768
665.61	30.420
665.93	28.214
666.26	30.824
666.58	29.151
666.91	32.710
667.23	28.381
667.56	28.008
667.88	30.000
668.21	28.516
668.53	27.220
668.86	31.041
669.18	30.346
669.50	29.225
669.83	27.800
670.15	28.346
670.48	28.968
670.80	26.195
671.13	29.112
671.45	28.346
671.77	29.002
672.10	27.500
672.42	25.728
672.75	25.960
673.07	24.478
673.39	26.810
673.72	28.020
674.04	27.586
674.37	26.476
674.69	28.042
675.01	27.810
675.34	25.382
675.66	27.341
675.98	30.224
676.31	27.148
676.63	28.897
676.95	29.310
677.28	24.395
677.60	25.000
677.92	26.104
678.25	28.336
678.57	26.157
678.89	28.157
679.22	24.564
679.54	25.812
679.86	24.407
680.18	26.036
680.51	25.000
680.83	26.678
681.15	26.379
681.48	28.325
681.80	25.734
682.12	22.552
682.44	26.210
682.77	25.177
683.09	27.462
683.41	27.326
683.73	29.222
684.06	27.675
684.38	25.581
684.70	24.955
685.02	23.236
685.34	23.627
685.67	24.763
685.99	25.460
686.31	22.238
686.63	23.855
686.96	25.710
687.28	23.941
687.60	24.411
687.92	23.151
688.24	24.374
688.56	23.966
688.89	25.771
689.21	26.419
689.53	24.314
689.85	27.613
690.17	25.000
690.49	24.104
690.82	24.554
691.14	24.291
691.46	25.048
691.78	25.967
692.10	24.220
692.42	25.179
692.74	24.138
693.06	23.889
693.39	24.668
693.71	23.496
694.03	24.907
694.35	26.667
694.67	25.873
694.99	25.106
695.31	23.400
695.63	27.922
695.95	24.431
696.27	20.220
696.59	25.442
696.91	25.000
697.23	27.473
697.56	22.811
697.88	24.621
698.20	23.352
698.52	26.894
698.84	25.572
699.16	24.898
699.48	23.849
699.80	22.766
700.12	23.581
700.44	21.659
700.76	25.178
701.08	25.666
701.40	26.684
701.72	24.627
702.04	28.877
702.36	25.393
702.68	24.450
703.00	24.694
703.32	25.369
703.64	22.249
703.96	24.582
704.28	22.359
704.60	23.544
704.91	25.510
705.23	25.479
705.55	26.462
705.87	25.152
706.19	28.528
706.51	23.494
706.83	22.478
707.15	23.545
707.47	19.159
707.79	24.672
708.11	22.246
708.43	21.935
708.74	20.313
709.06	20.650
709.38	26.291
709.70	26.551
710.02	22.739
710.34	24.202
710.66	24.022
710.98	22.951
711.29	21.703
711.61	23.164
711.93	25.071
712.25	20.541
712.57	25.664
712.89	22.647
713.20	25.148
713.52	25.145
713.84	22.841
714.16	22.105
714.48	19.845
714.80	25.714
715.11	22.572
715.43	24.403
715.75	20.789
716.07	20.718
716.39	24.044
716.70	18.976
717.02	24.262
717.34	20.906
717.66	26.846
717.97	22.260
718.29	23.368
718.61	22.697
718.93	23.948
719.24	25.155
719.56	18.712
719.88	23.724
720.20	22.258
720.51	20.497
720.83	18.750
721.15	24.671
721.46	17.808
721.78	17.000
722.10	20.388
722.42	21.477
722.73	22.258
723.05	21.404
723.37	22.222
723.68	23.297
724.00	22.022
724.32	23.239
724.63	18.881
724.95	25.532
725.27	19.512
725.58	16.608
725.90	24.138
726.22	22.571
726.53	21.104
726.85	22.642
727.16	22.961
727.48	24.771
727.80	23.510
728.11	16.608
728.43	18.855
728.74	22.408
729.06	20.861
729.38	15.584
729.69	23.154
730.01	23.512
730.32	18.182
730.64	20.126
730.96	17.391
731.27	22.346
731.59	21.429
731.90	17.143
732.22	20.573
732.53	17.403
732.85	18.000
733.16	20.235
733.48	17.988
733.80	18.942
734.11	21.083
734.43	21.892
734.74	21.266
735.06	19.347
735.37	21.622
735.69	19.189
736.00	21.186
736.32	18.868
736.63	19.167
736.95	19.253
737.26	16.364
737.58	19.394
737.89	20.588
738.21	17.431
738.52	17.705
738.83	20.819
739.15	19.858
739.46	18.707
739.78	19.939
740.09	17.765
740.41	18.950
740.72	19.667
741.04	20.065
741.35	21.404
741.66	22.745
741.98	20.082
742.29	21.339
742.61	21.491
742.92	18.077
743.23	20.939
743.55	20.155
743.86	21.600
744.18	16.942
744.49	16.456
744.80	23.045
745.12	17.722
745.43	21.545
745.74	20.690
746.06	15.678
746.37	20.675
746.68	26.016
747.00	27.083
747.31	20.172
747.62	23.462
747.94	15.385
748.25	19.277
748.56	16.327
748.88	22.650
749.19	21.983
749.50	19.048
749.82	21.687
750.13	18.505
750.44	18.000
750.75	17.846
751.07	18.769
751.38	20.505
751.69	21.086
752.01	18.123
752.32	18.954
752.63	17.687
752.94	19.723
753.26	20.074
753.57	18.148
753.88	16.105
754.19	17.685
754.51	17.363
754.82	22.508
755.13	18.361
755.44	19.454
755.75	17.763
756.07	20.000
756.38	15.409
756.69	20.783
757.00	17.729
757.31	18.852
757.63	15.857
757.94	15.493
758.25	18.284
758.56	18.083
758.87	15.682
759.18	18.667
759.50	17.847
759.81	17.367
760.12	16.173
760.43	18.750
760.74	20.443
761.05	15.750
761.36	15.663
761.67	16.497
761.99	20.000
762.30	15.244
762.61	15.842
762.92	16.418
763.23	21.723
763.54	19.065
763.85	17.526
764.16	13.468
764.47	19.014
764.78	21.086
765.10	19.648
765.41	16.154
765.72	14.550
766.03	17.797
766.34	15.047
766.65	13.240
766.96	19.124
767.27	18.894
767.58	16.418
767.89	25.000
768.20	19.718
768.51	13.889
768.82	16.064
769.13	14.773
769.44	17.308
769.75	17.329
770.06	16.154
770.37	18.110
770.68	14.043
770.99	13.360
771.30	21.111
771.61	21.673
771.92	12.222
772.23	16.599
772.54	12.500
772.85	22.581
773.16	18.571
773.47	15.873
773.78	14.054
774.09	13.636
774.39	21.000
774.70	21.311
775.01	12.805
775.32	11.176
775.63	17.178
775.94	5.732
776.25	14.839
776.56	21.154
776.87	19.728
777.18	18.621
777.48	15.385
777.79	16.216
778.10	18.382
778.41	16.667
778.72	23.448
779.03	14.815
779.34	16.970
779.65	20.207
779.95	22.222
780.26	14.773
780.57	10.323
780.88	18.841
781.19	23.871
781.50	20.000
781.80	14.516
782.11	13.757
782.42	13.636
782.73	14.371
783.04	15.642
783.34	15.152
783.65	9.804
783.96	9.938
784.27	14.881
784.57	14.570
784.88	15.000
785.19	17.323
785.50	16.535
785.81	11.278
786.11	16.923
786.42	12.950
786.73	16.547
787.04	20.301
787.34	23.770
787.65	14.400
787.96	14.179
788.26	20.280
788.57	13.287
788.88	15.132
789.19	16.993
789.49	13.014
789.80	16.312
790.11	13.386
790.41	15.625
790.72	11.864
791.03	15.534
791.33	18.261
791.64	20.175
791.95	5.357
792.25	10.476
792.56	16.964
792.87	7.292
793.17	8.929
793.48	12.500
793.79	4.819
794.09	7.339
794.40	10.092
794.70	17.687
795.01	12.338
795.32	12.329
795.62	16.901
795.93	12.879
796.23	20.492
796.54	5.357
796.85	9.574
797.15	8.696
797.46	0.000
797.76	17.500
798.07	18.478
798.37	6.186
798.68	11.688
798.99	5.747
799.29	1.124
799.60	4.255
799.90	10.843
800.21	-3.077
800.51	2.985
800.82	5.882
801.12	10.959
801.43	-1.471
801.73	22.034
802.04	12.121
802.34	11.667
802.65	5.085
802.95	20.896
803.26	8.475
803.56	9.589
803.87	5.714
804.17	17.808
804.48	3.509
804.78	5.556
805.09	0.000
805.39	10.811
805.70	-5.634
806.00	17.073
806.30	12.048
806.61	21.918
806.91	13.462
807.22	0.000
807.52	9.195
807.83	22.222
808.13	21.687
808.43	8.989
808.74	22.500
809.04	2.941
809.35	14.667
809.65	12.857
809.95	23.288
810.26	-12.281
810.56	27.586
810.86	19.118
811.17	5.263
811.47	6.557
811.77	4.444
812.08	11.864
812.38	6.667
812.69	41.379
812.99	-9.434
813.29	-17.949
813.59	22.000
813.90	15.789
814.20	-12.727
814.50	25.352
814.81	12.821
815.11	14.754
815.41	8.955
815.72	27.586
816.02	8.929
816.32	17.778
816.62	13.636
816.93	20.000
817.23	1.852
817.53	25.532
817.84	-2.381
818.14	-8.824
818.44	20.408
818.74	31.111
819.04	-7.692
819.35	2.857
819.65	0.000
819.95	13.208
820.25	11.111
820.56	16.667
820.86	-21.875
821.16	-12.821
821.46	2.326
821.76	-8.000
822.07	28.571
822.37	2.174
822.67	10.638
822.97	-10.811
823.27	-17.500
823.57	6.122
823.88	0.000
824.18	10.000
824.48	-30.000
824.78	8.000
825.08	15.152
825.38	31.111
825.69	6.383
825.99	2.778
826.29	-22.857
826.59	7.692
826.89	0.000
827.19	14.000
827.49	-2.941
827.79	6.250
828.09	-16.216
828.39	6.667
828.70	9.756
829.00	9.302
829.30	-3.571
829.60	2.941
829.90	-4.348
830.20	-14.286
830.50	-37.931
830.80	-44.444
831.10	-15.385
831.40	29.412
831.70	-42.857
832.00	48.387
832.30	-111.765
832.60	8.333
832.90	-46.154
833.20	-5.263
833.50	-20.000
833.80	-31.579
834.10	-85.714
834.40	2.778
834.70	25.000
835.00	-22.857
835.30	11.765
835.60	-3.333
835.90	-12.000
836.20	-18.182
836.50	24.000
836.80	-18.182
837.10	0.000
837.40	-7.407
837.70	-68.750
838.00	-28.571
838.30	-17.391
838.60	-10.345
838.90	-71.429
839.19	-95.652
839.49	-116.667
839.79	-8.696
840.09	-56.250
840.39	-40.000
840.69	19.355
840.99	7.143
841.29	-20.000
841.59	-57.895
841.88	12.821
842.18	11.538
842.48	30.000
842.78	5.000
843.08	30.000
843.38	12.903
843.68	-11.111
843.97	-2.941
844.27	-12.500
844.57	-21.053
844.87	-40.000
845.17	-66.667
845.47	52.381
845.76	-9.524
846.06	11.111
846.36	-17.647
846.66	15.385
846.96	-66.667
847.25	-35.294
847.55	4.348
847.85	0.000
848.15	5.882
848.44	-72.727
848.74	-4.762
849.04	0.000
849.34	-12.500
849.63	34.783
849.93	550.000
850.23	0.000
850.53	23.077
850.82	-72.727
851.12	-4.545
851.42	-36.364
851.71	0.000
852.01	-50.000
852.31	-15.385
852.61	0.000
852.90	-16.667
853.20	-27.778
853.50	-188.889
853.79	-33.333
854.09	-4.545
854.39	-75.000
854.68	-12.903
854.98	-38.462
855.28	-16.667
855.57	7.143
855.87	20.000
856.17	-13.636
856.46	40.741
856.76	5.556
857.05	-17.391
857.35	-45.833
857.65	-15.385
857.94	28.571
858.24	29.630
858.53	26.087
858.83	23.529
859.13	-29.412
859.42	-5.882
859.72	-21.429
860.01	20.000
860.31	-33.333
860.60	-40.000
860.90	-33.333
861.20	-16.667
861.49	-53.846
861.79	0.000
862.08	-23.077
862.38	9.375
862.67	29.412
862.97	-25.000
863.26	-88.889
863.56	0.000
863.85	45.455
864.15	27.778
864.44	-166.667
864.74	35.714
865.03	-31.250
865.33	-140.000
865.62	-16.129
865.92	40.909
866.21	39.130
866.51	14.286
866.80	-240.000
867.10	-8.333
867.39	-25.000
867.69	1000.000
867.98	28.571
868.27	5.882
868.57	-1900.000
868.86	-160.000
869.16	-52.381
869.45	4.167
869.75	36.364
870.04	-28.571
870.33	-75.000
870.63	-185.714
870.92	25.000
871.22	-187.500
871.51	-81.818
871.80	-600.000
872.10	-700.000
>>>>>End Processed Spectral Data<<<<<
