SpectraSuite Data File
++++++++++++++++++++++++++++++++++++
Date: Thu May 14 16:21:38 PDT 2015
User: schluterlab
Dark Spectrum Present: Yes
Reference Spectrum Present: Yes
Number of Sampled Component Spectra: 1
Spectrometers: USB2E3373
Integration Time (usec): 3000 (USB2E3373)
Spectra Averaged: 3 (USB2E3373)
Boxcar Smoothing: 0 (USB2E3373)
Correct for Electrical Dark: No (USB2E3373)
Strobe/Lamp Enabled: No (USB2E3373)
Correct for Detector Non-linearity: No (USB2E3373)
Correct for Stray Light: No (USB2E3373)
Number of Pixels in Processed Spectrum: 2048
>>>>>Begin Processed Spectral Data<<<<<
178.53	0.000
178.91	114.286
179.29	-1200.000
179.67	-400.000
180.04	135.714
180.42	90.000
180.80	260.000
181.18	-1300.000
181.56	-300.000
181.94	350.000
182.31	-25.000
182.69	300.000
183.07	-350.000
183.45	150.000
183.83	50.000
184.20	-266.667
184.58	600.000
184.96	-125.000
185.34	-44.444
185.72	-60.000
186.09	200.000
186.47	150.000
186.85	280.000
187.23	-11.111
187.61	-1000.000
187.98	120.000
188.36	325.000
188.74	-150.000
189.12	-200.000
189.49	0.000
189.87	-25.000
190.25	-55.556
190.63	80.000
191.00	-188.889
191.38	0.000
191.76	-50.000
192.14	-66.667
192.51	450.000
192.89	83.333
193.27	0.000
193.65	-14.286
194.02	-1400.000
194.40	-42.857
194.78	142.857
195.15	0.000
195.53	18.182
195.91	0.000
196.29	-300.000
196.66	-15.385
197.04	-700.000
197.42	0.000
197.79	0.000
198.17	-62.500
198.55	-28.571
198.92	-11.111
199.30	-50.000
199.68	18.182
200.05	57.143
200.43	-500.000
200.81	100.000
201.18	0.000
201.56	100.000
201.94	0.000
202.31	500.000
202.69	-211.111
203.07	100.000
203.44	-11.111
203.82	-200.000
204.19	-83.333
204.57	83.333
204.95	-87.500
205.32	-200.000
205.70	250.000
206.08	-133.333
206.45	-50.000
206.83	320.000
207.20	-133.333
207.58	40.000
207.96	-50.000
208.33	50.000
208.71	91.667
209.08	100.000
209.46	0.000
209.84	250.000
210.21	450.000
210.59	300.000
210.96	333.333
211.34	175.000
211.71	12.500
212.09	-1200.000
212.46	0.000
212.84	450.000
213.22	-320.000
213.59	-125.000
213.97	-30.000
214.34	66.667
214.72	150.000
215.09	-125.000
215.47	0.000
215.84	57.143
216.22	650.000
216.59	20.000
216.97	-60.000
217.34	-125.000
217.72	-12.500
218.09	-350.000
218.47	-300.000
218.84	0.000
219.22	120.000
219.59	11.765
219.97	20.000
220.34	900.000
220.72	-44.444
221.09	76.923
221.47	-200.000
221.84	-30.000
222.22	-57.143
222.59	0.000
222.97	-50.000
223.34	-260.000
223.72	-1400.000
224.09	-325.000
224.46	-225.000
224.84	-20.000
225.21	-71.429
225.59	-150.000
225.96	-200.000
226.34	26.923
226.71	216.667
227.08	-100.000
227.46	-26.667
227.83	-50.000
228.21	26.316
228.58	112.500
228.95	100.000
229.33	66.667
229.70	-60.000
230.08	26.316
230.45	20.000
230.82	66.667
231.20	-28.571
231.57	-33.333
231.95	-36.364
232.32	-18.182
232.69	30.000
233.07	-75.000
233.44	5.882
233.81	-10.000
234.19	33.333
234.56	45.455
234.93	44.828
235.31	52.632
235.68	55.556
236.05	-25.000
236.43	3.846
236.80	12.000
237.17	-7.407
237.55	15.152
237.92	-10.000
238.29	25.806
238.67	22.727
239.04	16.667
239.41	14.286
239.79	32.609
240.16	25.926
240.53	26.087
240.91	-3.922
241.28	31.148
241.65	23.881
242.02	33.784
242.40	12.308
242.77	37.333
243.14	35.366
243.51	30.263
243.89	33.333
244.26	33.663
244.63	39.216
245.00	38.318
245.38	35.965
245.75	16.814
246.12	35.714
246.49	26.357
246.87	34.286
247.24	29.801
247.61	30.921
247.98	28.859
248.36	38.889
248.73	29.448
249.10	33.880
249.47	32.338
249.84	36.649
250.22	38.342
250.59	37.222
250.96	31.818
251.33	30.612
251.70	37.607
252.08	34.167
252.45	38.525
252.82	37.190
253.19	37.109
253.56	40.684
253.94	33.077
254.31	37.121
254.68	38.462
255.05	37.134
255.42	34.694
255.79	33.333
256.16	36.424
256.54	34.437
256.91	36.393
257.28	32.787
257.65	35.350
258.02	31.268
258.39	33.903
258.76	40.367
259.14	39.368
259.51	32.565
259.88	36.827
260.25	35.278
260.62	35.890
260.99	38.525
261.36	34.853
261.73	36.605
262.10	37.363
262.47	34.584
262.85	36.364
263.22	33.247
263.59	32.105
263.96	37.340
264.33	36.573
264.70	36.049
265.07	36.754
265.44	35.601
265.81	36.111
266.18	34.921
266.55	35.491
266.92	33.030
267.29	37.856
267.66	37.694
268.03	36.463
268.40	34.029
268.77	35.991
269.14	35.903
269.51	36.404
269.88	34.631
270.25	33.400
270.62	39.030
270.99	36.970
271.36	34.455
271.73	37.328
272.10	37.475
272.47	35.271
272.84	35.743
273.21	35.671
273.58	35.282
273.95	34.231
274.32	34.791
274.69	32.302
275.06	34.066
275.43	33.272
275.80	34.568
276.17	35.000
276.54	33.955
276.91	35.599
277.28	34.720
277.65	35.907
278.02	33.088
278.39	35.688
278.76	34.622
279.13	34.397
279.50	33.849
279.87	36.315
280.23	30.810
280.60	33.898
280.97	33.717
281.34	34.635
281.71	35.364
282.08	33.056
282.45	32.733
282.82	33.124
283.19	32.633
283.56	32.623
283.92	32.583
284.29	33.965
284.66	32.020
285.03	32.532
285.40	33.230
285.77	32.198
286.14	35.267
286.51	30.898
286.87	33.649
287.24	34.337
287.61	31.091
287.98	32.628
288.35	32.988
288.72	30.325
289.08	33.089
289.45	30.325
289.82	29.367
290.19	30.172
290.56	30.000
290.93	30.813
291.29	31.405
291.66	28.926
292.03	30.393
292.40	29.660
292.77	29.380
293.13	29.093
293.50	28.909
293.87	27.785
294.24	29.867
294.60	29.330
294.97	27.248
295.34	29.193
295.71	28.121
296.08	27.649
296.44	27.819
296.81	27.649
297.18	26.152
297.55	27.241
297.91	26.572
298.28	27.844
298.65	25.684
299.02	25.620
299.38	26.888
299.75	26.285
300.12	26.389
300.48	25.691
300.85	27.559
301.22	26.398
301.59	25.685
301.95	27.119
302.32	26.667
302.69	26.506
303.05	26.768
303.42	25.721
303.79	26.771
304.15	25.131
304.52	25.370
304.89	25.550
305.25	26.501
305.62	25.392
305.99	25.464
306.35	25.302
306.72	27.715
307.09	27.411
307.45	26.501
307.82	26.135
308.19	26.741
308.55	27.001
308.92	27.264
309.29	25.670
309.65	26.121
310.02	27.624
310.38	25.492
310.75	27.087
311.12	28.284
311.48	26.393
311.85	27.066
312.22	27.324
312.58	27.512
312.95	28.011
313.31	28.004
313.68	29.029
314.05	29.088
314.41	29.690
314.78	30.427
315.14	29.310
315.51	28.994
315.87	29.343
316.24	30.868
316.61	30.995
316.97	29.864
317.34	30.688
317.70	31.965
318.07	31.217
318.43	32.483
318.80	32.943
319.16	31.845
319.53	32.219
319.89	32.165
320.26	33.096
320.62	33.245
320.99	32.225
321.35	33.919
321.72	34.512
322.08	34.175
322.45	36.043
322.81	35.650
323.18	35.221
323.54	37.500
323.91	37.900
324.27	36.919
324.64	37.699
325.00	37.313
325.37	38.411
325.73	38.512
326.10	40.308
326.46	39.332
326.83	40.833
327.19	39.921
327.56	41.423
327.92	40.834
328.29	41.048
328.65	41.709
329.01	41.794
329.38	42.291
329.74	45.120
330.11	44.606
330.47	43.387
330.84	43.842
331.20	43.750
331.56	43.328
331.93	45.356
332.29	45.593
332.66	44.850
333.02	44.221
333.38	44.463
333.75	45.539
334.11	45.288
334.48	46.040
334.84	46.219
335.20	45.340
335.57	46.037
335.93	47.355
336.29	45.175
336.66	46.510
337.02	46.405
337.38	47.874
337.75	46.777
338.11	48.612
338.47	47.064
338.84	47.124
339.20	47.599
339.56	47.776
339.93	46.716
340.29	47.182
340.65	48.418
341.02	48.284
341.38	49.070
341.74	48.265
342.11	48.109
342.47	47.260
342.83	49.275
343.20	49.469
343.56	49.639
343.92	48.519
344.28	48.516
344.65	49.922
345.01	49.610
345.37	50.000
345.73	48.636
346.10	50.312
346.46	49.921
346.82	50.187
347.19	51.490
347.55	50.683
347.91	50.446
348.27	51.138
348.63	48.591
349.00	49.963
349.36	51.747
349.72	50.223
350.08	49.926
350.45	51.863
350.81	50.679
351.17	51.729
351.53	53.525
351.89	52.012
352.26	53.060
352.62	52.015
352.98	53.359
353.34	52.651
353.70	53.775
354.07	52.310
354.43	53.531
354.79	54.076
355.15	52.833
355.51	53.582
355.87	53.179
356.24	54.829
356.60	53.659
356.96	54.559
357.32	53.234
357.68	55.198
358.04	52.844
358.40	53.582
358.77	54.386
359.13	54.431
359.49	53.903
359.85	55.983
360.21	54.878
360.57	53.410
360.93	54.584
361.29	54.877
361.66	55.177
362.02	54.489
362.38	55.587
362.74	56.494
363.10	55.502
363.46	56.025
363.82	56.818
364.18	56.439
364.54	56.086
364.90	56.455
365.26	57.655
365.62	56.400
365.98	56.569
366.35	55.705
366.71	57.415
367.07	58.660
367.43	56.993
367.79	58.062
368.15	57.458
368.51	57.240
368.87	57.348
369.23	57.000
369.59	57.514
369.95	59.364
370.31	59.284
370.67	58.184
371.03	57.756
371.39	57.287
371.75	58.872
372.11	59.146
372.47	58.497
372.83	58.508
373.19	57.171
373.55	58.740
373.91	58.964
374.27	58.150
374.63	59.405
374.99	61.008
375.35	59.675
375.71	58.710
376.07	59.587
376.42	60.390
376.78	60.224
377.14	58.328
377.50	59.709
377.86	59.360
378.22	61.317
378.58	60.820
378.94	60.211
379.30	58.817
379.66	60.553
380.02	61.281
380.38	61.924
380.74	60.732
381.09	62.137
381.45	60.511
381.81	62.705
382.17	60.748
382.53	61.170
382.89	60.553
383.25	62.192
383.61	61.748
383.97	61.425
384.32	61.603
384.68	60.383
385.04	61.943
385.40	63.995
385.76	62.368
386.12	61.939
386.48	61.471
386.83	62.277
387.19	62.399
387.55	62.324
387.91	62.386
388.27	62.644
388.62	60.767
388.98	60.406
389.34	62.994
389.70	62.929
390.06	62.285
390.42	62.771
390.77	62.492
391.13	62.559
391.49	63.043
391.85	62.909
392.20	62.337
392.56	61.252
392.92	61.450
393.28	63.129
393.64	62.737
393.99	62.754
394.35	62.734
394.71	61.916
395.07	61.257
395.42	62.821
395.78	63.193
396.14	62.686
396.50	61.995
396.85	62.552
397.21	60.947
397.57	63.486
397.92	62.486
398.28	62.520
398.64	62.357
399.00	61.099
399.35	61.990
399.71	60.761
400.07	62.605
400.42	60.710
400.78	61.632
401.14	61.867
401.49	62.422
401.85	63.198
402.21	61.587
402.57	62.559
402.92	62.411
403.28	61.534
403.63	61.277
403.99	60.748
404.35	61.455
404.70	61.813
405.06	59.946
405.42	60.890
405.77	60.414
406.13	61.372
406.49	61.374
406.84	60.720
407.20	60.537
407.55	62.871
407.91	61.408
408.27	60.306
408.62	60.733
408.98	60.186
409.34	61.232
409.69	61.372
410.05	60.141
410.40	60.325
410.76	60.292
411.11	60.959
411.47	60.749
411.83	61.670
412.18	61.747
412.54	60.344
412.89	60.070
413.25	61.456
413.60	60.023
413.96	61.364
414.31	58.640
414.67	60.525
415.03	58.277
415.38	61.349
415.74	60.232
416.09	58.976
416.45	58.547
416.80	58.996
417.16	59.898
417.51	59.776
417.87	59.289
418.22	59.521
418.58	59.789
418.93	59.255
419.29	59.309
419.64	58.944
420.00	60.000
420.35	58.226
420.71	58.874
421.06	57.964
421.42	58.888
421.77	58.104
422.12	58.985
422.48	58.884
422.83	60.350
423.19	58.621
423.54	59.458
423.90	59.194
424.25	59.307
424.61	58.439
424.96	58.265
425.31	59.236
425.67	58.508
426.02	59.546
426.38	58.783
426.73	58.147
427.09	59.400
427.44	58.056
427.79	58.264
428.15	57.648
428.50	58.258
428.85	57.176
429.21	57.979
429.56	56.515
429.92	57.199
430.27	57.446
430.62	57.401
430.98	57.944
431.33	57.283
431.68	56.130
432.04	57.237
432.39	56.776
432.74	56.678
433.10	57.220
433.45	57.135
433.80	55.955
434.16	57.025
434.51	57.914
434.86	58.686
435.22	57.811
435.57	57.901
435.92	57.819
436.28	57.964
436.63	57.673
436.98	55.770
437.34	57.384
437.69	56.687
438.04	56.214
438.39	55.830
438.75	56.890
439.10	57.981
439.45	56.680
439.81	56.384
440.16	55.925
440.51	57.023
440.86	55.809
441.22	55.734
441.57	56.499
441.92	56.353
442.27	56.313
442.63	55.936
442.98	56.937
443.33	55.287
443.68	57.780
444.03	56.256
444.39	56.403
444.74	56.815
445.09	54.232
445.44	55.954
445.79	56.705
446.15	56.218
446.50	55.401
446.85	55.204
447.20	55.416
447.55	56.224
447.91	54.764
448.26	55.233
448.61	54.835
448.96	57.403
449.31	54.295
449.66	54.303
450.02	54.958
450.37	54.928
450.72	54.575
451.07	54.385
451.42	54.073
451.77	53.696
452.12	55.192
452.47	55.140
452.83	54.899
453.18	53.240
453.53	53.992
453.88	53.065
454.23	53.672
454.58	53.860
454.93	53.155
455.28	54.485
455.63	53.269
455.98	54.413
456.34	52.415
456.69	53.616
457.04	54.137
457.39	53.936
457.74	53.188
458.09	52.389
458.44	53.125
458.79	51.006
459.14	51.180
459.49	53.424
459.84	52.938
460.19	51.527
460.54	53.549
460.89	51.932
461.24	50.690
461.59	51.909
461.94	51.911
462.29	51.792
462.64	50.996
462.99	50.847
463.34	51.201
463.69	50.996
464.04	50.139
464.39	51.177
464.74	50.741
465.09	50.000
465.44	50.858
465.79	49.974
466.14	49.088
466.49	48.947
466.84	49.862
467.19	49.422
467.54	49.060
467.89	48.678
468.24	48.920
468.59	48.871
468.94	48.776
469.29	47.750
469.64	48.570
469.99	49.713
470.34	48.267
470.68	49.419
471.03	47.937
471.38	47.482
471.73	47.009
472.08	48.287
472.43	47.200
472.78	46.851
473.13	47.598
473.48	47.492
473.83	47.243
474.17	47.655
474.52	47.324
474.87	46.401
475.22	46.085
475.57	46.262
475.92	45.396
476.27	45.367
476.61	45.846
476.96	45.673
477.31	46.337
477.66	46.013
478.01	45.247
478.36	45.065
478.70	43.941
479.05	45.501
479.40	45.163
479.75	45.245
480.10	44.244
480.45	44.394
480.79	44.036
481.14	43.704
481.49	44.298
481.84	44.909
482.19	44.172
482.53	43.288
482.88	43.731
483.23	43.842
483.58	43.100
483.92	42.465
484.27	43.395
484.62	43.234
484.97	42.574
485.31	42.626
485.66	40.967
486.01	40.720
486.36	41.436
486.70	43.385
487.05	44.097
487.40	43.487
487.75	42.952
488.09	42.209
488.44	41.739
488.79	42.293
489.13	41.419
489.48	40.699
489.83	40.483
490.17	41.110
490.52	40.599
490.87	40.398
491.22	41.551
491.56	40.572
491.91	41.169
492.26	41.064
492.60	40.621
492.95	40.412
493.30	40.520
493.64	39.816
493.99	40.351
494.34	39.634
494.68	40.600
495.03	40.132
495.37	39.991
495.72	39.365
496.07	39.614
496.41	39.468
496.76	39.366
497.11	38.429
497.45	39.836
497.80	39.138
498.14	39.501
498.49	39.798
498.84	38.483
499.18	39.361
499.53	38.296
499.87	38.330
500.22	37.979
500.56	38.237
500.91	39.176
501.26	39.136
501.60	37.826
501.95	38.602
502.29	38.219
502.64	38.172
502.98	37.403
503.33	37.970
503.67	36.808
504.02	37.566
504.36	37.444
504.71	37.391
505.06	37.153
505.40	37.340
505.75	36.384
506.09	37.707
506.44	37.140
506.78	37.431
507.13	37.298
507.47	37.707
507.82	36.742
508.16	37.046
508.51	35.115
508.85	36.845
509.19	36.855
509.54	36.744
509.88	36.717
510.23	37.640
510.57	37.941
510.92	36.236
511.26	36.316
511.61	35.683
511.95	36.310
512.30	37.026
512.64	35.632
512.98	35.568
513.33	36.139
513.67	35.747
514.02	35.156
514.36	35.601
514.70	35.729
515.05	35.662
515.39	35.433
515.74	35.366
516.08	35.552
516.42	35.165
516.77	35.752
517.11	34.193
517.46	34.783
517.80	34.580
518.14	35.854
518.49	35.249
518.83	34.007
519.17	33.818
519.52	35.115
519.86	33.897
520.20	34.132
520.55	34.064
520.89	34.178
521.23	34.171
521.58	34.915
521.92	34.504
522.26	33.047
522.61	33.796
522.95	34.083
523.29	33.793
523.64	32.904
523.98	34.170
524.32	34.728
524.66	33.409
525.01	33.182
525.35	34.061
525.69	33.875
526.04	33.352
526.38	32.529
526.72	33.737
527.06	33.196
527.41	33.411
527.75	32.838
528.09	32.763
528.43	33.215
528.78	32.081
529.12	32.856
529.46	32.771
529.80	31.922
530.15	33.391
530.49	32.859
530.83	32.527
531.17	33.094
531.51	32.671
531.86	32.812
532.20	33.415
532.54	31.418
532.88	31.636
533.22	31.821
533.57	31.391
533.91	32.379
534.25	32.222
534.59	32.471
534.93	31.692
535.27	31.831
535.62	32.405
535.96	31.551
536.30	31.962
536.64	33.393
536.98	32.534
537.32	32.037
537.66	32.252
538.01	30.937
538.35	30.512
538.69	30.709
539.03	30.779
539.37	31.095
539.71	31.111
540.05	31.655
540.39	31.846
540.73	30.055
541.07	31.760
541.42	30.242
541.76	30.902
542.10	32.268
542.44	30.877
542.78	30.961
543.12	30.751
543.46	30.647
543.80	31.175
544.14	29.803
544.48	29.905
544.82	31.239
545.16	31.366
545.50	29.718
545.84	29.822
546.18	31.049
546.52	30.064
546.86	29.245
547.20	29.644
547.54	29.526
547.88	29.476
548.22	29.766
548.56	30.193
548.90	28.836
549.24	30.395
549.58	29.653
549.92	29.273
550.26	30.291
550.60	29.994
550.94	30.401
551.28	29.307
551.62	30.526
551.96	28.673
552.30	29.509
552.64	29.932
552.98	29.070
553.32	29.904
553.66	30.418
554.00	29.887
554.34	29.987
554.68	28.470
555.02	28.515
555.36	29.520
555.69	27.995
556.03	29.760
556.37	27.847
556.71	29.550
557.05	29.968
557.39	29.197
557.73	29.326
558.07	29.205
558.41	29.103
558.75	29.682
559.08	28.740
559.42	28.669
559.76	29.647
560.10	28.332
560.44	28.562
560.78	29.750
561.12	28.017
561.45	28.710
561.79	29.792
562.13	28.589
562.47	27.867
562.81	28.608
563.15	28.977
563.48	28.589
563.82	28.779
564.16	27.317
564.50	28.963
564.84	26.962
565.17	28.412
565.51	28.193
565.85	28.741
566.19	28.111
566.52	28.145
566.86	27.844
567.20	27.569
567.54	28.518
567.88	27.982
568.21	28.557
568.55	28.729
568.89	28.779
569.23	27.672
569.56	28.449
569.90	28.546
570.24	27.892
570.57	27.806
570.91	28.047
571.25	28.290
571.59	29.112
571.92	27.719
572.26	28.242
572.60	28.064
572.93	28.110
573.27	28.013
573.61	27.528
573.95	27.701
574.28	27.774
574.62	27.513
574.96	27.834
575.29	27.495
575.63	27.743
575.97	27.569
576.30	27.757
576.64	27.941
576.98	27.335
577.31	27.354
577.65	27.796
577.98	27.786
578.32	27.726
578.66	27.516
578.99	27.319
579.33	27.479
579.67	27.267
580.00	27.467
580.34	27.618
580.67	26.853
581.01	27.456
581.35	27.060
581.68	27.116
582.02	27.476
582.35	27.770
582.69	27.968
583.02	27.920
583.36	27.911
583.70	27.698
584.03	27.358
584.37	27.845
584.70	27.506
585.04	27.180
585.37	26.690
585.71	27.033
586.04	26.464
586.38	27.089
586.72	27.200
587.05	26.963
587.39	26.951
587.72	27.536
588.06	27.128
588.39	27.035
588.73	26.111
589.06	27.370
589.40	27.320
589.73	26.350
590.07	27.387
590.40	26.572
590.73	27.077
591.07	27.215
591.40	26.516
591.74	26.431
592.07	27.649
592.41	26.380
592.74	26.447
593.08	27.197
593.41	26.363
593.75	26.695
594.08	26.447
594.41	26.571
594.75	25.971
595.08	26.514
595.42	26.688
595.75	26.736
596.09	26.364
596.42	27.517
596.75	27.480
597.09	27.030
597.42	26.261
597.75	26.343
598.09	26.786
598.42	27.061
598.76	26.099
599.09	26.237
599.42	25.914
599.76	26.114
600.09	25.792
600.42	26.193
600.76	26.189
601.09	26.087
601.42	26.090
601.76	25.724
602.09	26.412
602.42	25.627
602.76	26.052
603.09	26.065
603.42	26.337
603.76	25.969
604.09	26.544
604.42	25.688
604.76	25.799
605.09	25.888
605.42	26.396
605.75	26.231
606.09	26.017
606.42	25.429
606.75	25.825
607.09	24.923
607.42	25.703
607.75	26.534
608.08	25.691
608.42	25.836
608.75	25.498
609.08	25.594
609.41	25.937
609.75	24.911
610.08	27.089
610.41	25.573
610.74	26.008
611.07	25.844
611.41	25.695
611.74	25.681
612.07	25.760
612.40	25.523
612.73	25.721
613.07	24.988
613.40	25.650
613.73	25.855
614.06	25.761
614.39	25.510
614.72	25.328
615.06	25.024
615.39	25.665
615.72	25.592
616.05	25.546
616.38	25.479
616.71	25.705
617.05	24.814
617.38	25.254
617.71	24.622
618.04	25.418
618.37	26.776
618.70	25.509
619.03	25.090
619.36	25.586
619.69	24.728
620.03	23.792
620.36	25.583
620.69	25.848
621.02	25.591
621.35	26.851
621.68	25.524
622.01	24.484
622.34	23.222
622.67	25.567
623.00	23.887
623.33	25.083
623.66	25.097
623.99	24.951
624.32	25.536
624.65	23.745
624.99	24.837
625.32	24.951
625.65	24.612
625.98	23.797
626.31	24.947
626.64	25.055
626.97	24.681
627.30	24.222
627.63	23.556
627.96	25.601
628.29	23.813
628.62	24.349
628.95	24.189
629.28	24.979
629.61	24.495
629.94	23.933
630.26	23.983
630.59	24.698
630.92	22.771
631.25	23.614
631.58	24.765
631.91	24.274
632.24	24.592
632.57	23.814
632.90	24.072
633.23	23.673
633.56	23.469
633.89	22.727
634.22	23.909
634.55	24.739
634.88	23.485
635.20	23.681
635.53	23.955
635.86	23.510
636.19	25.451
636.52	23.418
636.85	24.004
637.18	23.285
637.51	23.978
637.83	24.585
638.16	23.733
638.49	24.413
638.82	23.224
639.15	23.253
639.48	25.866
639.81	24.134
640.13	23.675
640.46	22.788
640.79	22.672
641.12	23.851
641.45	23.087
641.77	23.620
642.10	23.228
642.43	23.803
642.76	23.035
643.09	22.603
643.41	23.109
643.74	23.310
644.07	23.724
644.40	21.216
644.73	21.771
645.05	22.614
645.38	23.597
645.71	22.581
646.04	25.825
646.36	23.358
646.69	22.699
647.02	24.159
647.35	22.901
647.67	23.994
648.00	24.045
648.33	24.024
648.66	23.680
648.98	22.041
649.31	23.139
649.64	23.639
649.96	23.475
650.29	21.975
650.62	23.762
650.94	22.973
651.27	23.353
651.60	21.930
651.92	21.581
652.25	23.878
652.58	24.484
652.90	22.674
653.23	23.239
653.56	23.823
653.88	25.140
654.21	23.803
654.54	21.965
654.86	23.938
655.19	22.836
655.52	24.342
655.84	24.055
656.17	28.908
656.49	40.794
656.82	45.389
657.15	35.928
657.47	27.224
657.80	20.517
658.13	15.732
658.45	20.911
658.78	24.985
659.10	24.286
659.43	23.339
659.75	23.186
660.08	22.465
660.41	22.663
660.73	20.753
661.06	20.705
661.38	22.488
661.71	24.483
662.03	21.869
662.36	21.825
662.68	23.077
663.01	21.062
663.33	23.819
663.66	24.725
663.98	20.577
664.31	23.640
664.63	20.424
664.96	21.779
665.28	20.145
665.61	24.476
665.93	20.179
666.26	22.222
666.58	20.111
666.91	22.430
667.23	22.095
667.56	20.907
667.88	21.400
668.21	22.070
668.53	20.270
668.86	22.986
669.18	20.978
669.50	21.869
669.83	19.000
670.15	20.276
670.48	23.413
670.80	21.989
671.13	20.416
671.45	20.866
671.77	22.976
672.10	20.167
672.42	19.741
672.75	21.813
673.07	21.045
673.39	21.880
673.72	22.651
674.04	23.103
674.37	21.109
674.69	24.339
675.01	21.524
675.34	20.802
675.66	22.846
675.98	23.321
676.31	21.094
676.63	22.243
676.95	22.414
677.28	21.976
677.60	16.732
677.92	20.921
678.25	23.218
678.57	20.285
678.89	22.867
679.22	21.777
679.54	22.564
679.86	22.542
680.18	22.388
680.51	21.541
680.83	23.568
681.15	21.034
681.48	22.107
681.80	22.280
682.12	20.455
682.44	20.868
682.77	21.986
683.09	21.780
683.41	22.674
683.73	22.770
684.06	19.926
684.38	20.215
684.70	23.519
685.02	23.408
685.34	22.795
685.67	22.082
685.99	21.779
686.31	20.494
686.63	23.381
686.96	21.767
687.28	21.824
687.60	21.044
687.92	20.579
688.24	22.371
688.56	19.138
688.89	21.416
689.21	21.918
689.53	18.431
689.85	19.329
690.17	19.630
690.49	23.108
690.82	22.574
691.14	19.231
691.46	19.120
691.78	20.258
692.10	21.468
692.42	19.464
692.74	21.053
693.06	17.778
693.39	23.340
693.71	21.805
694.03	22.862
694.35	21.143
694.67	21.971
694.99	21.064
695.31	20.971
695.63	20.563
695.95	20.497
696.27	21.319
696.59	22.124
696.91	19.820
697.23	21.978
697.56	20.163
697.88	19.318
698.20	21.092
698.52	22.348
698.84	21.830
699.16	22.449
699.48	20.921
699.80	17.660
700.12	19.214
700.44	18.203
700.76	23.278
701.08	20.097
701.40	17.358
701.72	17.413
702.04	21.658
702.36	18.586
702.68	17.848
703.00	20.049
703.32	19.212
703.64	19.804
703.96	21.002
704.28	17.445
704.60	23.291
704.91	20.663
705.23	21.370
705.55	22.284
705.87	24.545
706.19	20.245
706.51	20.482
706.83	18.732
707.15	16.931
707.47	19.860
707.79	19.651
708.11	20.127
708.43	20.430
708.74	16.071
709.06	20.418
709.38	20.188
709.70	23.325
710.02	22.997
710.34	20.745
710.66	18.156
710.98	22.131
711.29	17.033
711.61	19.209
711.93	18.234
712.25	22.162
712.57	20.944
712.89	22.353
713.20	18.639
713.52	21.098
713.84	18.942
714.16	20.263
714.48	20.361
714.80	24.675
715.11	20.472
715.43	20.159
715.75	19.211
716.07	20.442
716.39	19.399
716.70	16.867
717.02	21.311
717.34	21.603
717.66	18.456
717.97	15.753
718.29	19.244
718.61	17.105
718.93	20.065
719.24	20.186
719.56	16.871
719.88	19.820
720.20	20.645
720.51	18.944
720.83	20.000
721.15	16.447
721.46	19.178
721.78	20.333
722.10	12.945
722.42	18.792
722.73	18.065
723.05	16.842
723.37	16.667
723.68	23.656
724.00	22.022
724.32	17.958
724.63	17.483
724.95	20.567
725.27	17.422
725.58	20.141
725.90	23.103
726.22	21.317
726.53	21.753
726.85	19.497
727.16	17.221
727.48	23.547
727.80	16.887
728.11	20.495
728.43	19.529
728.74	18.729
729.06	17.881
729.38	17.857
729.69	21.477
730.01	20.536
730.32	16.061
730.64	18.239
730.96	14.596
731.27	21.788
731.59	21.429
731.90	16.623
732.22	19.531
732.53	19.337
732.85	20.000
733.16	18.182
733.48	17.683
733.80	18.942
734.11	20.228
734.43	18.378
734.74	18.734
735.06	19.095
735.37	20.270
735.69	17.838
736.00	20.904
736.32	19.946
736.63	21.111
736.95	22.126
737.26	20.909
737.58	18.182
737.89	21.471
738.21	16.514
738.52	19.672
738.83	20.478
739.15	19.504
739.46	21.429
739.78	19.939
740.09	16.046
740.41	22.157
740.72	17.333
741.04	21.036
741.35	18.246
741.66	19.216
741.98	19.262
742.29	17.155
742.61	16.667
742.92	17.692
743.23	19.134
743.55	20.155
743.86	15.200
744.18	11.983
744.49	19.409
744.80	20.988
745.12	17.722
745.43	20.325
745.74	18.534
746.06	19.068
746.37	21.519
746.68	23.577
747.00	16.667
747.31	21.030
747.62	22.308
747.94	20.243
748.25	18.474
748.56	17.959
748.88	22.650
749.19	20.259
749.50	17.316
749.82	26.104
750.13	20.641
750.44	15.667
750.75	17.231
751.07	20.615
751.38	21.136
751.69	18.850
752.01	19.094
752.32	18.301
752.63	18.707
752.94	17.993
753.26	19.703
753.57	19.630
753.88	19.101
754.19	21.865
754.51	17.363
754.82	21.865
755.13	22.623
755.44	20.137
755.75	17.105
756.07	19.104
756.38	19.497
756.69	23.494
757.00	19.391
757.31	19.945
757.63	15.857
757.94	20.892
758.25	18.962
758.56	19.608
758.87	19.773
759.18	17.333
759.50	20.680
759.81	21.289
760.12	18.868
760.43	20.052
760.74	21.429
761.05	21.250
761.36	17.831
761.67	18.782
761.99	18.919
762.30	18.598
762.61	16.502
762.92	17.164
763.23	20.599
763.54	17.626
763.85	16.838
764.16	18.182
764.47	20.775
764.78	20.447
765.10	21.408
765.41	20.000
765.72	18.254
766.03	21.469
766.34	17.555
766.65	14.634
766.96	18.327
767.27	17.972
767.58	16.915
767.89	22.115
768.20	15.023
768.51	20.833
768.82	19.679
769.13	19.318
769.44	16.154
769.75	20.578
770.06	19.615
770.37	24.016
770.68	17.021
770.99	14.170
771.30	27.407
771.61	19.772
771.92	18.519
772.23	18.623
772.54	11.111
772.85	22.581
773.16	24.286
773.47	15.873
773.78	17.838
774.09	22.727
774.39	25.000
774.70	17.486
775.01	9.146
775.32	18.235
775.63	12.883
775.94	12.739
776.25	16.129
776.56	18.590
776.87	27.891
777.18	15.862
777.48	12.587
777.79	14.865
778.10	10.294
778.41	14.583
778.72	18.621
779.03	16.667
779.34	15.758
779.65	15.026
779.95	19.444
780.26	17.614
780.57	21.935
780.88	24.638
781.19	18.065
781.50	20.588
781.80	20.430
782.11	19.577
782.42	18.687
782.73	14.970
783.04	17.318
783.34	11.515
783.65	18.954
783.96	18.012
784.27	16.667
784.57	17.219
784.88	15.714
785.19	14.961
785.50	14.173
785.81	21.053
786.11	17.692
786.42	12.950
786.73	15.827
787.04	20.301
787.34	20.492
787.65	15.200
787.96	14.179
788.26	16.783
788.57	18.182
788.88	22.368
789.19	26.797
789.49	13.014
789.80	17.730
790.11	19.685
790.41	10.938
790.72	18.644
791.03	5.825
791.33	22.609
791.64	8.772
791.95	9.821
792.25	13.333
792.56	14.286
792.87	11.458
793.17	16.071
793.48	7.292
793.79	3.614
794.09	17.431
794.40	15.596
794.70	19.048
795.01	14.286
795.32	16.438
795.62	17.606
795.93	15.909
796.23	20.492
796.54	10.714
796.85	21.277
797.15	13.043
797.46	2.740
797.76	6.250
798.07	18.478
798.37	6.186
798.68	15.584
798.99	6.897
799.29	14.607
799.60	14.894
799.90	9.639
800.21	12.308
800.51	-5.970
800.82	5.882
801.12	1.370
801.43	0.000
801.73	3.390
802.04	12.121
802.34	1.667
802.65	3.390
802.95	14.925
803.26	11.864
803.56	1.370
803.87	10.000
804.17	10.959
804.48	-8.772
804.78	6.944
805.09	3.448
805.39	-2.703
805.70	8.451
806.00	24.390
806.30	16.867
806.61	5.479
806.91	16.346
807.22	13.333
807.52	3.448
807.83	18.056
808.13	16.867
808.43	15.730
808.74	2.500
809.04	4.412
809.35	10.667
809.65	15.714
809.95	16.438
810.26	-3.509
810.56	18.966
810.86	29.412
811.17	-17.544
811.47	-1.639
811.77	-4.444
812.08	10.169
812.38	18.333
812.69	13.793
812.99	-9.434
813.29	-17.949
813.59	2.000
813.90	3.509
814.20	5.455
814.50	25.352
814.81	21.795
815.11	16.393
815.41	1.493
815.72	22.414
816.02	17.857
816.32	26.667
816.62	11.364
816.93	-20.000
817.23	16.667
817.53	-4.255
817.84	26.190
818.14	5.882
818.44	10.204
818.74	8.889
819.04	-2.564
819.35	-20.000
819.65	-23.077
819.95	5.660
820.25	-6.667
820.56	21.429
820.86	9.375
821.16	15.385
821.46	-6.977
821.76	-10.000
822.07	5.357
822.37	-2.174
822.67	23.404
822.97	-32.432
823.27	-12.500
823.57	32.653
823.88	35.556
824.18	17.500
824.48	33.333
824.78	-8.000
825.08	21.212
825.38	20.000
825.69	6.383
825.99	-2.778
826.29	-20.000
826.59	-17.949
826.89	-4.651
827.19	16.000
827.49	-17.647
827.79	14.583
828.09	-35.135
828.39	0.000
828.70	2.439
829.00	16.279
829.30	-39.286
829.60	23.529
829.90	-6.522
830.20	0.000
830.50	-10.345
830.80	-88.889
831.10	-34.615
831.40	-8.824
831.70	-33.333
832.00	6.452
832.30	-64.706
832.60	-29.167
832.90	-30.769
833.20	-36.842
833.50	-55.000
833.80	-15.789
834.10	-42.857
834.40	-5.556
834.70	12.500
835.00	-28.571
835.30	17.647
835.60	-20.000
835.90	-12.000
836.20	-13.636
836.50	-24.000
836.80	-24.242
837.10	-22.222
837.40	11.111
837.70	-68.750
838.00	10.714
838.30	-13.043
838.60	10.345
838.90	-35.714
839.19	-73.913
839.49	-50.000
839.79	-43.478
840.09	-50.000
840.39	-5.000
840.69	9.677
840.99	-21.429
841.29	-33.333
841.59	-15.789
841.88	2.564
842.18	-30.769
842.48	-60.000
842.78	10.000
843.08	-20.000
843.38	6.452
843.68	-11.111
843.97	0.000
844.27	-25.000
844.57	0.000
844.87	-50.000
845.17	-6.667
845.47	42.857
845.76	4.762
846.06	-77.778
846.36	-123.529
846.66	3.846
846.96	-33.333
847.25	-47.059
847.55	-17.391
847.85	-20.000
848.15	-41.176
848.44	-109.091
848.74	14.286
849.04	-4.167
849.34	-87.500
849.63	-30.435
849.93	650.000
850.23	-20.000
850.53	38.462
850.82	-27.273
851.12	40.909
851.42	-36.364
851.71	46.154
852.01	-60.000
852.31	-69.231
852.61	-31.579
852.90	0.000
853.20	-22.222
853.50	-22.222
853.79	-71.429
854.09	9.091
854.39	-83.333
854.68	-12.903
854.98	-11.538
855.28	11.111
855.57	17.857
855.87	0.000
856.17	0.000
856.46	7.407
856.76	-22.222
857.05	-8.696
857.35	-50.000
857.65	-53.846
857.94	9.524
858.24	22.222
858.53	0.000
858.83	11.765
859.13	-58.824
859.42	-29.412
859.72	28.571
860.01	-55.000
860.31	-88.889
860.60	0.000
860.90	-33.333
861.20	-55.556
861.49	-7.692
861.79	-10.000
862.08	-46.154
862.38	43.750
862.67	17.647
862.97	-12.500
863.26	-88.889
863.56	-20.000
863.85	-45.455
864.15	5.556
864.44	33.333
864.74	7.143
865.03	-25.000
865.33	-60.000
865.62	12.903
865.92	36.364
866.21	-21.739
866.51	-42.857
866.80	-120.000
867.10	-83.333
867.39	-8.333
867.69	900.000
867.98	-71.429
868.27	-11.765
868.57	-1000.000
868.86	-20.000
869.16	23.810
869.45	-25.000
869.75	-18.182
870.04	-71.429
870.33	8.333
870.63	-185.714
870.92	-125.000
871.22	-100.000
871.51	9.091
871.80	-500.000
872.10	-500.000
>>>>>End Processed Spectral Data<<<<<
