SpectraSuite Data File
++++++++++++++++++++++++++++++++++++
Date: Thu May 14 16:14:46 PDT 2015
User: schluterlab
Dark Spectrum Present: Yes
Reference Spectrum Present: Yes
Number of Sampled Component Spectra: 1
Spectrometers: USB2E3373
Integration Time (usec): 3000 (USB2E3373)
Spectra Averaged: 3 (USB2E3373)
Boxcar Smoothing: 0 (USB2E3373)
Correct for Electrical Dark: No (USB2E3373)
Strobe/Lamp Enabled: No (USB2E3373)
Correct for Detector Non-linearity: No (USB2E3373)
Correct for Stray Light: No (USB2E3373)
Number of Pixels in Processed Spectrum: 2048
>>>>>Begin Processed Spectral Data<<<<<
178.53	0.000
178.91	71.429
179.29	-2100.000
179.67	-400.000
180.04	121.429
180.42	20.000
180.80	300.000
181.18	-600.000
181.56	100.000
181.94	75.000
182.31	-75.000
182.69	300.000
183.07	-400.000
183.45	200.000
183.83	-83.333
184.20	-133.333
184.58	700.000
184.96	75.000
185.34	33.333
185.72	-100.000
186.09	88.889
186.47	650.000
186.85	100.000
187.23	-44.444
187.61	-700.000
187.98	100.000
188.36	25.000
188.74	25.000
189.12	366.667
189.49	62.500
189.87	-37.500
190.25	22.222
190.63	-140.000
191.00	-44.444
191.38	0.000
191.76	-275.000
192.14	-150.000
192.51	350.000
192.89	100.000
193.27	0.000
193.65	-157.143
194.02	-1400.000
194.40	-14.286
194.78	114.286
195.15	0.000
195.53	27.273
195.91	0.000
196.29	0.000
196.66	7.692
197.04	-300.000
197.42	-157.143
197.79	-150.000
198.17	-12.500
198.55	-28.571
198.92	-100.000
199.30	-187.500
199.68	-90.909
200.05	-14.286
200.43	-150.000
200.81	142.857
201.18	0.000
201.56	100.000
201.94	0.000
202.31	233.333
202.69	-100.000
203.07	700.000
203.44	-11.111
203.82	-50.000
204.19	-91.667
204.57	-16.667
204.95	37.500
205.32	400.000
205.70	100.000
206.08	-66.667
206.45	150.000
206.83	80.000
207.20	0.000
207.58	-160.000
207.96	-66.667
208.33	0.000
208.71	75.000
209.08	50.000
209.46	0.000
209.84	200.000
210.21	100.000
210.59	300.000
210.96	433.333
211.34	200.000
211.71	75.000
212.09	-100.000
212.46	0.000
212.84	700.000
213.22	-100.000
213.59	25.000
213.97	70.000
214.34	-33.333
214.72	116.667
215.09	-100.000
215.47	0.000
215.84	114.286
216.22	300.000
216.59	120.000
216.97	-140.000
217.34	-50.000
217.72	0.000
218.09	-100.000
218.47	-300.000
218.84	0.000
219.22	140.000
219.59	-23.529
219.97	50.000
220.34	100.000
220.72	-33.333
221.09	53.846
221.47	66.667
221.84	10.000
222.22	28.571
222.59	0.000
222.97	-25.000
223.34	-120.000
223.72	-400.000
224.09	75.000
224.46	-175.000
224.84	-100.000
225.21	-57.143
225.59	-300.000
225.96	75.000
226.34	19.231
226.71	166.667
227.08	-650.000
227.46	-40.000
227.83	-100.000
228.21	-52.632
228.58	137.500
228.95	150.000
229.33	66.667
229.70	-70.000
230.08	89.474
230.45	120.000
230.82	0.000
231.20	-7.143
231.57	66.667
231.95	-36.364
232.32	36.364
232.69	30.000
233.07	-25.000
233.44	17.647
233.81	90.000
234.19	55.556
234.56	40.909
234.93	55.172
235.31	21.053
235.68	88.889
236.05	15.000
236.43	50.000
236.80	120.000
237.17	74.074
237.55	57.576
237.92	80.000
238.29	29.032
238.67	29.545
239.04	50.000
239.41	40.476
239.79	45.652
240.16	37.037
240.53	45.652
240.91	41.176
241.28	57.377
241.65	56.716
242.02	56.757
242.40	43.077
242.77	53.333
243.14	41.463
243.51	50.000
243.89	50.000
244.26	49.505
244.63	52.941
245.00	52.336
245.38	42.105
245.75	43.363
246.12	58.730
246.49	51.163
246.87	54.286
247.24	50.993
247.61	50.658
247.98	48.993
248.36	50.617
248.73	46.626
249.10	50.820
249.47	53.731
249.84	54.450
250.22	48.705
250.59	50.556
250.96	52.727
251.33	48.469
251.70	50.855
252.08	50.000
252.45	51.639
252.82	50.826
253.19	54.687
253.56	50.570
253.94	51.923
254.31	53.409
254.68	54.196
255.05	49.511
255.42	49.320
255.79	49.838
256.16	50.000
256.54	51.987
256.91	54.754
257.28	52.787
257.65	51.911
258.02	48.673
258.39	50.997
258.76	53.211
259.14	54.885
259.51	53.602
259.88	52.408
260.25	51.111
260.62	53.425
260.99	56.011
261.36	50.670
261.73	52.255
262.10	56.044
262.47	54.692
262.85	55.051
263.22	52.987
263.59	50.000
263.96	52.941
264.33	53.964
264.70	54.074
265.07	52.029
265.44	53.968
265.81	53.704
266.18	53.061
266.55	49.777
266.92	52.392
267.29	53.829
267.66	55.654
268.03	56.332
268.40	49.896
268.77	51.481
269.14	51.762
269.51	51.316
269.88	52.869
270.25	50.101
270.62	55.696
270.99	51.515
271.36	51.881
271.73	49.312
272.10	54.910
272.47	50.902
272.84	50.602
273.21	49.499
273.58	49.194
273.95	50.000
274.32	49.240
274.69	50.290
275.06	52.198
275.43	48.799
275.80	49.735
276.17	49.815
276.54	50.000
276.91	49.553
277.28	50.452
277.65	51.526
278.02	49.449
278.39	47.826
278.76	49.561
279.13	48.759
279.50	51.031
279.87	48.837
280.23	47.711
280.60	51.017
280.97	50.658
281.34	49.745
281.71	49.746
282.08	46.013
282.45	47.627
282.82	47.096
283.19	49.919
283.56	50.328
283.92	49.850
284.29	49.447
284.66	48.276
285.03	46.635
285.40	47.759
285.77	48.916
286.14	47.634
286.51	47.945
286.87	46.761
287.24	48.494
287.61	46.936
287.98	47.281
288.35	45.858
288.72	45.118
289.08	46.266
289.45	44.527
289.82	46.235
290.19	44.253
290.56	44.366
290.93	45.364
291.29	43.388
291.66	43.939
292.03	43.691
292.40	43.129
292.77	42.453
293.13	40.460
293.50	43.758
293.87	43.087
294.24	44.000
294.60	39.823
294.97	40.671
295.34	41.485
295.71	40.227
296.08	40.310
296.44	40.931
296.81	40.073
297.18	41.345
297.55	37.972
297.91	38.790
298.28	39.810
298.65	37.574
299.02	39.551
299.38	39.016
299.75	36.682
300.12	38.426
300.48	37.442
300.85	38.695
301.22	39.262
301.59	38.242
301.95	38.418
302.32	38.222
302.69	37.897
303.05	36.779
303.42	37.140
303.79	36.875
304.15	36.383
304.52	36.364
304.89	38.115
305.25	37.164
305.62	37.513
305.99	36.495
306.35	37.702
306.72	38.263
307.09	38.071
307.45	38.509
307.82	38.749
308.19	35.419
308.55	37.223
308.92	37.390
309.29	37.261
309.65	37.037
310.02	37.624
310.38	38.091
310.75	38.641
311.12	39.118
311.48	39.394
311.85	38.177
312.22	38.235
312.58	38.779
312.95	39.197
313.31	38.302
313.68	40.110
314.05	38.934
314.41	41.075
314.78	40.327
315.14	39.746
315.51	42.198
315.87	39.784
316.24	41.461
316.61	41.030
316.97	40.181
317.34	40.653
317.70	41.747
318.07	42.240
318.43	42.517
318.80	42.642
319.16	41.888
319.53	40.703
319.89	43.032
320.26	43.861
320.62	42.819
320.99	42.475
321.35	43.161
321.72	44.651
322.08	44.454
322.45	45.257
322.81	47.653
323.18	45.664
323.54	45.776
323.91	47.598
324.27	46.558
324.64	47.859
325.00	45.937
325.37	44.881
325.73	47.273
326.10	46.959
326.46	46.824
326.83	48.038
327.19	46.850
327.56	49.091
327.92	46.971
328.29	47.581
328.65	48.492
329.01	48.985
329.38	49.115
329.74	49.401
330.11	48.716
330.47	47.683
330.84	47.373
331.20	49.833
331.56	49.480
331.93	48.954
332.29	49.746
332.66	49.336
333.02	48.911
333.38	49.161
333.75	50.758
334.11	50.959
334.48	48.432
334.84	50.042
335.20	49.370
335.57	49.578
335.93	50.413
336.29	47.171
336.66	48.360
337.02	48.997
337.38	49.405
337.75	48.182
338.11	50.378
338.47	49.462
338.84	48.054
339.20	48.694
339.56	48.270
339.93	47.783
340.29	48.309
340.65	49.067
341.02	48.204
341.38	48.666
341.74	48.103
342.11	49.879
342.47	46.942
342.83	49.436
343.20	49.877
343.56	50.120
343.92	49.159
344.28	48.359
344.65	49.922
345.01	47.426
345.37	48.445
345.73	48.324
346.10	49.532
346.46	49.525
346.82	48.315
347.19	49.121
347.55	49.924
347.91	50.149
348.27	48.862
348.63	48.896
349.00	48.919
349.36	47.955
349.72	48.065
350.08	49.108
350.45	49.734
350.81	48.416
351.17	50.376
351.53	49.052
351.89	50.190
352.26	50.746
352.62	48.955
352.98	49.847
353.34	48.618
353.70	51.233
354.07	51.043
354.43	50.721
354.79	49.663
355.15	49.742
355.51	50.950
355.87	50.262
356.24	49.962
356.60	50.037
356.96	50.259
357.32	50.186
357.68	49.561
358.04	49.701
358.40	50.000
358.77	50.219
359.13	50.960
359.49	49.145
359.85	50.326
360.21	49.139
360.57	50.826
360.93	51.128
361.29	50.456
361.66	50.760
362.02	51.566
362.38	51.230
362.74	51.397
363.10	51.238
363.46	52.147
363.82	50.923
364.18	51.724
364.54	51.660
364.90	51.906
365.26	51.517
365.62	52.067
365.98	52.757
366.35	51.812
366.71	52.517
367.07	52.706
367.43	51.609
367.79	53.616
368.15	53.177
368.51	52.503
368.87	51.470
369.23	51.667
369.59	53.142
369.95	53.076
370.31	53.950
370.67	52.682
371.03	52.909
371.39	53.324
371.75	53.783
372.11	52.371
372.47	52.471
372.83	53.796
373.19	53.502
373.55	52.304
373.91	53.102
374.27	53.234
374.63	54.195
374.99	53.780
375.35	55.325
375.71	54.645
376.07	52.615
376.42	53.086
376.78	55.003
377.14	53.961
377.50	55.155
377.86	55.480
378.22	53.952
378.58	55.470
378.94	53.932
379.30	54.013
379.66	54.380
380.02	55.453
380.38	55.530
380.74	55.211
381.09	56.388
381.45	55.568
381.81	56.323
382.17	55.463
382.53	56.023
382.89	53.894
383.25	56.506
383.61	55.671
383.97	55.889
384.32	56.758
384.68	55.684
385.04	56.217
385.40	55.333
385.76	57.093
386.12	55.955
386.48	57.471
386.83	55.244
387.19	56.489
387.55	55.575
387.91	56.963
388.27	56.755
388.62	56.415
388.98	55.668
389.34	57.160
389.70	57.118
390.06	56.898
390.42	55.964
390.77	55.990
391.13	56.103
391.49	57.307
391.85	56.485
392.20	56.346
392.56	56.881
392.92	56.543
393.28	57.269
393.64	57.598
393.99	57.002
394.35	57.886
394.71	57.365
395.07	57.784
395.42	57.167
395.78	58.562
396.14	57.576
396.50	55.819
396.85	57.543
397.21	57.515
397.57	57.008
397.92	58.419
398.28	57.523
398.64	56.808
399.00	56.754
399.35	57.173
399.71	57.609
400.07	58.170
400.42	57.509
400.78	58.160
401.14	57.314
401.49	58.215
401.85	57.849
402.21	58.169
402.57	56.866
402.92	57.151
403.28	55.738
403.63	57.876
403.99	56.532
404.35	55.884
404.70	57.564
405.06	56.359
405.42	57.494
405.77	57.361
406.13	56.672
406.49	58.052
406.84	56.676
407.20	56.512
407.55	57.662
407.91	56.757
408.27	57.362
408.62	58.290
408.98	57.864
409.34	57.009
409.69	58.467
410.05	56.975
410.40	57.947
410.76	56.534
411.11	58.095
411.47	57.248
411.83	58.965
412.18	58.072
412.54	57.499
412.89	57.567
413.25	57.844
413.60	56.232
413.96	56.702
414.31	56.147
414.67	57.662
415.03	57.292
415.38	59.079
415.74	57.483
416.09	58.236
416.45	56.606
416.80	57.711
417.16	57.854
417.51	56.663
417.87	56.223
418.22	58.503
418.58	57.497
418.93	57.043
419.29	58.076
419.64	56.603
420.00	57.804
420.35	58.001
420.71	56.749
421.06	56.009
421.42	58.142
421.77	55.735
422.12	55.973
422.48	56.938
422.83	57.010
423.19	57.401
423.54	56.692
423.90	57.537
424.25	58.240
424.61	57.922
424.96	57.221
425.31	56.741
425.67	55.609
426.02	57.167
426.38	56.831
426.73	55.859
427.09	58.131
427.44	56.253
427.79	57.380
428.15	55.936
428.50	57.472
428.85	56.716
429.21	57.340
429.56	56.022
429.92	55.971
430.27	57.735
430.62	56.522
430.98	57.108
431.33	56.354
431.68	55.364
432.04	56.120
432.39	56.936
432.74	55.822
433.10	56.247
433.45	55.518
433.80	56.867
434.16	55.888
434.51	56.989
434.86	57.220
435.22	58.023
435.57	56.309
435.92	56.093
436.28	56.086
436.63	56.636
436.98	55.233
437.34	55.693
437.69	56.632
438.04	55.685
438.39	55.887
438.75	56.004
439.10	55.708
439.45	55.674
439.81	56.158
440.16	55.603
440.51	55.853
440.86	55.864
441.22	55.895
441.57	56.027
441.92	55.141
442.27	55.909
442.63	55.589
442.98	56.243
443.33	54.971
443.68	55.798
444.03	56.021
444.39	55.016
444.74	55.947
445.09	54.587
445.44	55.216
445.79	54.550
446.15	54.985
446.50	56.279
446.85	54.669
447.20	55.126
447.55	54.184
447.91	54.660
448.26	55.285
448.61	55.207
448.96	55.955
449.31	53.181
449.66	55.719
450.02	53.797
450.37	54.289
450.72	54.521
451.07	53.702
451.42	55.055
451.77	54.141
452.12	55.305
452.47	54.367
452.83	55.011
453.18	54.407
453.53	53.130
453.88	52.568
454.23	53.842
454.58	55.659
454.93	54.672
455.28	53.221
455.63	53.326
455.98	52.067
456.34	52.297
456.69	53.616
457.04	54.255
457.39	53.825
457.74	54.866
458.09	52.718
458.44	53.179
458.79	52.656
459.14	53.854
459.49	53.198
459.84	53.358
460.19	52.304
460.54	53.606
460.89	54.209
461.24	52.414
461.59	52.684
461.94	52.367
462.29	53.024
462.64	51.599
462.99	52.668
463.34	52.758
463.69	51.876
464.04	52.362
464.39	51.570
464.74	51.938
465.09	52.307
465.44	51.502
465.79	51.983
466.14	51.537
466.49	50.684
466.84	52.066
467.19	50.405
467.54	50.705
467.89	50.172
468.24	50.471
468.59	49.971
468.94	50.583
469.29	50.330
469.64	49.777
469.99	51.052
470.34	50.433
470.68	50.991
471.03	51.343
471.38	50.491
471.73	49.870
472.08	50.381
472.43	49.488
472.78	51.071
473.13	50.063
473.48	50.332
473.83	49.855
474.17	48.300
474.52	49.729
474.87	50.554
475.22	49.296
475.57	49.221
475.92	49.876
476.27	49.521
476.61	47.975
476.96	47.654
477.31	49.059
477.66	49.685
478.01	48.144
478.36	48.106
478.70	48.670
479.05	49.693
479.40	49.062
479.75	48.991
480.10	48.508
480.45	47.630
480.79	48.753
481.14	48.300
481.49	48.069
481.84	47.868
482.19	48.344
482.53	48.010
482.88	48.250
483.23	48.110
483.58	47.467
483.92	47.207
484.27	47.544
484.62	46.906
484.97	47.706
485.31	47.202
485.66	46.341
486.01	46.131
486.36	47.604
486.70	49.181
487.05	50.099
487.40	49.129
487.75	49.237
488.09	49.197
488.44	47.164
488.79	46.577
489.13	46.560
489.48	45.825
489.83	44.628
490.17	45.119
490.52	45.320
490.87	45.431
491.22	44.974
491.56	45.307
491.91	44.745
492.26	44.872
492.60	44.687
492.95	44.932
493.30	44.778
493.64	44.766
493.99	44.430
494.34	44.164
494.68	44.240
495.03	44.229
495.37	44.163
495.72	44.036
496.07	43.996
496.41	43.415
496.76	44.120
497.11	43.949
497.45	44.022
497.80	43.048
498.14	42.948
498.49	43.612
498.84	43.510
499.18	43.050
499.53	43.094
499.87	42.989
500.22	42.386
500.56	43.365
500.91	42.975
501.26	42.727
501.60	43.129
501.95	42.683
502.29	42.431
502.64	42.501
502.98	41.717
503.33	42.073
503.67	42.739
504.02	41.725
504.36	42.315
504.71	42.490
505.06	43.111
505.40	41.910
505.75	42.213
506.09	41.298
506.44	43.083
506.78	42.936
507.13	41.955
507.47	41.497
507.82	40.909
508.16	40.679
508.51	41.256
508.85	41.285
509.19	41.923
509.54	41.835
509.88	40.894
510.23	41.962
510.57	41.469
510.92	41.703
511.26	39.971
511.61	39.884
511.95	40.312
512.30	40.719
512.64	39.530
512.98	40.170
513.33	40.071
513.67	40.286
514.02	39.959
514.36	40.665
514.70	40.156
515.05	39.260
515.39	39.370
515.74	39.130
516.08	39.356
516.42	39.717
516.77	39.537
517.11	38.422
517.46	39.608
517.80	39.818
518.14	39.064
518.49	39.588
518.83	38.584
519.17	38.611
519.52	38.994
519.86	40.127
520.20	38.871
520.55	38.554
520.89	38.626
521.23	38.749
521.58	38.757
521.92	39.207
522.26	37.973
522.61	39.352
522.95	38.466
523.29	39.023
523.64	37.724
523.98	37.422
524.32	39.312
524.66	37.507
525.01	37.259
525.35	37.277
525.69	37.877
526.04	36.567
526.38	37.701
526.72	37.832
527.06	38.475
527.41	37.784
527.75	37.945
528.09	38.017
528.43	36.945
528.78	36.994
529.12	35.780
529.46	37.324
529.80	37.986
530.15	36.928
530.49	38.019
530.83	37.485
531.17	36.141
531.51	37.365
531.86	37.861
532.20	38.049
532.54	37.283
532.88	37.030
533.22	37.596
533.57	36.526
533.91	36.083
534.25	37.931
534.59	37.816
534.93	36.503
535.27	37.746
535.62	38.431
535.96	37.653
536.30	37.015
536.64	37.297
536.98	37.823
537.32	37.284
537.66	37.804
538.01	35.529
538.35	36.663
538.69	36.839
539.03	37.094
539.37	35.689
539.71	37.117
540.05	37.530
540.39	36.125
540.73	35.155
541.07	36.358
541.42	35.794
541.76	36.062
542.10	36.429
542.44	35.688
542.78	35.766
543.12	37.187
543.46	36.569
543.80	36.211
544.14	35.308
544.48	36.229
544.82	36.266
545.16	36.017
545.50	35.830
545.84	35.824
546.18	36.852
546.52	36.433
546.86	35.094
547.20	36.896
547.54	36.454
547.88	36.769
548.22	35.848
548.56	35.401
548.90	35.940
549.24	36.049
549.58	35.710
549.92	35.268
550.26	35.534
550.60	35.546
550.94	34.994
551.28	34.191
551.62	35.580
551.96	34.951
552.30	36.138
552.64	35.096
552.98	34.435
553.32	35.563
553.66	34.727
554.00	34.678
554.34	34.813
554.68	33.376
555.02	34.363
555.36	34.254
555.69	33.632
556.03	35.246
556.37	35.169
556.71	34.432
557.05	34.505
557.39	34.970
557.73	34.412
558.07	34.040
558.41	33.555
558.75	34.348
559.08	34.656
559.42	33.265
559.76	33.921
560.10	33.691
560.44	34.103
560.78	34.375
561.12	33.251
561.45	34.732
561.79	34.493
562.13	34.442
562.47	33.847
562.81	34.620
563.15	35.038
563.48	33.313
563.82	34.401
564.16	33.616
564.50	34.148
564.84	34.336
565.17	34.118
565.51	33.717
565.85	33.789
566.19	33.583
566.52	33.587
566.86	34.012
567.20	32.735
567.54	34.466
567.88	34.200
568.21	34.190
568.55	35.300
568.89	35.179
569.23	35.361
569.56	35.404
569.90	35.531
570.24	35.514
570.57	36.209
570.91	34.936
571.25	35.175
571.59	35.374
571.92	35.581
572.26	36.210
572.60	36.200
572.93	35.653
573.27	36.274
573.61	35.760
573.95	35.640
574.28	35.623
574.62	35.834
574.96	35.135
575.29	35.558
575.63	35.713
575.97	36.263
576.30	34.789
576.64	35.624
576.98	35.945
577.31	36.290
577.65	35.782
577.98	35.730
578.32	35.687
578.66	35.846
578.99	36.187
579.33	36.083
579.67	35.381
580.00	35.693
580.34	35.602
580.67	35.371
581.01	35.244
581.35	35.106
581.68	35.475
582.02	35.733
582.35	35.893
582.69	36.076
583.02	36.423
583.36	36.270
583.70	36.060
584.03	35.877
584.37	35.621
584.70	35.037
585.04	34.736
585.37	34.887
585.71	34.153
586.04	35.095
586.38	35.190
586.72	34.420
587.05	34.536
587.39	34.655
587.72	34.952
588.06	34.768
588.39	34.827
588.73	34.974
589.06	34.763
589.40	35.095
589.73	34.287
590.07	34.649
590.40	34.246
590.73	34.111
591.07	34.103
591.40	33.709
591.74	34.141
592.07	33.942
592.41	32.808
592.74	32.659
593.08	33.981
593.41	33.917
593.75	33.247
594.08	33.626
594.41	33.750
594.75	33.909
595.08	33.647
595.42	33.896
595.75	33.645
596.09	33.921
596.42	33.286
596.75	34.080
597.09	33.778
597.42	33.135
597.75	32.771
598.09	33.056
598.42	32.610
598.76	32.289
599.09	32.752
599.42	31.948
599.76	32.684
600.09	32.933
600.42	33.100
600.76	32.695
601.09	33.422
601.42	32.818
601.76	33.655
602.09	32.952
602.42	32.316
602.76	32.583
603.09	33.003
603.42	33.309
603.76	32.452
604.09	33.392
604.42	32.404
604.76	32.154
605.09	32.589
605.42	32.735
605.75	32.038
606.09	32.027
606.42	31.485
606.75	32.384
607.09	31.413
607.42	32.331
607.75	31.848
608.08	32.005
608.42	31.761
608.75	32.297
609.08	31.749
609.41	31.584
609.75	31.027
610.08	31.750
610.41	32.031
610.74	31.597
611.07	32.549
611.41	31.749
611.74	31.547
612.07	31.931
612.40	30.941
612.73	31.883
613.07	31.540
613.40	31.184
613.73	31.006
614.06	30.716
614.39	31.584
614.72	29.985
615.06	31.280
615.39	31.029
615.72	30.853
616.05	31.423
616.38	30.424
616.71	31.034
617.05	29.712
617.38	30.177
617.71	30.562
618.04	30.869
618.37	32.295
618.70	30.600
619.03	29.869
619.36	29.901
619.69	30.365
620.03	29.567
620.36	30.061
620.69	29.735
621.02	31.234
621.35	29.826
621.68	29.284
622.01	29.181
622.34	28.522
622.67	28.316
623.00	29.082
623.33	30.126
623.66	29.831
623.99	28.440
624.32	30.019
624.65	29.472
624.99	30.169
625.32	29.850
625.65	29.265
625.98	28.475
626.31	29.412
626.64	29.890
626.97	29.407
627.30	28.094
627.63	28.357
627.96	29.204
628.29	27.860
628.62	28.799
628.95	28.922
629.28	27.358
629.61	27.189
629.94	27.866
630.26	27.542
630.59	26.511
630.92	27.965
631.25	27.191
631.58	27.307
631.91	27.741
632.24	28.530
632.57	28.368
632.90	27.683
633.23	26.837
633.56	26.939
633.89	26.136
634.22	26.195
634.55	26.096
634.88	24.892
635.20	27.879
635.53	26.667
635.86	26.327
636.19	28.844
636.52	27.637
636.85	25.945
637.18	25.052
637.51	25.699
637.83	26.689
638.16	26.267
638.49	25.469
638.82	25.817
639.15	24.284
639.48	27.945
639.81	26.559
640.13	25.795
640.46	24.121
640.79	26.593
641.12	25.839
641.45	25.721
641.77	28.241
642.10	25.328
642.43	25.665
642.76	23.442
643.09	23.562
643.41	23.810
643.74	25.103
644.07	26.483
644.40	23.762
644.73	24.673
645.05	24.963
645.38	24.317
645.71	24.194
646.04	26.112
646.36	24.234
646.69	23.926
647.02	25.994
647.35	24.427
647.67	24.638
648.00	24.363
648.33	24.925
648.66	25.963
648.98	24.354
649.31	23.004
649.64	25.498
649.96	24.801
650.29	25.313
650.62	24.752
650.94	23.123
651.27	22.006
651.60	23.246
651.92	23.100
652.25	24.313
652.58	23.659
652.90	22.820
653.23	25.211
653.56	24.251
653.88	25.983
654.21	25.775
654.54	24.133
654.86	26.062
655.19	24.090
655.52	27.215
655.84	29.954
656.17	36.373
656.49	52.355
656.82	59.124
657.15	47.437
657.47	36.418
657.80	27.294
658.13	21.695
658.45	28.585
658.78	34.147
659.10	33.185
659.43	32.615
659.75	30.361
660.08	29.916
660.41	27.295
660.73	25.998
661.06	23.642
661.38	20.734
661.71	22.759
662.03	21.693
662.36	24.687
662.68	23.640
663.01	25.133
663.33	23.062
663.66	23.993
663.98	23.077
664.31	22.139
664.63	21.580
664.96	24.319
665.28	23.230
665.61	23.427
665.93	21.786
666.26	22.043
666.58	20.849
666.91	24.112
667.23	24.190
667.56	24.063
667.88	21.200
668.21	22.461
668.53	19.884
668.86	23.379
669.18	22.200
669.50	25.050
669.83	22.200
670.15	23.819
670.48	25.595
670.80	19.312
671.13	22.117
671.45	21.850
671.77	23.352
672.10	24.167
672.42	24.110
672.75	22.888
673.07	24.030
673.39	23.267
673.72	25.671
674.04	23.621
674.37	25.224
674.69	24.868
675.01	24.571
675.34	22.328
675.66	23.034
675.98	23.507
676.31	23.047
676.63	21.483
676.95	23.180
677.28	23.992
677.60	20.669
677.92	23.800
678.25	24.497
678.57	26.157
678.89	23.208
679.22	23.519
679.54	22.735
679.86	23.390
680.18	22.388
680.51	23.585
680.83	25.368
681.15	23.103
681.48	25.043
681.80	24.007
682.12	23.077
682.44	24.374
682.77	22.872
683.09	24.621
683.41	23.256
683.73	22.391
684.06	23.801
684.38	23.792
684.70	25.135
685.02	23.924
685.34	22.962
685.67	23.344
685.99	21.626
686.31	23.256
686.63	24.013
686.96	24.132
687.28	25.570
687.60	23.232
687.92	22.026
688.24	25.376
688.56	22.931
688.89	23.956
689.21	25.245
689.53	23.725
689.85	25.049
690.17	21.111
690.49	22.311
690.82	23.762
691.14	20.243
691.46	24.665
691.78	25.046
692.10	23.486
692.42	21.607
692.74	23.775
693.06	19.815
693.39	23.340
693.71	23.872
694.03	23.978
694.35	23.619
694.67	23.203
694.99	21.277
695.31	22.517
695.63	22.944
695.95	21.946
696.27	21.758
696.59	23.894
696.91	21.171
697.23	22.857
697.56	24.236
697.88	23.295
698.20	22.599
698.52	25.189
698.84	27.027
699.16	25.714
699.48	20.293
699.80	21.064
700.12	23.362
700.44	21.659
700.76	22.328
701.08	23.729
701.40	20.725
701.72	21.642
702.04	18.984
702.36	19.634
702.68	21.271
703.00	23.227
703.32	21.429
703.64	20.782
703.96	22.912
704.28	18.919
704.60	24.051
704.91	19.388
705.23	20.274
705.55	22.563
705.87	24.545
706.19	22.393
706.51	19.578
706.83	22.190
707.15	20.370
707.47	20.327
707.79	20.961
708.11	21.398
708.43	22.581
708.74	19.643
709.06	20.418
709.38	25.822
709.70	23.325
710.02	23.514
710.34	21.277
710.66	16.760
710.98	23.770
711.29	20.330
711.61	23.446
711.93	21.937
712.25	21.081
712.57	19.764
712.89	23.529
713.20	20.118
713.52	21.387
713.84	24.791
714.16	22.368
714.48	21.649
714.80	23.117
715.11	21.260
715.43	23.342
715.75	24.211
716.07	20.718
716.39	22.678
716.70	19.277
717.02	20.000
717.34	16.725
717.66	20.805
717.97	17.466
718.29	21.306
718.61	18.092
718.93	21.359
719.24	19.876
719.56	19.018
719.88	20.420
720.20	21.935
720.51	19.565
720.83	17.812
721.15	15.789
721.46	19.178
721.78	22.000
722.10	18.123
722.42	21.477
722.73	19.355
723.05	21.053
723.37	22.222
723.68	26.882
724.00	25.993
724.32	16.197
724.63	20.979
724.95	24.113
725.27	20.906
725.58	20.495
725.90	22.759
726.22	21.003
726.53	22.403
726.85	24.214
727.16	21.148
727.48	25.382
727.80	20.530
728.11	18.728
728.43	23.569
728.74	24.415
729.06	17.881
729.38	21.104
729.69	23.826
730.01	18.452
730.32	20.000
730.64	22.327
730.96	21.739
731.27	23.464
731.59	26.099
731.90	21.818
732.22	22.396
732.53	21.823
732.85	20.571
733.16	24.633
733.48	20.122
733.80	22.006
734.11	21.937
734.43	24.054
734.74	23.544
735.06	23.618
735.37	26.486
735.69	24.054
736.00	20.056
736.32	23.450
736.63	22.500
736.95	21.264
737.26	22.727
737.58	21.818
737.89	22.059
738.21	23.547
738.52	20.656
738.83	23.891
739.15	20.567
739.46	23.129
739.78	23.006
740.09	20.344
740.41	22.741
740.72	24.333
741.04	20.065
741.35	20.351
741.66	21.961
741.98	22.541
742.29	17.155
742.61	26.754
742.92	19.231
743.23	25.632
743.55	21.318
743.86	21.200
744.18	17.355
744.49	16.456
744.80	23.457
745.12	16.034
745.43	19.106
745.74	21.121
746.06	16.949
746.37	22.785
746.68	26.016
747.00	19.583
747.31	22.318
747.62	19.615
747.94	21.862
748.25	18.072
748.56	20.000
748.88	20.513
749.19	24.138
749.50	19.048
749.82	23.695
750.13	22.064
750.44	19.333
750.75	19.692
751.07	24.923
751.38	23.975
751.69	23.003
752.01	19.094
752.32	21.569
752.63	24.830
752.94	19.723
753.26	22.677
753.57	17.407
753.88	23.221
754.19	21.865
754.51	18.328
754.82	23.794
755.13	23.607
755.44	21.160
755.75	21.711
756.07	24.478
756.38	21.698
756.69	25.602
757.00	19.945
757.31	19.945
757.63	22.251
757.94	23.474
758.25	27.991
758.56	23.312
758.87	25.455
759.18	22.400
759.50	25.212
759.81	24.930
760.12	22.102
760.43	21.875
760.74	24.877
761.05	21.500
761.36	23.614
761.67	20.305
761.99	23.514
762.30	21.646
762.61	18.152
762.92	21.269
763.23	25.094
763.54	19.784
763.85	19.588
764.16	21.212
764.47	24.296
764.78	18.850
765.10	23.167
765.41	26.667
765.72	21.164
766.03	22.316
766.34	20.376
766.65	21.254
766.96	19.124
767.27	24.424
767.58	20.398
767.89	26.442
768.20	19.718
768.51	22.222
768.82	26.506
769.13	20.833
769.44	16.538
769.75	23.827
770.06	23.462
770.37	23.228
770.68	21.702
770.99	17.004
771.30	26.296
771.61	24.335
771.92	22.963
772.23	25.101
772.54	16.667
772.85	26.267
773.16	21.905
773.47	17.460
773.78	16.757
774.09	24.432
774.39	25.500
774.70	23.497
775.01	15.244
775.32	19.412
775.63	18.405
775.94	12.102
776.25	25.806
776.56	24.359
776.87	24.490
777.18	20.690
777.48	15.385
777.79	17.568
778.10	13.971
778.41	16.667
778.72	23.448
779.03	14.815
779.34	14.545
779.65	16.580
779.95	18.889
780.26	21.591
780.57	20.000
780.88	29.710
781.19	19.355
781.50	28.824
781.80	21.505
782.11	21.164
782.42	17.677
782.73	24.551
783.04	21.229
783.34	18.788
783.65	18.954
783.96	18.012
784.27	19.048
784.57	19.868
784.88	17.143
785.19	20.472
785.50	23.622
785.81	25.564
786.11	24.615
786.42	15.827
786.73	11.511
787.04	22.556
787.34	18.033
787.65	16.000
787.96	16.418
788.26	27.972
788.57	25.874
788.88	18.421
789.19	25.490
789.49	15.068
789.80	20.567
790.11	18.898
790.41	15.625
790.72	19.492
791.03	7.767
791.33	16.522
791.64	19.298
791.95	13.393
792.25	20.952
792.56	15.179
792.87	15.625
793.17	20.536
793.48	22.917
793.79	13.253
794.09	18.349
794.40	12.844
794.70	23.810
795.01	22.078
795.32	23.973
795.62	21.127
795.93	25.758
796.23	25.410
796.54	10.714
796.85	15.957
797.15	10.870
797.46	12.329
797.76	16.250
798.07	19.565
798.37	7.216
798.68	16.883
798.99	19.540
799.29	12.360
799.60	24.468
799.90	9.639
800.21	6.154
800.51	19.403
800.82	13.235
801.12	2.740
801.43	2.941
801.73	-3.390
802.04	16.667
802.34	-1.667
802.65	11.864
802.95	23.881
803.26	13.559
803.56	17.808
803.87	10.000
804.17	-2.740
804.48	-8.772
804.78	22.222
805.09	1.724
805.39	18.919
805.70	7.042
806.00	13.415
806.30	14.458
806.61	19.178
806.91	20.192
807.22	18.889
807.52	9.195
807.83	18.056
808.13	30.120
808.43	10.112
808.74	13.750
809.04	2.941
809.35	21.333
809.65	15.714
809.95	0.000
810.26	-7.018
810.56	15.517
810.86	19.118
811.17	0.000
811.47	1.639
811.77	13.333
812.08	16.949
812.38	20.000
812.69	34.483
812.99	-5.660
813.29	-15.385
813.59	10.000
813.90	28.070
814.20	12.727
814.50	14.085
814.81	25.641
815.11	14.754
815.41	20.896
815.72	13.793
816.02	14.286
816.32	33.333
816.62	29.545
816.93	15.556
817.23	12.963
817.53	6.383
817.84	11.905
818.14	8.824
818.44	10.204
818.74	22.222
819.04	5.128
819.35	22.857
819.65	-7.692
819.95	15.094
820.25	2.222
820.56	21.429
820.86	12.500
821.16	-2.564
821.46	-4.651
821.76	10.000
822.07	21.429
822.37	-4.348
822.67	-4.255
822.97	-37.838
823.27	-12.500
823.57	18.367
823.88	46.667
824.18	12.500
824.48	-3.333
824.78	-20.000
825.08	-9.091
825.38	-8.889
825.69	-8.511
825.99	27.778
826.29	-11.429
826.59	41.026
826.89	2.326
827.19	0.000
827.49	11.765
827.79	14.583
828.09	0.000
828.39	-3.333
828.70	7.317
829.00	-9.302
829.30	-10.714
829.60	14.706
829.90	13.043
830.20	8.571
830.50	-41.379
830.80	-11.111
831.10	-7.692
831.40	-5.882
831.70	-14.286
832.00	35.484
832.30	-82.353
832.60	-37.500
832.90	-38.462
833.20	-63.158
833.50	-25.000
833.80	-5.263
834.10	-47.619
834.40	19.444
834.70	18.750
835.00	-17.143
835.30	8.824
835.60	6.667
835.90	-20.000
836.20	-27.273
836.50	32.000
836.80	-3.030
837.10	22.222
837.40	0.000
837.70	-87.500
838.00	7.143
838.30	-34.783
838.60	13.793
838.90	-14.286
839.19	-8.696
839.49	-66.667
839.79	13.043
840.09	-31.250
840.39	-10.000
840.69	32.258
840.99	-14.286
841.29	-6.667
841.59	5.263
841.88	25.641
842.18	-11.538
842.48	-50.000
842.78	-15.000
843.08	33.333
843.38	22.581
843.68	-27.778
843.97	-5.882
844.27	6.250
844.57	-31.579
844.87	30.000
845.17	6.667
845.47	28.571
845.76	33.333
846.06	-88.889
846.36	-35.294
846.66	23.077
846.96	-46.667
847.25	-17.647
847.55	21.739
847.85	30.000
848.15	29.412
848.44	-54.545
848.74	9.524
849.04	16.667
849.34	-37.500
849.63	8.696
849.93	550.000
850.23	-20.000
850.53	53.846
850.82	-90.909
851.12	63.636
851.42	18.182
851.71	7.692
852.01	-80.000
852.31	-38.462
852.61	0.000
852.90	8.333
853.20	33.333
853.50	-88.889
853.79	-4.762
854.09	-22.727
854.39	-83.333
854.68	22.581
854.98	-11.538
855.28	33.333
855.57	17.857
855.87	8.000
856.17	-4.545
856.46	25.926
856.76	11.111
857.05	-13.043
857.35	8.333
857.65	-38.462
857.94	-9.524
858.24	33.333
858.53	52.174
858.83	35.294
859.13	35.294
859.42	-5.882
859.72	21.429
860.01	15.000
860.31	-77.778
860.60	-40.000
860.90	-46.667
861.20	-5.556
861.49	0.000
861.79	20.000
862.08	-53.846
862.38	28.125
862.67	-41.176
862.97	-6.250
863.26	-44.444
863.56	50.000
863.85	-72.727
864.15	27.778
864.44	-366.667
864.74	7.143
865.03	0.000
865.33	-60.000
865.62	-16.129
865.92	22.727
866.21	0.000
866.51	-14.286
866.80	-220.000
867.10	-83.333
867.39	-100.000
867.69	500.000
867.98	-14.286
868.27	35.294
868.57	-400.000
868.86	-80.000
869.16	0.000
869.45	37.500
869.75	-36.364
870.04	-42.857
870.33	-16.667
870.63	-157.143
870.92	-25.000
871.22	-150.000
871.51	-36.364
871.80	-366.667
872.10	-400.000
>>>>>End Processed Spectral Data<<<<<
