SpectraSuite Data File
++++++++++++++++++++++++++++++++++++
Date: Thu May 14 16:13:14 PDT 2015
User: schluterlab
Dark Spectrum Present: Yes
Reference Spectrum Present: Yes
Number of Sampled Component Spectra: 1
Spectrometers: USB2E3373
Integration Time (usec): 3000 (USB2E3373)
Spectra Averaged: 3 (USB2E3373)
Boxcar Smoothing: 0 (USB2E3373)
Correct for Electrical Dark: No (USB2E3373)
Strobe/Lamp Enabled: No (USB2E3373)
Correct for Detector Non-linearity: No (USB2E3373)
Correct for Stray Light: No (USB2E3373)
Number of Pixels in Processed Spectrum: 2048
>>>>>Begin Processed Spectral Data<<<<<
178.53	0.000
178.91	14.286
179.29	-900.000
179.67	-1000.000
180.04	121.429
180.42	60.000
180.80	200.000
181.18	-500.000
181.56	-100.000
181.94	-125.000
182.31	-175.000
182.69	366.667
183.07	-450.000
183.45	200.000
183.83	-50.000
184.20	66.667
184.58	500.000
184.96	-50.000
185.34	-55.556
185.72	-120.000
186.09	111.111
186.47	100.000
186.85	260.000
187.23	-155.556
187.61	-600.000
187.98	140.000
188.36	200.000
188.74	-150.000
189.12	-166.667
189.49	37.500
189.87	-37.500
190.25	-55.556
190.63	-120.000
191.00	-11.111
191.38	0.000
191.76	-275.000
192.14	-83.333
192.51	400.000
192.89	116.667
193.27	0.000
193.65	-42.857
194.02	-700.000
194.40	-57.143
194.78	-14.286
195.15	0.000
195.53	-45.455
195.91	0.000
196.29	-150.000
196.66	-38.462
197.04	-1900.000
197.42	-114.286
197.79	-550.000
198.17	-25.000
198.55	-114.286
198.92	22.222
199.30	-37.500
199.68	27.273
200.05	-28.571
200.43	-950.000
200.81	200.000
201.18	0.000
201.56	88.889
201.94	0.000
202.31	533.333
202.69	-133.333
203.07	400.000
203.44	-133.333
203.82	-225.000
204.19	-100.000
204.57	-133.333
204.95	-37.500
205.32	-800.000
205.70	100.000
206.08	16.667
206.45	-66.667
206.83	340.000
207.20	0.000
207.58	-300.000
207.96	-183.333
208.33	116.667
208.71	58.333
209.08	-50.000
209.46	0.000
209.84	183.333
210.21	-400.000
210.59	100.000
210.96	133.333
211.34	-200.000
211.71	-75.000
212.09	-700.000
212.46	0.000
212.84	800.000
213.22	-220.000
213.59	-25.000
213.97	30.000
214.34	-100.000
214.72	83.333
215.09	-200.000
215.47	0.000
215.84	85.714
216.22	600.000
216.59	-40.000
216.97	-120.000
217.34	-125.000
217.72	12.500
218.09	-75.000
218.47	-200.000
218.84	0.000
219.22	80.000
219.59	-47.059
219.97	60.000
220.34	700.000
220.72	-77.778
221.09	30.769
221.47	-266.667
221.84	-40.000
222.22	-228.571
222.59	0.000
222.97	-25.000
223.34	-220.000
223.72	-700.000
224.09	250.000
224.46	-100.000
224.84	-40.000
225.21	-28.571
225.59	-125.000
225.96	-125.000
226.34	0.000
226.71	183.333
227.08	-750.000
227.46	46.667
227.83	-100.000
228.21	21.053
228.58	137.500
228.95	250.000
229.33	8.333
229.70	50.000
230.08	84.211
230.45	70.000
230.82	-300.000
231.20	-21.429
231.57	-25.000
231.95	-54.545
232.32	-18.182
232.69	35.000
233.07	-175.000
233.44	-35.294
233.81	-10.000
234.19	-16.667
234.56	9.091
234.93	48.276
235.31	52.632
235.68	27.778
236.05	-40.000
236.43	19.231
236.80	56.000
237.17	29.630
237.55	6.061
237.92	-40.000
238.29	61.290
238.67	6.818
239.04	11.111
239.41	28.571
239.79	21.739
240.16	22.222
240.53	21.739
240.91	3.922
241.28	16.393
241.65	34.328
242.02	22.973
242.40	4.615
242.77	24.000
243.14	29.268
243.51	14.474
243.89	10.256
244.26	36.634
244.63	30.392
245.00	30.841
245.38	28.070
245.75	10.619
246.12	24.603
246.49	27.907
246.87	25.000
247.24	25.828
247.61	32.895
247.98	27.517
248.36	26.543
248.73	27.607
249.10	28.415
249.47	30.348
249.84	37.696
250.22	30.570
250.59	26.667
250.96	31.818
251.33	26.531
251.70	26.068
252.08	27.083
252.45	34.426
252.82	26.446
253.19	22.656
253.56	30.798
253.94	28.462
254.31	29.545
254.68	32.168
255.05	34.853
255.42	27.891
255.79	29.773
256.16	32.119
256.54	29.470
256.91	31.475
257.28	34.098
257.65	32.484
258.02	27.434
258.39	29.060
258.76	31.804
259.14	31.897
259.51	34.006
259.88	29.462
260.25	29.167
260.62	31.507
260.99	34.153
261.36	33.244
261.73	30.504
262.10	32.692
262.47	30.563
262.85	34.343
263.22	30.909
263.59	30.000
263.96	32.992
264.33	30.691
264.70	32.593
265.07	35.561
265.44	31.293
265.81	32.639
266.18	35.601
266.55	32.143
266.92	29.157
267.29	32.385
267.66	31.707
268.03	34.498
268.40	33.403
268.77	30.296
269.14	29.075
269.51	33.114
269.88	32.172
270.25	29.980
270.62	31.435
270.99	35.758
271.36	33.465
271.73	30.845
272.10	35.872
272.47	30.862
272.84	31.526
273.21	33.467
273.58	34.073
273.95	31.731
274.32	29.658
274.69	29.014
275.06	31.868
275.43	29.575
275.80	30.864
276.17	29.815
276.54	31.157
276.91	30.233
277.28	34.177
277.65	31.777
278.02	29.596
278.39	30.254
278.76	33.216
279.13	30.496
279.50	31.787
279.87	30.590
280.23	28.169
280.60	31.017
280.97	32.401
281.34	28.862
281.71	31.472
282.08	29.568
282.45	29.296
282.82	28.885
283.19	28.918
283.56	28.197
283.92	32.282
284.29	33.175
284.66	29.064
285.03	28.846
285.40	29.212
285.77	30.805
286.14	29.771
286.51	30.441
286.87	28.594
287.24	31.175
287.61	30.643
287.98	30.211
288.35	29.142
288.72	30.178
289.08	27.965
289.45	27.071
289.82	28.765
290.19	28.448
290.56	29.155
290.93	28.959
291.29	28.926
291.66	27.548
292.03	28.087
292.40	28.844
292.77	25.606
293.13	25.440
293.50	26.150
293.87	26.980
294.24	27.333
294.60	25.537
294.97	26.309
295.34	26.761
295.71	24.086
296.08	23.385
296.44	26.103
296.81	24.726
297.18	24.035
297.55	23.939
297.91	24.792
298.28	23.815
298.65	24.614
299.02	24.321
299.38	24.256
299.75	24.416
300.12	22.454
300.48	24.539
300.85	24.184
301.22	23.826
301.59	22.603
301.95	22.938
302.32	23.778
302.69	21.796
303.05	23.721
303.42	23.614
303.79	22.292
304.15	23.239
304.52	23.044
304.89	22.408
305.25	21.946
305.62	22.989
305.99	22.887
306.35	22.581
306.72	22.441
307.09	23.249
307.45	21.636
307.82	22.200
308.19	22.503
308.55	22.469
308.92	23.369
309.29	22.510
309.65	22.417
310.02	22.574
310.38	20.177
310.75	22.427
311.12	21.572
311.48	22.678
311.85	22.602
312.22	22.770
312.58	21.127
312.95	21.033
313.31	22.313
313.68	22.802
314.05	21.319
314.41	21.949
314.78	21.798
315.14	22.505
315.51	21.607
315.87	23.042
316.24	22.374
316.61	22.380
316.97	21.538
317.34	21.164
317.70	22.445
318.07	22.134
318.43	22.534
318.80	22.241
319.16	21.030
319.53	19.623
319.89	20.947
320.26	21.797
320.62	21.543
320.99	19.575
321.35	21.719
321.72	22.326
322.08	20.830
322.45	22.403
322.81	21.300
323.18	21.681
323.54	21.034
323.91	22.509
324.27	20.998
324.64	22.166
325.00	20.896
325.37	21.212
325.73	21.488
326.10	21.006
326.46	21.498
326.83	22.338
327.19	21.732
327.56	21.976
327.92	21.873
328.29	20.403
328.65	21.524
329.01	20.728
329.38	22.072
329.74	21.147
330.11	20.976
330.47	20.556
330.84	20.672
331.20	21.167
331.56	22.270
331.93	22.092
332.29	20.847
332.66	21.179
333.02	20.603
333.38	20.470
333.75	20.370
334.11	20.517
334.48	20.957
334.84	22.090
335.20	20.235
335.57	20.067
335.93	21.570
336.29	20.216
336.66	20.942
337.02	20.903
337.38	21.003
337.75	20.000
338.11	20.774
338.47	20.513
338.84	19.712
339.20	18.871
339.56	20.181
339.93	21.100
340.29	19.485
340.65	19.384
341.02	20.032
341.38	20.857
341.74	20.500
342.11	21.400
342.47	19.142
342.83	21.176
343.20	20.850
343.56	20.128
343.92	20.256
344.28	19.609
344.65	20.930
345.01	20.203
345.37	20.840
345.73	19.096
346.10	20.281
346.46	20.411
346.82	19.850
347.19	18.946
347.55	19.879
347.91	19.539
348.27	20.030
348.63	19.421
349.00	19.612
349.36	19.703
349.72	19.792
350.08	21.248
350.45	18.403
350.81	19.759
351.17	19.023
351.53	19.788
351.89	19.818
352.26	19.851
352.62	20.000
352.98	19.695
353.34	18.671
353.70	20.493
354.07	19.151
354.43	19.666
354.79	19.147
355.15	18.543
355.51	20.029
355.87	18.325
356.24	19.924
356.60	18.699
356.96	19.718
357.32	18.959
357.68	19.766
358.04	18.488
358.40	19.776
358.77	20.029
359.13	18.612
359.49	19.182
359.85	18.202
360.21	19.656
360.57	18.952
360.93	18.477
361.29	19.509
361.66	18.465
362.02	19.555
362.38	18.904
362.74	18.296
363.10	18.776
363.46	18.560
363.82	18.679
364.18	19.423
364.54	18.949
364.90	18.528
365.26	18.276
365.62	19.067
365.98	18.652
366.35	19.195
366.71	19.320
367.07	18.403
367.43	19.173
367.79	19.244
368.15	19.866
368.51	19.215
368.87	19.138
369.23	18.200
369.59	18.716
369.95	18.391
370.31	18.906
370.67	18.294
371.03	18.906
371.39	17.864
371.75	18.157
372.11	19.106
372.47	18.145
372.83	17.997
373.19	18.279
373.55	18.902
373.91	17.723
374.27	19.211
374.63	19.080
374.99	18.302
375.35	18.312
375.71	18.645
376.07	17.883
376.42	17.443
376.78	18.894
377.14	19.152
377.50	18.406
377.86	18.165
378.22	19.042
378.58	18.193
378.94	19.014
379.30	17.633
379.66	18.342
380.02	18.696
380.38	19.412
380.74	18.310
381.09	18.525
381.45	18.125
381.81	18.970
382.17	18.230
382.53	18.246
382.89	17.664
383.25	17.468
383.61	17.650
383.97	18.492
384.32	18.720
384.68	17.227
385.04	19.202
385.40	18.503
385.76	18.230
386.12	17.953
386.48	18.412
386.83	18.832
387.19	18.656
387.55	18.721
387.91	17.865
388.27	17.436
388.62	18.270
388.98	17.879
389.34	17.914
389.70	18.071
390.06	17.703
390.42	17.470
390.77	19.025
391.13	17.606
391.49	17.572
391.85	18.121
392.20	19.276
392.56	17.779
392.92	17.884
393.28	18.629
393.64	17.654
393.99	18.187
394.35	18.283
394.71	18.084
395.07	17.964
395.42	17.590
395.78	19.074
396.14	18.717
396.50	16.508
396.85	18.068
397.21	17.456
397.57	17.609
397.92	17.812
398.28	16.784
398.64	16.991
399.00	17.330
399.35	18.063
399.71	17.500
400.07	17.406
400.42	17.520
400.78	17.535
401.14	17.359
401.49	18.078
401.85	17.791
402.21	18.250
402.57	18.369
402.92	17.908
403.28	17.447
403.63	16.647
403.99	17.637
404.35	18.192
404.70	18.470
405.06	17.228
405.42	18.970
405.77	17.721
406.13	17.450
406.49	16.723
406.84	16.898
407.20	17.440
407.55	16.535
407.91	16.845
408.27	17.079
408.62	17.568
408.98	17.528
409.34	17.243
409.69	17.305
410.05	17.585
410.40	18.213
410.76	17.274
411.11	18.235
411.47	17.568
411.83	17.872
412.18	18.434
412.54	18.079
412.89	17.171
413.25	17.325
413.60	16.887
413.96	17.249
414.31	17.394
414.67	17.472
415.03	17.600
415.38	17.781
415.74	18.021
416.09	18.137
416.45	17.470
416.80	17.013
417.16	17.688
417.51	17.186
417.87	17.903
418.22	17.964
418.58	17.782
418.93	18.859
419.29	17.571
419.64	17.047
420.00	17.923
420.35	17.238
420.71	16.370
421.06	16.849
421.42	17.431
421.77	16.747
422.12	17.495
422.48	17.716
422.83	17.963
423.19	17.560
423.54	17.257
423.90	18.112
424.25	18.400
424.61	17.853
424.96	18.067
425.31	17.994
425.67	17.499
426.02	17.432
426.38	17.049
426.73	17.355
427.09	18.743
427.44	16.876
427.79	18.021
428.15	17.295
428.50	16.742
428.85	17.853
429.21	18.298
429.56	17.078
429.92	16.658
430.27	17.542
430.62	16.805
430.98	17.265
431.33	17.546
431.68	16.140
432.04	17.826
432.39	16.658
432.74	16.838
433.10	16.820
433.45	16.890
433.80	17.489
434.16	17.562
434.51	17.677
434.86	17.101
435.22	17.109
435.57	17.158
435.92	17.028
436.28	17.406
436.63	17.313
436.98	16.962
437.34	17.249
437.69	17.391
438.04	16.711
438.39	17.289
438.75	17.322
439.10	17.706
439.45	16.713
439.81	17.627
440.16	17.051
440.51	17.503
440.86	17.454
441.22	17.042
441.57	17.086
441.92	17.507
442.27	17.626
442.63	17.188
442.98	18.036
443.33	17.307
443.68	18.434
444.03	17.780
444.39	17.753
444.74	17.509
445.09	16.979
445.44	17.861
445.79	17.337
446.15	17.626
446.50	17.313
446.85	17.704
447.20	18.037
447.55	17.416
447.91	17.382
448.26	17.600
448.61	17.056
448.96	17.758
449.31	16.967
449.66	16.993
450.02	17.669
450.37	17.741
450.72	16.846
451.07	17.711
451.42	17.504
451.77	17.399
452.12	17.833
452.47	16.696
452.83	17.568
453.18	17.104
453.53	16.542
453.88	17.394
454.23	17.119
454.58	17.528
454.93	17.415
455.28	17.219
455.63	17.169
455.98	16.983
456.34	17.786
456.69	17.578
457.04	17.671
457.39	17.350
457.74	17.953
458.09	16.914
458.44	18.211
458.79	17.019
459.14	17.305
459.49	17.431
459.84	17.786
460.19	16.491
460.54	17.376
460.89	18.581
461.24	17.471
461.59	17.820
461.94	17.228
462.29	17.805
462.64	16.415
462.99	17.640
463.34	17.197
463.69	17.761
464.04	17.510
464.39	17.489
464.74	17.560
465.09	16.667
465.44	17.918
465.79	17.768
466.14	16.519
466.49	17.474
466.84	17.025
467.19	17.399
467.54	17.509
467.89	17.586
468.24	16.953
468.59	16.445
468.94	16.900
469.29	17.157
469.64	17.101
469.99	16.953
470.34	17.203
470.68	17.362
471.03	17.682
471.38	17.070
471.73	16.970
472.08	17.195
472.43	18.122
472.78	17.380
473.13	17.636
473.48	17.523
473.83	17.760
474.17	17.292
474.52	16.717
474.87	18.217
475.22	17.690
475.57	17.134
475.92	17.322
476.27	16.880
476.61	17.082
476.96	16.840
477.31	17.624
477.66	17.733
478.01	16.878
478.36	17.099
478.70	17.389
479.05	17.536
479.40	17.078
479.75	17.579
480.10	16.959
480.45	17.229
480.79	17.188
481.14	16.590
481.49	16.811
481.84	17.319
482.19	17.376
482.53	17.796
482.88	17.590
483.23	17.297
483.58	17.118
483.92	16.844
484.27	17.062
484.62	16.749
484.97	17.613
485.31	17.071
485.66	16.851
486.01	17.304
486.36	17.419
486.70	17.935
487.05	17.789
487.40	18.133
487.75	18.117
488.09	17.836
488.44	17.109
488.79	17.403
489.13	17.017
489.48	17.243
489.83	17.103
490.17	16.403
490.52	16.708
490.87	17.005
491.22	17.071
491.56	17.363
491.91	17.575
492.26	17.482
492.60	17.315
492.95	17.201
493.30	16.674
493.64	16.382
493.99	17.325
494.34	16.768
494.68	16.702
495.03	17.313
495.37	17.221
495.72	17.098
496.07	17.178
496.41	16.559
496.76	17.723
497.11	17.367
497.45	17.307
497.80	17.015
498.14	16.825
498.49	17.417
498.84	17.093
499.18	17.049
499.53	16.951
499.87	17.231
500.22	16.073
500.56	16.059
500.91	16.979
501.26	17.000
501.60	16.659
501.95	16.978
502.29	17.376
502.64	17.403
502.98	16.868
503.33	16.760
503.67	16.136
504.02	16.769
504.36	17.873
504.71	16.720
505.06	16.826
505.40	17.550
505.75	17.350
506.09	17.081
506.44	17.549
506.78	16.743
507.13	16.505
507.47	17.006
507.82	17.472
508.16	17.304
508.51	16.362
508.85	17.241
509.19	17.196
509.54	17.291
509.88	16.707
510.23	17.727
510.57	17.690
510.92	16.691
511.26	16.114
511.61	16.031
511.95	15.617
512.30	16.741
512.64	16.092
512.98	17.309
513.33	16.935
513.67	17.185
514.02	16.403
514.36	16.675
514.70	16.458
515.05	16.893
515.39	16.903
515.74	17.603
516.08	17.063
516.42	16.902
516.77	17.350
517.11	17.071
517.46	16.808
517.80	17.424
518.14	17.845
518.49	16.866
518.83	17.137
519.17	16.424
519.52	16.719
519.86	16.895
520.20	16.400
520.55	16.539
520.89	16.498
521.23	16.974
521.58	17.062
521.92	16.601
522.26	16.781
522.61	17.419
522.95	16.897
523.29	16.494
523.64	17.433
523.98	16.885
524.32	18.395
524.66	16.961
525.01	16.704
525.35	16.485
525.69	16.473
526.04	16.073
526.38	16.494
526.72	16.840
527.06	17.771
527.41	17.085
527.75	16.330
528.09	17.355
528.43	16.519
528.78	16.821
529.12	17.202
529.46	16.582
529.80	16.476
530.15	16.638
530.49	16.311
530.83	16.883
531.17	16.906
531.51	16.667
531.86	17.969
532.20	17.622
532.54	17.235
532.88	17.333
533.22	17.089
533.57	16.619
533.91	17.677
534.25	17.354
534.59	17.126
534.93	16.921
535.27	16.789
535.62	17.339
535.96	16.734
536.30	18.096
536.64	17.477
536.98	17.282
537.32	16.975
537.66	17.717
538.01	16.798
538.35	17.235
538.69	16.947
539.03	17.106
539.37	17.609
539.71	17.538
540.05	16.966
540.39	16.809
540.73	16.636
541.07	17.106
541.42	16.952
541.76	17.200
542.10	18.034
542.44	17.113
542.78	17.214
543.12	17.402
543.46	17.399
543.80	16.607
544.14	16.756
544.48	18.085
544.82	17.834
545.16	16.577
545.50	16.956
545.84	16.840
546.18	18.457
546.52	16.688
546.86	16.226
547.20	17.048
547.54	17.416
547.88	16.637
548.22	17.018
548.56	16.735
548.90	16.955
549.24	17.143
549.58	17.603
549.92	17.347
550.26	17.864
550.60	16.720
550.94	17.141
551.28	16.766
551.62	17.183
551.96	17.152
552.30	18.228
552.64	17.050
552.98	17.155
553.32	18.135
553.66	18.135
554.00	18.285
554.34	17.439
554.68	17.818
555.02	17.477
555.36	17.620
555.69	16.976
556.03	17.718
556.37	17.772
556.71	16.867
557.05	16.933
557.39	17.120
557.73	17.371
558.07	17.550
558.41	17.608
558.75	17.647
559.08	17.954
559.42	17.078
559.76	17.978
560.10	17.482
560.44	17.942
560.78	17.062
561.12	17.734
561.45	17.883
561.79	17.521
562.13	17.807
562.47	16.954
562.81	17.089
563.15	17.487
563.48	18.148
563.82	17.533
564.16	17.383
564.50	16.925
564.84	16.637
565.17	18.235
565.51	16.801
565.85	17.518
566.19	17.857
566.52	17.554
566.86	17.431
567.20	16.313
567.54	16.994
567.88	17.380
568.21	18.083
568.55	17.650
568.89	18.021
569.23	17.533
569.56	18.054
569.90	18.175
570.24	17.538
570.57	17.736
570.91	17.544
571.25	17.819
571.59	18.007
571.92	17.591
572.26	18.131
572.60	18.073
572.93	17.924
573.27	17.898
573.61	18.158
573.95	18.257
574.28	17.986
574.62	18.122
574.96	17.865
575.29	17.603
575.63	18.064
575.97	18.323
576.30	17.740
576.64	17.681
576.98	17.813
577.31	17.915
577.65	18.428
577.98	17.865
578.32	18.220
578.66	17.659
578.99	17.633
579.33	17.541
579.67	17.679
580.00	17.824
580.34	17.845
580.67	18.005
581.01	18.066
581.35	17.884
581.68	18.314
582.02	18.192
582.35	17.988
582.69	18.132
583.02	18.408
583.36	18.156
583.70	18.087
584.03	18.023
584.37	18.119
584.70	17.873
585.04	17.810
585.37	18.118
585.71	18.037
586.04	17.878
586.38	18.059
586.72	17.623
587.05	17.856
587.39	17.876
587.72	17.871
588.06	18.085
588.39	17.799
588.73	17.857
589.06	17.861
589.40	18.070
589.73	18.091
590.07	18.137
590.40	18.222
590.73	18.028
591.07	18.615
591.40	17.263
591.74	17.886
592.07	18.473
592.41	17.232
592.74	17.252
593.08	17.930
593.41	18.139
593.75	18.075
594.08	17.843
594.41	18.077
594.75	18.001
595.08	17.900
595.42	17.825
595.75	18.308
596.09	18.536
596.42	18.237
596.75	18.255
597.09	18.303
597.42	17.720
597.75	17.836
598.09	18.452
598.42	18.335
598.76	17.768
599.09	17.978
599.42	17.600
599.76	17.927
600.09	17.684
600.42	18.118
600.76	17.999
601.09	17.756
601.42	17.679
601.76	18.276
602.09	17.655
602.42	17.266
602.76	18.155
603.09	18.098
603.42	17.522
603.76	18.041
604.09	18.275
604.42	17.798
604.76	17.466
605.09	17.870
605.42	18.381
605.75	18.000
606.09	17.357
606.42	17.694
606.75	17.354
607.09	17.512
607.42	17.649
607.75	17.859
608.08	17.522
608.42	17.614
608.75	18.035
609.08	17.105
609.41	18.041
609.75	17.500
610.08	17.898
610.41	17.502
610.74	17.395
611.07	17.673
611.41	18.475
611.74	18.152
612.07	18.420
612.40	17.110
612.73	17.946
613.07	17.946
613.40	18.142
613.73	17.333
614.06	18.253
614.39	17.833
614.72	17.661
615.06	17.661
615.39	17.255
615.72	18.294
616.05	17.533
616.38	18.012
616.71	18.025
617.05	17.838
617.38	18.406
617.71	17.765
618.04	17.809
618.37	17.923
618.70	17.986
619.03	17.384
619.36	17.571
619.69	17.809
620.03	16.949
620.36	17.607
620.69	17.643
621.02	18.438
621.35	18.650
621.68	17.643
622.01	18.292
622.34	16.876
622.67	17.595
623.00	16.869
623.33	18.514
623.66	17.445
623.99	18.170
624.32	17.999
624.65	17.503
624.99	19.181
625.32	19.138
625.65	17.262
625.98	16.746
626.31	17.364
626.64	18.462
626.97	17.029
627.30	17.312
627.63	17.329
627.96	17.417
628.29	17.588
628.62	17.632
628.95	17.353
629.28	16.483
629.61	16.414
629.94	16.820
630.26	18.305
630.59	18.135
630.92	17.229
631.25	19.141
631.58	19.209
631.91	17.901
632.24	17.579
632.57	17.552
632.90	17.854
633.23	17.347
633.56	16.735
633.89	16.529
634.22	17.672
634.55	17.954
634.88	17.100
635.20	18.622
635.53	16.610
635.86	17.118
636.19	18.558
636.52	17.827
636.85	16.650
637.18	16.320
637.51	17.204
637.83	18.715
638.16	18.894
638.49	18.192
638.82	18.038
639.15	16.380
639.48	17.436
639.81	18.591
640.13	18.492
640.46	15.152
640.79	16.299
641.12	18.385
641.45	18.068
641.77	18.870
642.10	17.585
642.43	18.883
642.76	18.157
643.09	16.986
643.41	15.826
643.74	14.759
644.07	18.345
644.40	16.549
644.73	16.691
645.05	16.300
645.38	16.403
645.71	17.889
646.04	17.504
646.36	15.766
646.69	16.718
647.02	18.654
647.35	17.557
647.67	17.069
648.00	17.357
648.33	18.018
648.66	14.979
648.98	15.782
649.31	16.915
649.64	18.592
649.96	16.844
650.29	15.299
650.62	15.983
650.94	16.517
651.27	16.916
651.60	16.959
651.92	16.413
652.25	15.919
652.58	17.607
652.90	15.552
653.23	19.296
653.56	14.979
653.88	20.506
654.21	16.479
654.54	17.486
654.86	17.705
655.19	15.935
655.52	17.079
655.84	18.189
656.17	21.613
656.49	30.795
656.82	33.842
657.15	26.617
657.47	19.786
657.80	14.818
658.13	11.492
658.45	15.117
658.78	18.461
659.10	17.635
659.43	17.864
659.75	16.903
660.08	16.134
660.41	16.377
660.73	15.165
661.06	15.272
661.38	15.949
661.71	17.414
662.03	16.049
662.36	18.426
662.68	15.572
663.01	18.761
663.33	16.635
663.66	18.315
663.98	14.808
664.31	14.634
664.63	14.066
664.96	18.149
665.28	15.245
665.61	18.007
665.93	15.893
666.26	16.667
666.58	16.236
666.91	17.009
667.23	16.762
667.56	18.540
667.88	17.400
668.21	13.281
668.53	15.444
668.86	16.503
669.18	15.275
669.50	17.893
669.83	16.200
670.15	15.551
670.48	16.468
670.80	15.105
671.13	14.556
671.45	17.520
671.77	16.949
672.10	14.500
672.42	16.019
672.75	14.286
673.07	17.015
673.39	15.254
673.72	15.772
674.04	17.069
674.37	16.458
674.69	18.166
675.01	14.095
675.34	16.221
675.66	17.790
675.98	19.403
676.31	17.188
676.63	18.251
676.95	17.625
677.28	15.927
677.60	12.598
677.92	17.083
678.25	17.733
678.57	17.794
678.89	18.089
679.22	15.679
679.54	17.094
679.86	13.559
680.18	14.925
680.51	16.195
680.83	16.203
681.15	16.897
681.48	18.826
681.80	17.789
682.12	15.035
682.44	16.694
682.77	17.021
683.09	17.992
683.41	17.636
683.73	15.750
684.06	15.498
684.38	14.669
684.70	17.056
685.02	16.867
685.34	15.308
685.67	17.192
685.99	16.258
686.31	15.843
686.63	15.640
686.96	16.404
687.28	17.752
687.60	15.993
687.92	14.309
688.24	16.361
688.56	13.793
688.89	16.334
689.21	16.634
689.53	14.118
689.85	13.807
690.17	16.296
690.49	15.737
690.82	14.851
691.14	13.765
691.46	16.444
691.78	18.785
692.10	15.963
692.42	14.821
692.74	17.423
693.06	12.222
693.39	17.647
693.71	15.414
694.03	16.357
694.35	18.667
694.67	16.427
694.99	14.894
695.31	17.219
695.63	15.368
695.95	15.321
696.27	14.725
696.59	17.478
696.91	14.414
697.23	18.022
697.56	14.257
697.88	15.530
698.20	14.689
698.52	19.129
698.84	17.879
699.16	13.673
699.48	17.364
699.80	16.170
700.12	17.904
700.44	15.668
700.76	15.677
701.08	17.918
701.40	18.135
701.72	16.915
702.04	17.380
702.36	16.230
702.68	15.403
703.00	16.137
703.32	14.778
703.64	14.425
703.96	15.990
704.28	14.742
704.60	17.975
704.91	14.286
705.23	17.534
705.55	13.649
705.87	14.848
706.19	16.258
706.51	12.651
706.83	13.256
707.15	10.847
707.47	14.486
707.79	14.629
708.11	13.771
708.43	15.269
708.74	15.625
709.06	13.689
709.38	16.197
709.70	18.859
710.02	16.021
710.34	14.894
710.66	12.849
710.98	16.120
711.29	17.308
711.61	16.384
711.93	18.234
712.25	17.297
712.57	18.289
712.89	16.176
713.20	15.089
713.52	16.763
713.84	17.549
714.16	15.789
714.48	17.526
714.80	19.481
715.11	13.386
715.43	14.058
715.75	16.579
716.07	16.851
716.39	16.667
716.70	14.157
717.02	18.361
717.34	15.679
717.66	15.436
717.97	9.932
718.29	16.838
718.61	14.803
718.93	15.210
719.24	15.839
719.56	13.804
719.88	14.414
720.20	14.194
720.51	15.217
720.83	14.062
721.15	14.474
721.46	12.671
721.78	15.000
722.10	14.887
722.42	8.725
722.73	12.903
723.05	15.439
723.37	13.889
723.68	15.771
724.00	14.079
724.32	13.732
724.63	16.084
724.95	12.766
725.27	13.937
725.58	13.074
725.90	21.724
726.22	12.539
726.53	13.312
726.85	21.069
727.16	15.710
727.48	14.985
727.80	16.225
728.11	12.014
728.43	16.498
728.74	14.381
729.06	15.232
729.38	14.610
729.69	15.436
730.01	13.988
730.32	8.182
730.64	15.723
730.96	12.422
731.27	17.318
731.59	12.363
731.90	14.805
732.22	11.979
732.53	11.878
732.85	18.857
733.16	13.196
733.48	14.939
733.80	14.763
734.11	12.821
734.43	16.486
734.74	19.241
735.06	16.583
735.37	15.676
735.69	12.432
736.00	15.537
736.32	13.477
736.63	16.944
736.95	16.954
737.26	13.939
737.58	14.242
737.89	18.529
738.21	12.538
738.52	14.426
738.83	17.406
739.15	11.702
739.46	15.646
739.78	14.724
740.09	14.327
740.41	17.493
740.72	13.667
741.04	17.152
741.35	16.491
741.66	16.471
741.98	15.574
742.29	16.318
742.61	16.228
742.92	12.692
743.23	18.051
743.55	12.016
743.86	14.000
744.18	14.463
744.49	12.658
744.80	13.992
745.12	14.346
745.43	16.667
745.74	14.224
746.06	14.831
746.37	13.502
746.68	13.415
747.00	13.750
747.31	14.163
747.62	18.462
747.94	14.575
748.25	8.835
748.56	7.755
748.88	19.658
749.19	15.948
749.50	11.255
749.82	17.671
750.13	16.370
750.44	12.333
750.75	13.846
751.07	18.154
751.38	18.297
751.69	18.211
752.01	13.916
752.32	15.033
752.63	12.245
752.94	15.225
753.26	9.294
753.57	10.370
753.88	11.236
754.19	13.826
754.51	14.791
754.82	14.791
755.13	17.049
755.44	17.747
755.75	12.171
756.07	14.627
756.38	16.352
756.69	15.964
757.00	13.850
757.31	14.754
757.63	14.066
757.94	15.493
758.25	17.607
758.56	13.943
758.87	15.455
759.18	17.333
759.50	16.147
759.81	16.246
760.12	18.598
760.43	16.146
760.74	18.473
761.05	15.000
761.36	11.566
761.67	12.437
761.99	14.054
762.30	10.976
762.61	11.881
762.92	13.060
763.23	16.105
763.54	12.590
763.85	13.746
764.16	15.152
764.47	14.789
764.78	18.850
765.10	17.889
765.41	16.923
765.72	12.963
766.03	13.559
766.34	12.853
766.65	12.892
766.96	14.741
767.27	11.982
767.58	13.930
767.89	15.865
768.20	11.737
768.51	11.111
768.82	14.056
769.13	13.258
769.44	12.692
769.75	18.773
770.06	16.923
770.37	16.535
770.68	14.043
770.99	7.692
771.30	17.778
771.61	15.209
771.92	12.222
772.23	17.004
772.54	13.889
772.85	19.816
773.16	16.667
773.47	6.878
773.78	11.351
774.09	12.500
774.39	13.000
774.70	19.126
775.01	14.024
775.32	8.824
775.63	12.883
775.94	7.643
776.25	18.065
776.56	15.385
776.87	17.687
777.18	12.414
777.48	16.084
777.79	8.784
778.10	9.559
778.41	15.972
778.72	17.241
779.03	19.753
779.34	13.939
779.65	13.990
779.95	12.222
780.26	15.341
780.57	18.065
780.88	21.739
781.19	19.355
781.50	12.353
781.80	15.054
782.11	13.757
782.42	10.606
782.73	13.772
783.04	10.615
783.34	7.879
783.65	2.614
783.96	9.317
784.27	11.310
784.57	9.934
784.88	20.714
785.19	15.748
785.50	7.874
785.81	9.023
786.11	15.385
786.42	13.669
786.73	8.633
787.04	20.301
787.34	13.115
787.65	8.800
787.96	13.433
788.26	16.084
788.57	18.881
788.88	15.132
789.19	11.765
789.49	8.219
789.80	4.255
790.11	19.685
790.41	6.250
790.72	15.254
791.03	8.738
791.33	1.739
791.64	14.912
791.95	13.393
792.25	10.476
792.56	10.714
792.87	4.167
793.17	18.750
793.48	4.167
793.79	6.024
794.09	-3.670
794.40	9.174
794.70	10.884
795.01	17.532
795.32	8.219
795.62	11.268
795.93	15.909
796.23	5.738
796.54	8.036
796.85	14.894
797.15	3.261
797.46	-1.370
797.76	6.250
798.07	6.522
798.37	4.124
798.68	9.091
798.99	17.241
799.29	7.865
799.60	12.766
799.90	8.434
800.21	-9.231
800.51	7.463
800.82	-8.824
801.12	-10.959
801.43	-2.941
801.73	-6.780
802.04	7.576
802.34	-5.000
802.65	-11.864
802.95	8.955
803.26	-10.169
803.56	1.370
803.87	15.714
804.17	6.849
804.48	-10.526
804.78	8.333
805.09	0.000
805.39	9.459
805.70	-9.859
806.00	9.756
806.30	12.048
806.61	-5.479
806.91	15.385
807.22	6.667
807.52	1.149
807.83	25.000
808.13	12.048
808.43	10.112
808.74	5.000
809.04	-8.824
809.35	25.333
809.65	-4.286
809.95	9.589
810.26	3.509
810.56	15.517
810.86	16.176
811.17	-7.018
811.47	-11.475
811.77	0.000
812.08	11.864
812.38	8.333
812.69	8.621
812.99	-9.434
813.29	-25.641
813.59	4.000
813.90	21.053
814.20	7.273
814.50	19.718
814.81	2.564
815.11	-1.639
815.41	7.463
815.72	20.690
816.02	17.857
816.32	8.889
816.62	-9.091
816.93	2.222
817.23	12.963
817.53	4.255
817.84	26.190
818.14	-14.706
818.44	12.245
818.74	-13.333
819.04	-17.949
819.35	-37.143
819.65	-7.692
819.95	11.321
820.25	13.333
820.56	-7.143
820.86	-18.750
821.16	-10.256
821.46	-18.605
821.76	-4.000
822.07	8.929
822.37	6.522
822.67	2.128
822.97	-10.811
823.27	7.500
823.57	-6.122
823.88	35.556
824.18	10.000
824.48	-13.333
824.78	4.000
825.08	24.242
825.38	15.556
825.69	-6.383
825.99	-2.778
826.29	-25.714
826.59	-5.128
826.89	-2.326
827.19	14.000
827.49	8.824
827.79	14.583
828.09	-2.703
828.39	-6.667
828.70	-9.756
829.00	-20.930
829.30	-46.429
829.60	8.824
829.90	15.217
830.20	-5.714
830.50	13.793
830.80	-33.333
831.10	7.692
831.40	-5.882
831.70	-33.333
832.00	-3.226
832.30	-135.294
832.60	-41.667
832.90	-84.615
833.20	-31.579
833.50	-45.000
833.80	-36.842
834.10	-66.667
834.40	-8.333
834.70	0.000
835.00	-48.571
835.30	-2.941
835.60	-40.000
835.90	4.000
836.20	-40.909
836.50	4.000
836.80	-21.212
837.10	-14.815
837.40	-11.111
837.70	-106.250
838.00	-17.857
838.30	-26.087
838.60	-6.897
838.90	7.143
839.19	-47.826
839.49	-108.333
839.79	-13.043
840.09	-43.750
840.39	-20.000
840.69	16.129
840.99	-21.429
841.29	-40.000
841.59	-26.316
841.88	38.462
842.18	7.692
842.48	-110.000
842.78	-15.000
843.08	-3.333
843.38	19.355
843.68	-83.333
843.97	-5.882
844.27	-62.500
844.57	-31.579
844.87	-40.000
845.17	-53.333
845.47	19.048
845.76	-42.857
846.06	-11.111
846.36	-47.059
846.66	11.538
846.96	-26.667
847.25	17.647
847.55	0.000
847.85	-25.000
848.15	-29.412
848.44	-90.909
848.74	-9.524
849.04	-37.500
849.34	-18.750
849.63	-26.087
849.93	900.000
850.23	26.667
850.53	3.846
850.82	-109.091
851.12	27.273
851.42	-81.818
851.71	-15.385
852.01	-65.000
852.31	-15.385
852.61	26.316
852.90	33.333
853.20	5.556
853.50	-111.111
853.79	-104.762
854.09	-45.455
854.39	-41.667
854.68	12.903
854.98	7.692
855.28	0.000
855.57	0.000
855.87	28.000
856.17	-36.364
856.46	22.222
856.76	-22.222
857.05	8.696
857.35	-29.167
857.65	-100.000
857.94	14.286
858.24	18.519
858.53	0.000
858.83	-5.882
859.13	-35.294
859.42	17.647
859.72	21.429
860.01	-25.000
860.31	-100.000
860.60	-40.000
860.90	-13.333
861.20	-44.444
861.49	-38.462
861.79	30.000
862.08	-61.538
862.38	18.750
862.67	-17.647
862.97	18.750
863.26	-111.111
863.56	-30.000
863.85	-54.545
864.15	-33.333
864.44	-133.333
864.74	-42.857
865.03	-12.500
865.33	-90.000
865.62	-3.226
865.92	0.000
866.21	26.087
866.51	-7.143
866.80	-260.000
867.10	-75.000
867.39	-100.000
867.69	1200.000
867.98	-157.143
868.27	52.941
868.57	-1400.000
868.86	-150.000
869.16	-19.048
869.45	16.667
869.75	72.727
870.04	-71.429
870.33	41.667
870.63	-185.714
870.92	125.000
871.22	-187.500
871.51	-109.091
871.80	-366.667
872.10	-250.000
>>>>>End Processed Spectral Data<<<<<
