SpectraSuite Data File
++++++++++++++++++++++++++++++++++++
Date: Thu May 14 16:13:26 PDT 2015
User: schluterlab
Dark Spectrum Present: Yes
Reference Spectrum Present: Yes
Number of Sampled Component Spectra: 1
Spectrometers: USB2E3373
Integration Time (usec): 3000 (USB2E3373)
Spectra Averaged: 3 (USB2E3373)
Boxcar Smoothing: 0 (USB2E3373)
Correct for Electrical Dark: No (USB2E3373)
Strobe/Lamp Enabled: No (USB2E3373)
Correct for Detector Non-linearity: No (USB2E3373)
Correct for Stray Light: No (USB2E3373)
Number of Pixels in Processed Spectrum: 2048
>>>>>Begin Processed Spectral Data<<<<<
178.53	0.000
178.91	228.571
179.29	-1500.000
179.67	-1500.000
180.04	157.143
180.42	40.000
180.80	100.000
181.18	500.000
181.56	-200.000
181.94	425.000
182.31	-150.000
182.69	233.333
183.07	-300.000
183.45	325.000
183.83	-150.000
184.20	-33.333
184.58	-400.000
184.96	-25.000
185.34	-22.222
185.72	260.000
186.09	77.778
186.47	350.000
186.85	380.000
187.23	-66.667
187.61	-1000.000
187.98	60.000
188.36	175.000
188.74	150.000
189.12	66.667
189.49	-37.500
189.87	-112.500
190.25	0.000
190.63	-120.000
191.00	-100.000
191.38	0.000
191.76	-250.000
192.14	-50.000
192.51	400.000
192.89	83.333
193.27	0.000
193.65	28.571
194.02	-800.000
194.40	-71.429
194.78	71.429
195.15	0.000
195.53	18.182
195.91	0.000
196.29	-150.000
196.66	-53.846
197.04	-1600.000
197.42	-185.714
197.79	-550.000
198.17	-112.500
198.55	-142.857
198.92	33.333
199.30	-187.500
199.68	-27.273
200.05	0.000
200.43	-700.000
200.81	142.857
201.18	0.000
201.56	111.111
201.94	0.000
202.31	400.000
202.69	-155.556
203.07	100.000
203.44	11.111
203.82	-175.000
204.19	-41.667
204.57	-166.667
204.95	-137.500
205.32	-1100.000
205.70	375.000
206.08	-83.333
206.45	100.000
206.83	380.000
207.20	-50.000
207.58	-100.000
207.96	-50.000
208.33	250.000
208.71	91.667
209.08	16.667
209.46	0.000
209.84	66.667
210.21	250.000
210.59	150.000
210.96	366.667
211.34	-275.000
211.71	-137.500
212.09	-500.000
212.46	0.000
212.84	600.000
213.22	-300.000
213.59	-325.000
213.97	10.000
214.34	-166.667
214.72	66.667
215.09	-350.000
215.47	0.000
215.84	-42.857
216.22	400.000
216.59	-80.000
216.97	-140.000
217.34	-225.000
217.72	-62.500
218.09	-200.000
218.47	-200.000
218.84	0.000
219.22	180.000
219.59	-11.765
219.97	-35.000
220.34	550.000
220.72	-55.556
221.09	69.231
221.47	-366.667
221.84	-70.000
222.22	-200.000
222.59	0.000
222.97	12.500
223.34	-180.000
223.72	500.000
224.09	-100.000
224.46	-175.000
224.84	-20.000
225.21	-100.000
225.59	-100.000
225.96	-25.000
226.34	0.000
226.71	200.000
227.08	-100.000
227.46	6.667
227.83	-25.000
228.21	52.632
228.58	50.000
228.95	250.000
229.33	-8.333
229.70	30.000
230.08	68.421
230.45	150.000
230.82	133.333
231.20	50.000
231.57	-8.333
231.95	-45.455
232.32	45.455
232.69	25.000
233.07	-150.000
233.44	-70.588
233.81	20.000
234.19	22.222
234.56	0.000
234.93	20.690
235.31	36.842
235.68	22.222
236.05	-65.000
236.43	38.462
236.80	40.000
237.17	14.815
237.55	3.030
237.92	-40.000
238.29	12.903
238.67	2.273
239.04	13.889
239.41	14.286
239.79	13.043
240.16	7.407
240.53	4.348
240.91	1.961
241.28	24.590
241.65	10.448
242.02	21.622
242.40	4.615
242.77	21.333
243.14	24.390
243.51	13.158
243.89	14.103
244.26	24.752
244.63	30.392
245.00	19.626
245.38	21.930
245.75	10.619
246.12	26.190
246.49	19.380
246.87	22.143
247.24	25.166
247.61	17.105
247.98	21.477
248.36	23.457
248.73	15.951
249.10	21.858
249.47	31.343
249.84	24.607
250.22	18.653
250.59	24.444
250.96	20.455
251.33	17.347
251.70	23.504
252.08	22.083
252.45	25.820
252.82	18.595
253.19	16.406
253.56	21.673
253.94	19.615
254.31	24.242
254.68	27.273
255.05	23.453
255.42	23.129
255.79	18.123
256.16	24.172
256.54	19.536
256.91	22.295
257.28	22.951
257.65	21.338
258.02	21.829
258.39	21.083
258.76	29.358
259.14	26.724
259.51	25.072
259.88	17.847
260.25	21.944
260.62	23.836
260.99	22.678
261.36	24.129
261.73	21.751
262.10	20.604
262.47	22.788
262.85	24.242
263.22	22.078
263.59	19.211
263.96	25.064
264.33	22.251
264.70	21.975
265.07	24.582
265.44	27.211
265.81	20.602
266.18	22.902
266.55	24.330
266.92	23.235
267.29	25.383
267.66	23.947
268.03	22.052
268.40	22.338
268.77	23.918
269.14	18.722
269.51	24.342
269.88	23.361
270.25	23.944
270.62	24.262
270.99	23.434
271.36	22.574
271.73	21.611
272.10	26.253
272.47	22.645
272.84	20.080
273.21	23.848
273.58	25.403
273.95	23.269
274.32	23.384
274.69	20.890
275.06	22.894
275.43	22.921
275.80	23.280
276.17	21.111
276.54	19.216
276.91	23.256
277.28	23.508
277.65	23.878
278.02	20.772
278.39	22.101
278.76	22.496
279.13	21.099
279.50	22.165
279.87	23.614
280.23	18.134
280.60	20.508
280.97	24.013
281.34	23.090
281.71	23.012
282.08	21.595
282.45	20.949
282.82	19.937
283.19	19.709
283.56	21.475
283.92	21.772
284.29	24.803
284.66	21.346
285.03	21.154
285.40	22.257
285.77	23.529
286.14	21.374
286.51	23.592
286.87	22.907
287.24	21.235
287.61	20.927
287.98	18.278
288.35	22.337
288.72	21.302
289.08	20.791
289.45	18.787
289.82	19.277
290.19	22.414
290.56	22.535
290.93	18.688
291.29	20.386
291.66	20.386
292.03	18.046
292.40	21.224
292.77	18.733
293.13	19.080
293.50	18.791
293.87	17.450
294.24	20.533
294.60	18.078
294.97	16.510
295.34	20.230
295.71	18.789
296.08	18.475
296.44	17.525
296.81	19.610
297.18	17.559
297.55	17.807
297.91	17.438
298.28	16.114
298.65	17.360
299.02	17.473
299.38	17.391
299.75	17.757
300.12	17.824
300.48	18.318
300.85	17.435
301.22	17.562
301.59	16.667
301.95	16.384
302.32	18.556
302.69	17.415
303.05	17.628
303.42	17.184
303.79	16.875
304.15	17.350
304.52	16.913
304.89	15.707
305.25	16.770
305.62	17.137
305.99	17.526
306.35	15.323
306.72	17.994
307.09	16.751
307.45	16.977
307.82	15.843
308.19	16.448
308.55	17.358
308.92	16.650
309.29	16.762
309.65	17.836
310.02	17.921
310.38	15.748
310.75	17.184
311.12	17.258
311.48	16.716
311.85	16.999
312.22	16.698
312.58	16.526
312.95	16.539
313.31	17.615
313.68	17.857
314.05	18.790
314.41	16.940
314.78	17.439
315.14	16.788
315.51	18.375
315.87	16.562
316.24	18.174
316.61	17.673
316.97	16.290
317.34	17.108
317.70	18.777
318.07	18.166
318.43	18.197
318.80	18.395
319.16	17.511
319.53	16.967
319.89	18.317
320.26	17.616
320.62	17.819
320.99	17.636
321.35	19.131
321.72	20.651
322.08	19.387
322.45	18.338
322.81	20.397
323.18	19.115
323.54	20.086
323.91	20.196
324.27	19.105
324.64	20.319
325.00	18.905
325.37	20.229
325.73	19.669
326.10	21.492
326.46	20.847
326.83	21.297
327.19	20.709
327.56	20.079
327.92	19.906
328.29	18.952
328.65	20.101
329.01	21.235
329.38	21.567
329.74	21.147
330.11	20.462
330.47	20.556
330.84	19.897
331.20	21.583
331.56	20.364
331.93	20.753
332.29	21.271
332.66	21.761
333.02	19.933
333.38	20.889
333.75	20.707
334.11	20.267
334.48	19.884
334.84	19.796
335.20	19.144
335.57	21.332
335.93	21.653
336.29	19.634
336.66	20.521
337.02	19.816
337.38	20.748
337.75	20.000
338.11	20.353
338.47	21.092
338.84	19.966
339.20	19.629
339.56	19.769
339.93	19.787
340.29	20.370
340.65	20.032
341.02	20.511
341.38	20.210
341.74	19.693
342.11	20.434
342.47	19.619
342.83	21.417
343.20	21.177
343.56	19.647
343.92	19.456
344.28	20.703
344.65	20.620
345.01	20.827
345.37	19.984
345.73	18.628
346.10	19.813
346.46	19.146
346.82	19.700
347.19	19.710
347.55	19.954
347.91	20.431
348.27	20.182
348.63	20.030
349.00	19.165
349.36	19.554
349.72	19.717
350.08	19.688
350.45	19.316
350.81	19.231
351.17	18.947
351.53	20.091
351.89	20.046
352.26	20.448
352.62	19.403
352.98	18.550
353.34	18.447
353.70	20.647
354.07	19.598
354.43	20.273
354.79	20.568
355.15	19.205
355.51	21.053
355.87	19.297
356.24	20.304
356.60	20.547
356.96	18.977
357.32	19.554
357.68	19.473
358.04	19.461
358.40	19.104
358.77	19.079
359.13	19.941
359.49	18.513
359.85	18.927
360.21	19.656
360.57	19.095
360.93	19.605
361.29	20.070
361.66	19.696
362.02	19.972
362.38	19.606
362.74	19.763
363.10	20.289
363.46	20.152
363.82	19.318
364.18	20.267
364.54	20.263
364.90	19.799
365.26	19.172
365.62	20.400
365.98	20.218
366.35	19.866
366.71	20.272
367.07	20.636
367.43	20.355
367.79	21.367
368.15	19.866
368.51	19.756
368.87	19.268
369.23	20.333
369.59	20.014
369.95	19.743
370.31	20.662
370.67	20.220
371.03	20.083
371.39	18.939
371.75	20.426
372.11	20.799
372.47	20.515
372.83	20.942
373.19	20.347
373.55	20.257
373.91	19.768
374.27	20.634
374.63	20.636
374.99	20.225
375.35	21.169
375.71	20.129
376.07	20.917
376.42	20.781
376.78	20.696
377.14	20.836
377.50	20.936
377.86	20.813
378.22	20.898
378.58	21.403
378.94	21.244
379.30	19.801
379.66	20.929
380.02	21.235
380.38	21.774
380.74	21.183
381.09	22.358
381.45	21.648
381.81	21.546
382.17	22.090
382.53	21.170
382.89	21.163
383.25	21.512
383.61	21.875
383.97	21.084
384.32	21.770
384.68	21.056
385.04	22.209
385.40	22.334
385.76	22.626
386.12	21.245
386.48	22.471
386.83	23.063
387.19	21.321
387.55	22.066
387.91	21.404
388.27	22.864
388.62	21.879
388.98	22.335
389.34	23.394
389.70	22.894
390.06	22.558
390.42	21.988
390.77	22.938
391.13	23.063
391.49	23.913
391.85	23.697
392.20	22.598
392.56	22.741
392.92	23.610
393.28	23.107
393.64	22.626
393.99	23.649
394.35	23.657
394.71	23.054
395.07	23.174
395.42	21.930
395.78	24.314
396.14	24.064
396.50	24.406
396.85	23.673
397.21	23.728
397.57	23.969
397.92	24.227
398.28	22.433
398.64	23.455
399.00	23.194
399.35	23.665
399.71	23.478
400.07	24.312
400.42	24.272
400.78	23.900
401.14	24.417
401.49	24.105
401.85	24.244
402.21	24.623
402.57	25.469
402.92	24.645
403.28	24.415
403.63	24.821
403.99	25.356
404.35	24.446
404.70	24.476
405.06	23.587
405.42	24.649
405.77	24.864
406.13	24.743
406.49	25.563
406.84	24.875
407.20	25.154
407.55	24.531
407.91	25.581
408.27	24.499
408.62	25.364
408.98	25.885
409.34	24.927
409.69	26.143
410.05	26.026
410.40	27.494
410.76	25.911
411.11	26.885
411.47	26.966
411.83	26.925
412.18	26.928
412.54	26.141
412.89	27.357
413.25	25.734
413.60	25.732
413.96	26.865
414.31	27.422
414.67	27.490
415.03	28.000
415.38	28.247
415.74	27.184
416.09	27.884
416.45	27.176
416.80	27.417
417.16	27.586
417.51	26.276
417.87	26.793
418.22	27.485
418.58	27.138
418.93	28.754
419.29	28.113
419.64	27.551
420.00	28.131
420.35	28.467
420.71	27.513
421.06	28.465
421.42	27.752
421.77	27.518
422.12	28.171
422.48	28.315
422.83	28.861
423.19	28.223
423.54	29.093
423.90	28.272
424.25	29.173
424.61	28.588
424.96	28.995
425.31	28.769
425.67	29.093
426.02	28.390
426.38	29.277
426.73	29.353
427.09	30.334
427.44	29.328
427.79	28.469
428.15	29.224
428.50	29.101
428.85	29.334
429.21	29.947
429.56	30.059
429.92	30.221
430.27	29.446
430.62	29.702
430.98	29.415
431.33	29.228
431.68	29.885
432.04	31.234
432.39	30.745
432.74	30.936
433.10	30.503
433.45	30.546
433.80	30.150
434.16	30.630
434.51	31.089
434.86	32.139
435.22	31.350
435.57	32.134
435.92	31.219
436.28	31.001
436.63	31.786
436.98	31.401
437.34	31.905
437.69	31.591
438.04	31.676
438.39	32.051
438.75	31.378
439.10	32.347
439.45	31.582
439.81	30.734
440.16	31.099
440.51	32.553
440.86	30.906
441.22	32.154
441.57	32.495
441.92	31.717
442.27	33.182
442.63	32.588
442.98	32.604
443.33	32.825
443.68	32.953
444.03	32.785
444.39	32.732
444.74	33.486
445.09	32.235
445.44	33.351
445.79	33.094
446.15	32.734
446.50	32.093
446.85	33.268
447.20	33.414
447.55	33.159
447.91	32.723
448.26	32.928
448.61	33.050
448.96	33.959
449.31	32.397
449.66	33.224
450.02	33.122
450.37	33.458
450.72	33.262
451.07	32.973
451.42	33.969
451.77	33.741
452.12	33.409
452.47	33.333
452.83	34.234
453.18	33.625
453.53	32.682
453.88	32.855
454.23	33.729
454.58	33.024
454.93	33.617
455.28	34.437
455.63	33.599
455.98	33.240
456.34	33.687
456.69	33.098
457.04	34.043
457.39	32.927
457.74	34.284
458.09	33.059
458.44	33.351
458.79	33.058
459.14	33.403
459.49	33.843
459.84	33.578
460.19	33.426
460.54	34.412
460.89	35.521
461.24	33.736
461.59	33.868
461.94	32.858
462.29	34.994
462.64	33.917
462.99	34.024
463.34	34.977
463.69	33.353
464.04	34.797
464.39	33.520
464.74	33.580
465.09	33.679
465.44	33.155
465.79	33.950
466.14	33.507
466.49	33.316
466.84	34.545
467.19	34.624
467.54	34.195
467.89	34.310
468.24	33.629
468.59	32.426
468.94	32.634
469.29	34.433
469.64	33.884
469.99	33.716
470.34	32.921
470.68	34.792
471.03	34.250
471.38	34.271
471.73	33.680
472.08	34.518
472.43	34.317
472.78	34.572
473.13	33.881
473.48	34.924
473.83	33.720
474.17	33.470
474.52	33.734
474.87	33.666
475.22	34.197
475.57	33.385
475.92	34.345
476.27	33.759
476.61	33.385
476.96	33.472
477.31	34.703
477.66	35.205
478.01	34.875
478.36	33.998
478.70	33.941
479.05	34.816
479.40	34.304
479.75	34.294
480.10	34.012
480.45	33.637
480.79	34.240
481.14	34.237
481.49	34.348
481.84	34.160
482.19	33.978
482.53	34.368
482.88	34.603
483.23	34.415
483.58	34.061
483.92	32.757
484.27	34.505
484.62	33.870
484.97	33.787
485.31	33.263
485.66	32.379
486.01	32.207
486.36	32.160
486.70	33.430
487.05	33.895
487.40	34.130
487.75	34.097
488.09	34.714
488.44	34.618
488.79	34.536
489.13	34.576
489.48	33.320
489.83	33.481
490.17	34.022
490.52	33.128
490.87	33.587
491.22	33.536
491.56	33.746
491.91	33.973
492.26	34.141
492.60	33.756
492.95	34.094
493.30	33.214
493.64	33.947
493.99	33.640
494.34	33.537
494.68	33.276
495.03	34.185
495.37	34.842
495.72	33.878
496.07	33.961
496.41	33.376
496.76	34.237
497.11	33.758
497.45	34.182
497.80	34.607
498.14	33.560
498.49	34.329
498.84	34.918
499.18	33.963
499.53	34.439
499.87	34.549
500.22	33.393
500.56	33.558
500.91	34.142
501.26	34.045
501.60	33.672
501.95	33.348
502.29	33.611
502.64	34.237
502.98	33.650
503.33	33.391
503.67	33.624
504.02	33.538
504.36	35.165
504.71	33.532
505.06	33.106
505.40	33.638
505.75	33.607
506.09	34.208
506.44	34.030
506.78	34.541
507.13	34.394
507.47	33.160
507.82	34.422
508.16	34.034
508.51	33.943
508.85	34.105
509.19	33.870
509.54	33.622
509.88	34.628
510.23	34.920
510.57	34.944
510.92	34.881
511.26	34.584
511.61	34.476
511.95	33.968
512.30	34.318
512.64	33.583
512.98	34.167
513.33	34.123
513.67	34.625
514.02	35.054
514.36	35.601
514.70	34.531
515.05	35.297
515.39	34.961
515.74	35.366
516.08	34.284
516.42	35.583
516.77	34.543
517.11	34.657
517.46	35.207
517.80	35.649
518.14	35.473
518.49	34.707
518.83	34.699
519.17	33.656
519.52	34.591
519.86	35.269
520.20	34.984
520.55	34.392
520.89	35.304
521.23	34.729
521.58	36.215
521.92	35.411
522.26	35.281
522.61	36.400
522.95	35.063
523.29	35.690
523.64	34.865
523.98	35.197
524.32	36.619
524.66	35.458
525.01	34.938
525.35	34.635
525.69	35.209
526.04	34.845
526.38	35.287
526.72	35.236
527.06	34.956
527.41	35.802
527.75	36.401
528.09	35.360
528.43	36.057
528.78	33.931
529.12	36.411
529.46	34.626
529.80	36.098
530.15	35.014
530.49	35.528
530.83	35.832
531.17	34.827
531.51	35.560
531.86	35.697
532.20	36.829
532.54	35.548
532.88	35.515
533.22	34.532
533.57	34.737
533.91	35.971
534.25	35.953
534.59	36.494
534.93	35.654
535.27	35.211
535.62	35.873
535.96	35.909
536.30	35.076
536.64	35.315
536.98	35.978
537.32	36.173
537.66	35.933
538.01	34.381
538.35	36.054
538.69	35.276
539.03	35.316
539.37	34.923
539.71	33.874
540.05	35.252
540.39	35.147
540.73	34.426
541.07	35.622
541.42	33.904
541.76	35.587
542.10	34.560
542.44	34.957
542.78	36.010
543.12	35.936
543.46	34.799
543.80	35.132
544.14	34.530
544.48	35.225
544.82	35.907
545.16	34.943
545.50	35.351
545.84	34.599
546.18	35.802
546.52	35.541
546.86	35.283
547.20	36.641
547.54	34.707
547.88	34.358
548.22	34.561
548.56	35.284
548.90	34.567
549.24	35.805
549.58	35.016
549.92	34.821
550.26	35.793
550.60	34.971
550.94	36.158
551.28	34.455
551.62	35.916
551.96	34.822
552.30	34.736
552.64	34.599
552.98	36.245
553.32	36.334
553.66	34.277
554.00	34.552
554.34	34.878
554.68	34.474
555.02	34.954
555.36	35.174
555.69	34.529
556.03	34.174
556.37	34.481
556.71	35.954
557.05	34.569
557.39	34.174
557.73	35.139
558.07	34.238
558.41	35.748
558.75	35.024
559.08	34.934
559.42	34.362
559.76	34.735
560.10	33.423
560.44	34.367
560.78	34.812
561.12	34.052
561.45	34.611
561.79	34.799
562.13	34.319
562.47	34.217
562.81	33.671
563.15	35.227
563.48	35.239
563.82	33.978
564.16	33.374
564.50	32.956
564.84	34.395
565.17	33.706
565.51	33.084
565.85	34.145
566.19	33.180
566.52	33.528
566.86	33.729
567.20	32.898
567.54	33.245
567.88	33.792
568.21	33.300
568.55	33.621
568.89	33.227
569.23	33.038
569.56	32.395
569.90	32.110
570.24	31.636
570.57	32.649
570.91	32.027
571.25	30.923
571.59	31.506
571.92	31.210
572.26	31.683
572.60	31.395
572.93	31.895
573.27	31.807
573.61	31.525
573.95	31.294
574.28	31.044
574.62	30.991
574.96	30.856
575.29	30.205
575.63	30.400
575.97	31.186
576.30	31.039
576.64	31.186
576.98	30.661
577.31	31.340
577.65	30.933
577.98	30.553
578.32	30.447
578.66	29.966
578.99	30.289
579.33	31.414
579.67	30.644
580.00	30.321
580.34	31.261
580.67	30.406
581.01	30.917
581.35	30.879
581.68	30.044
582.02	30.244
582.35	30.615
582.69	30.653
583.02	30.648
583.36	30.684
583.70	31.084
584.03	30.814
584.37	31.597
584.70	31.125
585.04	30.295
585.37	30.579
585.71	29.989
586.04	30.515
586.38	30.269
586.72	30.258
587.05	30.084
587.39	30.516
587.72	30.813
588.06	30.271
588.39	30.097
588.73	29.630
589.06	30.728
589.40	31.008
589.73	30.302
590.07	30.504
590.40	31.474
590.73	30.824
591.07	31.683
591.40	30.171
591.74	30.843
592.07	30.857
592.41	30.008
592.74	30.600
593.08	29.745
593.41	30.505
593.75	30.115
594.08	30.294
594.41	30.641
594.75	30.023
595.08	30.720
595.42	29.903
595.75	29.868
596.09	30.464
596.42	30.383
596.75	30.876
597.09	30.788
597.42	30.393
597.75	30.615
598.09	30.635
598.42	31.082
598.76	30.111
599.09	29.583
599.42	29.098
599.76	29.119
600.09	30.063
600.42	29.429
600.76	30.020
601.09	29.771
601.42	29.386
601.76	29.241
602.09	30.021
602.42	29.589
602.76	29.889
603.09	29.479
603.42	30.058
603.76	29.211
604.09	29.879
604.42	29.651
604.76	29.300
605.09	29.637
605.42	30.183
605.75	29.423
606.09	29.339
606.42	28.858
606.75	28.861
607.09	28.725
607.42	28.516
607.75	29.113
608.08	29.124
608.42	28.779
608.75	29.975
609.08	28.608
609.41	29.907
609.75	29.286
610.08	30.255
610.41	28.760
610.74	28.739
611.07	29.352
611.41	29.103
611.74	29.700
612.07	29.827
612.40	29.230
612.73	29.438
613.07	29.389
613.40	29.788
613.73	28.743
614.06	29.735
614.39	29.543
614.72	28.627
615.06	29.259
615.39	28.661
615.72	28.578
616.05	29.335
616.38	29.011
616.71	29.572
617.05	28.754
617.38	28.946
617.71	29.158
618.04	29.142
618.37	29.180
618.70	29.695
619.03	29.092
619.36	29.593
619.69	29.917
620.03	28.688
620.36	28.528
620.69	28.809
621.02	28.871
621.35	29.681
621.68	29.935
622.01	30.249
622.34	28.801
622.67	29.141
623.00	28.003
623.33	29.263
623.66	28.923
623.99	28.308
624.32	28.395
624.65	28.829
624.99	29.584
625.32	29.589
625.65	28.928
625.98	28.407
626.31	28.136
626.64	29.158
626.97	28.807
627.30	28.853
627.63	29.407
627.96	29.655
628.29	30.039
628.62	29.219
628.95	28.571
629.28	29.057
629.61	30.808
629.94	27.950
630.26	28.220
630.59	27.547
630.92	28.398
631.25	29.785
631.58	29.567
631.91	29.803
632.24	30.259
632.57	29.602
632.90	29.990
633.23	30.918
633.56	27.755
633.89	29.236
634.22	28.067
634.55	27.975
634.88	29.004
635.20	29.064
635.53	29.040
635.86	29.361
636.19	30.117
636.52	29.325
636.85	28.601
637.18	28.898
637.51	29.140
637.83	31.561
638.16	28.917
638.49	28.756
638.82	28.523
639.15	28.179
639.48	30.600
639.81	29.561
640.13	29.800
640.46	27.030
640.79	28.676
641.12	29.689
641.45	28.231
641.77	29.910
642.10	28.871
642.43	29.787
642.76	29.810
643.09	29.315
643.41	28.571
643.74	27.034
644.07	30.207
644.40	29.420
644.73	28.592
645.05	30.396
645.38	30.360
645.71	27.126
646.04	29.986
646.36	28.321
646.69	30.675
647.02	30.275
647.35	30.534
647.67	29.630
648.00	30.255
648.33	28.979
648.66	29.101
648.98	26.939
649.31	26.116
649.64	28.951
649.96	27.188
650.29	26.565
650.62	27.298
650.94	26.877
651.27	28.293
651.60	26.901
651.92	28.875
652.25	28.654
652.58	27.648
652.90	29.070
653.23	27.746
653.56	29.101
653.88	27.247
654.21	26.197
654.54	27.601
654.86	27.337
655.19	25.972
655.52	26.257
655.84	24.072
656.17	28.170
656.49	39.496
656.82	44.371
657.15	35.614
657.47	26.927
657.80	20.314
658.13	16.309
658.45	21.483
658.78	26.685
659.10	26.393
659.43	26.870
659.75	26.388
660.08	25.378
660.41	26.385
660.73	26.226
661.06	28.341
661.38	27.751
661.71	28.448
662.03	28.042
662.36	28.801
662.68	26.079
663.01	28.673
663.33	28.355
663.66	29.121
663.98	29.615
664.31	29.081
664.63	25.241
664.96	28.131
665.28	25.408
665.61	29.895
665.93	26.607
666.26	25.090
666.58	27.122
666.91	28.411
667.23	25.905
667.56	28.402
667.88	27.400
668.21	25.977
668.53	25.290
668.86	26.130
669.18	27.495
669.50	27.435
669.83	26.200
670.15	25.984
670.48	28.373
670.80	24.665
671.13	25.709
671.45	24.409
671.77	27.495
672.10	26.500
672.42	26.699
672.75	25.038
673.07	26.418
673.39	23.421
673.72	25.503
674.04	26.724
674.37	26.834
674.69	27.866
675.01	25.714
675.34	23.092
675.66	26.592
675.98	24.813
676.31	26.563
676.63	26.996
676.95	28.161
677.28	25.202
677.60	25.000
677.92	25.144
678.25	27.422
678.57	25.623
678.89	26.792
679.22	26.132
679.54	27.009
679.86	21.695
680.18	26.534
680.51	25.314
680.83	24.059
681.15	25.172
681.48	27.116
681.80	28.325
682.12	23.951
682.44	25.710
682.77	25.000
683.09	25.189
683.41	25.194
683.73	25.047
684.06	24.723
684.38	24.866
684.70	27.289
685.02	25.990
685.34	22.795
685.67	22.713
685.99	24.080
686.31	23.837
686.63	24.645
686.96	23.344
687.28	24.756
687.60	21.380
687.92	23.151
688.24	25.376
688.56	23.448
688.89	27.223
689.21	26.027
689.53	23.137
689.85	24.852
690.17	24.074
690.49	24.104
690.82	24.158
691.14	23.684
691.46	25.048
691.78	25.230
692.10	24.220
692.42	22.321
692.74	23.412
693.06	21.111
693.39	25.996
693.71	23.496
694.03	25.651
694.35	24.190
694.67	24.025
694.99	25.319
695.31	26.049
695.63	23.160
695.95	20.704
696.27	24.176
696.59	25.442
696.91	24.099
697.23	25.495
697.56	22.403
697.88	23.485
698.20	25.235
698.52	25.379
698.84	23.909
699.16	23.878
699.48	23.849
699.80	24.894
700.12	22.926
700.44	26.267
700.76	25.653
701.08	22.760
701.40	23.057
701.72	24.129
702.04	27.540
702.36	18.848
702.68	24.939
703.00	23.716
703.32	22.167
703.64	22.494
703.96	24.582
704.28	23.096
704.60	25.823
704.91	23.214
705.23	28.493
705.55	19.220
705.87	24.242
706.19	30.368
706.51	21.988
706.83	22.767
707.15	21.693
707.47	22.196
707.79	20.742
708.11	19.492
708.43	22.581
708.74	21.875
709.06	22.738
709.38	26.526
709.70	25.310
710.02	21.964
710.34	25.798
710.66	21.788
710.98	22.404
711.29	21.154
711.61	25.424
711.93	24.217
712.25	19.730
712.57	24.484
712.89	25.882
713.20	20.710
713.52	23.410
713.84	23.677
714.16	22.632
714.48	21.907
714.80	23.377
715.11	20.735
715.43	22.812
715.75	23.421
716.07	22.376
716.39	23.770
716.70	22.892
717.02	27.213
717.34	24.042
717.66	24.832
717.97	21.575
718.29	24.742
718.61	18.750
718.93	20.712
719.24	24.845
719.56	21.472
719.88	22.823
720.20	21.290
720.51	20.807
720.83	22.188
721.15	17.434
721.46	20.205
721.78	20.333
722.10	20.065
722.42	23.826
722.73	24.194
723.05	24.211
723.37	22.917
723.68	21.505
724.00	23.105
724.32	20.775
724.63	22.028
724.95	19.858
725.27	19.861
725.58	20.848
725.90	22.759
726.22	20.376
726.53	21.753
726.85	22.013
727.16	20.544
727.48	24.159
727.80	19.868
728.11	19.788
728.43	21.549
728.74	21.070
729.06	20.861
729.38	20.779
729.69	22.483
730.01	21.726
730.32	18.788
730.64	23.899
730.96	18.323
731.27	23.743
731.59	20.879
731.90	19.740
732.22	21.615
732.53	18.232
732.85	19.143
733.16	22.287
733.48	16.159
733.80	20.056
734.11	19.088
734.43	20.811
734.74	21.772
735.06	17.588
735.37	24.054
735.69	19.459
736.00	22.034
736.32	18.868
736.63	19.722
736.95	20.115
737.26	19.697
737.58	22.121
737.89	17.647
738.21	14.679
738.52	16.066
738.83	22.867
739.15	19.858
739.46	23.810
739.78	24.847
740.09	18.052
740.41	23.324
740.72	20.333
741.04	20.712
741.35	19.649
741.66	19.608
741.98	20.082
742.29	23.849
742.61	22.368
742.92	20.000
743.23	22.383
743.55	19.767
743.86	22.400
744.18	19.421
744.49	18.565
744.80	23.868
745.12	23.207
745.43	23.984
745.74	20.690
746.06	21.610
746.37	24.051
746.68	22.358
747.00	20.000
747.31	21.459
747.62	21.923
747.94	21.862
748.25	18.876
748.56	15.102
748.88	16.239
749.19	21.552
749.50	20.346
749.82	22.892
750.13	25.979
750.44	19.000
750.75	23.385
751.07	18.769
751.38	19.874
751.69	18.530
752.01	18.123
752.32	20.261
752.63	21.088
752.94	19.723
753.26	20.446
753.57	18.148
753.88	15.356
754.19	20.579
754.51	18.971
754.82	18.971
755.13	21.967
755.44	19.795
755.75	21.053
756.07	21.194
756.38	21.069
756.69	23.494
757.00	18.283
757.31	16.940
757.63	21.228
757.94	17.136
758.25	18.736
758.56	20.261
758.87	17.045
759.18	19.200
759.50	18.980
759.81	19.048
760.12	19.677
760.43	17.708
760.74	21.182
761.05	19.000
761.36	17.831
761.67	19.797
761.99	20.541
762.30	20.427
762.61	16.172
762.92	20.149
763.23	17.228
763.54	19.065
763.85	15.464
764.16	18.519
764.47	20.070
764.78	20.767
765.10	19.648
765.41	21.282
765.72	16.138
766.03	19.492
766.34	15.674
766.65	14.286
766.96	18.327
767.27	22.581
767.58	18.905
767.89	23.077
768.20	22.535
768.51	18.981
768.82	18.876
769.13	18.561
769.44	13.077
769.75	21.300
770.06	20.769
770.37	16.535
770.68	14.894
770.99	14.575
771.30	20.000
771.61	17.110
771.92	15.926
772.23	20.243
772.54	16.667
772.85	17.512
773.16	18.571
773.47	19.048
773.78	14.054
774.09	19.886
774.39	22.000
774.70	17.486
775.01	17.073
775.32	13.529
775.63	12.883
775.94	10.828
776.25	21.935
776.56	17.949
776.87	21.769
777.18	21.379
777.48	7.692
777.79	16.892
778.10	13.971
778.41	20.833
778.72	20.690
779.03	14.815
779.34	16.364
779.65	19.171
779.95	19.444
780.26	19.886
780.57	16.129
780.88	25.362
781.19	21.935
781.50	19.412
781.80	20.968
782.11	14.815
782.42	13.636
782.73	16.766
783.04	15.084
783.34	10.909
783.65	10.458
783.96	16.149
784.27	20.238
784.57	14.570
784.88	16.429
785.19	17.323
785.50	24.409
785.81	15.038
786.11	23.846
786.42	12.230
786.73	17.266
787.04	26.316
787.34	22.131
787.65	17.600
787.96	17.910
788.26	20.280
788.57	20.280
788.88	18.421
789.19	26.144
789.49	22.603
789.80	16.312
790.11	15.748
790.41	14.844
790.72	8.475
791.03	9.709
791.33	6.087
791.64	21.053
791.95	14.286
792.25	23.810
792.56	14.286
792.87	13.542
793.17	8.036
793.48	21.875
793.79	-8.434
794.09	21.101
794.40	13.761
794.70	16.327
795.01	13.636
795.32	23.973
795.62	16.901
795.93	20.455
796.23	22.131
796.54	11.607
796.85	10.638
797.15	23.913
797.46	17.808
797.76	10.000
798.07	10.870
798.37	1.031
798.68	2.597
798.99	4.598
799.29	4.494
799.60	9.574
799.90	7.229
800.21	1.538
800.51	10.448
800.82	1.471
801.12	-4.110
801.43	4.412
801.73	1.695
802.04	10.606
802.34	6.667
802.65	8.475
802.95	17.910
803.26	-3.390
803.56	6.849
803.87	22.857
804.17	20.548
804.48	-12.281
804.78	12.500
805.09	6.897
805.39	8.108
805.70	4.225
806.00	20.732
806.30	14.458
806.61	9.589
806.91	13.462
807.22	6.667
807.52	3.448
807.83	19.444
808.13	27.711
808.43	19.101
808.74	16.250
809.04	11.765
809.35	10.667
809.65	22.857
809.95	20.548
810.26	7.018
810.56	10.345
810.86	20.588
811.17	-1.754
811.47	-6.557
811.77	8.889
812.08	5.085
812.38	8.333
812.69	13.793
812.99	3.774
813.29	-17.949
813.59	-4.000
813.90	24.561
814.20	7.273
814.50	22.535
814.81	24.359
815.11	21.311
815.41	8.955
815.72	6.897
816.02	8.929
816.32	26.667
816.62	25.000
816.93	13.333
817.23	18.519
817.53	4.255
817.84	0.000
818.14	8.824
818.44	14.286
818.74	26.667
819.04	-35.897
819.35	-20.000
819.65	-34.615
819.95	-1.887
820.25	17.778
820.56	-14.286
820.86	-9.375
821.16	10.256
821.46	-2.326
821.76	-6.000
822.07	16.071
822.37	0.000
822.67	-8.511
822.97	0.000
823.27	7.500
823.57	20.408
823.88	22.222
824.18	17.500
824.48	10.000
824.78	0.000
825.08	-6.061
825.38	26.667
825.69	4.255
825.99	19.444
826.29	-17.143
826.59	-5.128
826.89	6.977
827.19	8.000
827.49	26.471
827.79	16.667
828.09	-16.216
828.39	20.000
828.70	21.951
829.00	2.326
829.30	3.571
829.60	29.412
829.90	19.565
830.20	-5.714
830.50	13.793
830.80	11.111
831.10	-7.692
831.40	0.000
831.70	4.762
832.00	32.258
832.30	-88.235
832.60	-45.833
832.90	7.692
833.20	-15.789
833.50	-35.000
833.80	10.526
834.10	-71.429
834.40	11.111
834.70	31.250
835.00	-14.286
835.30	26.471
835.60	-13.333
835.90	0.000
836.20	-54.545
836.50	8.000
836.80	3.030
837.10	-3.704
837.40	11.111
837.70	-62.500
838.00	-7.143
838.30	0.000
838.60	6.897
838.90	35.714
839.19	-21.739
839.49	-108.333
839.79	-4.348
840.09	-62.500
840.39	-15.000
840.69	3.226
840.99	-7.143
841.29	-6.667
841.59	-10.526
841.88	10.256
842.18	3.846
842.48	-60.000
842.78	25.000
843.08	3.333
843.38	48.387
843.68	-77.778
843.97	-5.882
844.27	6.250
844.57	-21.053
844.87	-50.000
845.17	-46.667
845.47	52.381
845.76	-23.810
846.06	-22.222
846.36	11.765
846.66	11.538
846.96	-13.333
847.25	-23.529
847.55	52.174
847.85	5.000
848.15	70.588
848.44	-45.455
848.74	0.000
849.04	-12.500
849.34	6.250
849.63	8.696
849.93	400.000
850.23	46.667
850.53	30.769
850.82	-9.091
851.12	4.545
851.42	-109.091
851.71	-38.462
852.01	-65.000
852.31	-53.846
852.61	15.789
852.90	-41.667
853.20	50.000
853.50	0.000
853.79	-52.381
854.09	-54.545
854.39	-83.333
854.68	3.226
854.98	-26.923
855.28	27.778
855.57	-46.429
855.87	8.000
856.17	18.182
856.46	-18.519
856.76	5.556
857.05	-17.391
857.35	-29.167
857.65	-61.538
857.94	42.857
858.24	0.000
858.53	47.826
858.83	0.000
859.13	11.765
859.42	11.765
859.72	-57.143
860.01	-15.000
860.31	-111.111
860.60	120.000
860.90	26.667
861.20	0.000
861.49	-30.769
861.79	3.333
862.08	-15.385
862.38	12.500
862.67	35.294
862.97	-25.000
863.26	-133.333
863.56	20.000
863.85	36.364
864.15	11.111
864.44	-166.667
864.74	-42.857
865.03	12.500
865.33	-100.000
865.62	-16.129
865.92	4.545
866.21	17.391
866.51	21.429
866.80	-80.000
867.10	-58.333
867.39	-75.000
867.69	1000.000
867.98	-28.571
868.27	29.412
868.57	600.000
868.86	-80.000
869.16	0.000
869.45	-16.667
869.75	36.364
870.04	-71.429
870.33	0.000
870.63	-214.286
870.92	-225.000
871.22	-225.000
871.51	-118.182
871.80	-433.333
872.10	-200.000
>>>>>End Processed Spectral Data<<<<<
