SpectraSuite Data File
++++++++++++++++++++++++++++++++++++
Date: Thu May 14 15:51:01 PDT 2015
User: schluterlab
Dark Spectrum Present: Yes
Reference Spectrum Present: Yes
Number of Sampled Component Spectra: 1
Spectrometers: USB2E3373
Integration Time (usec): 3000 (USB2E3373)
Spectra Averaged: 3 (USB2E3373)
Boxcar Smoothing: 0 (USB2E3373)
Correct for Electrical Dark: No (USB2E3373)
Strobe/Lamp Enabled: No (USB2E3373)
Correct for Detector Non-linearity: No (USB2E3373)
Correct for Stray Light: No (USB2E3373)
Number of Pixels in Processed Spectrum: 2048
>>>>>Begin Processed Spectral Data<<<<<
178.53	0.000
178.91	542.857
179.29	-4800.000
179.67	-5200.000
180.04	442.857
180.42	390.000
180.80	1020.000
181.18	-4400.000
181.56	-3600.000
181.94	1125.000
182.31	-1225.000
182.69	1300.000
183.07	-2200.000
183.45	1350.000
183.83	-750.000
184.20	-1333.333
184.58	3900.000
184.96	-1075.000
185.34	-522.222
185.72	-640.000
186.09	644.444
186.47	2300.000
186.85	1000.000
187.23	-522.222
187.61	-5000.000
187.98	800.000
188.36	1200.000
188.74	-975.000
189.12	-1266.667
189.49	-200.000
189.87	-537.500
190.25	-433.333
190.63	-880.000
191.00	-488.889
191.38	0.000
191.76	-1100.000
192.14	-700.000
192.51	2550.000
192.89	-516.667
193.27	0.000
193.65	-542.857
194.02	-3800.000
194.40	-614.286
194.78	585.714
195.15	0.000
195.53	-354.545
195.91	0.000
196.29	-925.000
196.66	-300.000
197.04	-4800.000
197.42	-471.429
197.79	-1750.000
198.17	-500.000
198.55	-528.571
198.92	-422.222
199.30	-487.500
199.68	-245.455
200.05	-271.429
200.43	-2200.000
200.81	757.143
201.18	0.000
201.56	544.444
201.94	0.000
202.31	1366.667
202.69	-577.778
203.07	4200.000
203.44	-466.667
203.82	-875.000
204.19	-341.667
204.57	-733.333
204.95	-500.000
205.32	-4300.000
205.70	1150.000
206.08	-566.667
206.45	-633.333
206.83	1020.000
207.20	-683.333
207.58	-920.000
207.96	-950.000
208.33	-700.000
208.71	408.333
209.08	-633.333
209.46	0.000
209.84	850.000
210.21	2700.000
210.59	2300.000
210.96	1400.000
211.34	-825.000
211.71	-525.000
212.09	-4100.000
212.46	0.000
212.84	2300.000
213.22	-960.000
213.59	-1150.000
213.97	-310.000
214.34	-1366.667
214.72	766.667
215.09	-875.000
215.47	0.000
215.84	485.714
216.22	2700.000
216.59	-880.000
216.97	-780.000
217.34	-1100.000
217.72	-450.000
218.09	-1150.000
218.47	-1125.000
218.84	0.000
219.22	800.000
219.59	-229.412
219.97	-210.000
220.34	2600.000
220.72	-511.111
221.09	-284.615
221.47	-1400.000
221.84	-370.000
222.22	-528.571
222.59	0.000
222.97	-562.500
223.34	-940.000
223.72	-4800.000
224.09	-1275.000
224.46	-1025.000
224.84	-740.000
225.21	-628.571
225.59	-1075.000
225.96	-1175.000
226.34	-107.692
226.71	950.000
227.08	-2250.000
227.46	-266.667
227.83	-1100.000
228.21	-194.737
228.58	537.500
228.95	1950.000
229.33	-300.000
229.70	-410.000
230.08	-168.421
230.45	490.000
230.82	-1433.333
231.20	-250.000
231.57	-300.000
231.95	-354.545
232.32	-409.091
232.69	-180.000
233.07	-950.000
233.44	-205.882
233.81	-500.000
234.19	-205.556
234.56	-168.182
234.93	-127.586
235.31	-215.789
235.68	-205.556
236.05	-195.000
236.43	-103.846
236.80	-76.000
237.17	-133.333
237.55	-124.242
237.92	-510.000
238.29	-119.355
238.67	-79.545
239.04	-102.778
239.41	-80.952
239.79	-78.261
240.16	-68.519
240.53	-78.261
240.91	-94.118
241.28	-65.574
241.65	-41.791
242.02	-37.838
242.40	-69.231
242.77	-53.333
243.14	-50.000
243.51	-53.947
243.89	-56.410
244.26	-34.653
244.63	-33.333
245.00	-33.645
245.38	-32.456
245.75	-44.248
246.12	-23.810
246.49	-35.659
246.87	-21.429
247.24	-19.868
247.61	-23.026
247.98	-24.832
248.36	-20.988
248.73	-26.994
249.10	-18.579
249.47	-10.945
249.84	-14.136
250.22	-15.026
250.59	-20.556
250.96	-10.909
251.33	-15.306
251.70	-10.684
252.08	-7.500
252.45	-8.197
252.82	-14.050
253.19	-11.719
253.56	-8.745
253.94	-10.000
254.31	-6.061
254.68	-4.895
255.05	-4.560
255.42	-7.823
255.79	-8.738
256.16	-11.258
256.54	-11.921
256.91	-10.492
257.28	-8.525
257.65	-11.465
258.02	-9.440
258.39	-5.128
258.76	-2.141
259.14	-1.724
259.51	-6.628
259.88	-8.782
260.25	-4.444
260.62	-4.384
260.99	-3.552
261.36	-1.877
261.73	-6.366
262.10	-6.868
262.47	-2.413
262.85	-0.505
263.22	-6.494
263.59	-7.895
263.96	-5.115
264.33	-5.627
264.70	-4.444
265.07	-2.387
265.44	-1.587
265.81	-3.704
266.18	-1.361
266.55	-2.009
266.92	-7.517
267.29	-1.751
267.66	-1.552
268.03	-1.310
268.40	-2.923
268.77	-6.378
269.14	-5.727
269.51	-2.632
269.88	-0.820
270.25	-3.018
270.62	-4.008
270.99	-0.606
271.36	-1.386
271.73	-1.768
272.10	1.002
272.47	-3.206
272.84	-3.815
273.21	-4.810
273.58	-1.411
273.95	-2.308
274.32	-3.042
274.69	-1.161
275.06	-2.930
275.43	-2.773
275.80	0.353
276.17	-2.407
276.54	-1.493
276.91	-2.862
277.28	-1.808
277.65	-1.077
278.02	-0.919
278.39	-2.174
278.76	-2.636
279.13	-1.241
279.50	0.000
279.87	-0.537
280.23	-4.754
280.60	-1.356
280.97	-1.809
281.34	-2.547
281.71	-0.169
282.08	-2.159
282.45	-2.946
282.82	-0.628
283.19	-3.716
283.56	0.000
283.92	1.201
284.29	0.948
284.66	0.328
285.03	-3.045
285.40	-0.464
285.77	-1.548
286.14	0.611
286.51	0.609
286.87	-0.948
287.24	-1.205
287.61	-2.691
287.98	-1.662
288.35	-1.331
288.72	-0.148
289.08	0.146
289.45	-1.923
289.82	-0.753
290.19	-1.006
290.56	-0.141
290.93	0.143
291.29	-0.138
291.66	-1.653
292.03	-1.764
292.40	0.680
292.77	-1.348
293.13	0.947
293.50	-0.657
293.87	-0.671
294.24	0.667
294.60	-0.379
294.97	-1.342
295.34	0.128
295.71	-0.631
296.08	-0.258
296.44	-1.716
296.81	-2.436
297.18	-0.498
297.55	-0.590
297.91	-0.712
298.28	-1.540
298.65	-0.951
299.02	-0.236
299.38	-0.343
299.75	-0.467
300.12	-1.505
300.48	0.230
300.85	-0.675
301.22	1.230
301.59	-0.571
301.95	0.113
302.32	0.778
302.69	-0.110
303.05	0.109
303.42	0.333
303.79	-0.417
304.15	-0.526
304.52	-0.529
304.89	0.000
305.25	-0.414
305.62	1.358
305.99	1.134
306.35	-0.403
306.72	1.655
307.09	0.102
307.45	0.621
307.82	0.706
308.19	0.303
308.55	1.446
308.92	0.974
309.29	1.245
309.65	0.975
310.02	-0.297
310.38	0.492
310.75	0.777
311.12	0.575
311.48	0.684
311.85	1.235
312.22	0.190
312.58	0.469
312.95	1.052
313.31	1.716
313.68	2.381
314.05	2.349
314.41	1.821
314.78	1.998
315.14	2.722
315.51	2.862
315.87	2.880
316.24	3.927
316.61	4.085
316.97	1.176
317.34	2.910
317.70	3.755
318.07	3.527
318.43	4.422
318.80	5.769
319.16	4.464
319.53	3.685
319.89	4.820
320.26	6.050
320.62	5.319
320.99	5.910
321.35	6.562
321.72	7.535
322.08	6.583
322.45	8.130
322.81	7.310
323.18	6.726
323.54	8.190
323.91	8.096
324.27	7.659
324.64	8.060
325.00	8.955
325.37	9.582
325.73	9.339
326.10	10.543
326.46	10.505
326.83	10.969
327.19	10.866
327.56	10.830
327.92	10.307
328.29	9.758
328.65	10.637
329.01	11.252
329.38	11.205
329.74	11.130
330.11	11.045
330.47	11.879
330.84	10.594
331.20	10.833
331.56	11.612
331.93	11.715
332.29	11.864
332.66	11.960
333.02	12.060
333.38	11.745
333.75	12.037
334.11	11.426
334.48	12.211
334.84	12.234
335.20	12.343
335.57	12.901
335.93	12.066
336.29	10.982
336.66	11.186
337.02	12.960
337.38	12.670
337.75	11.322
338.11	11.690
338.47	11.414
338.84	11.252
339.20	11.120
339.56	12.109
339.93	12.726
340.29	12.158
340.65	11.922
341.02	12.530
341.38	11.884
341.74	11.461
342.11	10.539
342.47	11.914
342.83	11.675
343.20	13.083
343.56	11.949
343.92	11.529
344.28	12.188
344.65	12.636
345.01	12.715
345.37	11.664
345.73	11.380
346.10	11.856
346.46	11.076
346.82	13.483
347.19	12.376
347.55	12.595
347.91	11.664
348.27	11.988
348.63	11.577
349.00	12.826
349.36	12.193
349.72	11.979
350.08	11.590
350.45	11.483
350.81	11.538
351.17	11.504
351.53	12.434
351.89	12.301
352.26	12.388
352.62	11.194
352.98	10.458
353.34	10.904
353.70	11.941
354.07	11.401
354.43	11.086
354.79	11.593
355.15	11.921
355.51	11.769
355.87	11.369
356.24	11.635
356.60	11.013
356.96	11.712
357.32	10.706
357.68	11.274
358.04	10.928
358.40	10.672
358.77	11.257
359.13	11.004
359.49	10.409
359.85	12.183
360.21	11.406
360.57	10.553
360.93	11.142
361.29	12.421
361.66	11.513
362.02	12.596
362.38	12.439
362.74	11.034
363.10	11.761
363.46	11.565
363.82	11.506
364.18	11.330
364.54	11.687
364.90	12.040
365.26	11.517
365.62	12.200
365.98	11.504
366.35	12.215
366.71	12.857
367.07	10.758
367.43	11.753
367.79	12.674
368.15	13.110
368.51	12.720
368.87	11.822
369.23	11.600
369.59	11.270
369.95	12.847
370.31	12.289
370.67	11.623
371.03	12.188
371.39	11.551
371.75	13.067
372.11	12.805
372.47	12.999
372.83	12.435
373.19	12.408
373.55	11.924
373.91	12.406
374.27	12.872
374.63	11.773
374.99	12.334
375.35	13.377
375.71	12.129
376.07	12.072
376.42	12.783
376.78	13.487
377.14	12.414
377.50	12.650
377.86	13.177
378.22	13.353
378.58	12.723
378.94	12.735
379.30	13.064
379.66	12.757
380.02	13.907
380.38	13.594
380.74	12.732
381.09	13.298
381.45	13.977
381.81	13.700
382.17	12.708
382.53	14.035
382.89	13.939
383.25	13.423
383.61	13.310
383.97	13.015
384.32	13.517
384.68	12.761
385.04	14.170
385.40	13.553
385.76	14.068
386.12	14.183
386.48	14.529
386.83	13.886
387.19	13.499
387.55	13.439
387.91	14.155
388.27	13.799
388.62	14.204
388.98	13.988
389.34	14.260
389.70	14.003
390.06	14.269
390.42	14.217
390.77	15.232
391.13	14.319
391.49	13.708
391.85	14.727
392.20	15.006
392.56	15.594
392.92	15.376
393.28	13.986
393.64	14.581
393.99	15.166
394.35	14.953
394.71	16.048
395.07	14.551
395.42	14.849
395.78	15.356
396.14	14.736
396.50	14.014
396.85	15.444
397.21	14.556
397.57	15.665
397.92	15.750
398.28	14.503
398.64	14.931
399.00	15.131
399.35	15.759
399.71	14.620
400.07	16.171
400.42	15.367
400.78	14.873
401.14	15.083
401.49	16.146
401.85	15.233
402.21	15.527
402.57	16.432
402.92	15.957
403.28	14.930
403.63	14.618
403.99	15.321
404.35	15.350
404.70	15.921
405.06	15.380
405.42	15.867
405.77	16.194
406.13	16.532
406.49	15.709
406.84	15.900
407.20	15.763
407.55	15.082
407.91	16.153
408.27	15.783
408.62	16.579
408.98	15.902
409.34	15.132
409.69	14.957
410.05	16.237
410.40	16.531
410.76	15.816
411.11	15.839
411.47	16.523
411.83	16.343
412.18	16.867
412.54	16.360
412.89	16.182
413.25	16.761
413.60	15.738
413.96	16.434
414.31	16.771
414.67	16.756
415.03	16.492
415.38	16.646
415.74	15.761
416.09	16.595
416.45	15.967
416.80	16.034
417.16	15.517
417.51	16.252
417.87	15.757
418.22	16.168
418.58	15.985
418.93	16.705
419.29	16.400
419.64	16.267
420.00	17.211
420.35	16.564
420.71	17.174
421.06	16.389
421.42	16.284
421.77	16.263
422.12	16.913
422.48	16.539
422.83	17.196
423.19	17.401
423.54	16.925
423.90	16.786
424.25	17.280
424.61	16.246
424.96	17.024
425.31	16.826
425.67	16.425
426.02	17.266
426.38	16.705
426.73	16.797
427.09	16.840
427.44	16.221
427.79	16.860
428.15	16.553
428.50	16.742
428.85	16.188
429.21	17.021
429.56	17.127
429.92	16.560
430.27	17.639
430.62	17.391
430.98	16.576
431.33	16.911
431.68	16.762
432.04	16.658
432.39	16.872
432.74	17.180
433.10	16.712
433.45	16.890
433.80	16.416
434.16	16.684
434.51	16.906
434.86	18.024
435.22	17.853
435.57	16.804
435.92	16.361
436.28	17.463
436.63	17.750
436.98	16.855
437.34	17.418
437.69	16.731
438.04	17.240
438.39	16.829
438.75	17.156
439.10	17.812
439.45	17.440
439.81	17.232
440.16	17.319
440.51	18.004
440.86	16.398
441.22	17.363
441.57	17.872
441.92	18.235
442.27	18.384
442.63	17.635
442.98	17.930
443.33	17.833
443.68	18.285
444.03	18.062
444.39	17.661
444.74	17.050
445.09	17.334
445.44	18.019
445.79	18.343
446.15	17.575
446.50	17.778
446.85	17.947
447.20	18.085
447.55	18.305
447.91	17.592
448.26	17.230
448.61	18.013
448.96	18.401
449.31	17.338
449.66	17.429
450.02	18.513
450.37	18.540
450.72	17.976
451.07	17.995
451.42	17.620
451.77	17.343
452.12	18.341
452.47	17.766
452.83	18.525
453.18	17.104
453.53	17.404
453.88	18.222
454.23	18.362
454.58	17.353
454.93	17.658
455.28	18.543
455.63	17.453
455.98	18.156
456.34	17.962
456.69	17.931
457.04	17.849
457.39	17.517
457.74	18.624
458.09	17.957
458.44	18.858
458.79	18.669
459.14	17.881
459.49	17.883
459.84	18.835
460.19	17.157
460.54	18.115
460.89	18.264
461.24	17.011
461.59	17.709
461.94	17.513
462.29	18.085
462.64	17.803
462.99	17.263
463.34	17.975
463.69	18.054
464.04	18.344
464.39	17.545
464.74	18.016
465.09	17.878
465.44	17.167
465.79	17.715
466.14	17.926
466.49	18.053
466.84	17.080
467.19	16.936
467.54	17.274
467.89	17.184
468.24	17.452
468.59	16.850
468.94	17.366
469.29	17.217
469.64	16.275
469.99	17.336
470.34	17.574
470.68	17.430
471.03	16.765
471.38	16.743
471.73	16.255
472.08	16.878
472.43	17.459
472.78	17.443
473.13	17.004
473.48	17.583
473.83	17.818
474.17	17.292
474.52	16.897
474.87	17.331
475.22	18.197
475.57	17.238
475.92	18.019
476.27	17.625
476.61	18.017
476.96	17.049
477.31	17.178
477.66	18.206
478.01	17.082
478.36	17.398
478.70	17.438
479.05	17.689
479.40	17.078
479.75	17.531
480.10	16.817
480.45	18.049
480.79	17.596
481.14	17.371
481.49	17.129
481.84	17.711
482.19	17.763
482.53	17.621
482.88	17.767
483.23	17.608
483.58	17.380
483.92	16.711
484.27	17.316
484.62	16.997
484.97	17.613
485.31	16.966
485.66	16.743
486.01	17.175
486.36	18.108
486.70	18.882
487.05	18.800
487.40	18.458
487.75	18.015
488.09	17.667
488.44	17.078
488.79	16.560
489.13	17.161
489.48	16.466
489.83	16.579
490.17	16.525
490.52	16.585
490.87	16.667
491.22	16.724
491.56	16.468
491.91	16.703
492.26	16.659
492.60	16.353
492.95	16.674
493.30	16.719
493.64	16.338
493.99	16.886
494.34	16.943
494.68	16.617
495.03	16.388
495.37	16.201
495.72	16.735
496.07	17.397
496.41	15.916
496.76	17.223
497.11	16.221
497.45	16.703
497.80	16.659
498.14	15.737
498.49	16.176
498.84	16.728
499.18	16.149
499.53	16.592
499.87	16.527
500.22	15.494
500.56	15.655
500.91	16.705
501.26	16.136
501.60	15.024
501.95	16.283
502.29	16.411
502.64	16.091
502.98	15.919
503.33	16.026
503.67	15.613
504.02	15.806
504.36	16.354
504.71	15.618
505.06	15.689
505.40	15.585
505.75	15.847
506.09	15.746
506.44	16.156
506.78	15.917
507.13	15.491
507.47	16.011
507.82	15.246
508.16	14.914
508.51	15.659
508.85	15.210
509.19	15.822
509.54	16.042
509.88	15.542
510.23	15.444
510.57	16.578
510.92	15.530
511.26	14.719
511.61	14.727
511.95	15.373
512.30	15.362
512.64	14.393
512.98	15.158
513.33	15.827
513.67	14.839
514.02	15.432
514.36	14.987
514.70	14.792
515.05	15.276
515.39	15.591
515.74	14.581
516.08	15.161
516.42	15.646
516.77	15.300
517.11	14.440
517.46	15.164
517.80	15.767
518.14	16.213
518.49	15.347
518.83	14.635
519.17	14.593
519.52	14.832
519.86	14.678
520.20	14.803
520.55	14.294
520.89	15.090
521.23	14.852
521.58	14.181
521.92	15.184
522.26	15.006
522.61	13.773
522.95	14.360
523.29	14.023
523.64	14.518
523.98	14.661
524.32	15.358
524.66	14.400
525.01	13.817
525.35	14.245
525.69	14.443
526.04	14.868
526.38	14.713
526.72	13.841
527.06	14.487
527.41	14.869
527.75	14.252
528.09	14.109
528.43	14.683
528.78	13.584
529.12	13.933
529.46	14.840
529.80	14.416
530.15	14.087
530.49	13.760
530.83	14.168
531.17	13.799
531.51	13.598
531.86	14.363
532.20	14.756
532.54	13.405
532.88	14.364
533.22	13.907
533.57	13.329
533.91	14.366
534.25	15.093
534.59	13.563
534.93	13.356
535.27	13.690
535.62	13.701
535.96	14.062
536.30	13.455
536.64	14.234
536.98	13.838
537.32	14.074
537.66	14.036
538.01	12.689
538.35	13.886
538.69	12.861
539.03	14.102
539.37	13.486
539.71	13.634
540.05	13.669
540.39	12.958
540.73	12.143
541.07	13.182
541.42	13.349
541.76	12.515
542.10	13.209
542.44	12.363
542.78	13.625
543.12	13.528
543.46	13.492
543.80	11.930
544.14	12.926
544.48	13.180
544.82	13.345
545.16	12.701
545.50	13.241
545.84	13.595
546.18	14.198
546.52	12.739
546.86	12.453
547.20	13.486
547.54	12.235
547.88	11.814
548.22	12.105
548.56	12.288
548.90	12.657
549.24	13.435
549.58	13.249
549.92	11.990
550.26	13.269
550.60	12.061
550.94	12.484
551.28	12.607
551.62	12.871
551.96	12.233
552.30	12.237
552.64	12.134
552.98	12.352
553.32	12.669
553.66	12.412
554.00	12.043
554.34	12.934
554.68	12.201
555.02	12.155
555.36	12.492
555.69	11.595
556.03	11.223
556.37	12.641
556.71	12.112
557.05	12.141
557.39	12.342
557.73	11.889
558.07	11.722
558.41	12.292
558.75	12.035
559.08	11.621
559.42	11.317
559.76	12.212
560.10	11.186
560.44	11.939
560.78	12.375
561.12	12.500
561.45	11.800
561.79	12.637
562.13	12.446
562.47	11.221
562.81	10.886
563.15	13.005
563.48	11.498
563.82	11.790
564.16	11.872
564.50	11.979
564.84	11.268
565.17	12.471
565.51	12.083
565.85	11.223
566.19	11.406
566.52	11.644
566.86	11.319
567.20	11.202
567.54	11.471
567.88	11.468
568.21	11.957
568.55	11.990
568.89	12.438
569.23	12.083
569.56	12.192
569.90	12.580
570.24	12.411
570.57	11.835
570.91	11.911
571.25	12.062
571.59	12.552
571.92	12.233
572.26	12.229
572.60	12.258
572.93	12.413
573.27	11.942
573.61	11.858
573.95	12.552
574.28	12.217
574.62	12.392
574.96	11.932
575.29	12.271
575.63	12.104
575.97	12.192
576.30	11.966
576.64	12.073
576.98	12.005
577.31	12.067
577.65	12.175
577.98	11.822
578.32	12.098
578.66	12.194
578.99	11.796
579.33	12.139
579.67	12.103
580.00	11.935
580.34	12.042
580.67	11.893
581.01	12.008
581.35	11.748
581.68	11.908
582.02	11.954
582.35	12.085
582.69	12.111
583.02	12.166
583.36	11.707
583.70	11.815
584.03	11.663
584.37	11.429
584.70	11.027
585.04	11.207
585.37	11.622
585.71	11.499
586.04	11.713
586.38	11.235
586.72	11.106
587.05	11.486
587.39	11.169
587.72	11.651
588.06	11.291
588.39	11.153
588.73	11.005
589.06	11.456
589.40	11.217
589.73	11.054
590.07	11.273
590.40	11.224
590.73	11.205
591.07	11.392
591.40	10.731
591.74	10.890
592.07	11.287
592.41	10.134
592.74	10.792
593.08	11.146
593.41	11.169
593.75	11.178
594.08	10.906
594.41	10.673
594.75	11.192
595.08	10.935
595.42	10.779
595.75	11.172
596.09	10.640
596.42	10.641
596.75	10.807
597.09	10.505
597.42	10.290
597.75	10.819
598.09	11.151
598.42	10.655
598.76	10.432
599.09	10.573
599.42	10.795
599.76	10.664
600.09	10.410
600.42	10.677
600.76	10.601
601.09	10.521
601.42	10.539
601.76	10.552
602.09	10.650
602.42	10.105
602.76	10.221
603.09	10.132
603.42	10.224
603.76	9.937
604.09	10.965
604.42	10.495
604.76	10.008
605.09	10.371
605.42	10.566
605.75	9.731
606.09	10.302
606.42	10.325
606.75	9.670
607.09	9.716
607.42	10.135
607.75	9.848
608.08	9.945
608.42	9.875
608.75	9.411
609.08	10.017
609.41	9.484
609.75	9.420
610.08	10.114
610.41	9.686
610.74	9.286
611.07	9.725
611.41	9.731
611.74	9.099
612.07	10.145
612.40	9.506
612.73	9.535
613.07	9.829
613.40	9.913
613.73	8.859
614.06	9.666
614.39	9.524
614.72	8.831
615.06	9.336
615.39	9.183
615.72	9.573
616.05	9.713
616.38	9.233
616.71	9.822
617.05	8.466
617.38	9.417
617.71	8.477
618.04	9.606
618.37	9.727
618.70	9.276
619.03	7.826
619.36	8.323
619.69	8.456
620.03	8.663
620.36	8.773
620.69	8.328
621.02	8.005
621.35	8.926
621.68	8.749
622.01	7.972
622.34	8.020
622.67	8.179
623.00	7.355
623.33	8.958
623.66	9.079
623.99	7.834
624.32	9.162
624.65	8.044
624.99	8.908
625.32	8.687
625.65	8.901
625.98	8.814
626.31	8.788
626.64	9.084
626.97	7.952
627.30	7.441
627.63	8.027
627.96	9.309
628.29	8.872
628.62	6.549
628.95	7.362
629.28	6.882
629.61	7.492
629.94	6.778
630.26	7.627
630.59	8.463
630.92	7.359
631.25	8.140
631.58	8.098
631.91	6.279
632.24	6.148
632.57	7.970
632.90	8.124
633.23	6.224
633.56	6.531
633.89	6.612
634.22	7.484
634.55	7.307
634.88	5.303
635.20	7.427
635.53	6.328
635.86	7.367
636.19	7.847
636.52	8.122
636.85	5.822
637.18	6.549
637.51	6.667
637.83	7.752
638.16	6.567
638.49	7.277
638.82	6.539
639.15	4.582
639.48	6.236
639.81	6.813
640.13	7.774
640.46	3.758
640.79	4.902
641.12	5.839
641.45	5.646
641.77	7.959
642.10	6.299
642.43	6.649
642.76	6.098
643.09	5.753
643.41	5.182
643.74	5.103
644.07	6.345
644.40	3.960
644.73	4.499
645.05	4.993
645.38	5.899
645.71	4.839
646.04	6.887
646.36	4.672
646.69	4.141
647.02	7.034
647.35	6.107
647.67	5.475
648.00	4.140
648.33	5.255
648.66	5.706
648.98	3.401
649.31	4.330
649.64	5.976
649.96	5.836
650.29	5.285
650.62	4.385
650.94	3.453
651.27	3.443
651.60	4.678
651.92	4.863
652.25	4.776
652.58	5.089
652.90	3.634
653.23	5.775
653.56	4.708
653.88	7.163
654.21	5.352
654.54	5.636
654.86	3.966
655.19	4.141
655.52	7.901
655.84	9.957
656.17	11.417
656.49	16.187
656.82	17.477
657.15	13.741
657.47	10.466
657.80	7.668
658.13	5.733
658.45	7.661
658.78	8.752
659.10	8.126
659.43	8.049
659.75	6.688
660.08	6.050
660.41	5.294
660.73	4.105
661.06	2.937
661.38	3.509
661.71	3.448
662.03	2.646
662.36	5.188
662.68	1.126
663.01	1.593
663.33	2.268
663.66	3.846
663.98	2.115
664.31	2.627
664.63	-0.578
664.96	1.633
665.28	0.907
665.61	4.720
665.93	3.571
666.26	4.301
666.58	1.845
666.91	4.112
667.23	3.238
667.56	2.170
667.88	2.600
668.21	0.391
668.53	-0.772
668.86	2.554
669.18	0.000
669.50	2.982
669.83	0.600
670.15	1.575
670.48	0.794
670.80	2.294
671.13	1.890
671.45	0.787
671.77	3.766
672.10	3.833
672.42	2.427
672.75	3.533
673.07	3.881
673.39	4.314
673.72	3.188
674.04	2.931
674.37	1.789
674.69	4.938
675.01	1.333
675.34	3.244
675.66	1.311
675.98	3.172
676.31	2.539
676.63	1.901
676.95	3.448
677.28	4.032
677.60	1.575
677.92	1.727
678.25	3.473
678.57	2.135
678.89	3.242
679.22	1.568
679.54	4.615
679.86	0.169
680.18	3.317
680.51	4.088
680.83	2.782
681.15	-0.345
681.48	2.073
681.80	4.836
682.12	4.021
682.44	3.506
682.77	3.014
683.09	2.273
683.41	1.744
683.73	3.036
684.06	2.214
684.38	0.894
684.70	3.232
685.02	4.819
685.34	1.830
685.67	2.208
685.99	2.914
686.31	3.198
686.63	2.370
686.96	2.208
687.28	2.606
687.60	2.020
687.92	2.894
688.24	4.007
688.56	1.379
688.89	1.996
689.21	2.935
689.53	0.784
689.85	-1.183
690.17	3.333
690.49	1.594
690.82	0.396
691.14	0.405
691.46	2.868
691.78	2.578
692.10	1.651
692.42	2.500
692.74	1.815
693.06	-0.556
693.39	3.226
693.71	1.128
694.03	0.558
694.35	2.476
694.67	3.080
694.99	-0.426
695.31	0.662
695.63	1.299
695.95	0.414
696.27	1.538
696.59	2.212
696.91	1.351
697.23	1.319
697.56	-1.629
697.88	0.379
698.20	1.883
698.52	4.735
698.84	1.663
699.16	2.857
699.48	1.255
699.80	0.213
700.12	0.437
700.44	-0.691
700.76	-1.900
701.08	0.000
701.40	0.000
701.72	-1.493
702.04	-2.941
702.36	-2.880
702.68	0.244
703.00	-0.733
703.32	0.493
703.64	0.733
703.96	1.671
704.28	-0.246
704.60	-0.506
704.91	-1.020
705.23	0.000
705.55	0.000
705.87	-1.515
706.19	0.000
706.51	-6.928
706.83	-4.611
707.15	-4.762
707.47	-0.701
707.79	0.437
708.11	-2.119
708.43	-0.645
708.74	-0.893
709.06	-1.160
709.38	2.347
709.70	-0.248
710.02	-2.067
710.34	0.798
710.66	-3.352
710.98	-1.093
711.29	-4.396
711.61	-2.260
711.93	-3.134
712.25	-2.703
712.57	-0.295
712.89	-1.471
713.20	-3.846
713.52	-2.312
713.84	-4.457
714.16	-1.053
714.48	-1.031
714.80	3.636
715.11	-2.100
715.43	-3.714
715.75	-2.368
716.07	-1.934
716.39	-0.820
716.70	-6.024
717.02	-1.311
717.34	-6.272
717.66	-6.040
717.97	-8.562
718.29	-4.811
718.61	-4.605
718.93	-3.560
719.24	-4.037
719.56	-3.067
719.88	-2.703
720.20	-6.129
720.51	-3.416
720.83	-5.000
721.15	-6.908
721.46	-10.616
721.78	-5.333
722.10	-3.236
722.42	-7.047
722.73	-3.548
723.05	-3.158
723.37	-6.597
723.68	-3.584
724.00	-5.776
724.32	-7.394
724.63	-5.245
724.95	-4.965
725.27	-1.394
725.58	-8.834
725.90	-1.379
726.22	-4.389
726.53	-3.247
726.85	-2.201
727.16	-3.323
727.48	-5.505
727.80	-3.642
728.11	-10.247
728.43	-5.724
728.74	-6.355
729.06	-6.954
729.38	-4.545
729.69	-8.054
730.01	-5.952
730.32	-6.970
730.64	-4.717
730.96	-6.832
731.27	1.955
731.59	-0.549
731.90	-3.377
732.22	-4.427
732.53	-5.249
732.85	-5.429
733.16	-1.760
733.48	-6.402
733.80	-4.178
734.11	-5.983
734.43	-0.541
734.74	0.506
735.06	-1.508
735.37	-3.243
735.69	-2.432
736.00	-0.565
736.32	-2.156
736.63	-4.167
736.95	-4.023
737.26	-3.636
737.58	-4.242
737.89	-1.765
738.21	-4.893
738.52	-6.557
738.83	-1.706
739.15	-6.738
739.46	-2.381
739.78	-3.067
740.09	-2.865
740.41	-1.749
740.72	-6.333
741.04	-5.502
741.35	-6.667
741.66	-6.275
741.98	-7.787
742.29	-7.113
742.61	-10.965
742.92	-8.462
743.23	-4.332
743.55	-6.589
743.86	-10.800
744.18	-11.983
744.49	-11.814
744.80	-5.761
745.12	-9.283
745.43	-8.537
745.74	-14.655
746.06	-8.475
746.37	-6.751
746.68	-3.659
747.00	-10.417
747.31	-8.155
747.62	-2.308
747.94	-8.097
748.25	-10.843
748.56	-13.061
748.88	-7.692
749.19	-10.345
749.50	-16.883
749.82	-5.221
750.13	-4.270
750.44	-9.000
750.75	-4.000
751.07	-3.692
751.38	-3.155
751.69	-6.390
752.01	-7.120
752.32	-4.902
752.63	-5.782
752.94	-7.612
753.26	-11.896
753.57	-9.259
753.88	-8.989
754.19	-3.215
754.51	-8.360
754.82	-6.752
755.13	-4.262
755.44	-4.778
755.75	-4.605
756.07	-2.090
756.38	-3.774
756.69	-1.506
757.00	-3.324
757.31	-1.366
757.63	-5.115
757.94	0.000
758.25	-2.032
758.56	-0.436
758.87	-0.227
759.18	-2.667
759.50	-1.416
759.81	-2.241
760.12	-4.582
760.43	-3.385
760.74	0.493
761.05	-0.250
761.36	-4.578
761.67	-3.046
761.99	-5.405
762.30	-7.317
762.61	-8.251
762.92	-4.851
763.23	-6.742
763.54	-8.993
763.85	-4.124
764.16	-4.714
764.47	-8.803
764.78	-2.875
765.10	-5.279
765.41	0.769
765.72	-3.439
766.03	-1.977
766.34	-4.702
766.65	-8.362
766.96	-6.375
767.27	-9.217
767.58	-12.935
767.89	-9.135
768.20	-13.615
768.51	-13.426
768.82	-8.434
769.13	-5.682
769.44	-12.308
769.75	-8.303
770.06	-10.769
770.37	-5.906
770.68	-8.936
770.99	-10.931
771.30	-2.593
771.61	-8.365
771.92	-7.407
772.23	-5.668
772.54	-15.741
772.85	-5.530
773.16	-10.476
773.47	-18.519
773.78	-16.757
774.09	-14.773
774.39	-8.000
774.70	-14.208
775.01	-23.171
775.32	-24.118
775.63	-19.018
775.94	-20.382
776.25	-18.710
776.56	-11.538
776.87	-13.605
777.18	-15.172
777.48	-21.678
777.79	-17.568
778.10	-18.382
778.41	-15.972
778.72	-18.621
779.03	-20.370
779.34	-16.970
779.65	-13.472
779.95	-14.444
780.26	-20.455
780.57	-20.645
780.88	-16.667
781.19	-15.484
781.50	-12.353
781.80	-10.753
782.11	-9.524
782.42	-10.606
782.73	-18.563
783.04	-16.760
783.34	-20.000
783.65	-24.183
783.96	-21.739
784.27	-17.857
784.57	-20.530
784.88	-20.714
785.19	-24.409
785.50	-20.472
785.81	-12.782
786.11	-19.231
786.42	-28.058
786.73	-25.899
787.04	-18.045
787.34	-29.508
787.65	-22.400
787.96	-23.881
788.26	-16.783
788.57	-16.084
788.88	-21.053
789.19	-11.111
789.49	-19.863
789.80	-17.021
790.11	-30.709
790.41	-18.750
790.72	-22.034
791.03	-38.835
791.33	-25.217
791.64	-20.175
791.95	-28.571
792.25	-28.571
792.56	-18.750
792.87	-25.000
793.17	-25.000
793.48	-42.708
793.79	-61.446
794.09	-32.110
794.40	-37.615
794.70	-19.728
795.01	-20.779
795.32	-25.342
795.62	-19.718
795.93	-23.485
796.23	-19.672
796.54	-31.250
796.85	-35.106
797.15	-40.217
797.46	-49.315
797.76	-50.000
798.07	-34.783
798.37	-35.052
798.68	-53.247
798.99	-41.379
799.29	-37.079
799.60	-32.979
799.90	-42.169
800.21	-73.846
800.51	-65.672
800.82	-73.529
801.12	-61.644
801.43	-60.294
801.73	-71.186
802.04	-50.000
802.34	-70.000
802.65	-62.712
802.95	-49.254
803.26	-71.186
803.56	-47.945
803.87	-42.857
804.17	-41.096
804.48	-63.158
804.78	-51.389
805.09	-77.586
805.39	-45.946
805.70	-64.789
806.00	-45.122
806.30	-40.964
806.61	-58.904
806.91	-28.846
807.22	-40.000
807.52	-48.276
807.83	-43.056
808.13	-32.530
808.43	-24.719
808.74	-43.750
809.04	-61.765
809.35	-57.333
809.65	-61.429
809.95	-45.205
810.26	-70.175
810.56	-75.862
810.86	-45.588
811.17	-78.947
811.47	-67.213
811.77	-108.889
812.08	-50.847
812.38	-61.667
812.69	-63.793
812.99	-83.019
813.29	-100.000
813.59	-50.000
813.90	-56.140
814.20	-69.091
814.50	-35.211
814.81	-42.308
815.11	-62.295
815.41	-56.716
815.72	-63.793
816.02	-42.857
816.32	-53.333
816.62	-88.636
816.93	-95.556
817.23	-62.963
817.53	-76.596
817.84	-90.476
818.14	-132.353
818.44	-61.224
818.74	-75.556
819.04	-120.513
819.35	-117.143
819.65	-184.615
819.95	-84.906
820.25	-80.000
820.56	-90.476
820.86	-125.000
821.16	-102.564
821.46	-97.674
821.76	-88.000
822.07	-75.000
822.37	-76.087
822.67	-91.489
822.97	-129.730
823.27	-82.500
823.57	-77.551
823.88	-57.778
824.18	-72.500
824.48	-143.333
824.78	-176.000
825.08	-142.424
825.38	-75.556
825.69	-80.851
825.99	-88.889
826.29	-154.286
826.59	-110.256
826.89	-102.326
827.19	-84.000
827.49	-85.294
827.79	-83.333
828.09	-94.595
828.39	-103.333
828.70	-87.805
829.00	-88.372
829.30	-135.714
829.60	-76.471
829.90	-73.913
830.20	-128.571
830.50	-127.586
830.80	-255.556
831.10	-180.769
831.40	-141.176
831.70	-214.286
832.00	-106.452
832.30	-347.059
832.60	-170.833
832.90	-369.231
833.20	-215.789
833.50	-250.000
833.80	-221.053
834.10	-261.905
834.40	-94.444
834.70	-115.625
835.00	-142.857
835.30	-91.176
835.60	-163.333
835.90	-172.000
836.20	-236.364
836.50	-176.000
836.80	-151.515
837.10	-137.037
837.40	-125.926
837.70	-281.250
838.00	-157.143
838.30	-182.609
838.60	-144.828
838.90	-350.000
839.19	-213.043
839.49	-391.667
839.79	-156.522
840.09	-262.500
840.39	-260.000
840.69	-90.323
840.99	-146.429
841.29	-273.333
841.59	-273.684
841.88	-84.615
842.18	-142.308
842.48	-460.000
842.78	-205.000
843.08	-116.667
843.38	-103.226
843.68	-261.111
843.97	-120.588
844.27	-237.500
844.57	-200.000
844.87	-420.000
845.17	-273.333
845.47	-171.429
845.76	-214.286
846.06	-544.444
846.36	-235.294
846.66	-146.154
846.96	-333.333
847.25	-270.588
847.55	-139.130
847.85	-190.000
848.15	-252.941
848.44	-354.545
848.74	-138.095
849.04	-204.167
849.34	-325.000
849.63	-134.783
849.93	2550.000
850.23	-220.000
850.53	-138.462
850.82	-454.545
851.12	-172.727
851.42	-409.091
851.71	-215.385
852.01	-235.000
852.31	-300.000
852.61	-189.474
852.90	-358.333
853.20	-211.111
853.50	-522.222
853.79	-242.857
854.09	-209.091
854.39	-358.333
854.68	-119.355
854.98	-176.923
855.28	-166.667
855.57	-117.857
855.87	-124.000
856.17	-190.909
856.46	-133.333
856.76	-238.889
857.05	-178.261
857.35	-175.000
857.65	-323.077
857.94	-185.714
858.24	-111.111
858.53	-143.478
858.83	-264.706
859.13	-247.059
859.42	-235.294
859.72	-257.143
860.01	-195.000
860.31	-422.222
860.60	-400.000
860.90	-253.333
861.20	-222.222
861.49	-330.769
861.79	-110.000
862.08	-323.077
862.38	-87.500
862.67	-194.118
862.97	-256.250
863.26	-566.667
863.56	-360.000
863.85	-409.091
864.15	-200.000
864.44	-1333.333
864.74	-328.571
865.03	-243.750
865.33	-470.000
865.62	-148.387
865.92	-159.091
866.21	-173.913
866.51	-321.429
866.80	-1060.000
867.10	-383.333
867.39	-358.333
867.69	5400.000
867.98	-600.000
868.27	-205.882
868.57	-5400.000
868.86	-450.000
869.16	-200.000
869.45	-175.000
869.75	-336.364
870.04	-571.429
870.33	-300.000
870.63	-614.286
870.92	-725.000
871.22	-575.000
871.51	-463.636
871.80	-1566.667
872.10	-2200.000
>>>>>End Processed Spectral Data<<<<<
