SpectraSuite Data File
++++++++++++++++++++++++++++++++++++
Date: Thu May 14 16:21:36 PDT 2015
User: schluterlab
Dark Spectrum Present: Yes
Reference Spectrum Present: Yes
Number of Sampled Component Spectra: 1
Spectrometers: USB2E3373
Integration Time (usec): 3000 (USB2E3373)
Spectra Averaged: 3 (USB2E3373)
Boxcar Smoothing: 0 (USB2E3373)
Correct for Electrical Dark: No (USB2E3373)
Strobe/Lamp Enabled: No (USB2E3373)
Correct for Detector Non-linearity: No (USB2E3373)
Correct for Stray Light: No (USB2E3373)
Number of Pixels in Processed Spectrum: 2048
>>>>>Begin Processed Spectral Data<<<<<
178.53	0.000
178.91	142.857
179.29	-800.000
179.67	-1300.000
180.04	221.429
180.42	90.000
180.80	220.000
181.18	-400.000
181.56	0.000
181.94	125.000
182.31	-100.000
182.69	266.667
183.07	-150.000
183.45	350.000
183.83	-83.333
184.20	-100.000
184.58	500.000
184.96	-250.000
185.34	-111.111
185.72	20.000
186.09	111.111
186.47	850.000
186.85	220.000
187.23	-122.222
187.61	-800.000
187.98	-20.000
188.36	325.000
188.74	-300.000
189.12	-266.667
189.49	37.500
189.87	62.500
190.25	-11.111
190.63	-20.000
191.00	-144.444
191.38	0.000
191.76	-400.000
192.14	-166.667
192.51	150.000
192.89	150.000
193.27	0.000
193.65	42.857
194.02	-1400.000
194.40	-100.000
194.78	128.571
195.15	0.000
195.53	-36.364
195.91	0.000
196.29	-275.000
196.66	-30.769
197.04	-300.000
197.42	28.571
197.79	-50.000
198.17	37.500
198.55	-171.429
198.92	-22.222
199.30	-87.500
199.68	-9.091
200.05	42.857
200.43	-550.000
200.81	157.143
201.18	0.000
201.56	55.556
201.94	0.000
202.31	166.667
202.69	-133.333
203.07	600.000
203.44	33.333
203.82	-200.000
204.19	-25.000
204.57	-233.333
204.95	-12.500
205.32	-300.000
205.70	200.000
206.08	0.000
206.45	33.333
206.83	200.000
207.20	0.000
207.58	-360.000
207.96	-166.667
208.33	83.333
208.71	141.667
209.08	50.000
209.46	0.000
209.84	233.333
210.21	350.000
210.59	50.000
210.96	566.667
211.34	0.000
211.71	-125.000
212.09	-300.000
212.46	0.000
212.84	550.000
213.22	-200.000
213.59	-100.000
213.97	90.000
214.34	-33.333
214.72	183.333
215.09	-250.000
215.47	0.000
215.84	142.857
216.22	950.000
216.59	-220.000
216.97	-60.000
217.34	-225.000
217.72	-100.000
218.09	-225.000
218.47	-250.000
218.84	0.000
219.22	140.000
219.59	35.294
219.97	35.000
220.34	750.000
220.72	-22.222
221.09	0.000
221.47	-233.333
221.84	-100.000
222.22	-28.571
222.59	0.000
222.97	-87.500
223.34	-200.000
223.72	-900.000
224.09	-175.000
224.46	-175.000
224.84	-180.000
225.21	-85.714
225.59	-200.000
225.96	-300.000
226.34	23.077
226.71	116.667
227.08	-350.000
227.46	13.333
227.83	-150.000
228.21	-10.526
228.58	125.000
228.95	550.000
229.33	-8.333
229.70	-40.000
230.08	68.421
230.45	110.000
230.82	33.333
231.20	14.286
231.57	83.333
231.95	-9.091
232.32	18.182
232.69	35.000
233.07	-300.000
233.44	-17.647
233.81	-50.000
234.19	5.556
234.56	27.273
234.93	51.724
235.31	26.316
235.68	27.778
236.05	30.000
236.43	69.231
236.80	52.000
237.17	40.741
237.55	-6.061
237.92	0.000
238.29	38.710
238.67	13.636
239.04	22.222
239.41	23.810
239.79	52.174
240.16	24.074
240.53	32.609
240.91	31.373
241.28	31.148
241.65	28.358
242.02	32.432
242.40	44.615
242.77	28.000
243.14	21.951
243.51	21.053
243.89	30.769
244.26	24.752
244.63	26.471
245.00	37.383
245.38	25.439
245.75	18.584
246.12	28.571
246.49	41.085
246.87	38.571
247.24	32.450
247.61	32.237
247.98	31.544
248.36	34.568
248.73	27.607
249.10	26.776
249.47	34.826
249.84	35.079
250.22	30.052
250.59	35.556
250.96	30.000
251.33	30.102
251.70	32.906
252.08	33.333
252.45	37.295
252.82	37.190
253.19	30.859
253.56	35.741
253.94	35.769
254.31	31.439
254.68	36.014
255.05	37.459
255.42	34.354
255.79	33.981
256.16	34.106
256.54	32.119
256.91	37.377
257.28	32.787
257.65	35.669
258.02	31.563
258.39	32.764
258.76	37.615
259.14	35.920
259.51	32.565
259.88	31.728
260.25	37.222
260.62	32.329
260.99	36.885
261.36	35.389
261.73	31.830
262.10	38.462
262.47	32.708
262.85	38.636
263.22	33.766
263.59	29.737
263.96	34.783
264.33	34.527
264.70	36.790
265.07	36.993
265.44	34.694
265.81	33.102
266.18	36.735
266.55	34.598
266.92	33.030
267.29	38.293
267.66	36.364
268.03	33.188
268.40	30.480
268.77	33.713
269.14	34.361
269.51	35.746
269.88	38.115
270.25	34.004
270.62	34.599
270.99	34.747
271.36	34.059
271.73	35.953
272.10	36.874
272.47	34.669
272.84	32.329
273.21	34.269
273.58	34.879
273.95	32.500
274.32	32.510
274.69	33.269
275.06	35.714
275.43	33.272
275.80	32.628
276.17	30.741
276.54	32.090
276.91	33.095
277.28	33.996
277.65	35.727
278.02	35.478
278.39	36.232
278.76	33.392
279.13	31.560
279.50	31.443
279.87	32.916
280.23	29.401
280.60	35.085
280.97	32.566
281.34	33.447
281.71	34.010
282.08	31.561
282.45	30.442
282.82	32.025
283.19	32.472
283.56	32.787
283.92	31.832
284.29	32.859
284.66	32.512
285.03	31.410
285.40	34.467
285.77	32.663
286.14	33.588
286.51	32.725
286.87	31.754
287.24	32.831
287.61	31.091
287.98	30.816
288.35	32.101
288.72	30.621
289.08	32.064
289.45	29.734
289.82	30.723
290.19	31.034
290.56	30.141
290.93	29.672
291.29	28.926
291.66	29.339
292.03	27.815
292.40	30.748
292.77	28.437
293.13	27.605
293.50	28.252
293.87	27.919
294.24	30.400
294.60	28.192
294.97	28.188
295.34	29.449
295.71	27.743
296.08	28.424
296.44	28.064
296.81	27.527
297.18	26.152
297.55	26.533
297.91	26.216
298.28	25.592
298.65	26.040
299.02	26.682
299.38	26.773
299.75	24.883
300.12	27.662
300.48	26.843
300.85	25.984
301.22	26.174
301.59	25.571
301.95	26.215
302.32	27.000
302.69	25.520
303.05	26.115
303.42	24.945
303.79	25.625
304.15	25.762
304.52	25.476
304.89	24.398
305.25	26.087
305.62	26.437
305.99	25.979
306.35	25.101
306.72	27.508
307.09	24.670
307.45	26.501
307.82	25.933
308.19	25.429
308.55	26.230
308.92	26.777
309.29	25.958
309.65	25.731
310.02	25.545
310.38	26.378
310.75	26.699
311.12	27.421
311.48	24.633
311.85	26.306
312.22	27.040
312.58	25.540
312.95	26.577
313.31	27.191
313.68	27.381
314.05	27.462
314.41	27.231
314.78	27.430
315.14	27.132
315.51	26.685
315.87	28.263
316.24	29.224
316.61	29.041
316.97	26.968
317.34	28.307
317.70	30.306
318.07	27.954
318.43	29.932
318.80	29.599
319.16	30.215
319.53	28.192
319.89	30.675
320.26	31.139
320.62	30.585
320.99	30.933
321.35	31.885
321.72	31.349
322.08	31.380
322.45	31.798
322.81	32.491
323.18	33.540
323.54	31.897
323.91	34.253
324.27	33.219
324.64	34.677
325.00	32.753
325.37	35.217
325.73	35.289
326.10	35.361
326.46	35.179
326.83	36.910
327.19	35.512
327.56	35.652
327.92	36.035
328.29	37.016
328.65	35.930
329.01	37.479
329.38	37.237
329.74	38.442
330.11	38.185
330.47	37.405
330.84	38.157
331.20	37.667
331.56	38.562
331.93	37.992
332.29	37.966
332.66	37.542
333.02	37.688
333.38	36.913
333.75	39.394
334.11	37.698
334.48	38.696
334.84	39.592
335.20	37.951
335.57	39.039
335.93	37.934
336.29	36.938
336.66	38.267
337.02	40.217
337.38	39.371
337.75	38.843
338.11	40.202
338.47	39.454
338.84	38.494
339.20	37.911
339.56	38.797
339.93	39.491
340.29	38.486
340.65	38.767
341.02	40.543
341.38	41.310
341.74	38.902
342.11	40.225
342.47	38.364
342.83	39.855
343.20	40.801
343.56	38.733
343.92	40.673
344.28	40.547
344.65	39.612
345.01	38.924
345.37	41.213
345.73	39.283
346.10	40.640
346.46	39.794
346.82	39.775
347.19	40.413
347.55	40.744
347.91	40.267
348.27	39.833
348.63	40.823
349.00	39.821
349.36	40.818
349.72	39.583
350.08	39.822
350.45	40.076
350.81	40.724
351.17	41.053
351.53	41.319
351.89	40.623
352.26	41.493
352.62	41.493
352.98	41.145
353.34	41.374
353.70	42.065
354.07	41.058
354.43	42.293
354.79	41.286
355.15	40.986
355.51	41.959
355.87	42.109
356.24	41.977
356.60	41.537
356.96	42.624
357.32	40.743
357.68	40.410
358.04	42.290
358.40	42.313
358.77	41.959
359.13	41.728
359.49	40.372
359.85	41.987
360.21	42.109
360.57	41.350
360.93	41.819
361.29	42.596
361.66	42.650
362.02	42.589
362.38	42.024
362.74	41.620
363.10	43.398
363.46	42.729
363.82	42.543
364.18	43.561
364.54	43.638
364.90	44.080
365.26	44.276
365.62	42.600
365.98	43.907
366.35	42.550
366.71	44.558
367.07	42.896
367.43	43.926
367.79	43.265
368.15	44.147
368.51	44.114
368.87	44.807
369.23	44.067
369.59	45.287
369.95	43.678
370.31	43.754
370.67	43.054
371.03	44.598
371.39	42.713
371.75	44.635
372.11	43.767
372.47	44.347
372.83	43.717
373.19	43.629
373.55	45.325
373.91	43.899
374.27	42.820
374.63	44.790
374.99	44.363
375.35	44.481
375.71	45.097
376.07	44.545
376.42	45.466
376.78	45.183
377.14	43.419
377.50	45.478
377.86	45.874
378.22	44.970
378.58	44.590
378.94	44.894
379.30	45.226
379.66	45.503
380.02	43.566
380.38	45.334
380.74	45.465
381.09	46.051
381.45	45.511
381.81	46.311
382.17	45.428
382.53	44.795
382.89	44.357
383.25	45.369
383.61	45.139
383.97	45.524
384.32	46.531
384.68	44.374
385.04	45.055
385.40	45.551
385.76	46.073
386.12	45.961
386.48	44.647
386.83	46.544
387.19	45.307
387.55	45.951
387.91	46.233
388.27	45.958
388.62	45.074
388.98	45.403
389.34	45.433
389.70	45.904
390.06	46.596
390.42	45.000
390.77	45.635
391.13	45.246
391.49	46.437
391.85	45.455
392.20	45.670
392.56	45.481
392.92	46.401
393.28	45.771
393.64	44.860
393.99	45.904
394.35	47.371
394.71	47.066
395.07	45.509
395.42	45.460
395.78	46.923
396.14	46.583
396.50	46.021
396.85	45.677
397.21	46.272
397.57	45.524
397.92	45.876
398.28	44.921
398.64	43.764
399.00	44.398
399.35	44.660
399.71	45.978
400.07	45.143
400.42	44.936
400.78	45.891
401.14	45.248
401.49	46.049
401.85	44.884
402.21	45.771
402.57	46.596
402.92	46.454
403.28	43.794
403.63	46.062
403.99	44.418
404.35	46.049
404.70	45.382
405.06	44.565
405.42	45.902
405.77	45.420
406.13	44.354
406.49	45.270
406.84	44.931
407.20	45.109
407.55	45.609
407.91	44.626
408.27	44.582
408.62	45.317
408.98	43.993
409.34	44.692
409.69	45.612
410.05	45.545
410.40	44.954
410.76	45.653
411.11	44.594
411.47	44.840
411.83	45.091
412.18	45.602
412.54	45.406
412.89	44.587
413.25	45.429
413.60	44.630
413.96	44.522
414.31	43.739
414.67	43.769
415.03	43.877
415.38	45.334
415.74	43.128
416.09	44.787
416.45	42.830
416.80	42.962
417.16	43.934
417.51	44.458
417.87	42.673
418.22	44.551
418.58	44.052
418.93	44.354
419.29	44.390
419.64	43.217
420.00	44.214
420.35	42.729
420.71	43.481
421.06	43.991
421.42	42.947
421.77	42.111
422.12	42.653
422.48	43.420
422.83	43.702
423.19	43.183
423.54	43.529
423.90	42.794
424.25	44.267
424.61	42.824
424.96	42.284
425.31	42.781
425.67	42.673
426.02	42.446
426.38	43.456
426.73	42.690
427.09	41.869
427.44	41.453
427.79	42.399
428.15	41.324
428.50	41.798
428.85	41.906
429.21	42.872
429.56	41.807
429.92	41.327
430.27	42.699
430.62	41.182
430.98	40.334
431.33	41.496
431.68	41.906
432.04	41.595
432.39	42.046
432.74	39.897
433.10	40.779
433.45	41.304
433.80	41.148
434.16	41.581
434.51	42.035
434.86	41.857
435.22	42.136
435.57	41.863
435.92	40.234
436.28	41.126
436.63	41.562
436.98	41.385
437.34	40.643
437.69	40.341
438.04	41.036
438.39	40.609
438.75	41.063
439.10	41.068
439.45	40.693
439.81	40.791
440.16	39.410
440.51	40.803
440.86	40.022
441.22	40.193
441.57	39.832
441.92	39.913
442.27	40.707
442.63	40.686
442.98	40.448
443.33	40.400
443.68	40.139
444.03	41.533
444.39	40.823
444.74	39.306
445.09	38.976
445.44	40.674
445.79	39.751
446.15	39.568
446.50	38.553
446.85	39.640
447.20	39.023
447.55	40.272
447.91	38.796
448.26	39.165
448.61	38.310
448.96	39.861
449.31	39.236
449.66	38.617
450.02	38.713
450.37	39.265
450.72	39.397
451.07	38.554
451.42	40.208
451.77	38.410
452.12	39.673
452.47	36.958
452.83	39.245
453.18	37.945
453.53	38.656
453.88	38.266
454.23	38.249
454.58	38.015
454.93	38.228
455.28	38.110
455.63	37.294
455.98	37.765
456.34	37.397
456.69	37.507
457.04	37.766
457.39	37.583
457.74	38.255
458.09	36.683
458.44	37.716
458.79	36.772
459.14	36.759
459.49	36.672
459.84	36.569
460.19	36.313
460.54	36.740
460.89	36.686
461.24	35.345
461.59	37.521
461.94	35.254
462.29	36.842
462.64	36.029
462.99	36.472
463.34	36.470
463.69	35.580
464.04	36.187
464.39	35.650
464.74	36.545
465.09	35.525
465.44	36.749
465.79	35.643
466.14	34.549
466.49	35.737
466.84	35.647
467.19	35.087
467.54	34.783
467.89	34.195
468.24	34.571
468.59	33.874
468.94	34.732
469.29	33.353
469.64	33.566
469.99	33.971
470.34	34.901
470.68	35.133
471.03	34.512
471.38	33.748
471.73	34.200
472.08	34.391
472.43	34.196
472.78	33.186
473.13	33.249
473.48	34.320
473.83	33.894
474.17	32.474
474.52	33.554
474.87	32.946
475.22	34.254
475.57	33.645
475.92	33.250
476.27	33.014
476.61	33.178
476.96	31.804
477.31	33.713
477.66	32.896
478.01	32.232
478.36	32.502
478.70	32.709
479.05	32.873
479.40	33.317
479.75	32.709
480.10	32.686
480.45	31.723
480.79	31.519
481.14	32.261
481.49	31.985
481.84	31.288
482.19	31.742
482.53	32.226
482.88	32.344
483.23	31.080
483.58	31.572
483.92	31.117
484.27	32.007
484.62	31.518
484.97	31.026
485.31	31.045
485.66	29.841
486.01	30.674
486.36	31.257
486.70	31.840
487.05	32.290
487.40	31.669
487.75	31.399
488.09	31.192
488.44	30.795
488.79	30.860
489.13	30.883
489.48	30.058
489.83	30.342
490.17	29.486
490.52	29.926
490.87	29.738
491.22	31.109
491.56	29.949
491.91	30.004
492.26	29.857
492.60	30.345
492.95	29.925
493.30	30.121
493.64	29.873
493.99	29.605
494.34	29.007
494.68	29.165
495.03	30.441
495.37	29.516
495.72	30.385
496.07	29.185
496.41	28.571
496.76	29.399
497.11	29.427
497.45	29.909
497.80	29.231
498.14	29.388
498.49	28.217
498.84	29.250
499.18	29.870
499.53	28.924
499.87	28.615
500.22	28.451
500.56	28.655
500.91	28.924
501.26	28.818
501.60	28.414
501.95	28.181
502.29	29.179
502.64	29.296
502.98	28.171
503.33	27.603
503.67	27.606
504.02	27.452
504.36	28.284
504.71	28.204
505.06	28.240
505.40	27.971
505.75	27.641
506.09	28.177
506.44	27.112
506.78	28.532
507.13	27.570
507.47	27.807
507.82	27.936
508.16	27.342
508.51	26.770
508.85	27.775
509.19	26.765
509.54	27.858
509.88	27.295
510.23	28.606
510.57	28.855
510.92	27.915
511.26	26.696
511.61	26.461
511.95	27.330
512.30	27.376
512.64	26.837
512.98	26.813
513.33	27.520
513.67	26.721
514.02	27.900
514.36	27.110
514.70	27.135
515.05	27.007
515.39	27.507
515.74	27.359
516.08	26.889
516.42	27.420
516.77	26.604
517.11	26.044
517.46	26.458
517.80	27.312
518.14	26.931
518.49	26.844
518.83	26.450
519.17	25.848
519.52	26.048
519.86	26.769
520.20	27.210
520.55	26.342
520.89	26.633
521.23	26.298
521.58	26.384
521.92	26.799
522.26	25.830
522.61	25.752
522.95	26.125
523.29	26.207
523.64	25.617
523.98	26.868
524.32	26.762
524.66	25.726
525.01	25.651
525.35	25.330
525.69	25.290
526.04	25.488
526.38	26.494
526.72	25.894
527.06	25.630
527.41	25.948
527.75	24.822
528.09	26.151
528.43	25.222
528.78	25.723
529.12	25.573
529.46	24.902
529.80	26.316
530.15	26.029
530.49	24.555
530.83	25.089
531.17	25.388
531.51	25.511
531.86	25.361
532.20	25.122
532.54	25.733
532.88	26.000
533.22	24.985
533.57	25.851
533.91	26.263
534.25	25.947
534.59	25.230
534.93	25.184
535.27	25.070
535.62	26.208
535.96	25.450
536.30	25.734
536.64	25.405
536.98	25.277
537.32	25.802
537.66	26.263
538.01	24.411
538.35	24.421
538.69	25.120
539.03	25.138
539.37	25.442
539.71	25.285
540.05	25.300
540.39	24.878
540.73	24.347
541.07	25.138
541.42	24.808
541.76	24.792
542.10	23.884
542.44	23.812
542.78	25.122
543.12	24.851
543.46	24.237
543.80	24.520
544.14	24.835
544.48	24.409
544.82	25.135
545.16	25.283
545.50	24.805
545.84	24.250
546.18	24.568
546.52	24.522
546.86	24.465
547.20	25.000
547.54	24.719
547.88	23.568
548.22	24.211
548.56	23.523
548.90	24.358
549.24	24.620
549.58	24.479
549.92	24.107
550.26	25.113
550.60	23.612
550.94	24.450
551.28	23.498
551.62	24.191
551.96	22.913
552.30	24.028
552.64	24.456
552.98	23.893
553.32	24.116
553.66	23.473
554.00	23.960
554.34	23.552
554.68	23.047
555.02	23.982
555.36	25.181
555.69	23.959
556.03	23.897
556.37	24.531
556.71	23.526
557.05	24.217
557.39	23.689
557.73	24.108
558.07	23.576
558.41	23.920
558.75	23.327
559.08	24.078
559.42	23.320
559.76	24.423
560.10	23.041
560.44	23.681
560.78	24.312
561.12	23.337
561.45	23.236
561.79	24.237
562.13	23.475
562.47	22.688
562.81	23.924
563.15	23.801
563.48	23.866
563.82	23.761
564.16	22.592
564.50	23.302
564.84	23.422
565.17	23.882
565.51	22.727
565.85	23.812
566.19	23.445
566.52	23.406
566.86	23.713
567.20	22.349
567.54	23.261
567.88	23.802
568.21	24.457
568.55	23.693
568.89	23.786
569.23	23.701
569.56	23.408
569.90	23.699
570.24	24.283
570.57	23.894
570.91	23.913
571.25	24.270
571.59	24.214
571.92	24.147
572.26	23.187
572.60	23.724
572.93	23.240
573.27	23.658
573.61	24.352
573.95	24.205
574.28	23.593
574.62	23.647
574.96	23.511
575.29	22.979
575.63	23.054
575.97	23.473
576.30	23.267
576.64	23.908
576.98	22.938
577.31	23.412
577.65	23.690
577.98	23.870
578.32	23.571
578.66	23.389
578.99	23.674
579.33	23.544
579.67	23.413
580.00	22.994
580.34	23.277
580.67	23.080
581.01	23.042
581.35	23.378
581.68	23.620
582.02	23.664
582.35	23.709
582.69	23.828
583.02	24.070
583.36	23.496
583.70	23.017
584.03	23.254
584.37	23.081
584.70	23.521
585.04	23.041
585.37	23.310
585.71	23.387
586.04	23.118
586.38	23.584
586.72	23.114
587.05	22.794
587.39	23.510
587.72	22.608
588.06	23.308
588.39	22.903
588.73	22.910
589.06	23.251
589.40	22.741
589.73	22.719
590.07	23.309
590.40	22.989
590.73	22.128
591.07	22.673
591.40	22.551
591.74	22.655
592.07	23.264
592.41	22.161
592.74	22.471
593.08	23.217
593.41	23.418
593.75	23.161
594.08	22.811
594.41	23.013
594.75	22.517
595.08	22.308
595.42	22.532
595.75	22.796
596.09	22.907
596.42	22.716
596.75	22.810
597.09	22.586
597.42	22.725
597.75	22.187
598.09	22.619
598.42	22.598
598.76	22.048
599.09	22.464
599.42	22.092
599.76	22.648
600.09	22.890
600.42	22.289
600.76	22.193
601.09	22.635
601.42	21.970
601.76	22.276
602.09	22.016
602.42	21.992
602.76	22.214
603.09	22.137
603.42	22.905
603.76	22.375
604.09	23.385
604.42	22.275
604.76	21.728
605.09	22.138
605.42	22.767
605.75	21.731
606.09	22.434
606.42	22.109
606.75	21.589
607.09	21.774
607.42	21.464
607.75	22.313
608.08	22.021
608.42	21.765
608.75	21.932
609.08	21.732
609.41	22.364
609.75	21.920
610.08	22.164
610.41	22.387
610.74	21.891
611.07	21.758
611.41	22.377
611.74	22.217
612.07	21.692
612.40	22.101
612.73	21.858
613.07	21.907
613.40	21.704
613.73	22.436
614.06	21.688
614.39	21.817
614.72	21.883
615.06	21.655
615.39	20.976
615.72	21.517
616.05	20.495
616.38	21.796
616.71	22.205
617.05	21.033
617.38	21.937
617.71	22.138
618.04	21.533
618.37	21.585
618.70	22.059
619.03	20.490
619.36	21.393
619.69	21.397
620.03	21.281
620.36	20.859
620.69	20.728
621.02	21.260
621.35	21.480
621.68	22.054
622.01	21.637
622.34	20.223
622.67	20.687
623.00	20.378
623.33	21.632
623.66	22.763
623.99	20.935
624.32	21.767
624.65	20.978
624.99	20.871
625.32	21.555
625.65	21.106
625.98	20.000
626.31	20.765
626.64	22.784
626.97	19.580
627.30	19.286
627.63	20.855
627.96	21.171
628.29	20.778
628.62	20.403
628.95	21.823
629.28	20.476
629.61	20.539
629.94	20.335
630.26	20.085
630.59	20.898
630.92	19.654
631.25	22.272
631.58	20.810
631.91	20.619
632.24	19.500
632.57	20.114
632.90	20.060
633.23	19.490
633.56	19.898
633.89	19.835
634.22	21.726
634.55	20.355
634.88	18.506
635.20	22.067
635.53	19.435
635.86	20.585
636.19	22.163
636.52	20.570
636.85	21.144
637.18	19.647
637.51	19.570
637.83	21.484
638.16	21.313
638.49	20.423
638.82	20.293
639.15	19.473
639.48	21.016
639.81	19.630
640.13	19.317
640.46	18.424
640.79	19.363
641.12	20.373
641.45	17.817
641.77	20.668
642.10	18.110
642.43	21.676
642.76	18.970
643.09	17.808
643.41	18.908
643.74	19.034
644.07	20.966
644.40	19.236
644.73	19.739
645.05	19.236
645.38	21.151
645.71	19.355
646.04	20.947
646.36	17.518
646.69	20.092
647.02	21.101
647.35	20.458
647.67	18.841
648.00	18.949
648.33	20.420
648.66	20.399
648.98	20.272
649.31	20.433
649.64	20.452
649.96	20.027
650.29	18.498
650.62	18.812
650.94	18.318
651.27	18.713
651.60	18.567
651.92	18.693
652.25	18.813
652.58	19.532
652.90	17.442
653.23	19.718
653.56	17.689
653.88	20.646
654.21	18.873
654.54	18.497
654.86	18.272
655.19	19.573
655.52	21.468
655.84	22.889
656.17	27.806
656.49	38.290
656.82	41.614
657.15	31.684
657.47	23.442
657.80	17.167
658.13	13.307
658.45	17.421
658.78	21.332
659.10	20.749
659.43	19.958
659.75	19.578
660.08	20.448
660.41	17.370
660.73	18.472
661.06	16.740
661.38	17.703
661.71	19.310
662.03	17.284
662.36	19.320
662.68	18.762
663.01	19.823
663.33	20.038
663.66	19.414
663.98	19.808
664.31	18.949
664.63	18.112
664.96	18.875
665.28	17.423
665.61	18.531
665.93	18.036
666.26	17.204
666.58	16.605
666.91	19.626
667.23	18.667
667.56	17.357
667.88	19.400
668.21	16.992
668.53	15.251
668.86	19.057
669.18	16.497
669.50	18.887
669.83	17.400
670.15	20.472
670.48	19.048
670.80	18.164
671.13	17.958
671.45	17.717
671.77	20.339
672.10	17.667
672.42	19.094
672.75	19.048
673.07	19.254
673.39	18.336
673.72	19.463
674.04	19.655
674.37	17.889
674.69	20.282
675.01	17.905
675.34	16.221
675.66	18.352
675.98	16.604
676.31	17.969
676.63	19.962
676.95	18.966
677.28	15.323
677.60	16.142
677.92	19.386
678.25	19.013
678.57	19.039
678.89	20.990
679.22	20.035
679.54	18.462
679.86	17.288
680.18	17.413
680.51	17.453
680.83	18.167
681.15	19.483
681.48	18.826
681.80	20.207
682.12	17.832
682.44	20.033
682.77	17.021
683.09	16.288
683.41	18.217
683.73	18.027
684.06	18.450
684.38	17.174
684.70	19.569
685.02	18.244
685.34	18.636
685.67	17.035
685.99	18.252
686.31	16.134
686.63	19.589
686.96	17.981
687.28	17.590
687.60	17.340
687.92	17.203
688.24	19.199
688.56	15.517
688.89	17.604
689.21	19.178
689.53	16.863
689.85	17.357
690.17	18.704
690.49	18.526
690.82	16.634
691.14	17.004
691.46	19.694
691.78	19.705
692.10	19.266
692.42	16.071
692.74	18.875
693.06	15.370
693.39	18.406
693.71	17.857
694.03	18.401
694.35	17.143
694.67	17.043
694.99	18.723
695.31	16.556
695.63	16.450
695.95	15.942
696.27	17.363
696.59	19.027
696.91	17.568
697.23	20.220
697.56	18.126
697.88	18.182
698.20	18.267
698.52	21.402
698.84	18.295
699.16	17.143
699.48	16.946
699.80	17.021
700.12	17.686
700.44	18.433
700.76	15.677
701.08	15.738
701.40	18.653
701.72	17.662
702.04	14.706
702.36	12.565
702.68	17.115
703.00	17.604
703.32	16.010
703.64	17.604
703.96	15.990
704.28	14.742
704.60	16.709
704.91	20.918
705.23	16.164
705.55	18.663
705.87	16.667
706.19	17.178
706.51	16.867
706.83	18.444
707.15	15.608
707.47	16.822
707.79	14.847
708.11	15.678
708.43	15.914
708.74	14.955
709.06	17.401
709.38	19.953
709.70	17.370
710.02	18.088
710.34	16.489
710.66	15.363
710.98	15.301
711.29	15.110
711.61	19.209
711.93	19.088
712.25	16.486
712.57	19.764
712.89	16.471
713.20	15.680
713.52	17.630
713.84	15.877
714.16	17.895
714.48	18.557
714.80	21.039
715.11	18.635
715.43	17.507
715.75	17.368
716.07	17.956
716.39	16.120
716.70	15.964
717.02	15.738
717.34	12.544
717.66	16.779
717.97	14.726
718.29	17.182
718.61	17.763
718.93	13.916
719.24	13.665
719.56	18.098
719.88	15.916
720.20	14.516
720.51	16.460
720.83	16.563
721.15	16.447
721.46	17.123
721.78	15.333
722.10	17.152
722.42	12.416
722.73	14.839
723.05	15.789
723.37	18.056
723.68	19.713
724.00	16.968
724.32	14.789
724.63	15.734
724.95	20.213
725.27	16.376
725.58	18.021
725.90	20.690
726.22	16.301
726.53	18.182
726.85	18.868
727.16	15.710
727.48	21.407
727.80	15.894
728.11	15.548
728.43	18.519
728.74	20.401
729.06	13.907
729.38	18.831
729.69	15.772
730.01	19.048
730.32	12.727
730.64	20.755
730.96	14.596
731.27	18.994
731.59	17.582
731.90	15.844
732.22	18.490
732.53	14.917
732.85	16.286
733.16	18.182
733.48	14.939
733.80	15.599
734.11	16.809
734.43	17.568
734.74	22.785
735.06	19.849
735.37	20.000
735.69	17.297
736.00	20.056
736.32	16.712
736.63	17.500
736.95	16.092
737.26	20.303
737.58	16.364
737.89	17.941
738.21	14.985
738.52	18.033
738.83	17.406
739.15	19.149
739.46	20.408
739.78	22.086
740.09	14.900
740.41	18.950
740.72	14.667
741.04	16.181
741.35	16.140
741.66	14.902
741.98	20.082
742.29	14.644
742.61	12.719
742.92	16.923
743.23	23.105
743.55	17.054
743.86	16.000
744.18	13.223
744.49	12.236
744.80	16.872
745.12	14.768
745.43	18.699
745.74	10.776
746.06	13.136
746.37	17.300
746.68	16.260
747.00	14.167
747.31	15.451
747.62	18.077
747.94	15.385
748.25	12.048
748.56	12.653
748.88	17.521
749.19	17.241
749.50	16.450
749.82	20.080
750.13	20.996
750.44	15.000
750.75	16.615
751.07	17.846
751.38	18.927
751.69	14.696
752.01	12.298
752.32	15.686
752.63	15.986
752.94	15.917
753.26	10.409
753.57	17.407
753.88	16.105
754.19	17.363
754.51	18.006
754.82	18.328
755.13	18.033
755.44	15.700
755.75	15.132
756.07	14.627
756.38	17.925
756.69	17.771
757.00	15.512
757.31	18.306
757.63	15.601
757.94	17.840
758.25	20.542
758.56	18.954
758.87	18.182
759.18	16.267
759.50	17.847
759.81	17.647
760.12	18.059
760.43	18.229
760.74	17.980
761.05	17.000
761.36	15.904
761.67	17.259
761.99	16.486
762.30	18.293
762.61	14.191
762.92	15.299
763.23	17.978
763.54	15.827
763.85	17.869
764.16	17.845
764.47	16.549
764.78	23.003
765.10	17.009
765.41	22.051
765.72	15.344
766.03	20.339
766.34	14.420
766.65	12.892
766.96	13.546
767.27	16.129
767.58	9.453
767.89	22.115
768.20	20.188
768.51	12.037
768.82	16.064
769.13	17.803
769.44	11.923
769.75	20.939
770.06	14.615
770.37	20.866
770.68	12.766
770.99	9.312
771.30	22.222
771.61	18.631
771.92	15.185
772.23	19.433
772.54	11.574
772.85	17.051
773.16	20.476
773.47	13.757
773.78	13.514
774.09	11.364
774.39	24.500
774.70	13.115
775.01	20.732
775.32	9.412
775.63	13.497
775.94	14.013
776.25	17.419
776.56	18.590
776.87	21.769
777.18	19.310
777.48	10.490
777.79	10.135
778.10	8.088
778.41	10.417
778.72	17.931
779.03	14.815
779.34	15.152
779.65	17.098
779.95	12.778
780.26	12.500
780.57	18.710
780.88	21.739
781.19	18.710
781.50	17.059
781.80	20.968
782.11	17.460
782.42	12.626
782.73	8.982
783.04	17.877
783.34	18.788
783.65	13.072
783.96	13.665
784.27	16.667
784.57	12.583
784.88	17.143
785.19	7.087
785.50	11.024
785.81	18.045
786.11	21.538
786.42	10.072
786.73	13.669
787.04	12.782
787.34	11.475
787.65	23.200
787.96	16.418
788.26	19.580
788.57	24.476
788.88	16.447
789.19	19.608
789.49	14.384
789.80	17.730
790.11	14.961
790.41	12.500
790.72	17.797
791.03	9.709
791.33	18.261
791.64	14.035
791.95	7.143
792.25	20.000
792.56	18.750
792.87	16.667
793.17	14.286
793.48	21.875
793.79	1.205
794.09	9.174
794.40	8.257
794.70	12.245
795.01	12.987
795.32	9.589
795.62	12.676
795.93	8.333
796.23	15.574
796.54	7.143
796.85	12.766
797.15	19.565
797.46	8.219
797.76	6.250
798.07	6.522
798.37	7.216
798.68	7.792
798.99	12.644
799.29	10.112
799.60	7.447
799.90	1.205
800.21	3.077
800.51	-1.493
800.82	-1.471
801.12	-6.849
801.43	4.412
801.73	1.695
802.04	10.606
802.34	-20.000
802.65	5.085
802.95	14.925
803.26	18.644
803.56	9.589
803.87	5.714
804.17	8.219
804.48	-17.544
804.78	-1.389
805.09	0.000
805.39	13.514
805.70	0.000
806.00	9.756
806.30	8.434
806.61	-5.479
806.91	2.885
807.22	12.222
807.52	11.494
807.83	27.778
808.13	24.096
808.43	12.360
808.74	-3.750
809.04	-10.294
809.35	12.000
809.65	0.000
809.95	20.548
810.26	8.772
810.56	12.069
810.86	17.647
811.17	10.526
811.47	1.639
811.77	-15.556
812.08	18.644
812.38	20.000
812.69	32.759
812.99	22.642
813.29	-17.949
813.59	14.000
813.90	14.035
814.20	16.364
814.50	22.535
814.81	16.667
815.11	26.230
815.41	13.433
815.72	22.414
816.02	23.214
816.32	24.444
816.62	15.909
816.93	-6.667
817.23	11.111
817.53	-2.128
817.84	2.381
818.14	-14.706
818.44	-2.041
818.74	2.222
819.04	-17.949
819.35	-2.857
819.65	-46.154
819.95	22.642
820.25	2.222
820.56	-4.762
820.86	9.375
821.16	2.564
821.46	11.628
821.76	-10.000
822.07	19.643
822.37	-2.174
822.67	-14.894
822.97	-40.541
823.27	20.000
823.57	16.327
823.88	24.444
824.18	20.000
824.48	-3.333
824.78	-4.000
825.08	27.273
825.38	17.778
825.69	17.021
825.99	8.333
826.29	-37.143
826.59	23.077
826.89	6.977
827.19	0.000
827.49	23.529
827.79	20.833
828.09	0.000
828.39	-20.000
828.70	-29.268
829.00	-18.605
829.30	-17.857
829.60	17.647
829.90	10.870
830.20	14.286
830.50	-3.448
830.80	-11.111
831.10	11.538
831.40	14.706
831.70	-28.571
832.00	51.613
832.30	-52.941
832.60	-33.333
832.90	-61.538
833.20	-10.526
833.50	-20.000
833.80	-21.053
834.10	-47.619
834.40	30.556
834.70	31.250
835.00	-42.857
835.30	41.176
835.60	-30.000
835.90	-12.000
836.20	-27.273
836.50	-12.000
836.80	-36.364
837.10	0.000
837.40	-29.630
837.70	-87.500
838.00	7.143
838.30	-21.739
838.60	31.034
838.90	-35.714
839.19	-78.261
839.49	-183.333
839.79	-17.391
840.09	-56.250
840.39	-20.000
840.69	45.161
840.99	-28.571
841.29	-26.667
841.59	-5.263
841.88	35.897
842.18	-19.231
842.48	-110.000
842.78	-30.000
843.08	23.333
843.38	9.677
843.68	-44.444
843.97	-5.882
844.27	-18.750
844.57	-52.632
844.87	-110.000
845.17	-66.667
845.47	14.286
845.76	-4.762
846.06	-100.000
846.36	-41.176
846.66	-19.231
846.96	-86.667
847.25	-41.176
847.55	-30.435
847.85	-55.000
848.15	-52.941
848.44	-27.273
848.74	0.000
849.04	-20.833
849.34	-31.250
849.63	8.696
849.93	600.000
850.23	-6.667
850.53	26.923
850.82	-72.727
851.12	-22.727
851.42	-81.818
851.71	30.769
852.01	-10.000
852.31	-100.000
852.61	-36.842
852.90	33.333
853.20	5.556
853.50	-88.889
853.79	-47.619
854.09	-4.545
854.39	-16.667
854.68	22.581
854.98	-34.615
855.28	-22.222
855.57	-14.286
855.87	20.000
856.17	9.091
856.46	3.704
856.76	22.222
857.05	8.696
857.35	-54.167
857.65	-107.692
857.94	33.333
858.24	18.519
858.53	-13.043
858.83	-64.706
859.13	-52.941
859.42	-5.882
859.72	21.429
860.01	0.000
860.31	-44.444
860.60	-60.000
860.90	-26.667
861.20	55.556
861.49	15.385
861.79	-20.000
862.08	-69.231
862.38	3.125
862.67	-29.412
862.97	12.500
863.26	-122.222
863.56	-80.000
863.85	-54.545
864.15	11.111
864.44	-300.000
864.74	-35.714
865.03	-37.500
865.33	-160.000
865.62	-51.613
865.92	9.091
866.21	26.087
866.51	-57.143
866.80	-80.000
867.10	-58.333
867.39	-75.000
867.69	1200.000
867.98	-85.714
868.27	41.176
868.57	-2000.000
868.86	-130.000
869.16	-42.857
869.45	-8.333
869.75	-54.545
870.04	42.857
870.33	0.000
870.63	-185.714
870.92	300.000
871.22	-237.500
871.51	-54.545
871.80	-400.000
872.10	-550.000
>>>>>End Processed Spectral Data<<<<<
