SpectraSuite Data File
++++++++++++++++++++++++++++++++++++
Date: Thu May 14 16:09:06 PDT 2015
User: schluterlab
Dark Spectrum Present: Yes
Reference Spectrum Present: Yes
Number of Sampled Component Spectra: 1
Spectrometers: USB2E3373
Integration Time (usec): 3000 (USB2E3373)
Spectra Averaged: 3 (USB2E3373)
Boxcar Smoothing: 0 (USB2E3373)
Correct for Electrical Dark: No (USB2E3373)
Strobe/Lamp Enabled: No (USB2E3373)
Correct for Detector Non-linearity: No (USB2E3373)
Correct for Stray Light: No (USB2E3373)
Number of Pixels in Processed Spectrum: 2048
>>>>>Begin Processed Spectral Data<<<<<
178.53	0.000
178.91	-0.000
179.29	-1300.000
179.67	-1600.000
180.04	257.143
180.42	130.000
180.80	360.000
181.18	-1200.000
181.56	-400.000
181.94	425.000
182.31	-250.000
182.69	533.333
183.07	-750.000
183.45	350.000
183.83	-150.000
184.20	133.333
184.58	900.000
184.96	-375.000
185.34	-111.111
185.72	-340.000
186.09	188.889
186.47	1150.000
186.85	360.000
187.23	-144.444
187.61	-2100.000
187.98	160.000
188.36	275.000
188.74	-450.000
189.12	-100.000
189.49	18.750
189.87	-125.000
190.25	-133.333
190.63	-220.000
191.00	-122.222
191.38	0.000
191.76	-475.000
192.14	-233.333
192.51	1000.000
192.89	-83.333
193.27	0.000
193.65	-114.286
194.02	-2100.000
194.40	-171.429
194.78	328.571
195.15	0.000
195.53	-90.909
195.91	0.000
196.29	-150.000
196.66	-76.923
197.04	-1600.000
197.42	-214.286
197.79	-300.000
198.17	-287.500
198.55	-200.000
198.92	-100.000
199.30	-150.000
199.68	-54.545
200.05	-78.571
200.43	-1150.000
200.81	400.000
201.18	0.000
201.56	266.667
201.94	0.000
202.31	633.333
202.69	-222.222
203.07	100.000
203.44	-122.222
203.82	-450.000
204.19	-66.667
204.57	-266.667
204.95	-100.000
205.32	-1200.000
205.70	325.000
206.08	-366.667
206.45	-116.667
206.83	580.000
207.20	-333.333
207.58	-340.000
207.96	-350.000
208.33	-16.667
208.71	158.333
209.08	-233.333
209.46	0.000
209.84	333.333
210.21	800.000
210.59	350.000
210.96	533.333
211.34	-150.000
211.71	-150.000
212.09	-800.000
212.46	0.000
212.84	850.000
213.22	-380.000
213.59	-175.000
213.97	-20.000
214.34	-633.333
214.72	300.000
215.09	-25.000
215.47	0.000
215.84	157.143
216.22	950.000
216.59	-340.000
216.97	-220.000
217.34	-200.000
217.72	-137.500
218.09	-400.000
218.47	-100.000
218.84	0.000
219.22	320.000
219.59	-58.824
219.97	5.000
220.34	1050.000
220.72	-200.000
221.09	-30.769
221.47	-166.667
221.84	-80.000
222.22	-242.857
222.59	0.000
222.97	-212.500
223.34	-540.000
223.72	-700.000
224.09	-425.000
224.46	-425.000
224.84	-240.000
225.21	-171.429
225.59	-275.000
225.96	-600.000
226.34	-26.923
226.71	383.333
227.08	-800.000
227.46	-86.667
227.83	-450.000
228.21	10.526
228.58	212.500
228.95	950.000
229.33	-25.000
229.70	-80.000
230.08	42.105
230.45	190.000
230.82	-400.000
231.20	-78.571
231.57	-25.000
231.95	-90.909
232.32	-81.818
232.69	-25.000
233.07	-275.000
233.44	-17.647
233.81	-70.000
234.19	-22.222
234.56	-40.909
234.93	6.897
235.31	-63.158
235.68	-33.333
236.05	-45.000
236.43	-7.692
236.80	20.000
237.17	29.630
237.55	-15.152
237.92	-190.000
238.29	-9.677
238.67	-18.182
239.04	2.778
239.41	4.762
239.79	-19.565
240.16	-7.407
240.53	-2.174
240.91	-7.843
241.28	-11.475
241.65	19.403
242.02	13.514
242.40	-15.385
242.77	-6.667
243.14	-10.976
243.51	-5.263
243.89	1.282
244.26	8.911
244.63	11.765
245.00	11.215
245.38	-2.632
245.75	-5.310
246.12	1.587
246.49	12.403
246.87	10.000
247.24	12.583
247.61	15.132
247.98	11.409
248.36	7.407
248.73	2.454
249.10	7.650
249.47	15.920
249.84	10.471
250.22	11.399
250.59	13.889
250.96	12.727
251.33	5.612
251.70	14.103
252.08	10.833
252.45	9.836
252.82	11.157
253.19	6.641
253.56	10.266
253.94	9.615
254.31	13.258
254.68	15.734
255.05	14.332
255.42	11.565
255.79	9.385
256.16	6.623
256.54	5.960
256.91	8.525
257.28	10.820
257.65	10.510
258.02	9.735
258.39	10.541
258.76	13.761
259.14	14.943
259.51	13.545
259.88	12.748
260.25	10.000
260.62	12.603
260.99	15.574
261.36	13.137
261.73	12.467
262.10	11.538
262.47	14.477
262.85	16.667
263.22	9.870
263.59	7.105
263.96	12.788
264.33	8.696
264.70	12.840
265.07	15.513
265.44	13.832
265.81	12.269
266.18	13.605
266.55	11.161
266.92	12.756
267.29	13.786
267.66	13.082
268.03	10.699
268.40	13.987
268.77	11.845
269.14	9.471
269.51	13.596
269.88	14.549
270.25	11.066
270.62	14.135
270.99	14.545
271.36	13.861
271.73	14.931
272.10	14.429
272.47	12.625
272.84	13.253
273.21	13.427
273.58	13.508
273.95	12.115
274.32	9.125
274.69	12.573
275.06	12.088
275.43	12.569
275.80	12.698
276.17	11.667
276.54	11.940
276.91	11.270
277.28	10.127
277.65	12.388
278.02	11.213
278.39	12.500
278.76	9.490
279.13	11.348
279.50	13.918
279.87	15.206
280.23	10.739
280.60	11.695
280.97	13.158
281.34	13.582
281.71	13.367
282.08	14.120
282.45	11.948
282.82	10.518
283.19	10.824
283.56	9.016
283.92	12.462
284.29	13.902
284.66	12.972
285.03	9.295
285.40	11.437
285.77	11.610
286.14	12.214
286.51	12.024
286.87	11.848
287.24	13.705
287.61	10.912
287.98	11.480
288.35	11.686
288.72	11.538
289.08	13.031
289.45	10.503
289.82	11.596
290.19	12.500
290.56	11.127
290.93	12.553
291.29	9.642
291.66	11.019
292.03	10.855
292.40	11.565
292.77	9.569
293.13	11.908
293.50	10.907
293.87	9.933
294.24	11.333
294.60	11.884
294.97	8.859
295.34	11.012
295.71	10.467
296.08	9.948
296.44	10.049
296.81	11.206
297.18	9.714
297.55	11.203
297.91	9.964
298.28	9.834
298.65	11.177
299.02	10.744
299.38	10.641
299.75	9.813
300.12	10.880
300.48	11.406
300.85	10.799
301.22	11.633
301.59	9.932
301.95	9.492
302.32	11.889
302.69	10.405
303.05	10.011
303.42	10.976
303.79	10.938
304.15	9.674
304.52	10.888
304.89	10.052
305.25	10.766
305.62	9.718
305.99	10.722
306.35	10.887
306.72	11.065
307.09	10.152
307.45	11.180
307.82	10.797
308.19	10.898
308.55	11.861
308.92	11.100
309.29	11.398
309.65	11.209
310.02	11.089
310.38	10.335
310.75	10.971
311.12	11.218
311.48	11.241
311.85	11.681
312.22	11.195
312.58	11.925
312.95	11.472
313.31	11.111
313.68	11.722
314.05	12.105
314.41	12.295
314.78	11.081
315.14	13.067
315.51	13.758
315.87	13.231
316.24	12.420
316.61	13.144
316.97	13.484
317.34	12.257
317.70	13.537
318.07	13.228
318.43	14.201
318.80	14.632
319.16	14.249
319.53	12.339
319.89	14.023
320.26	13.345
320.62	12.855
320.99	14.312
321.35	15.342
321.72	15.256
322.08	14.247
322.45	15.357
322.81	14.079
323.18	15.044
323.54	15.000
323.91	15.480
324.27	15.663
324.64	15.533
325.00	14.842
325.37	16.462
325.73	16.777
326.10	17.275
326.46	16.042
326.83	16.733
327.19	16.457
327.56	18.340
327.92	15.814
328.29	16.371
328.65	16.080
329.01	16.836
329.38	17.355
329.74	17.637
330.11	17.723
330.47	17.439
330.84	16.451
331.20	17.417
331.56	17.764
331.93	18.494
332.29	18.136
332.66	17.525
333.02	16.918
333.38	17.366
333.75	18.013
334.11	16.430
334.48	17.574
334.84	17.757
335.20	15.617
335.57	16.863
335.93	18.347
336.29	15.890
336.66	17.578
337.02	17.559
337.38	17.262
337.75	16.446
338.11	17.073
338.47	18.693
338.84	16.328
339.20	15.501
339.56	16.722
339.93	18.473
340.29	16.667
340.65	15.815
341.02	16.600
341.38	17.300
341.74	15.819
342.11	17.216
342.47	16.044
342.83	16.586
343.20	16.762
343.56	16.279
343.92	17.294
344.28	16.875
344.65	17.519
345.01	16.459
345.37	16.641
345.73	15.588
346.10	16.927
346.46	17.405
346.82	17.678
347.19	17.571
347.55	17.678
347.91	17.459
348.27	17.982
348.63	17.060
349.00	16.406
349.36	17.323
349.72	16.890
350.08	16.419
350.45	15.817
350.81	16.440
351.17	16.617
351.53	17.058
351.89	17.312
352.26	16.045
352.62	16.716
352.98	16.565
353.34	16.206
353.70	16.718
354.07	16.244
354.43	17.084
354.79	16.455
355.15	17.292
355.51	17.982
355.87	16.904
356.24	15.741
356.60	16.408
356.96	17.124
357.32	16.580
357.68	15.666
358.04	16.542
358.40	16.866
358.77	17.032
359.13	17.134
359.49	15.762
359.85	16.606
360.21	16.858
360.57	16.511
360.93	16.291
361.29	17.053
361.66	16.872
362.02	17.676
362.38	16.444
362.74	16.969
363.10	18.019
363.46	16.343
363.82	16.548
364.18	16.960
364.54	16.874
364.90	17.324
365.26	16.000
365.62	17.600
365.98	17.359
366.35	17.919
366.71	18.095
367.07	17.388
367.43	17.466
367.79	17.120
368.15	18.060
368.51	17.185
368.87	16.852
369.23	17.333
369.59	18.033
369.95	17.444
370.31	16.880
370.67	16.850
371.03	17.867
371.39	16.387
371.75	17.882
372.11	17.412
372.47	16.926
372.83	17.474
373.19	17.278
373.55	17.615
373.91	17.791
374.27	17.464
374.63	17.659
374.99	18.568
375.35	17.727
375.71	17.355
376.07	17.624
376.42	17.191
376.78	18.148
377.14	18.341
377.50	17.647
377.86	18.658
378.22	18.323
378.58	18.787
378.94	18.251
379.30	17.985
379.66	18.401
380.02	19.446
380.38	18.606
380.74	18.479
381.09	18.815
381.45	18.920
381.81	19.379
382.17	19.299
382.53	19.006
382.89	19.639
383.25	19.461
383.61	18.750
383.97	18.846
384.32	19.617
384.68	18.735
385.04	20.069
385.40	20.271
385.76	19.930
386.12	19.090
386.48	19.647
386.83	21.156
387.19	19.699
387.55	20.129
387.91	19.692
388.27	21.132
388.62	20.046
388.98	19.289
389.34	20.271
389.70	19.059
390.06	20.485
390.42	20.241
390.77	20.108
391.13	20.070
391.49	20.290
391.85	19.576
392.20	20.463
392.56	20.555
392.92	20.284
393.28	20.951
393.64	21.117
393.99	20.395
394.35	20.678
394.71	21.497
395.07	21.257
395.42	20.902
395.78	21.389
396.14	21.985
396.50	21.140
396.85	21.348
397.21	21.657
397.57	21.025
397.92	21.420
398.28	20.532
398.64	21.224
399.00	20.995
399.35	21.675
399.71	21.359
400.07	22.179
400.42	21.304
400.78	22.454
401.14	21.742
401.49	22.229
401.85	22.093
402.21	21.553
402.57	23.357
402.92	21.454
403.28	22.073
403.63	21.301
403.99	22.803
404.35	22.513
404.70	23.399
405.06	22.337
405.42	22.541
405.77	22.628
406.13	22.204
406.49	23.029
406.84	22.825
407.20	23.030
407.55	23.259
407.91	22.879
408.27	24.087
408.62	22.688
408.98	23.506
409.34	22.639
409.69	23.857
410.05	24.560
410.40	24.188
410.76	22.883
411.11	23.437
411.47	24.140
411.83	23.633
412.18	23.976
412.54	23.355
412.89	23.632
413.25	23.646
413.60	22.573
413.96	23.951
414.31	24.079
414.67	23.554
415.03	22.585
415.38	23.707
415.74	24.130
416.09	23.874
416.45	23.168
416.80	23.133
417.16	24.074
417.51	23.910
417.87	23.789
418.22	23.413
418.58	23.854
418.93	24.389
419.29	23.798
419.64	23.529
420.00	24.036
420.35	24.368
420.71	24.641
421.06	24.324
421.42	24.140
421.77	23.802
422.12	24.471
422.48	24.936
422.83	24.151
423.19	24.775
423.54	25.000
423.90	24.351
424.25	25.280
424.61	23.995
424.96	24.492
425.31	24.310
425.67	24.745
426.02	24.626
426.38	24.110
426.73	24.219
427.09	25.144
427.44	24.741
427.79	24.433
428.15	23.801
428.50	24.438
428.85	24.110
429.21	24.787
429.56	24.827
429.92	25.307
430.27	24.289
430.62	24.670
430.98	24.840
431.33	23.900
431.68	24.617
432.04	25.394
432.39	24.746
432.74	24.829
433.10	25.581
433.45	24.638
433.80	26.073
434.16	25.052
434.51	25.745
434.86	26.493
435.22	24.655
435.57	25.708
435.92	25.376
436.28	25.313
436.63	25.669
436.98	25.282
437.34	25.141
437.69	24.381
438.04	25.331
438.39	24.986
438.75	26.176
439.10	25.687
439.45	24.874
439.81	25.537
440.16	24.558
440.51	25.864
440.86	24.625
441.22	25.563
441.57	25.681
441.92	25.461
442.27	25.657
442.63	25.335
442.98	24.653
443.33	26.249
443.68	25.917
444.03	26.105
444.39	25.428
444.74	25.370
445.09	24.987
445.44	25.448
445.79	26.149
446.15	25.488
446.50	26.253
446.85	26.119
447.20	26.257
447.55	25.105
447.91	26.387
448.26	26.268
448.61	25.133
448.96	26.931
449.31	26.087
449.66	25.980
450.02	26.266
450.37	26.372
450.72	26.265
451.07	25.911
451.42	25.650
451.77	24.792
452.12	26.806
452.47	25.253
452.83	26.351
453.18	25.803
453.53	25.905
453.88	26.284
454.23	25.763
454.58	26.349
454.93	26.517
455.28	26.791
455.63	26.094
455.98	26.816
456.34	25.736
456.69	26.573
457.04	27.128
457.39	26.885
457.74	26.734
458.09	26.579
458.44	26.670
458.79	26.199
459.14	26.481
459.49	26.938
459.84	26.076
460.19	26.430
460.54	27.484
460.89	27.475
461.24	26.207
461.59	26.342
461.94	25.157
462.29	25.924
462.64	26.735
462.99	26.868
463.34	27.060
463.69	26.377
464.04	27.015
464.39	25.953
464.74	26.511
465.09	26.471
465.44	26.127
465.79	27.393
466.14	25.534
466.49	26.632
466.84	26.887
467.19	27.341
467.54	26.616
467.89	27.414
468.24	26.260
468.59	26.230
468.94	27.214
469.29	26.035
469.64	27.018
469.99	27.151
470.34	27.537
470.68	27.204
471.03	26.457
471.38	26.619
471.73	26.073
472.08	26.586
472.43	27.634
472.78	27.267
473.13	27.054
473.48	27.251
473.83	27.800
474.17	27.433
474.52	27.541
474.87	27.685
475.22	28.056
475.57	28.089
475.92	27.277
476.27	26.997
476.61	26.584
476.96	26.851
477.31	26.337
477.66	28.437
478.01	27.097
478.36	27.866
478.70	27.291
479.05	27.863
479.40	27.048
479.75	27.474
480.10	27.144
480.45	27.575
480.79	27.982
481.14	26.517
481.49	27.533
481.84	27.633
482.19	27.570
482.53	27.809
482.88	27.913
483.23	27.434
483.58	27.598
483.92	26.862
484.27	27.815
484.62	27.682
484.97	27.372
485.31	26.646
485.66	25.925
486.01	25.392
486.36	26.343
486.70	27.103
487.05	27.278
487.40	27.188
487.75	26.845
488.09	27.078
488.44	26.141
488.79	27.116
489.13	27.299
489.48	27.107
489.83	27.807
490.17	27.420
490.52	27.833
490.87	28.130
491.22	27.686
491.56	27.944
491.91	28.042
492.26	27.910
492.60	27.809
492.95	27.600
493.30	27.342
493.64	27.683
493.99	27.763
494.34	28.136
494.68	27.623
495.03	27.401
495.37	27.741
495.72	27.256
496.07	28.002
496.41	26.898
496.76	27.648
497.11	28.280
497.45	27.147
497.80	28.076
498.14	28.163
498.49	28.676
498.84	29.113
499.18	27.845
499.53	28.117
499.87	28.396
500.22	27.783
500.56	28.610
500.91	28.558
501.26	27.864
501.60	28.237
501.95	28.267
502.29	28.082
502.64	28.596
502.98	28.602
503.33	27.559
503.67	27.388
504.02	27.802
504.36	28.552
504.71	28.158
505.06	28.058
505.40	28.473
505.75	27.960
506.09	29.052
506.44	27.994
506.78	28.257
507.13	28.492
507.47	28.517
507.82	28.030
508.16	28.011
508.51	28.598
508.85	28.814
509.19	28.517
509.54	28.818
509.88	27.926
510.23	28.558
510.57	28.226
510.92	28.205
511.26	28.090
511.61	28.296
511.95	28.111
512.30	29.050
512.64	28.036
512.98	28.914
513.33	28.629
513.67	28.557
514.02	28.871
514.36	28.849
514.70	28.385
515.05	28.884
515.39	29.291
515.74	30.011
516.08	29.371
516.42	29.775
516.77	28.601
517.11	28.159
517.46	29.958
517.80	30.037
518.14	29.597
518.49	29.718
518.83	29.590
519.17	28.541
519.52	28.983
519.86	29.197
520.20	29.340
520.55	28.861
520.89	28.491
521.23	29.090
521.58	29.492
521.92	29.292
522.26	29.210
522.61	31.250
522.95	29.585
523.29	30.000
523.64	30.213
523.98	29.720
524.32	30.774
524.66	30.450
525.01	28.369
525.35	29.581
525.69	28.596
526.04	29.736
526.38	29.080
526.72	30.104
527.06	28.798
527.41	29.621
527.75	29.869
528.09	29.457
528.43	29.899
528.78	29.075
529.12	29.014
529.46	28.949
529.80	28.661
530.15	29.333
530.49	29.063
530.83	29.516
531.17	30.108
531.51	29.783
531.86	30.529
532.20	30.610
532.54	28.606
532.88	28.727
533.22	28.757
533.57	29.140
533.91	30.135
534.25	28.378
534.59	29.770
534.93	29.485
535.27	28.563
535.62	29.335
535.96	29.169
536.30	28.790
536.64	29.730
536.98	29.274
537.32	29.198
537.66	29.694
538.01	28.822
538.35	29.172
538.69	28.786
539.03	29.001
539.37	28.681
539.71	29.429
540.05	29.376
540.39	28.117
540.73	28.355
541.07	28.817
541.42	27.939
541.76	27.995
542.10	29.131
542.44	28.015
542.78	29.075
543.12	28.546
543.46	27.839
543.80	27.878
544.14	28.546
544.48	28.723
544.82	28.546
545.16	28.742
545.50	27.801
545.84	28.598
546.18	29.691
546.52	29.363
546.86	28.679
547.20	28.053
547.54	27.778
547.88	27.908
548.22	27.485
548.56	27.970
548.90	28.000
549.24	28.267
549.58	27.697
549.92	28.061
550.26	28.544
550.60	26.930
550.94	28.008
551.28	27.789
551.62	29.245
551.96	28.155
552.30	27.597
552.64	28.563
552.98	28.509
553.32	28.489
553.66	27.846
554.00	28.815
554.34	28.636
554.68	28.018
555.02	28.252
555.36	28.994
555.69	27.418
556.03	28.499
556.37	28.411
556.71	27.267
557.05	27.348
557.39	27.339
557.73	27.213
558.07	28.212
558.41	28.837
558.75	27.992
559.08	29.367
559.42	27.846
559.76	28.019
560.10	29.002
560.44	27.968
560.78	28.500
561.12	27.648
561.45	27.981
561.79	27.900
562.13	27.665
562.47	26.634
562.81	27.152
563.15	27.525
563.48	27.906
563.82	27.993
564.16	27.075
564.50	26.996
564.84	27.316
565.17	27.412
565.51	26.928
565.85	26.306
566.19	26.959
566.52	26.331
566.86	27.334
567.20	25.938
567.54	27.509
567.88	27.778
568.21	27.223
568.55	26.619
568.89	26.237
569.23	26.996
569.56	25.596
569.90	25.909
570.24	25.632
570.57	25.657
570.91	25.015
571.25	24.877
571.59	25.077
571.92	24.627
572.26	25.013
572.60	24.816
572.93	24.993
573.27	24.670
573.61	24.987
573.95	24.715
574.28	24.761
574.62	24.443
574.96	23.952
575.29	24.014
575.63	24.255
575.97	24.647
576.30	24.352
576.64	24.362
576.98	24.009
577.31	24.639
577.65	24.371
577.98	24.567
578.32	23.883
578.66	23.728
578.99	24.145
579.33	23.833
579.67	24.093
580.00	23.983
580.34	23.604
580.67	23.036
581.01	23.778
581.35	23.865
581.68	23.673
582.02	24.039
582.35	23.479
582.69	23.452
583.02	23.566
583.36	23.598
583.70	23.699
584.03	23.926
584.37	23.920
584.70	22.738
585.04	23.343
585.37	23.531
585.71	23.517
586.04	23.360
586.38	24.025
586.72	23.139
587.05	23.101
587.39	24.009
587.72	23.828
588.06	23.670
588.39	23.500
588.73	23.757
589.06	23.251
589.40	23.540
589.73	23.650
590.07	23.574
590.40	23.901
590.73	23.825
591.07	23.939
591.40	23.328
591.74	23.450
592.07	24.564
592.41	23.580
592.74	23.749
593.08	24.140
593.41	23.710
593.75	23.247
594.08	23.569
594.41	23.750
594.75	22.916
595.08	23.284
595.42	23.994
595.75	23.765
596.09	23.145
596.42	23.146
596.75	23.813
597.09	24.808
597.42	23.560
597.75	22.775
598.09	23.810
598.42	23.804
598.76	23.347
599.09	23.389
599.42	22.494
599.76	22.912
600.09	23.156
600.42	23.123
600.76	23.018
601.09	23.034
601.42	22.966
601.76	22.655
602.09	22.873
602.42	22.137
602.76	22.768
603.09	23.091
603.42	23.374
603.76	22.234
604.09	23.137
604.42	22.716
604.76	22.603
605.09	23.255
605.42	23.006
605.75	22.538
606.09	22.135
606.42	22.510
606.75	21.852
607.09	21.889
607.42	23.121
607.75	22.743
608.08	23.125
608.42	22.410
608.75	23.839
609.08	22.411
609.41	22.585
609.75	22.411
610.08	23.219
610.41	22.812
610.74	22.143
611.07	22.158
611.41	23.094
611.74	23.557
612.07	23.188
612.40	22.719
612.73	23.227
613.07	22.689
613.40	22.570
613.73	22.629
614.06	22.964
614.39	22.692
614.72	22.368
615.06	22.233
615.39	21.798
615.72	22.607
616.05	22.535
616.38	22.704
616.71	22.153
617.05	21.991
617.38	23.007
617.71	23.920
618.04	22.558
618.37	23.388
618.70	23.586
619.03	23.059
619.36	23.120
619.69	22.870
620.03	22.850
620.36	23.313
620.69	22.209
621.02	22.638
621.35	23.149
621.68	24.006
622.01	22.278
622.34	22.176
622.67	23.024
623.00	21.930
623.33	22.694
623.66	22.503
623.99	21.659
624.32	23.522
624.65	22.651
624.99	23.277
625.32	23.841
625.65	22.522
625.98	22.712
626.31	21.828
626.64	23.297
626.97	22.281
627.30	21.792
627.63	23.181
627.96	23.874
628.29	22.802
628.62	23.090
628.95	23.488
629.28	22.260
629.61	22.475
629.94	22.176
630.26	22.203
630.59	23.661
630.92	22.857
631.25	23.614
631.58	23.635
631.91	22.587
632.24	23.439
632.57	23.624
632.90	22.267
633.23	23.571
633.56	22.653
633.89	23.760
634.22	24.012
634.55	24.948
634.88	23.160
635.20	25.619
635.53	23.051
635.86	24.269
636.19	23.966
636.52	24.473
636.85	22.983
637.18	22.557
637.51	23.548
637.83	23.367
638.16	23.272
638.49	24.178
638.82	22.661
639.15	23.482
639.48	24.365
639.81	24.134
640.13	25.088
640.46	22.909
640.79	22.304
641.12	22.236
641.45	22.961
641.77	26.316
642.10	24.541
642.43	26.330
642.76	23.442
643.09	24.932
643.41	21.849
643.74	22.483
644.07	23.724
644.40	21.641
644.73	24.238
645.05	22.761
645.38	24.029
645.71	24.047
646.04	23.529
646.36	23.212
646.69	22.393
647.02	24.465
647.35	23.969
647.67	23.671
648.00	23.567
648.33	23.273
648.66	24.251
648.98	21.769
649.31	20.839
649.64	22.842
649.96	20.690
650.29	21.419
650.62	23.197
650.94	21.772
651.27	21.257
651.60	23.977
651.92	21.277
652.25	23.155
652.58	20.495
652.90	21.512
653.23	23.380
653.56	24.679
653.88	23.315
654.21	22.535
654.54	23.121
654.86	21.955
655.19	21.330
655.52	21.548
655.84	18.912
656.17	22.623
656.49	30.991
656.82	33.435
657.15	25.777
657.47	18.955
657.80	14.012
658.13	11.017
658.45	14.245
658.78	17.562
659.10	17.166
659.43	17.385
659.75	17.308
660.08	18.151
660.41	17.452
660.73	18.814
661.06	21.733
661.38	20.096
661.71	22.241
662.03	22.399
662.36	23.077
662.68	22.326
663.01	21.593
663.33	22.873
663.66	23.260
663.98	23.654
664.31	21.576
664.63	20.809
664.96	22.323
665.28	21.416
665.61	23.252
665.93	21.250
666.26	23.297
666.58	22.878
666.91	22.804
667.23	23.619
667.56	26.627
667.88	23.000
668.21	20.703
668.53	19.691
668.86	20.432
669.18	22.811
669.50	20.676
669.83	22.800
670.15	21.457
670.48	20.437
670.80	22.180
671.13	19.849
671.45	22.047
671.77	23.352
672.10	21.667
672.42	19.741
672.75	20.584
673.07	20.299
673.39	19.877
673.72	19.295
674.04	21.207
674.37	20.036
674.69	21.340
675.01	20.000
675.34	19.275
675.66	19.850
675.98	19.963
676.31	21.094
676.63	23.954
676.95	21.648
677.28	20.565
677.60	18.307
677.92	20.729
678.25	21.207
678.57	21.352
678.89	21.502
679.22	19.512
679.54	19.487
679.86	18.814
680.18	18.740
680.51	20.912
680.83	19.804
681.15	20.517
681.48	19.862
681.80	22.107
682.12	20.804
682.44	19.032
682.77	18.972
683.09	18.939
683.41	22.093
683.73	18.975
684.06	20.664
684.38	18.247
684.70	19.390
685.02	21.170
685.34	19.301
685.67	18.454
685.99	16.258
686.31	17.151
686.63	18.483
686.96	18.612
687.28	20.684
687.60	17.845
687.92	19.293
688.24	19.366
688.56	18.276
688.89	19.964
689.21	19.765
689.53	18.039
689.85	18.343
690.17	18.519
690.49	20.120
690.82	19.010
691.14	17.409
691.46	19.694
691.78	20.994
692.10	17.982
692.42	15.536
692.74	17.604
693.06	15.000
693.39	20.304
693.71	17.481
694.03	19.145
694.35	17.524
694.67	17.864
694.99	18.936
695.31	19.647
695.63	17.965
695.95	19.669
696.27	19.780
696.59	19.027
696.91	19.144
697.23	19.560
697.56	16.904
697.88	16.856
698.20	17.891
698.52	21.212
698.84	18.295
699.16	18.571
699.48	17.782
699.80	16.809
700.12	18.341
700.44	17.512
700.76	17.815
701.08	16.949
701.40	22.021
701.72	19.652
702.04	19.251
702.36	17.539
702.68	16.381
703.00	16.626
703.32	16.749
703.64	15.403
703.96	19.809
704.28	18.673
704.60	20.759
704.91	17.857
705.23	19.452
705.55	16.156
705.87	20.303
706.19	20.859
706.51	16.867
706.83	14.409
707.15	14.815
707.47	17.056
707.79	18.777
708.11	15.254
708.43	15.699
708.74	14.286
709.06	17.401
709.38	19.484
709.70	19.107
710.02	19.121
710.34	18.085
710.66	15.922
710.98	20.219
711.29	15.659
711.61	17.797
711.93	19.373
712.25	15.676
712.57	20.059
712.89	17.941
713.20	15.680
713.52	19.653
713.84	18.663
714.16	16.053
714.48	15.979
714.80	16.104
715.11	16.010
715.43	16.711
715.75	17.368
716.07	14.917
716.39	19.399
716.70	18.072
717.02	15.410
717.34	18.118
717.66	13.758
717.97	14.384
718.29	15.464
718.61	12.500
718.93	18.447
719.24	16.770
719.56	15.951
719.88	14.414
720.20	15.484
720.51	16.770
720.83	14.062
721.15	16.118
721.46	10.616
721.78	13.667
722.10	15.210
722.42	16.107
722.73	12.903
723.05	21.754
723.37	15.625
723.68	17.563
724.00	14.440
724.32	13.380
724.63	13.986
724.95	17.376
725.27	18.815
725.58	14.488
725.90	19.310
726.22	12.853
726.53	18.182
726.85	16.352
727.16	17.221
727.48	13.761
727.80	19.868
728.11	13.074
728.43	15.488
728.74	18.060
729.06	17.219
729.38	15.909
729.69	14.765
730.01	13.988
730.32	11.818
730.64	16.667
730.96	10.870
731.27	16.201
731.59	13.462
731.90	14.805
732.22	14.583
732.53	11.878
732.85	16.000
733.16	13.490
733.48	13.415
733.80	13.370
734.11	13.960
734.43	15.405
734.74	16.456
735.06	14.322
735.37	15.135
735.69	16.486
736.00	12.994
736.32	14.825
736.63	12.778
736.95	14.080
737.26	18.788
737.58	10.909
737.89	18.235
738.21	12.844
738.52	14.098
738.83	14.334
739.15	14.539
739.46	12.925
739.78	16.871
740.09	11.461
740.41	14.286
740.72	11.667
741.04	13.269
741.35	15.439
741.66	14.902
741.98	14.754
742.29	15.481
742.61	10.526
742.92	13.846
743.23	14.440
743.55	16.667
743.86	14.000
744.18	9.091
744.49	10.127
744.80	13.992
745.12	10.970
745.43	18.699
745.74	12.931
746.06	12.712
746.37	17.300
746.68	13.821
747.00	11.250
747.31	13.305
747.62	15.385
747.94	10.931
748.25	15.663
748.56	13.061
748.88	12.393
749.19	16.810
749.50	13.853
749.82	16.466
750.13	16.726
750.44	9.667
750.75	16.308
751.07	16.615
751.38	11.672
751.69	15.655
752.01	14.563
752.32	13.399
752.63	12.585
752.94	15.225
753.26	12.639
753.57	8.889
753.88	14.607
754.19	13.826
754.51	12.219
754.82	17.042
755.13	17.049
755.44	15.700
755.75	17.434
756.07	15.821
756.38	14.151
756.69	15.964
757.00	9.418
757.31	11.475
757.63	8.951
757.94	16.197
758.25	15.576
758.56	14.161
758.87	15.227
759.18	13.067
759.50	17.847
759.81	13.725
760.12	15.633
760.43	13.542
760.74	12.315
761.05	12.250
761.36	13.012
761.67	11.929
761.99	12.432
762.30	13.415
762.61	11.221
762.92	10.821
763.23	16.105
763.54	12.950
763.85	11.684
764.16	13.468
764.47	14.437
764.78	17.252
765.10	16.129
765.41	15.641
765.72	13.757
766.03	14.689
766.34	10.658
766.65	8.711
766.96	14.343
767.27	12.442
767.58	14.925
767.89	18.750
768.20	11.268
768.51	17.593
768.82	12.048
769.13	13.636
769.44	5.385
769.75	14.440
770.06	11.538
770.37	17.323
770.68	8.511
770.99	10.121
771.30	17.407
771.61	12.548
771.92	12.593
772.23	14.980
772.54	8.333
772.85	17.972
773.16	14.762
773.47	5.820
773.78	5.405
774.09	12.500
774.39	15.500
774.70	16.940
775.01	6.707
775.32	2.941
775.63	10.429
775.94	3.185
776.25	10.323
776.56	13.462
776.87	14.286
777.18	11.034
777.48	8.392
777.79	7.432
778.10	7.353
778.41	17.361
778.72	20.690
779.03	3.704
779.34	7.879
779.65	13.990
779.95	15.000
780.26	17.045
780.57	7.097
780.88	13.768
781.19	9.677
781.50	11.765
781.80	10.753
782.11	13.228
782.42	5.556
782.73	11.976
783.04	13.408
783.34	6.667
783.65	1.961
783.96	6.832
784.27	7.738
784.57	14.570
784.88	7.857
785.19	10.236
785.50	4.724
785.81	12.782
786.11	10.000
786.42	6.475
786.73	4.317
787.04	9.774
787.34	5.738
787.65	8.000
787.96	9.701
788.26	11.189
788.57	4.895
788.88	11.842
789.19	10.458
789.49	10.959
789.80	7.801
790.11	7.874
790.41	6.250
790.72	5.932
791.03	0.000
791.33	3.478
791.64	11.404
791.95	8.036
792.25	9.524
792.56	7.143
792.87	11.458
793.17	11.607
793.48	11.458
793.79	-2.410
794.09	0.917
794.40	3.670
794.70	14.286
795.01	7.792
795.32	6.849
795.62	11.972
795.93	9.091
796.23	9.836
796.54	0.000
796.85	-3.191
797.15	3.261
797.46	-1.370
797.76	8.750
798.07	13.043
798.37	0.000
798.68	-2.597
798.99	10.345
799.29	1.124
799.60	2.128
799.90	1.205
800.21	10.769
800.51	-2.985
800.82	-8.824
801.12	-10.959
801.43	-8.824
801.73	-5.085
802.04	-7.576
802.34	0.000
802.65	-11.864
802.95	0.000
803.26	-1.695
803.56	10.959
803.87	0.000
804.17	13.699
804.48	-22.807
804.78	-12.500
805.09	-10.345
805.39	4.054
805.70	-2.817
806.00	0.000
806.30	-2.410
806.61	-5.479
806.91	8.654
807.22	14.444
807.52	-4.598
807.83	2.778
808.13	13.253
808.43	2.247
808.74	-10.000
809.04	-8.824
809.35	0.000
809.65	0.000
809.95	12.329
810.26	3.509
810.56	1.724
810.86	1.471
811.17	8.772
811.47	-4.918
811.77	-24.444
812.08	-5.085
812.38	6.667
812.69	-3.448
812.99	-13.208
813.29	-38.462
813.59	-2.000
813.90	5.263
814.20	-12.727
814.50	7.042
814.81	2.564
815.11	18.033
815.41	1.493
815.72	1.724
816.02	10.714
816.32	17.778
816.62	2.273
816.93	-17.778
817.23	3.704
817.53	-14.894
817.84	9.524
818.14	-8.824
818.44	0.000
818.74	-17.778
819.04	-38.462
819.35	-34.286
819.65	-76.923
819.95	-16.981
820.25	6.667
820.56	-2.381
820.86	-12.500
821.16	-7.692
821.46	-11.628
821.76	-34.000
822.07	3.571
822.37	-13.043
822.67	-21.277
822.97	-24.324
823.27	-5.000
823.57	20.408
823.88	8.889
824.18	-7.500
824.48	-16.667
824.78	-28.000
825.08	-33.333
825.38	2.222
825.69	2.128
825.99	-13.889
826.29	-42.857
826.59	-17.949
826.89	-25.581
827.19	-20.000
827.49	2.941
827.79	4.167
828.09	-29.730
828.39	0.000
828.70	-17.073
829.00	-30.233
829.30	-39.286
829.60	-17.647
829.90	8.696
830.20	-22.857
830.50	-13.793
830.80	-44.444
831.10	-38.462
831.40	-17.647
831.70	-23.810
832.00	3.226
832.30	-158.824
832.60	-58.333
832.90	-130.769
833.20	-73.684
833.50	-45.000
833.80	-73.684
834.10	-61.905
834.40	-13.889
834.70	25.000
835.00	-51.429
835.30	-26.471
835.60	3.333
835.90	-52.000
836.20	-63.636
836.50	-12.000
836.80	-12.121
837.10	-18.519
837.40	-18.519
837.70	-143.750
838.00	-17.857
838.30	-65.217
838.60	13.793
838.90	-64.286
839.19	-91.304
839.49	-200.000
839.79	-73.913
840.09	-131.250
840.39	-100.000
840.69	16.129
840.99	-32.143
841.29	-93.333
841.59	-73.684
841.88	7.692
842.18	-23.077
842.48	-50.000
842.78	-65.000
843.08	3.333
843.38	22.581
843.68	-55.556
843.97	0.000
844.27	-56.250
844.57	-21.053
844.87	-50.000
845.17	-100.000
845.47	-33.333
845.76	-23.810
846.06	-188.889
846.36	-94.118
846.66	7.692
846.96	-53.333
847.25	-47.059
847.55	-13.043
847.85	-60.000
848.15	-41.176
848.44	-136.364
848.74	-4.762
849.04	-58.333
849.34	-62.500
849.63	-17.391
849.93	1300.000
850.23	-80.000
850.53	15.385
850.82	-109.091
851.12	-59.091
851.42	-100.000
851.71	-53.846
852.01	-65.000
852.31	-69.231
852.61	-47.368
852.90	-50.000
853.20	-11.111
853.50	-233.333
853.79	-61.905
854.09	-54.545
854.39	-108.333
854.68	-38.710
854.98	-34.615
855.28	-11.111
855.57	-35.714
855.87	-20.000
856.17	-31.818
856.46	-18.519
856.76	-44.444
857.05	-47.826
857.35	-54.167
857.65	-69.231
857.94	-42.857
858.24	-22.222
858.53	-17.391
858.83	-35.294
859.13	-35.294
859.42	11.765
859.72	-42.857
860.01	-55.000
860.31	-33.333
860.60	-80.000
860.90	-40.000
861.20	-66.667
861.49	-76.923
861.79	-30.000
862.08	-115.385
862.38	0.000
862.67	-35.294
862.97	-62.500
863.26	-133.333
863.56	-90.000
863.85	-100.000
864.15	-27.778
864.44	-466.667
864.74	-28.571
865.03	-62.500
865.33	-150.000
865.62	-61.290
865.92	22.727
866.21	-34.783
866.51	-107.143
866.80	-300.000
867.10	-91.667
867.39	-91.667
867.69	1900.000
867.98	-142.857
868.27	-29.412
868.57	-3000.000
868.86	-150.000
869.16	-38.095
869.45	-29.167
869.75	-118.182
870.04	-171.429
870.33	-66.667
870.63	-357.143
870.92	-325.000
871.22	-250.000
871.51	-109.091
871.80	-766.667
872.10	-650.000
>>>>>End Processed Spectral Data<<<<<
