SpectraSuite Data File
++++++++++++++++++++++++++++++++++++
Date: Thu May 14 16:11:43 PDT 2015
User: schluterlab
Dark Spectrum Present: Yes
Reference Spectrum Present: Yes
Number of Sampled Component Spectra: 1
Spectrometers: USB2E3373
Integration Time (usec): 3000 (USB2E3373)
Spectra Averaged: 3 (USB2E3373)
Boxcar Smoothing: 0 (USB2E3373)
Correct for Electrical Dark: No (USB2E3373)
Strobe/Lamp Enabled: No (USB2E3373)
Correct for Detector Non-linearity: No (USB2E3373)
Correct for Stray Light: No (USB2E3373)
Number of Pixels in Processed Spectrum: 2048
>>>>>Begin Processed Spectral Data<<<<<
178.53	0.000
178.91	-57.143
179.29	-1300.000
179.67	-1300.000
180.04	150.000
180.42	30.000
180.80	220.000
181.18	-500.000
181.56	400.000
181.94	225.000
182.31	-125.000
182.69	233.333
183.07	-250.000
183.45	100.000
183.83	-50.000
184.20	-166.667
184.58	600.000
184.96	-250.000
185.34	-22.222
185.72	20.000
186.09	222.222
186.47	350.000
186.85	360.000
187.23	-44.444
187.61	-1800.000
187.98	240.000
188.36	275.000
188.74	-250.000
189.12	33.333
189.49	-37.500
189.87	-37.500
190.25	-77.778
190.63	-60.000
191.00	-111.111
191.38	0.000
191.76	-350.000
192.14	-50.000
192.51	-50.000
192.89	-100.000
193.27	0.000
193.65	-85.714
194.02	-2200.000
194.40	-71.429
194.78	85.714
195.15	0.000
195.53	0.000
195.91	0.000
196.29	-100.000
196.66	-7.692
197.04	-700.000
197.42	-142.857
197.79	-500.000
198.17	-75.000
198.55	-200.000
198.92	-11.111
199.30	-112.500
199.68	54.545
200.05	35.714
200.43	-550.000
200.81	171.429
201.18	0.000
201.56	177.778
201.94	0.000
202.31	266.667
202.69	-55.556
203.07	500.000
203.44	-33.333
203.82	-325.000
204.19	-66.667
204.57	-133.333
204.95	-75.000
205.32	-900.000
205.70	275.000
206.08	33.333
206.45	-16.667
206.83	380.000
207.20	-33.333
207.58	-180.000
207.96	-183.333
208.33	-83.333
208.71	91.667
209.08	-133.333
209.46	0.000
209.84	266.667
210.21	300.000
210.59	150.000
210.96	400.000
211.34	-75.000
211.71	-150.000
212.09	-600.000
212.46	0.000
212.84	1000.000
213.22	-220.000
213.59	-50.000
213.97	80.000
214.34	-66.667
214.72	66.667
215.09	-125.000
215.47	0.000
215.84	28.571
216.22	900.000
216.59	-80.000
216.97	-240.000
217.34	-300.000
217.72	-37.500
218.09	-175.000
218.47	-225.000
218.84	0.000
219.22	320.000
219.59	-47.059
219.97	40.000
220.34	400.000
220.72	-22.222
221.09	-15.385
221.47	-133.333
221.84	-20.000
222.22	-200.000
222.59	0.000
222.97	-25.000
223.34	-360.000
223.72	-1700.000
224.09	-275.000
224.46	-300.000
224.84	-60.000
225.21	-157.143
225.59	-25.000
225.96	-200.000
226.34	-15.385
226.71	383.333
227.08	-250.000
227.46	-6.667
227.83	-150.000
228.21	5.263
228.58	200.000
228.95	400.000
229.33	75.000
229.70	-80.000
230.08	57.895
230.45	-0.000
230.82	166.667
231.20	-35.714
231.57	-66.667
231.95	-18.182
232.32	-54.545
232.69	25.000
233.07	25.000
233.44	-29.412
233.81	0.000
234.19	11.111
234.56	22.727
234.93	13.793
235.31	-15.789
235.68	5.556
236.05	-20.000
236.43	11.538
236.80	60.000
237.17	3.704
237.55	39.394
237.92	-30.000
238.29	6.452
238.67	-9.091
239.04	19.444
239.41	0.000
239.79	17.391
240.16	16.667
240.53	4.348
240.91	5.882
241.28	8.197
241.65	35.821
242.02	29.730
242.40	32.308
242.77	28.000
243.14	24.390
243.51	10.526
243.89	15.385
244.26	37.624
244.63	41.176
245.00	27.103
245.38	28.070
245.75	21.239
246.12	34.127
246.49	31.783
246.87	35.000
247.24	27.815
247.61	27.632
247.98	27.517
248.36	26.543
248.73	25.767
249.10	30.601
249.47	30.348
249.84	40.314
250.22	34.197
250.59	36.111
250.96	33.636
251.33	23.980
251.70	30.769
252.08	27.917
252.45	34.426
252.82	33.884
253.19	28.516
253.56	35.361
253.94	28.846
254.31	31.818
254.68	35.664
255.05	31.270
255.42	32.653
255.79	33.333
256.16	35.099
256.54	32.450
256.91	33.770
257.28	34.098
257.65	29.936
258.02	29.794
258.39	33.333
258.76	37.003
259.14	36.782
259.51	33.718
259.88	34.561
260.25	32.222
260.62	33.699
260.99	36.885
261.36	34.316
261.73	32.891
262.10	34.066
262.47	34.048
262.85	33.586
263.22	33.766
263.59	32.105
263.96	34.783
264.33	33.504
264.70	34.074
265.07	39.379
265.44	35.601
265.81	35.648
266.18	34.694
266.55	34.598
266.92	35.991
267.29	35.011
267.66	34.812
268.03	36.681
268.40	32.359
268.77	33.713
269.14	31.278
269.51	35.307
269.88	35.246
270.25	33.803
270.62	34.810
270.99	34.545
271.36	34.653
271.73	33.202
272.10	33.066
272.47	34.469
272.84	33.735
273.21	31.663
273.58	35.887
273.95	33.462
274.32	33.650
274.69	31.141
275.06	32.784
275.43	29.575
275.80	32.804
276.17	33.333
276.54	33.396
276.91	32.200
277.28	33.635
277.65	33.573
278.02	33.272
278.39	33.152
278.76	33.216
279.13	33.511
279.50	32.474
279.87	32.379
280.23	30.282
280.60	33.729
280.97	34.539
281.34	34.975
281.71	34.856
282.08	30.233
282.45	34.534
282.82	29.984
283.19	32.149
283.56	33.443
283.92	33.784
284.29	33.965
284.66	32.841
285.03	30.769
285.40	33.385
285.77	32.353
286.14	33.435
286.51	30.746
286.87	30.648
287.24	30.422
287.61	31.839
287.98	30.816
288.35	30.178
288.72	30.621
289.08	32.357
289.45	27.515
289.82	29.970
290.19	30.172
290.56	29.577
290.93	28.245
291.29	28.512
291.66	29.477
292.03	28.630
292.40	29.660
292.77	26.819
293.13	28.011
293.50	28.778
293.87	26.174
294.24	28.267
294.60	25.158
294.97	27.114
295.34	27.529
295.71	26.230
296.08	26.098
296.44	25.000
296.81	26.309
297.18	27.148
297.55	26.415
297.91	22.894
298.28	23.815
298.65	25.208
299.02	23.731
299.38	25.744
299.75	25.234
300.12	23.495
300.48	24.309
300.85	25.084
301.22	22.819
301.59	24.543
301.95	24.181
302.32	25.556
302.69	24.863
303.05	24.918
303.42	23.725
303.79	25.208
304.15	24.290
304.52	23.890
304.89	23.979
305.25	23.085
305.62	22.989
305.99	22.990
306.35	23.589
306.72	25.853
307.09	23.959
307.45	24.534
307.82	23.108
308.19	23.814
308.55	23.915
308.92	23.953
309.29	23.084
309.65	23.977
310.02	22.772
310.38	23.524
310.75	23.010
311.12	24.353
311.48	24.536
311.85	24.122
312.22	23.340
312.58	23.850
312.95	23.518
313.31	23.487
313.68	24.176
314.05	25.655
314.41	24.226
314.78	24.523
315.14	24.592
315.51	24.931
315.87	25.113
316.24	25.114
316.61	24.334
316.97	24.977
317.34	25.573
317.70	24.891
318.07	24.956
318.43	26.105
318.80	25.000
319.16	25.751
319.53	25.278
319.89	25.066
320.26	25.890
320.62	25.975
320.99	26.962
321.35	26.248
321.72	27.256
322.08	26.330
322.45	27.371
322.81	27.527
323.18	27.611
323.54	27.759
323.91	29.270
324.27	28.485
324.64	28.463
325.00	29.104
325.37	28.501
325.73	27.851
326.10	28.548
326.46	29.642
326.83	28.663
327.19	29.370
327.56	29.723
327.92	29.111
328.29	29.677
328.65	28.811
329.01	29.611
329.38	30.076
329.74	30.822
330.11	30.651
330.47	30.750
330.84	30.835
331.20	31.333
331.56	30.503
331.93	30.711
332.29	31.610
332.66	30.565
333.02	29.816
333.38	30.956
333.75	31.229
334.11	30.859
334.48	30.033
334.84	30.331
335.20	30.059
335.57	31.535
335.93	31.736
336.29	29.700
336.66	29.941
337.02	31.104
337.38	31.293
337.75	30.992
338.11	31.119
338.47	30.604
338.84	31.049
339.20	31.087
339.56	30.313
339.93	31.117
340.29	29.308
340.65	30.981
341.02	30.327
341.38	29.911
341.74	28.733
342.11	30.813
342.47	28.753
342.83	31.401
343.20	31.480
343.56	30.473
343.92	30.504
344.28	30.156
344.65	31.395
345.01	30.031
345.37	31.182
345.73	29.696
346.10	30.265
346.46	29.826
346.82	31.011
347.19	30.710
347.55	30.273
347.91	30.981
348.27	29.970
348.63	30.236
349.00	30.425
349.36	30.706
349.72	30.283
350.08	30.461
350.45	29.886
350.81	30.317
351.17	29.323
351.53	29.416
351.89	30.068
352.26	30.896
352.62	30.522
352.98	29.695
353.34	28.529
353.70	30.354
354.07	30.775
354.43	29.157
354.79	30.366
355.15	29.948
355.51	30.044
355.87	29.319
356.24	30.114
356.60	29.047
356.96	31.208
357.32	30.558
357.68	30.161
358.04	30.240
358.40	29.478
358.77	29.678
359.13	29.542
359.49	29.517
359.85	29.369
360.21	29.699
360.57	29.505
360.93	30.395
361.29	30.737
361.66	29.399
362.02	31.037
362.38	30.077
362.74	28.701
363.10	31.568
363.46	30.402
363.82	30.895
364.18	30.612
364.54	30.152
364.90	30.702
365.26	30.621
365.62	30.733
365.98	30.157
366.35	29.732
366.71	30.204
367.07	30.920
367.43	30.794
367.79	30.723
368.15	31.037
368.51	30.853
368.87	30.830
369.23	30.400
369.59	30.601
369.95	30.223
370.31	30.452
370.67	31.912
371.03	30.956
371.39	31.095
371.75	30.124
372.11	31.369
372.47	31.144
372.83	31.348
373.19	31.154
373.55	30.217
373.91	31.288
374.27	30.466
374.63	32.138
374.99	32.095
375.35	31.818
375.71	31.742
376.07	31.633
376.42	32.368
376.78	31.945
377.14	31.878
377.50	32.132
377.86	32.759
378.22	32.335
378.58	32.461
378.94	32.101
379.30	32.572
379.66	32.099
380.02	32.372
380.38	34.159
380.74	32.169
381.09	33.624
381.45	33.068
381.81	34.251
382.17	33.017
382.53	32.690
382.89	32.336
383.25	33.177
383.61	33.102
383.97	33.451
384.32	33.792
384.68	32.831
385.04	33.488
385.40	34.178
385.76	34.525
386.12	33.633
386.48	33.471
386.83	34.088
387.19	33.720
387.55	33.862
387.91	33.961
388.27	34.815
388.62	34.880
388.98	33.108
389.34	34.944
389.70	35.328
390.06	34.991
390.42	34.940
390.77	35.882
391.13	35.329
391.49	35.568
391.85	35.636
392.20	36.358
392.56	35.972
392.92	36.478
393.28	35.710
393.64	35.531
393.99	36.374
394.35	37.792
394.71	37.006
395.07	35.988
395.42	36.893
395.78	37.660
396.14	36.780
396.50	36.580
396.85	36.553
397.21	36.154
397.57	37.220
397.92	37.171
398.28	36.067
398.64	36.499
399.00	36.492
399.35	36.545
399.71	38.207
400.07	37.900
400.42	38.300
400.78	38.310
401.14	38.133
401.49	38.317
401.85	40.349
402.21	38.297
402.57	39.789
402.92	39.598
403.28	37.822
403.63	40.095
403.99	39.430
404.35	40.023
404.70	40.283
405.06	38.641
405.42	40.867
405.77	41.221
406.13	39.978
406.49	41.047
406.84	40.831
407.20	40.302
407.55	41.248
407.91	40.855
408.27	41.284
408.62	41.652
408.98	40.801
409.34	41.056
409.69	42.954
410.05	41.676
410.40	42.749
410.76	41.559
411.11	44.068
411.47	42.568
411.83	42.034
412.18	43.795
412.54	42.620
412.89	42.724
413.25	43.059
413.60	43.136
413.96	43.881
414.31	43.399
414.67	43.053
415.03	43.446
415.38	43.884
415.74	43.005
416.09	44.109
416.45	43.832
416.80	42.717
417.16	45.083
417.51	43.836
417.87	45.187
418.22	45.210
418.58	44.610
418.93	44.470
419.29	46.301
419.64	45.498
420.00	44.510
420.35	45.424
420.71	46.065
421.06	44.681
421.42	44.667
421.77	44.211
422.12	45.085
422.48	43.984
422.83	45.947
423.19	46.048
423.54	46.239
423.90	45.941
424.25	46.187
424.61	46.441
424.96	46.129
425.31	46.125
425.67	45.625
426.02	45.766
426.38	46.556
426.73	45.424
427.09	47.116
427.44	46.095
427.79	46.711
428.15	46.747
428.50	46.629
428.85	45.924
429.21	47.021
429.56	46.002
429.92	46.241
430.27	47.711
430.62	46.165
430.98	47.270
431.33	46.237
431.68	46.600
432.04	47.131
432.39	47.295
432.74	47.888
433.10	47.593
433.45	46.544
433.80	46.406
434.16	47.107
434.51	47.020
434.86	49.729
435.22	49.097
435.57	47.936
435.92	48.581
436.28	48.066
436.63	48.225
436.98	47.987
437.34	48.703
437.69	48.101
438.04	48.281
438.39	48.248
438.75	48.146
439.10	49.683
439.45	48.127
439.81	48.588
440.16	49.330
440.51	49.721
440.86	48.360
441.22	48.392
441.57	48.532
441.92	48.933
442.27	48.788
442.63	48.336
442.98	49.413
443.33	50.026
443.68	48.959
444.03	49.106
444.39	48.775
444.74	49.923
445.09	48.150
445.44	50.316
445.79	49.856
446.15	48.664
446.50	49.457
446.85	49.805
447.20	49.033
447.55	50.366
447.91	49.267
448.26	49.313
448.61	48.937
448.96	50.644
449.31	49.523
449.66	49.782
450.02	48.892
450.37	49.387
450.72	49.300
451.07	49.772
451.42	49.336
451.77	49.083
452.12	49.944
452.47	48.307
452.83	49.493
453.18	49.971
453.53	49.225
453.88	50.248
454.23	49.492
454.58	49.797
454.93	49.879
455.28	50.331
455.63	49.176
455.98	50.223
456.34	50.177
456.69	47.266
457.04	49.527
457.39	50.055
457.74	50.168
458.09	48.764
458.44	49.300
458.79	48.943
459.14	49.135
459.49	50.424
459.84	50.210
460.19	48.584
460.54	50.312
460.89	50.609
461.24	50.460
461.59	49.917
461.94	48.659
462.29	50.280
462.64	49.849
462.99	49.278
463.34	50.422
463.69	49.472
464.04	49.194
464.39	48.711
464.74	49.373
465.09	49.885
465.44	49.571
465.79	50.026
466.14	48.671
466.49	49.263
466.84	50.799
467.19	49.249
467.54	48.414
467.89	49.368
468.24	49.584
468.59	49.508
468.94	47.902
469.29	48.530
469.64	49.078
469.99	49.267
470.34	48.762
470.68	50.308
471.03	49.312
471.38	49.248
471.73	49.870
472.08	49.810
472.43	49.849
472.78	50.000
473.13	49.431
473.48	49.426
473.83	49.797
474.17	48.769
474.52	49.910
474.87	48.062
475.22	49.521
475.57	49.117
475.92	48.780
476.27	49.095
476.61	48.494
476.96	49.479
477.31	47.970
477.66	49.108
478.01	49.822
478.36	49.252
478.70	48.128
479.05	49.387
479.40	48.667
479.75	48.463
480.10	48.366
480.45	48.633
480.79	49.569
481.14	48.346
481.49	48.705
481.84	49.478
482.19	48.903
482.53	49.235
482.88	49.446
483.23	48.866
483.58	48.384
483.92	47.739
484.27	48.603
484.62	48.391
484.97	47.706
485.31	48.117
485.66	46.017
486.01	45.300
486.36	46.257
486.70	47.608
487.05	48.970
487.40	49.036
487.75	49.440
488.09	49.591
488.44	49.414
488.79	49.207
489.13	49.312
489.48	48.000
489.83	48.089
490.17	47.955
490.52	47.496
490.87	48.393
491.22	47.790
491.56	47.611
491.91	47.667
492.26	48.377
492.60	47.617
492.95	47.784
493.30	48.409
493.64	47.832
493.99	48.465
494.34	47.735
494.68	48.009
495.03	48.678
495.37	48.336
495.72	47.574
496.07	48.160
496.41	47.705
496.76	48.165
497.11	47.728
497.45	48.123
497.80	48.112
498.14	47.710
498.49	47.610
498.84	48.629
499.18	48.223
499.53	48.610
499.87	48.044
500.22	47.996
500.56	47.368
500.91	48.650
501.26	48.409
501.60	47.945
501.95	47.503
502.29	48.311
502.64	48.360
502.98	46.549
503.33	46.911
503.67	46.664
504.02	48.117
504.36	48.525
504.71	48.094
505.06	47.294
505.40	48.446
505.75	47.860
506.09	48.297
506.44	48.468
506.78	48.440
507.13	48.870
507.47	48.034
507.82	49.148
508.16	48.566
508.51	47.726
508.85	48.134
509.19	48.129
509.54	48.175
509.88	48.713
510.23	47.547
510.57	48.574
510.92	48.476
511.26	47.571
511.61	46.837
511.95	46.706
512.30	48.941
512.64	48.276
512.98	49.075
513.33	49.546
513.67	48.190
514.02	48.952
514.36	48.900
514.70	48.385
515.05	48.644
515.39	49.291
515.74	49.364
516.08	48.547
516.42	49.660
516.77	50.053
517.11	49.355
517.46	49.364
517.80	49.332
518.14	49.402
518.49	49.946
518.83	48.377
519.17	49.165
519.52	48.270
519.86	49.366
520.20	48.775
520.55	50.383
520.89	50.338
521.23	49.414
521.58	50.113
521.92	49.972
522.26	48.282
522.61	50.231
522.95	49.366
523.29	50.747
523.64	47.702
523.98	52.025
524.32	51.461
524.66	50.085
525.01	49.490
525.35	50.086
525.69	49.768
526.04	49.082
526.38	50.402
526.72	49.366
527.06	49.853
527.41	49.388
527.75	51.366
528.09	49.941
528.43	49.082
528.78	49.538
529.12	49.885
529.46	50.197
529.80	51.316
530.15	51.536
530.49	50.593
530.83	51.122
531.17	50.358
531.51	51.685
531.86	51.803
532.20	51.646
532.54	50.090
532.88	51.394
533.22	51.621
533.57	50.317
533.91	49.888
534.25	51.498
534.59	51.437
534.93	50.594
535.27	51.042
535.62	51.961
535.96	51.598
536.30	51.704
536.64	51.712
536.98	51.292
537.32	51.481
537.66	51.341
538.01	50.272
538.35	49.391
538.69	50.541
539.03	51.686
539.37	49.293
539.71	51.291
540.05	51.319
540.39	50.000
540.73	51.488
541.07	51.073
541.42	49.970
541.76	50.890
542.10	50.965
542.44	50.000
542.78	51.277
543.12	51.430
543.46	50.122
543.80	50.659
544.14	52.065
544.48	51.182
544.82	52.124
545.16	51.580
545.50	50.270
545.84	51.868
546.18	52.778
546.52	52.102
546.86	51.384
547.20	52.354
547.54	51.498
547.88	50.452
548.22	50.702
548.56	51.434
548.90	50.925
549.24	51.489
549.58	51.356
549.92	51.913
550.26	52.751
550.60	51.372
550.94	52.199
551.28	51.287
551.62	51.482
551.96	50.680
552.30	51.434
552.64	51.400
552.98	52.090
553.32	53.248
553.66	52.669
554.00	51.261
554.34	51.995
554.68	51.646
555.02	50.066
555.36	52.728
555.69	51.121
556.03	52.837
556.37	52.315
556.71	52.822
557.05	51.310
557.39	52.356
557.73	51.915
558.07	51.788
558.41	53.023
558.75	51.792
559.08	53.793
559.42	52.469
559.76	51.764
560.10	50.770
560.44	52.375
560.78	52.125
561.12	51.786
561.45	50.547
561.79	51.282
562.13	51.756
562.47	51.171
562.81	52.025
563.15	52.778
563.48	53.760
563.82	51.814
564.16	51.545
564.50	51.430
564.84	51.622
565.17	51.471
565.51	50.690
565.85	51.188
566.19	51.728
566.52	51.434
566.86	50.481
567.20	51.713
567.54	51.195
567.88	51.682
568.21	52.075
568.55	51.894
568.89	51.702
569.23	50.444
569.56	50.098
569.90	50.000
570.24	49.747
570.57	50.738
570.91	50.031
571.25	49.147
571.59	49.596
571.92	49.387
572.26	49.232
572.60	49.877
572.93	49.708
573.27	49.761
573.61	49.762
573.95	48.774
574.28	49.241
574.62	49.136
574.96	48.809
575.29	48.337
575.63	48.695
575.97	48.934
576.30	49.272
576.64	49.105
576.98	48.929
577.31	49.452
577.65	49.030
577.98	48.456
578.32	48.097
578.66	48.417
578.99	49.437
579.33	49.644
579.67	49.411
580.00	49.562
580.34	48.604
580.67	49.735
581.01	49.005
581.35	48.334
581.68	48.128
582.02	48.062
582.35	49.244
582.69	49.213
583.02	49.542
583.36	49.825
583.70	50.375
584.03	50.252
584.37	50.358
584.70	49.829
585.04	48.686
585.37	48.652
585.71	48.220
586.04	48.789
586.38	49.513
586.72	48.859
587.05	49.348
587.39	49.389
587.72	49.282
588.06	49.371
588.39	49.440
588.73	49.497
589.06	49.661
589.40	50.676
589.73	49.518
590.07	50.464
590.40	50.811
590.73	49.240
591.07	50.596
591.40	50.000
591.74	49.841
592.07	49.939
592.41	48.817
592.74	49.769
593.08	48.312
593.41	48.906
593.75	49.483
594.08	49.076
594.41	50.160
594.75	49.452
595.08	49.832
595.42	50.227
595.75	49.338
596.09	50.017
596.42	50.985
596.75	50.521
597.09	50.303
597.42	50.338
597.75	50.216
598.09	48.690
598.42	49.859
598.76	48.567
599.09	48.985
599.42	48.341
599.76	48.267
600.09	48.582
600.42	49.349
600.76	48.877
601.09	48.490
601.42	48.953
601.76	49.276
602.09	49.392
602.42	48.528
602.76	49.225
603.09	49.449
603.42	49.530
603.76	49.331
604.09	50.390
604.42	49.835
604.76	49.429
605.09	49.103
605.42	49.442
605.75	48.538
606.09	48.973
606.42	48.632
606.75	47.751
607.09	48.464
607.42	48.324
607.75	48.730
608.08	48.619
608.42	48.085
608.75	49.420
609.08	48.005
609.41	49.316
609.75	49.554
610.08	49.516
610.41	48.726
610.74	48.571
611.07	49.734
611.41	49.686
611.74	49.376
612.07	50.257
612.40	49.810
612.73	49.829
613.07	49.927
613.40	49.134
613.73	49.446
614.06	49.215
614.39	49.077
614.72	49.296
615.06	48.556
615.39	48.333
615.72	48.152
616.05	48.859
616.38	50.000
616.71	48.746
617.05	49.734
617.38	49.010
617.71	49.784
618.04	49.649
618.37	49.508
618.70	50.622
619.03	49.223
619.36	50.678
619.69	50.032
620.03	49.090
620.36	49.264
620.69	49.722
621.02	51.181
621.35	52.322
621.68	51.193
622.01	48.541
622.34	49.163
622.67	50.378
623.00	49.460
623.33	48.507
623.66	49.611
623.99	49.440
624.32	50.357
624.65	49.356
624.99	49.350
625.32	49.575
625.65	49.899
625.98	49.220
626.31	48.405
626.64	48.645
626.97	50.488
627.30	49.734
627.63	49.587
627.96	50.150
628.29	49.961
628.62	49.874
628.95	50.657
629.28	49.958
629.61	49.158
629.94	48.368
630.26	50.000
630.59	49.482
630.92	50.390
631.25	51.521
631.58	52.166
631.91	52.390
632.24	50.913
632.57	51.423
632.90	50.351
633.23	50.816
633.56	50.510
633.89	50.310
634.22	50.832
634.55	51.148
634.88	50.000
635.20	52.207
635.53	52.429
635.86	50.271
636.19	51.007
636.52	50.211
636.85	48.212
637.18	49.272
637.51	50.860
637.83	52.270
638.16	51.498
638.49	51.174
638.82	49.944
639.15	50.172
639.48	52.771
639.81	49.307
640.13	51.590
640.46	50.182
640.79	49.632
641.12	50.186
641.45	50.188
641.77	54.044
642.10	49.213
642.43	51.197
642.76	52.575
643.09	48.904
643.41	49.300
643.74	51.862
644.07	52.000
644.40	50.495
644.73	51.379
645.05	51.395
645.38	51.223
645.71	51.760
646.04	50.072
646.36	49.343
646.69	52.454
647.02	52.446
647.35	52.977
647.67	52.335
648.00	52.866
648.33	50.300
648.66	49.215
648.98	48.707
649.31	49.797
649.64	49.668
649.96	51.194
650.29	50.626
650.62	48.515
650.94	48.949
651.27	48.653
651.60	49.415
651.92	48.936
652.25	52.533
652.58	49.656
652.90	48.692
653.23	50.845
653.56	50.214
653.88	50.702
654.21	50.000
654.54	50.867
654.86	52.266
655.19	48.557
655.52	46.209
655.84	42.737
656.17	50.377
656.49	71.276
656.82	79.520
657.15	64.768
657.47	49.818
657.80	38.032
658.13	30.362
658.45	40.717
658.78	50.733
659.10	49.813
659.43	50.090
659.75	50.061
660.08	48.627
660.41	48.966
660.73	48.917
661.06	49.192
661.38	51.037
661.71	50.690
662.03	49.912
662.36	51.163
662.68	50.281
663.01	50.796
663.33	52.174
663.66	48.718
663.98	51.538
664.31	50.657
664.63	49.518
664.96	49.909
665.28	48.639
665.61	49.301
665.93	46.071
666.26	51.971
666.58	48.339
666.91	51.215
667.23	51.429
667.56	49.112
667.88	49.200
668.21	45.703
668.53	47.297
668.86	47.937
669.18	50.916
669.50	49.304
669.83	49.400
670.15	47.835
670.48	49.206
670.80	47.801
671.13	49.149
671.45	45.276
671.77	50.094
672.10	46.833
672.42	44.984
672.75	47.619
673.07	47.015
673.39	48.690
673.72	47.819
674.04	47.759
674.37	50.626
674.69	47.972
675.01	46.476
675.34	47.328
675.66	47.753
675.98	48.507
676.31	50.000
676.63	50.760
676.95	49.808
677.28	50.605
677.60	48.819
677.92	47.217
678.25	48.995
678.57	49.288
678.89	47.270
679.22	46.690
679.54	45.470
679.86	44.068
680.18	47.761
680.51	46.698
680.83	48.936
681.15	47.414
681.48	47.668
681.80	48.187
682.12	47.552
682.44	47.579
682.77	45.567
683.09	47.538
683.41	47.674
683.73	47.628
684.06	47.048
684.38	46.869
684.70	46.679
685.02	46.644
685.34	45.092
685.67	44.795
685.99	45.092
686.31	42.442
686.63	45.656
686.96	45.426
687.28	47.394
687.60	44.781
687.92	45.016
688.24	44.574
688.56	41.897
688.89	48.276
689.21	48.141
689.53	47.255
689.85	46.351
690.17	45.000
690.49	48.008
690.82	45.347
691.14	43.725
691.46	46.272
691.78	43.278
692.10	44.771
692.42	45.714
692.74	43.920
693.06	40.370
693.39	43.833
693.71	44.173
694.03	44.796
694.35	46.667
694.67	43.943
694.99	46.383
695.31	46.799
695.63	45.671
695.95	43.685
696.27	46.813
696.59	48.673
696.91	43.468
697.23	45.934
697.56	43.992
697.88	43.182
698.20	44.821
698.52	46.591
698.84	47.193
699.16	46.531
699.48	44.979
699.80	44.894
700.12	44.105
700.44	47.696
700.76	45.131
701.08	46.005
701.40	49.482
701.72	42.786
702.04	45.722
702.36	41.361
702.68	43.276
703.00	46.944
703.32	43.596
703.64	44.743
703.96	47.017
704.28	43.243
704.60	46.835
704.91	43.622
705.23	43.836
705.55	44.568
705.87	46.970
706.19	48.160
706.51	48.795
706.83	50.432
707.15	41.005
707.47	42.290
707.79	41.485
708.11	41.949
708.43	43.226
708.74	42.634
709.06	43.852
709.38	46.714
709.70	44.169
710.02	43.928
710.34	46.277
710.66	42.179
710.98	45.628
711.29	42.857
711.61	47.458
711.93	44.160
712.25	42.162
712.57	46.313
712.89	45.000
713.20	41.124
713.52	40.173
713.84	40.669
714.16	40.000
714.48	42.784
714.80	46.753
715.11	43.832
715.43	46.154
715.75	45.000
716.07	43.370
716.39	45.902
716.70	40.964
717.02	44.918
717.34	42.160
717.66	43.624
717.97	41.438
718.29	44.674
718.61	41.776
718.93	39.159
719.24	41.304
719.56	42.638
719.88	40.841
720.20	44.839
720.51	39.130
720.83	44.375
721.15	39.474
721.46	38.699
721.78	43.667
722.10	38.835
722.42	42.617
722.73	40.323
723.05	42.105
723.37	37.847
723.68	42.294
724.00	45.126
724.32	40.845
724.63	38.112
724.95	49.291
725.27	46.341
725.58	42.049
725.90	46.207
726.22	43.260
726.53	38.961
726.85	39.623
727.16	40.181
727.48	39.755
727.80	37.086
728.11	41.343
728.43	39.057
728.74	39.130
729.06	39.073
729.38	37.013
729.69	42.617
730.01	41.964
730.32	38.182
730.64	42.767
730.96	39.752
731.27	40.503
731.59	41.209
731.90	36.623
732.22	39.062
732.53	36.740
732.85	38.857
733.16	37.830
733.48	38.415
733.80	35.376
734.11	38.462
734.43	42.973
734.74	41.772
735.06	39.447
735.37	43.784
735.69	38.919
736.00	42.090
736.32	38.275
736.63	39.444
736.95	39.655
737.26	41.818
737.58	37.879
737.89	41.471
738.21	37.615
738.52	33.770
738.83	42.662
739.15	42.199
739.46	39.456
739.78	38.957
740.09	39.542
740.41	40.816
740.72	41.667
741.04	40.129
741.35	41.053
741.66	40.784
741.98	38.934
742.29	40.167
742.61	44.298
742.92	39.231
743.23	39.350
743.55	37.209
743.86	40.400
744.18	35.124
744.49	40.084
744.80	42.387
745.12	42.616
745.43	37.805
745.74	37.500
746.06	34.746
746.37	43.882
746.68	42.683
747.00	39.583
747.31	40.773
747.62	36.923
747.94	33.198
748.25	35.743
748.56	33.061
748.88	38.462
749.19	43.103
749.50	38.528
749.82	40.161
750.13	37.722
750.44	34.000
750.75	37.538
751.07	37.231
751.38	35.016
751.69	37.380
752.01	36.570
752.32	36.275
752.63	37.415
752.94	37.024
753.26	33.829
753.57	37.407
753.88	39.700
754.19	38.585
754.51	37.942
754.82	37.299
755.13	40.656
755.44	38.225
755.75	39.803
756.07	36.418
756.38	33.648
756.69	37.349
757.00	32.133
757.31	33.880
757.63	34.015
757.94	36.854
758.25	35.440
758.56	34.423
758.87	36.364
759.18	36.533
759.50	38.244
759.81	36.415
760.12	38.275
760.43	35.677
760.74	35.468
761.05	35.500
761.36	36.386
761.67	37.310
761.99	37.568
762.30	36.585
762.61	33.003
762.92	36.940
763.23	35.955
763.54	38.489
763.85	35.052
764.16	35.690
764.47	38.380
764.78	39.936
765.10	36.364
765.41	35.385
765.72	30.952
766.03	36.441
766.34	33.856
766.65	34.146
766.96	35.857
767.27	39.171
767.58	34.826
767.89	39.904
768.20	34.742
768.51	31.944
768.82	34.940
769.13	36.364
769.44	33.846
769.75	34.657
770.06	34.231
770.37	40.945
770.68	28.936
770.99	31.579
771.30	38.519
771.61	36.122
771.92	35.556
772.23	34.818
772.54	30.556
772.85	41.935
773.16	32.857
773.47	36.508
773.78	31.351
774.09	36.364
774.39	42.000
774.70	33.880
775.01	27.439
775.32	31.176
775.63	36.810
775.94	22.293
776.25	30.968
776.56	37.179
776.87	40.136
777.18	34.483
777.48	38.462
777.79	35.811
778.10	23.529
778.41	31.944
778.72	33.103
779.03	30.864
779.34	32.121
779.65	31.088
779.95	34.444
780.26	31.250
780.57	33.548
780.88	43.478
781.19	32.258
781.50	41.765
781.80	35.484
782.11	33.333
782.42	28.788
782.73	41.916
783.04	32.402
783.34	29.091
783.65	27.451
783.96	31.677
784.27	30.357
784.57	32.450
784.88	37.143
785.19	27.559
785.50	28.346
785.81	29.323
786.11	36.923
786.42	27.338
786.73	34.532
787.04	39.098
787.34	29.508
787.65	32.800
787.96	30.597
788.26	34.266
788.57	32.867
788.88	33.553
789.19	31.373
789.49	34.932
789.80	26.950
790.11	29.921
790.41	24.219
790.72	18.644
791.03	18.447
791.33	33.043
791.64	28.947
791.95	26.786
792.25	20.000
792.56	25.893
792.87	31.250
793.17	25.000
793.48	23.958
793.79	25.301
794.09	33.028
794.40	22.936
794.70	31.973
795.01	25.325
795.32	25.342
795.62	28.873
795.93	32.576
796.23	29.508
796.54	19.643
796.85	22.340
797.15	27.174
797.46	13.699
797.76	12.500
798.07	29.348
798.37	17.526
798.68	25.974
798.99	31.034
799.29	23.596
799.60	22.340
799.90	32.530
800.21	7.692
800.51	14.925
800.82	16.176
801.12	8.219
801.43	13.235
801.73	23.729
802.04	30.303
802.34	23.333
802.65	32.203
802.95	29.851
803.26	38.983
803.56	24.658
803.87	35.714
804.17	21.918
804.48	14.035
804.78	20.833
805.09	17.241
805.39	22.973
805.70	15.493
806.00	20.732
806.30	18.072
806.61	30.137
806.91	26.923
807.22	26.667
807.52	19.540
807.83	27.778
808.13	32.530
808.43	31.461
808.74	23.750
809.04	7.353
809.35	34.667
809.65	21.429
809.95	28.767
810.26	14.035
810.56	18.966
810.86	22.059
811.17	12.281
811.47	6.557
811.77	2.222
812.08	28.814
812.38	30.000
812.69	17.241
812.99	24.528
813.29	10.256
813.59	24.000
813.90	28.070
814.20	23.636
814.50	19.718
814.81	29.487
815.11	19.672
815.41	7.463
815.72	34.483
816.02	32.143
816.32	62.222
816.62	22.727
816.93	11.111
817.23	22.222
817.53	21.277
817.84	23.810
818.14	26.471
818.44	14.286
818.74	17.778
819.04	5.128
819.35	2.857
819.65	-15.385
819.95	15.094
820.25	20.000
820.56	26.190
820.86	12.500
821.16	10.256
821.46	25.581
821.76	4.000
822.07	30.357
822.37	17.391
822.67	4.255
822.97	-16.216
823.27	-12.500
823.57	32.653
823.88	44.444
824.18	20.000
824.48	13.333
824.78	-8.000
825.08	-21.212
825.38	60.000
825.69	17.021
825.99	41.667
826.29	-40.000
826.59	5.128
826.89	9.302
827.19	16.000
827.49	-2.941
827.79	8.333
828.09	13.514
828.39	26.667
828.70	0.000
829.00	9.302
829.30	-7.143
829.60	26.471
829.90	23.913
830.20	0.000
830.50	-34.483
830.80	-27.778
831.10	26.923
831.40	50.000
831.70	-14.286
832.00	9.677
832.30	-58.824
832.60	8.333
832.90	-46.154
833.20	31.579
833.50	35.000
833.80	10.526
834.10	-52.381
834.40	13.889
834.70	15.625
835.00	-17.143
835.30	8.824
835.60	6.667
835.90	-8.000
836.20	-45.455
836.50	-8.000
836.80	-18.182
837.10	-7.407
837.40	3.704
837.70	-56.250
838.00	-10.714
838.30	13.043
838.60	37.931
838.90	-42.857
839.19	-56.522
839.49	-58.333
839.79	17.391
840.09	-68.750
840.39	-25.000
840.69	12.903
840.99	-21.429
841.29	46.667
841.59	0.000
841.88	23.077
842.18	7.692
842.48	-110.000
842.78	-45.000
843.08	23.333
843.38	38.710
843.68	-72.222
843.97	11.765
844.27	-6.250
844.57	15.789
844.87	-20.000
845.17	-13.333
845.47	52.381
845.76	9.524
846.06	-122.222
846.36	-52.941
846.66	11.538
846.96	-53.333
847.25	-52.941
847.55	17.391
847.85	-10.000
848.15	-5.882
848.44	-118.182
848.74	9.524
849.04	-25.000
849.34	-75.000
849.63	-13.043
849.93	250.000
850.23	-20.000
850.53	15.385
850.82	0.000
851.12	36.364
851.42	-9.091
851.71	53.846
852.01	-25.000
852.31	-53.846
852.61	-5.263
852.90	-66.667
853.20	16.667
853.50	-55.556
853.79	-33.333
854.09	4.545
854.39	-108.333
854.68	-12.903
854.98	-23.077
855.28	5.556
855.57	21.429
855.87	-8.000
856.17	-18.182
856.46	-22.222
856.76	-50.000
857.05	-4.348
857.35	-37.500
857.65	-100.000
857.94	14.286
858.24	-7.407
858.53	-8.696
858.83	35.294
859.13	17.647
859.42	-11.765
859.72	-57.143
860.01	15.000
860.31	-111.111
860.60	20.000
860.90	33.333
861.20	-11.111
861.49	-23.077
861.79	6.667
862.08	-30.769
862.38	18.750
862.67	52.941
862.97	-50.000
863.26	-55.556
863.56	50.000
863.85	-45.455
864.15	-33.333
864.44	-233.333
864.74	-28.571
865.03	-18.750
865.33	-130.000
865.62	-35.484
865.92	-9.091
866.21	-8.696
866.51	-28.571
866.80	-40.000
867.10	-25.000
867.39	-16.667
867.69	1900.000
867.98	42.857
868.27	-5.882
868.57	-1300.000
868.86	-100.000
869.16	-14.286
869.45	25.000
869.75	18.182
870.04	-42.857
870.33	-25.000
870.63	-114.286
870.92	-175.000
871.22	-212.500
871.51	-72.727
871.80	-566.667
872.10	-150.000
>>>>>End Processed Spectral Data<<<<<
