SpectraSuite Data File
++++++++++++++++++++++++++++++++++++
Date: Thu May 14 15:50:29 PDT 2015
User: schluterlab
Dark Spectrum Present: Yes
Reference Spectrum Present: Yes
Number of Sampled Component Spectra: 1
Spectrometers: USB2E3373
Integration Time (usec): 3000 (USB2E3373)
Spectra Averaged: 3 (USB2E3373)
Boxcar Smoothing: 0 (USB2E3373)
Correct for Electrical Dark: No (USB2E3373)
Strobe/Lamp Enabled: No (USB2E3373)
Correct for Detector Non-linearity: No (USB2E3373)
Correct for Stray Light: No (USB2E3373)
Number of Pixels in Processed Spectrum: 2048
>>>>>Begin Processed Spectral Data<<<<<
178.53	0.000
178.91	742.857
179.29	-4900.000
179.67	-5300.000
180.04	450.000
180.42	440.000
180.80	880.000
181.18	-4100.000
181.56	-4000.000
181.94	1075.000
182.31	-1175.000
182.69	1566.667
183.07	-1900.000
183.45	1225.000
183.83	-633.333
184.20	-1133.333
184.58	3200.000
184.96	-1150.000
185.34	-577.778
185.72	-800.000
186.09	544.444
186.47	2500.000
186.85	980.000
187.23	-500.000
187.61	-3600.000
187.98	820.000
188.36	1125.000
188.74	-1025.000
189.12	-1300.000
189.49	-250.000
189.87	-537.500
190.25	-377.778
190.63	-780.000
191.00	-533.333
191.38	0.000
191.76	-1200.000
192.14	-716.667
192.51	2050.000
192.89	-550.000
193.27	0.000
193.65	-600.000
194.02	-4100.000
194.40	-542.857
194.78	642.857
195.15	0.000
195.53	-281.818
195.91	0.000
196.29	-1100.000
196.66	-353.846
197.04	-4900.000
197.42	-685.714
197.79	-2550.000
198.17	-550.000
198.55	-614.286
198.92	-366.667
199.30	-575.000
199.68	-318.182
200.05	-271.429
200.43	-2450.000
200.81	714.286
201.18	0.000
201.56	611.111
201.94	0.000
202.31	1566.667
202.69	-533.333
203.07	4200.000
203.44	-466.667
203.82	-1250.000
204.19	-408.333
204.57	-800.000
204.95	-612.500
205.32	-4700.000
205.70	900.000
206.08	-716.667
206.45	-650.000
206.83	980.000
207.20	-683.333
207.58	-980.000
207.96	-933.333
208.33	-783.333
208.71	466.667
209.08	-566.667
209.46	0.000
209.84	666.667
210.21	1800.000
210.59	2050.000
210.96	1633.333
211.34	-900.000
211.71	-600.000
212.09	-5100.000
212.46	0.000
212.84	2500.000
213.22	-960.000
213.59	-1025.000
213.97	-330.000
214.34	-1466.667
214.72	883.333
215.09	-1050.000
215.47	0.000
215.84	557.143
216.22	2400.000
216.59	-840.000
216.97	-740.000
217.34	-1225.000
217.72	-537.500
218.09	-1175.000
218.47	-1125.000
218.84	0.000
219.22	840.000
219.59	-182.353
219.97	-145.000
220.34	2250.000
220.72	-511.111
221.09	-261.538
221.47	-1400.000
221.84	-410.000
222.22	-600.000
222.59	0.000
222.97	-587.500
223.34	-1040.000
223.72	-4700.000
224.09	-1175.000
224.46	-1250.000
224.84	-760.000
225.21	-714.286
225.59	-1200.000
225.96	-1000.000
226.34	-126.923
226.71	766.667
227.08	-2700.000
227.46	-260.000
227.83	-1050.000
228.21	-226.316
228.58	550.000
228.95	2150.000
229.33	-266.667
229.70	-340.000
230.08	-163.158
230.45	550.000
230.82	-1400.000
231.20	-335.714
231.57	-358.333
231.95	-427.273
232.32	-372.727
232.69	-130.000
233.07	-1025.000
233.44	-247.059
233.81	-460.000
234.19	-172.222
234.56	-159.091
234.93	-89.655
235.31	-163.158
235.68	-205.556
236.05	-215.000
236.43	-146.154
236.80	-112.000
237.17	-129.630
237.55	-115.152
237.92	-440.000
238.29	-135.484
238.67	-90.909
239.04	-97.222
239.41	-78.571
239.79	-65.217
240.16	-66.667
240.53	-67.391
240.91	-88.235
241.28	-60.656
241.65	-28.358
242.02	-35.135
242.40	-46.154
242.77	-46.667
243.14	-54.878
243.51	-56.579
243.89	-35.897
244.26	-28.713
244.63	-30.392
245.00	-25.234
245.38	-24.561
245.75	-28.319
246.12	-21.429
246.49	-20.155
246.87	-19.286
247.24	-12.583
247.61	-12.500
247.98	-16.779
248.36	-17.901
248.73	-12.883
249.10	-7.650
249.47	-3.483
249.84	-1.571
250.22	-8.808
250.59	-12.222
250.96	-2.727
251.33	-8.673
251.70	-4.274
252.08	1.667
252.45	-5.328
252.82	-6.612
253.19	-5.469
253.56	-1.521
253.94	-1.154
254.31	-3.409
254.68	1.049
255.05	1.954
255.42	-0.680
255.79	0.000
256.16	1.987
256.54	0.000
256.91	2.951
257.28	1.639
257.65	-2.548
258.02	1.770
258.39	3.419
258.76	5.810
259.14	6.034
259.51	3.458
259.88	-0.283
260.25	2.778
260.62	2.192
260.99	8.470
261.36	6.702
261.73	3.448
262.10	2.198
262.47	3.217
262.85	4.040
263.22	3.377
263.59	0.263
263.96	4.092
264.33	3.581
264.70	4.444
265.07	7.637
265.44	7.256
265.81	4.630
266.18	6.576
266.55	5.804
266.92	3.645
267.29	6.127
267.66	7.982
268.03	6.550
268.40	4.593
268.77	6.150
269.14	4.846
269.51	5.263
269.88	5.943
270.25	6.237
270.62	6.118
270.99	7.677
271.36	6.535
271.73	5.501
272.10	6.212
272.47	6.814
272.84	7.028
273.21	5.010
273.58	5.847
273.95	5.385
274.32	7.034
274.69	5.609
275.06	8.425
275.43	5.360
275.80	8.818
276.17	4.259
276.54	5.970
276.91	5.725
277.28	7.052
277.65	6.643
278.02	8.088
278.39	5.072
278.76	7.030
279.13	6.560
279.50	9.450
279.87	8.408
280.23	4.225
280.60	7.966
280.97	9.375
281.34	8.149
281.71	9.137
282.08	5.648
282.45	9.329
282.82	9.105
283.19	7.270
283.56	9.016
283.92	8.709
284.29	10.427
284.66	8.539
285.03	5.288
285.40	7.264
285.77	8.050
286.14	8.092
286.51	8.067
286.87	6.161
287.24	7.982
287.61	8.819
287.98	7.251
288.35	8.876
288.72	6.657
289.08	8.492
289.45	7.249
289.82	6.024
290.19	7.328
290.56	8.028
290.93	7.846
291.29	6.749
291.66	7.300
292.03	7.598
292.40	7.891
292.77	8.625
293.13	7.442
293.50	6.702
293.87	6.711
294.24	8.000
294.60	7.206
294.97	5.638
295.34	8.963
295.71	5.927
296.08	6.460
296.44	7.475
296.81	5.968
297.18	7.472
297.55	6.486
297.91	5.931
298.28	5.332
298.65	7.610
299.02	6.021
299.38	6.636
299.75	5.841
300.12	4.977
300.48	6.336
300.85	8.436
301.22	6.376
301.59	5.594
301.95	6.780
302.32	8.111
302.69	6.353
303.05	7.617
303.42	6.098
303.79	6.354
304.15	6.309
304.52	6.448
304.89	7.016
305.25	6.832
305.62	7.001
305.99	6.804
306.35	6.149
306.72	7.342
307.09	6.904
307.45	8.075
307.82	6.862
308.19	7.467
308.55	7.040
308.92	7.692
309.29	6.322
309.65	6.823
310.02	6.337
310.38	6.791
310.75	7.282
311.12	8.054
311.48	7.625
311.85	6.648
312.22	5.882
312.58	6.948
312.95	6.310
313.31	7.588
313.68	8.608
314.05	8.853
314.41	8.379
314.78	7.539
315.14	7.078
315.51	7.479
315.87	9.361
316.24	8.767
316.61	8.348
316.97	7.330
317.34	6.349
317.70	8.210
318.07	8.466
318.43	8.673
318.80	9.365
319.16	8.069
319.53	6.684
319.89	6.661
320.26	8.452
320.62	8.067
320.99	8.403
321.35	7.948
321.72	8.930
322.08	8.476
322.45	10.027
322.81	8.213
323.18	9.115
323.54	9.397
323.91	8.274
324.27	8.778
324.64	8.984
325.00	7.960
325.37	8.600
325.73	8.926
326.10	9.165
326.46	9.528
326.83	9.688
327.19	8.898
327.56	10.040
327.92	9.127
328.29	8.710
328.65	8.794
329.01	8.968
329.38	9.773
329.74	9.932
330.11	9.418
330.47	9.520
330.84	8.786
331.20	9.917
331.56	8.406
331.93	9.707
332.29	10.593
332.66	9.302
333.02	8.626
333.38	9.480
333.75	10.269
334.11	10.008
334.48	8.663
334.84	9.941
335.20	8.732
335.57	8.938
335.93	10.083
336.29	9.068
336.66	9.083
337.02	9.699
337.38	9.609
337.75	9.421
338.11	9.336
338.47	8.519
338.84	9.391
339.20	8.930
339.56	8.649
339.93	8.867
340.29	8.293
340.65	8.597
341.02	9.896
341.38	10.509
341.74	9.443
342.11	9.252
342.47	8.419
342.83	9.903
343.20	9.321
343.56	9.222
343.92	8.407
344.28	8.438
344.65	10.465
345.01	8.970
345.37	9.798
345.73	8.418
346.10	9.906
346.46	8.623
346.82	9.888
347.19	9.320
347.55	9.788
347.91	8.172
348.27	9.332
348.63	10.129
349.00	9.694
349.36	10.112
349.72	10.045
350.08	9.955
350.45	8.973
350.81	9.729
351.17	8.346
351.53	9.022
351.89	9.643
352.26	8.731
352.62	8.731
352.98	8.855
353.34	8.364
353.70	9.245
354.07	8.718
354.43	8.504
354.79	8.601
355.15	9.124
355.51	10.015
355.87	8.452
356.24	8.821
356.60	9.239
356.96	9.266
357.32	8.625
357.68	8.199
358.04	8.982
358.40	9.627
358.77	8.918
359.13	8.936
359.49	8.327
359.85	8.412
360.21	8.967
360.57	8.327
360.93	8.463
361.29	8.211
361.66	8.472
362.02	9.743
362.38	8.573
362.74	8.589
363.10	9.354
363.46	9.695
363.82	8.665
364.18	8.234
364.54	8.506
364.90	9.632
365.26	8.207
365.62	9.800
365.98	9.326
366.35	9.463
366.71	9.864
367.07	8.525
367.43	10.112
367.79	9.091
368.15	10.100
368.51	9.946
368.87	10.843
369.23	9.867
369.59	9.085
369.95	9.195
370.31	9.723
370.67	9.422
371.03	8.864
371.39	8.462
371.75	9.216
372.11	9.350
372.47	9.953
372.83	9.817
373.19	9.273
373.55	9.350
373.91	8.521
374.27	9.379
374.63	9.066
374.99	9.019
375.35	9.675
375.71	9.355
376.07	9.296
376.42	10.139
376.78	9.509
377.14	9.857
377.50	9.867
377.86	9.421
378.22	9.880
378.58	9.394
378.94	10.622
379.30	9.607
379.66	10.347
380.02	9.925
380.38	10.253
380.74	9.972
381.09	9.466
381.45	9.545
381.81	10.831
382.17	9.739
382.53	10.000
382.89	10.214
383.25	10.551
383.61	9.317
383.97	9.835
384.32	10.347
384.68	9.687
385.04	10.353
385.40	10.253
385.76	10.668
386.12	10.473
386.48	10.647
386.83	10.429
387.19	10.255
387.55	9.800
387.91	10.445
388.27	10.508
388.62	10.939
388.98	10.265
389.34	10.725
389.70	11.214
390.06	10.657
390.42	9.699
390.77	11.258
391.13	9.624
391.49	10.628
391.85	10.667
392.20	10.439
392.56	11.695
392.92	11.123
393.28	11.222
393.64	10.838
393.99	11.098
394.35	12.675
394.71	11.916
395.07	11.437
395.42	11.422
395.78	10.299
396.14	11.349
396.50	10.748
396.85	11.091
397.21	11.243
397.57	11.072
397.92	11.340
398.28	11.244
398.64	10.412
399.00	11.099
399.35	11.466
399.71	11.685
400.07	11.510
400.42	10.827
400.78	11.921
401.14	11.668
401.49	11.768
401.85	11.512
402.21	12.399
402.57	11.737
402.92	11.052
403.28	11.944
403.63	10.859
403.99	11.342
404.35	11.654
404.70	12.238
405.06	11.685
405.42	11.768
405.77	12.214
406.13	12.426
406.49	12.050
406.84	11.911
407.20	11.738
407.55	10.963
407.91	12.319
408.27	12.250
408.62	12.333
408.98	11.434
409.34	11.496
409.69	12.855
410.05	12.427
410.40	12.993
410.76	12.227
411.11	12.916
411.47	13.206
411.83	13.169
412.18	12.892
412.54	12.448
412.89	12.747
413.25	13.939
413.60	12.694
413.96	12.821
414.31	12.861
414.67	13.536
415.03	13.292
415.38	14.565
415.74	13.439
416.09	13.202
416.45	12.649
416.80	12.852
417.16	13.665
417.51	13.512
417.87	13.305
418.22	14.491
418.58	14.064
418.93	13.504
419.29	13.194
419.64	12.725
420.00	14.125
420.35	13.644
420.71	12.866
421.06	13.456
421.42	14.908
421.77	13.732
422.12	13.848
422.48	14.900
422.83	14.294
423.19	14.960
423.54	14.712
423.90	14.136
424.25	14.293
424.61	14.925
424.96	15.102
425.31	15.074
425.67	14.761
426.02	14.997
426.38	14.696
426.73	14.397
427.09	15.340
427.44	14.309
427.79	13.930
428.15	14.441
428.50	15.000
428.85	14.581
429.21	15.585
429.56	14.808
429.92	15.184
430.27	15.133
430.62	15.193
430.98	15.248
431.33	14.907
431.68	15.182
432.04	16.201
432.39	15.533
432.74	15.639
433.10	15.468
433.45	14.660
433.80	15.236
434.16	16.167
434.51	15.570
434.86	15.418
435.22	16.312
435.57	15.684
435.92	16.361
436.28	15.472
436.63	15.838
436.98	15.996
437.34	15.840
437.69	15.905
438.04	15.918
438.39	15.853
438.75	15.993
439.10	16.702
439.45	16.657
439.81	16.271
440.16	16.139
440.51	16.778
440.86	16.120
441.22	16.345
441.57	17.138
441.92	16.877
442.27	17.172
442.63	17.784
442.98	16.115
443.33	16.412
443.68	17.493
444.03	17.733
444.39	17.245
444.74	17.662
445.09	16.726
445.44	17.439
445.79	18.151
446.15	17.061
446.50	17.468
446.85	18.045
447.20	17.602
447.55	17.207
447.91	17.330
448.26	17.019
448.61	17.428
448.96	18.455
449.31	16.755
449.66	16.394
450.02	17.247
450.37	17.954
450.72	16.846
451.07	17.312
451.42	16.811
451.77	17.732
452.12	17.325
452.47	17.112
452.83	17.455
453.18	17.688
453.53	17.576
453.88	18.222
454.23	18.023
454.58	17.818
454.93	17.112
455.28	17.158
455.63	17.169
455.98	17.989
456.34	17.727
456.69	18.460
457.04	17.435
457.39	17.184
457.74	18.512
458.09	17.738
458.44	18.050
458.79	16.916
459.14	17.724
459.49	18.166
459.84	17.838
460.19	17.823
460.54	18.342
460.89	18.793
461.24	17.299
461.59	18.594
461.94	16.999
462.29	18.533
462.64	17.139
462.99	17.577
463.34	17.716
463.69	17.702
464.04	18.010
464.39	17.321
464.74	18.244
465.09	17.705
465.44	17.865
465.79	17.821
466.14	17.509
466.49	17.789
466.84	17.686
467.19	19.133
467.54	16.686
467.89	17.989
468.24	18.338
468.59	17.255
468.94	16.492
469.29	18.116
469.64	17.864
469.99	18.037
470.34	17.698
470.68	17.703
471.03	18.664
471.38	18.247
471.73	16.645
472.08	18.211
472.43	18.061
472.78	17.821
473.13	17.699
473.48	17.825
473.83	18.630
474.17	17.292
474.52	18.400
474.87	18.162
475.22	19.042
475.57	17.705
475.92	19.164
476.27	18.211
476.61	17.965
476.96	18.300
477.31	18.861
477.66	18.678
478.01	18.556
478.36	19.242
478.70	18.768
479.05	19.325
479.40	19.250
479.75	18.732
480.10	18.806
480.45	19.234
480.79	18.912
481.14	18.336
481.49	19.082
481.84	19.060
482.19	18.452
482.53	18.714
482.88	19.229
483.23	18.408
483.58	18.777
483.92	18.617
484.27	18.713
484.62	18.152
484.97	19.012
485.31	18.479
485.66	17.958
486.01	18.006
486.36	18.965
486.70	20.199
487.05	21.058
487.40	20.269
487.75	20.636
488.09	20.259
488.44	19.575
488.79	19.427
489.13	19.298
489.48	17.748
489.83	18.954
490.17	18.510
490.52	18.842
490.87	18.824
491.22	18.934
491.56	18.686
491.91	18.927
492.26	18.996
492.60	18.933
492.95	18.649
493.30	18.377
493.64	18.966
493.99	19.430
494.34	18.685
494.68	18.715
495.03	18.943
495.37	18.642
495.72	18.141
496.07	18.843
496.41	18.275
496.76	18.807
497.11	18.854
497.45	18.990
497.80	19.725
498.14	18.549
498.49	18.934
498.84	18.830
499.18	19.118
499.53	19.148
499.87	19.385
500.22	18.744
500.56	19.253
500.91	19.130
501.26	19.409
501.60	18.515
501.95	19.192
502.29	18.736
502.64	19.195
502.98	18.939
503.33	19.568
503.67	18.927
504.02	18.958
504.36	19.571
504.71	18.787
505.06	19.372
505.40	19.378
505.75	18.716
506.09	18.923
506.44	19.638
506.78	19.587
507.13	19.686
507.47	19.659
507.82	19.460
508.16	18.595
508.51	19.316
508.85	18.800
509.19	19.848
509.54	18.924
509.88	17.873
510.23	19.184
510.57	20.445
510.92	19.545
511.26	18.711
511.61	18.880
511.95	19.571
512.30	19.645
512.64	19.490
512.98	20.760
513.33	19.355
513.67	19.735
514.02	20.133
514.36	19.591
514.70	19.635
515.05	19.656
515.39	20.735
515.74	20.095
516.08	18.595
516.42	20.408
516.77	20.137
517.11	18.773
517.46	19.830
517.80	19.669
518.14	20.403
518.49	19.143
518.83	20.224
519.17	19.763
519.52	19.916
519.86	20.486
520.20	19.915
520.55	19.825
520.89	20.045
521.23	20.268
521.58	20.791
521.92	19.773
522.26	20.160
522.61	19.965
522.95	19.608
523.29	20.690
523.64	19.619
523.98	20.023
524.32	21.146
524.66	19.408
525.01	19.875
525.35	20.793
525.69	19.258
526.04	19.747
526.38	20.977
526.72	20.819
527.06	20.176
527.41	19.534
527.75	20.903
528.09	20.366
528.43	19.834
528.78	21.040
529.12	20.183
529.46	19.899
529.80	20.481
530.15	20.870
530.49	20.403
530.83	20.484
531.17	20.370
531.51	21.059
531.86	20.493
532.20	20.976
532.54	21.305
532.88	20.303
533.22	21.037
533.57	20.196
533.91	21.268
534.25	20.407
534.59	21.092
534.93	20.147
535.27	21.239
535.62	20.750
535.96	20.802
536.30	20.917
536.64	20.841
536.98	20.726
537.32	21.111
537.66	20.774
538.01	20.181
538.35	19.915
538.69	19.832
539.03	20.969
539.37	20.730
539.71	20.901
540.05	19.724
540.39	19.560
540.73	20.340
541.07	19.681
541.42	19.315
541.76	19.336
542.10	20.989
542.44	20.037
542.78	20.985
543.12	20.441
543.46	20.269
543.80	20.144
544.14	20.108
544.48	20.449
544.82	20.586
545.16	19.559
545.50	20.312
545.84	20.331
546.18	21.235
546.52	20.064
546.86	20.063
547.20	20.038
547.54	20.225
547.88	20.193
548.22	19.123
548.56	19.602
548.90	19.821
549.24	20.182
549.58	19.495
549.92	19.834
550.26	20.194
550.60	20.230
550.94	20.763
551.28	20.264
551.62	19.677
551.96	20.000
552.30	19.885
552.64	18.793
552.98	20.087
553.32	20.900
553.66	20.257
554.00	19.861
554.34	21.107
554.68	19.819
555.02	19.842
555.36	21.105
555.69	19.154
556.03	19.672
556.37	19.712
556.71	19.848
557.05	20.383
557.39	19.310
557.73	19.617
558.07	19.272
558.41	20.399
558.75	19.878
559.08	20.251
559.42	18.724
559.76	19.403
560.10	19.893
560.44	19.591
560.78	20.500
561.12	19.273
561.45	19.891
561.79	19.536
562.13	19.963
562.47	19.544
562.81	19.430
563.15	18.876
563.48	19.577
563.82	19.287
564.16	18.595
564.50	19.070
564.84	18.938
565.17	19.529
565.51	19.160
565.85	19.121
566.19	18.376
566.52	19.602
566.86	19.694
567.20	18.760
567.54	19.225
567.88	19.623
568.21	19.269
568.55	19.712
568.89	19.564
569.23	19.349
569.56	19.422
569.90	19.280
570.24	19.157
570.57	19.403
570.91	18.922
571.25	19.526
571.59	19.427
571.92	19.403
572.26	19.455
572.60	19.492
572.93	19.705
573.27	19.528
573.61	19.375
573.95	19.641
574.28	19.318
574.62	19.486
574.96	18.968
575.29	19.167
575.63	19.381
575.97	19.713
576.30	18.974
576.64	19.136
576.98	19.476
577.31	18.988
577.65	19.109
577.98	19.089
578.32	18.974
578.66	18.809
578.99	19.558
579.33	19.876
579.67	19.855
580.00	19.285
580.34	19.568
580.67	18.778
581.01	18.758
581.35	18.644
581.68	18.705
582.02	18.893
582.35	19.434
582.69	19.518
583.02	19.398
583.36	19.388
583.70	19.723
584.03	19.438
584.37	19.180
584.70	19.193
585.04	18.717
585.37	18.802
585.71	18.857
586.04	18.582
586.38	19.011
586.72	18.827
587.05	18.777
587.39	19.272
587.72	19.211
588.06	19.052
588.39	18.920
588.73	18.836
589.06	19.216
589.40	18.654
589.73	19.023
590.07	18.700
590.40	18.222
590.73	18.558
591.07	18.838
591.40	17.924
591.74	18.005
592.07	18.108
592.41	17.429
592.74	18.104
593.08	17.962
593.41	17.789
593.75	18.649
594.08	18.388
594.41	18.942
594.75	17.868
595.08	18.001
595.42	18.019
595.75	18.179
596.09	18.163
596.42	18.488
596.75	18.410
597.09	18.747
597.42	18.236
597.75	18.189
598.09	17.897
598.42	18.054
598.76	17.233
599.09	17.871
599.42	17.633
599.76	17.630
600.09	18.085
600.42	18.051
600.76	18.065
601.09	17.723
601.42	17.233
601.76	17.931
602.09	17.548
602.42	17.630
602.76	17.491
603.09	17.841
603.42	18.064
603.76	18.217
604.09	18.062
604.42	18.018
604.76	17.161
605.09	17.431
605.42	17.624
605.75	17.462
606.09	17.432
606.42	16.819
606.75	17.241
607.09	17.320
607.42	17.803
607.75	17.546
608.08	17.364
608.42	17.574
608.75	17.952
609.08	16.596
609.41	17.292
609.75	17.455
610.08	17.502
610.41	16.992
610.74	17.143
611.07	17.052
611.41	17.309
611.74	17.044
612.07	17.672
612.40	16.350
612.73	16.968
613.07	17.359
613.40	16.987
613.73	16.996
614.06	16.094
614.39	17.007
614.72	17.079
615.06	16.939
615.39	16.288
615.72	16.730
616.05	17.339
616.38	16.700
616.71	16.667
617.05	16.933
617.38	17.657
617.71	16.361
618.04	17.593
618.37	16.612
618.70	16.629
619.03	16.428
619.36	16.153
619.69	15.951
620.03	16.447
620.36	16.012
620.69	15.916
621.02	16.142
621.35	16.909
621.68	17.064
622.01	15.730
622.34	15.481
622.67	15.808
623.00	15.047
623.33	16.390
623.66	15.888
623.99	15.405
624.32	15.854
624.65	15.701
624.99	16.125
625.32	15.284
625.65	15.981
625.98	16.271
626.31	15.308
626.64	15.385
626.97	16.054
627.30	13.667
627.63	14.929
627.96	16.291
628.29	15.720
628.62	14.610
628.95	14.198
629.28	14.019
629.61	15.741
629.94	14.895
630.26	15.000
630.59	14.767
630.92	13.593
631.25	14.490
631.58	14.124
631.91	14.902
632.24	13.449
632.57	13.662
632.90	14.443
633.23	13.163
633.56	14.490
633.89	13.843
634.22	14.137
634.55	13.883
634.88	13.312
635.20	14.639
635.53	13.672
635.86	13.868
636.19	15.058
636.52	14.135
636.85	13.177
637.18	12.994
637.51	13.763
637.83	14.618
638.16	14.631
638.49	12.676
638.82	14.882
639.15	13.517
639.48	14.896
639.81	12.009
640.13	13.899
640.46	11.879
640.79	12.623
641.12	12.795
641.45	12.547
641.77	14.249
642.10	12.336
642.43	14.495
642.76	13.279
643.09	13.014
643.41	11.485
643.74	12.690
644.07	14.069
644.40	11.740
644.73	13.498
645.05	12.188
645.38	13.237
645.71	12.757
646.04	13.199
646.36	10.365
646.69	12.423
647.02	12.691
647.35	13.435
647.67	12.077
648.00	10.669
648.33	12.012
648.66	11.555
648.98	12.109
649.31	12.720
649.64	12.085
649.96	11.804
650.29	11.405
650.62	12.306
650.94	10.060
651.27	10.928
651.60	9.942
651.92	12.006
652.25	13.025
652.58	11.692
652.90	11.192
653.23	11.690
653.56	12.126
653.88	13.624
654.21	13.521
654.54	12.572
654.86	12.323
655.19	10.414
655.52	15.403
655.84	16.168
656.17	18.220
656.49	25.881
656.82	28.472
657.15	22.891
657.47	17.954
657.80	13.401
658.13	10.712
658.45	14.027
658.78	16.878
659.10	16.112
659.43	15.889
659.75	13.904
660.08	11.877
660.41	11.911
660.73	10.376
661.06	9.251
661.38	10.845
661.71	10.690
662.03	8.289
662.36	13.059
662.68	9.944
663.01	10.796
663.33	12.287
663.66	10.440
663.98	9.615
664.31	9.944
664.63	8.285
664.96	11.615
665.28	7.623
665.61	11.189
665.93	10.357
666.26	10.215
666.58	7.011
666.91	8.598
667.23	9.714
667.56	8.284
667.88	9.800
668.21	7.031
668.53	8.880
668.86	9.823
669.18	5.703
669.50	6.561
669.83	6.400
670.15	9.843
670.48	11.905
670.80	9.178
671.13	10.397
671.45	7.677
671.77	12.241
672.10	9.000
672.42	10.032
672.75	9.217
673.07	8.507
673.39	9.399
673.72	10.738
674.04	10.172
674.37	9.660
674.69	10.406
675.01	7.238
675.34	8.397
675.66	9.176
675.98	9.328
676.31	8.203
676.63	10.646
676.95	9.770
677.28	7.258
677.60	6.496
677.92	9.213
678.25	8.592
678.57	7.117
678.89	10.068
679.22	7.666
679.54	9.060
679.86	5.763
680.18	7.463
680.51	9.434
680.83	9.165
681.15	8.103
681.48	11.572
681.80	10.708
682.12	9.441
682.44	8.848
682.77	7.624
683.09	8.902
683.41	8.333
683.73	8.349
684.06	8.303
684.38	7.513
684.70	8.079
685.02	10.155
685.34	8.486
685.67	6.625
685.99	9.049
686.31	9.012
686.63	10.269
686.96	8.202
687.28	10.912
687.60	6.397
687.92	8.842
688.24	9.015
688.56	8.103
688.89	8.711
689.21	7.436
689.53	5.490
689.85	7.495
690.17	7.963
690.49	9.960
690.82	7.921
691.14	5.263
691.46	8.413
691.78	8.103
692.10	9.174
692.42	8.036
692.74	8.348
693.06	4.074
693.39	10.057
693.71	8.647
694.03	9.294
694.35	8.381
694.67	7.392
694.99	7.234
695.31	3.974
695.63	9.524
695.95	6.004
696.27	7.692
696.59	6.858
696.91	4.505
697.23	8.352
697.56	3.666
697.88	7.765
698.20	6.780
698.52	10.038
698.84	7.692
699.16	7.755
699.48	6.067
699.80	6.170
700.12	6.987
700.44	4.378
700.76	5.938
701.08	4.600
701.40	5.440
701.72	3.483
702.04	2.406
702.36	1.832
702.68	2.689
703.00	4.645
703.32	3.941
703.64	6.846
703.96	7.160
704.28	3.440
704.60	5.063
704.91	5.867
705.23	4.384
705.55	5.850
705.87	0.606
706.19	5.828
706.51	-2.410
706.83	3.170
707.15	3.968
707.47	5.140
707.79	4.803
708.11	3.390
708.43	4.946
708.74	2.679
709.06	3.248
709.38	5.164
709.70	5.211
710.02	5.426
710.34	3.989
710.66	2.793
710.98	0.546
711.29	0.275
711.61	4.802
711.93	2.849
712.25	1.622
712.57	3.245
712.89	5.588
713.20	-0.296
713.52	3.179
713.84	4.178
714.16	4.737
714.48	2.320
714.80	4.416
715.11	4.987
715.43	1.592
715.75	6.053
716.07	3.039
716.39	6.284
716.70	0.602
717.02	0.656
717.34	-2.091
717.66	-1.342
717.97	1.027
718.29	1.375
718.61	2.961
718.93	-1.294
719.24	0.932
719.56	1.227
719.88	2.102
720.20	-0.968
720.51	-0.932
720.83	0.625
721.15	1.974
721.46	-1.712
721.78	-0.667
722.10	-3.883
722.42	-2.013
722.73	-1.290
723.05	1.053
723.37	0.694
723.68	-1.434
724.00	0.361
724.32	-1.056
724.63	-1.049
724.95	-1.064
725.27	-1.045
725.58	-3.534
725.90	2.069
726.22	0.000
726.53	1.623
726.85	1.572
727.16	2.115
727.48	3.058
727.80	2.649
728.11	-0.707
728.43	2.020
728.74	0.669
729.06	-3.642
729.38	1.623
729.69	1.342
730.01	0.298
730.32	0.606
730.64	-0.629
730.96	-1.863
731.27	6.145
731.59	2.473
731.90	0.260
732.22	3.646
732.53	-0.276
732.85	2.000
733.16	1.466
733.48	-2.134
733.80	0.000
734.11	2.564
734.43	5.946
734.74	5.570
735.06	1.759
735.37	0.270
735.69	2.162
736.00	3.390
736.32	3.774
736.63	5.000
736.95	1.437
737.26	3.636
737.58	1.515
737.89	5.000
738.21	-4.587
738.52	2.295
738.83	2.389
739.15	1.418
739.46	-1.361
739.78	3.067
740.09	1.433
740.41	3.499
740.72	-3.000
741.04	0.647
741.35	2.456
741.66	-5.882
741.98	-4.508
742.29	-8.368
742.61	-6.579
742.92	-3.077
743.23	-1.805
743.55	-2.326
743.86	-3.600
744.18	-7.025
744.49	-8.439
744.80	-5.350
745.12	-7.173
745.43	-2.033
745.74	-8.621
746.06	-8.898
746.37	-5.907
746.68	1.220
747.00	-5.833
747.31	-6.009
747.62	-3.077
747.94	-3.239
748.25	-4.819
748.56	-5.714
748.88	-7.692
749.19	-3.017
749.50	-4.762
749.82	-4.819
750.13	0.000
750.44	-5.000
750.75	1.538
751.07	0.000
751.38	-0.315
751.69	0.958
752.01	-1.294
752.32	2.288
752.63	-2.721
752.94	-1.384
753.26	-2.230
753.57	-6.296
753.88	-5.243
754.19	-0.643
754.51	0.643
754.82	-1.608
755.13	0.328
755.44	-3.754
755.75	-2.961
756.07	-1.194
756.38	2.201
756.69	4.518
757.00	0.554
757.31	4.372
757.63	1.535
757.94	2.817
758.25	3.386
758.56	2.614
758.87	4.545
759.18	2.667
759.50	2.266
759.81	2.521
760.12	2.695
760.43	2.604
760.74	3.941
761.05	-0.250
761.36	-0.241
761.67	1.777
761.99	0.270
762.30	-0.305
762.61	-5.941
762.92	-3.358
763.23	-1.124
763.54	0.000
763.85	0.344
764.16	-2.020
764.47	-0.352
764.78	2.236
765.10	1.760
765.41	5.385
765.72	0.529
766.03	1.130
766.34	-3.762
766.65	-6.969
766.96	-3.984
767.27	-7.373
767.58	-8.458
767.89	-7.692
768.20	-6.573
768.51	-6.019
768.82	-3.614
769.13	-3.788
769.44	-10.385
769.75	-1.083
770.06	0.385
770.37	-0.394
770.68	-8.511
770.99	-6.883
771.30	-1.111
771.61	0.760
771.92	-3.333
772.23	-4.453
772.54	-11.111
772.85	-3.687
773.16	-5.714
773.47	-11.640
773.78	-12.432
774.09	-13.068
774.39	-3.000
774.70	-11.475
775.01	-20.122
775.32	-17.647
775.63	-17.178
775.94	-21.656
776.25	-14.839
776.56	-13.462
776.87	-16.327
777.18	-20.000
777.48	-13.986
777.79	-13.514
778.10	-24.265
778.41	-20.139
778.72	-19.310
779.03	-16.667
779.34	-7.879
779.65	-9.845
779.95	-11.111
780.26	-10.227
780.57	-12.258
780.88	-15.217
781.19	-12.903
781.50	-9.412
781.80	-9.140
782.11	-12.698
782.42	-9.596
782.73	-16.766
783.04	-12.291
783.34	-13.939
783.65	-15.033
783.96	-14.907
784.27	-11.310
784.57	-17.881
784.88	-10.000
785.19	-26.772
785.50	-22.835
785.81	-21.805
786.11	-17.692
786.42	-20.863
786.73	-20.144
787.04	-10.526
787.34	-18.852
787.65	-18.400
787.96	-19.403
788.26	-16.783
788.57	-18.182
788.88	-16.447
789.19	-5.229
789.49	-14.384
789.80	-18.440
790.11	-22.835
790.41	-20.312
790.72	-25.424
791.03	-42.718
791.33	-23.478
791.64	-19.298
791.95	-34.821
792.25	-25.714
792.56	-25.000
792.87	-38.542
793.17	-17.857
793.48	-40.625
793.79	-50.602
794.09	-29.358
794.40	-31.193
794.70	-17.007
795.01	-18.182
795.32	-18.493
795.62	-20.423
795.93	-21.970
796.23	-17.213
796.54	-28.571
796.85	-42.553
797.15	-35.870
797.46	-49.315
797.76	-48.750
798.07	-34.783
798.37	-41.237
798.68	-44.156
798.99	-49.425
799.29	-38.202
799.60	-25.532
799.90	-38.554
800.21	-52.308
800.51	-55.224
800.82	-55.882
801.12	-71.233
801.43	-63.235
801.73	-52.542
802.04	-48.485
802.34	-81.667
802.65	-61.017
802.95	-44.776
803.26	-55.932
803.56	-53.425
803.87	-38.571
804.17	-49.315
804.48	-78.947
804.78	-41.667
805.09	-68.966
805.39	-31.081
805.70	-50.704
806.00	-32.927
806.30	-43.373
806.61	-53.425
806.91	-32.692
807.22	-42.222
807.52	-44.828
807.83	-33.333
808.13	-28.916
808.43	-33.708
808.74	-38.750
809.04	-58.824
809.35	-46.667
809.65	-44.286
809.95	-36.986
810.26	-71.930
810.56	-70.690
810.86	-33.824
811.17	-59.649
811.47	-57.377
811.77	-84.444
812.08	-54.237
812.38	-56.667
812.69	-43.103
812.99	-88.679
813.29	-117.949
813.59	-64.000
813.90	-63.158
814.20	-74.545
814.50	-33.803
814.81	-44.872
815.11	-47.541
815.41	-46.269
815.72	-51.724
816.02	-53.571
816.32	-64.444
816.62	-54.545
816.93	-80.000
817.23	-68.519
817.53	-82.979
817.84	-78.571
818.14	-102.941
818.44	-63.265
818.74	-73.333
819.04	-82.051
819.35	-100.000
819.65	-196.154
819.95	-69.811
820.25	-62.222
820.56	-111.905
820.86	-146.875
821.16	-125.641
821.46	-104.651
821.76	-84.000
822.07	-62.500
822.37	-78.261
822.67	-80.851
822.97	-137.838
823.27	-125.000
823.57	-69.388
823.88	-68.889
824.18	-62.500
824.48	-130.000
824.78	-152.000
825.08	-109.091
825.38	-75.556
825.69	-57.447
825.99	-88.889
826.29	-137.143
826.59	-105.128
826.89	-97.674
827.19	-68.000
827.49	-126.471
827.79	-68.750
828.09	-105.405
828.39	-140.000
828.70	-100.000
829.00	-97.674
829.30	-160.714
829.60	-105.882
829.90	-73.913
830.20	-137.143
830.50	-158.621
830.80	-255.556
831.10	-169.231
831.40	-97.059
831.70	-214.286
832.00	-116.129
832.30	-341.176
832.60	-137.500
832.90	-330.769
833.20	-184.211
833.50	-200.000
833.80	-252.632
834.10	-261.905
834.40	-91.667
834.70	-90.625
835.00	-120.000
835.30	-117.647
835.60	-156.667
835.90	-176.000
836.20	-263.636
836.50	-152.000
836.80	-148.485
837.10	-159.259
837.40	-166.667
837.70	-337.500
838.00	-175.000
838.30	-195.652
838.60	-141.379
838.90	-307.143
839.19	-230.435
839.49	-400.000
839.79	-178.261
840.09	-250.000
840.39	-225.000
840.69	-145.161
840.99	-178.571
841.29	-286.667
841.59	-242.105
841.88	-87.179
842.18	-165.385
842.48	-460.000
842.78	-255.000
843.08	-126.667
843.38	-145.161
843.68	-272.222
843.97	-108.824
844.27	-262.500
844.57	-189.474
844.87	-430.000
845.17	-273.333
845.47	-161.905
845.76	-190.476
846.06	-466.667
846.36	-247.059
846.66	-150.000
846.96	-260.000
847.25	-223.529
847.55	-143.478
847.85	-180.000
848.15	-200.000
848.44	-418.182
848.74	-180.952
849.04	-166.667
849.34	-300.000
849.63	-191.304
849.93	2650.000
850.23	-300.000
850.53	-123.077
850.82	-390.909
851.12	-145.455
851.42	-381.818
851.71	-284.615
852.01	-265.000
852.31	-292.308
852.61	-242.105
852.90	-341.667
853.20	-266.667
853.50	-533.333
853.79	-223.810
854.09	-218.182
854.39	-408.333
854.68	-129.032
854.98	-176.923
855.28	-261.111
855.57	-142.857
855.87	-152.000
856.17	-195.455
856.46	-166.667
856.76	-288.889
857.05	-195.652
857.35	-183.333
857.65	-338.462
857.94	-180.952
858.24	-129.630
858.53	-130.435
858.83	-223.529
859.13	-247.059
859.42	-223.529
859.72	-278.571
860.01	-180.000
860.31	-466.667
860.60	-410.000
860.90	-260.000
861.20	-233.333
861.49	-223.077
861.79	-110.000
862.08	-346.154
862.38	-93.750
862.67	-223.529
862.97	-237.500
863.26	-488.889
863.56	-390.000
863.85	-390.909
864.15	-177.778
864.44	-1433.333
864.74	-314.286
865.03	-281.250
865.33	-380.000
865.62	-151.613
865.92	-154.545
866.21	-156.522
866.51	-307.143
866.80	-1000.000
867.10	-383.333
867.39	-400.000
867.69	5000.000
867.98	-485.714
868.27	-252.941
868.57	-5100.000
868.86	-490.000
869.16	-223.810
869.45	-179.167
869.75	-300.000
870.04	-585.714
870.33	-300.000
870.63	-628.571
870.92	-1000.000
871.22	-700.000
871.51	-363.636
871.80	-1733.333
872.10	-2500.000
>>>>>End Processed Spectral Data<<<<<
