SpectraSuite Data File
++++++++++++++++++++++++++++++++++++
Date: Thu May 14 16:14:50 PDT 2015
User: schluterlab
Dark Spectrum Present: Yes
Reference Spectrum Present: Yes
Number of Sampled Component Spectra: 1
Spectrometers: USB2E3373
Integration Time (usec): 3000 (USB2E3373)
Spectra Averaged: 3 (USB2E3373)
Boxcar Smoothing: 0 (USB2E3373)
Correct for Electrical Dark: No (USB2E3373)
Strobe/Lamp Enabled: No (USB2E3373)
Correct for Detector Non-linearity: No (USB2E3373)
Correct for Stray Light: No (USB2E3373)
Number of Pixels in Processed Spectrum: 2048
>>>>>Begin Processed Spectral Data<<<<<
178.53	0.000
178.91	-28.571
179.29	-800.000
179.67	-800.000
180.04	135.714
180.42	20.000
180.80	200.000
181.18	500.000
181.56	600.000
181.94	125.000
182.31	25.000
182.69	66.667
183.07	-150.000
183.45	225.000
183.83	-16.667
184.20	133.333
184.58	100.000
184.96	-250.000
185.34	-11.111
185.72	-80.000
186.09	44.444
186.47	-100.000
186.85	300.000
187.23	-66.667
187.61	-900.000
187.98	60.000
188.36	100.000
188.74	25.000
189.12	-233.333
189.49	25.000
189.87	-100.000
190.25	-44.444
190.63	-20.000
191.00	-55.556
191.38	0.000
191.76	-200.000
192.14	-33.333
192.51	100.000
192.89	0.000
193.27	0.000
193.65	-85.714
194.02	-800.000
194.40	-28.571
194.78	85.714
195.15	0.000
195.53	-18.182
195.91	0.000
196.29	-50.000
196.66	23.077
197.04	-800.000
197.42	-14.286
197.79	-350.000
198.17	-75.000
198.55	-114.286
198.92	-33.333
199.30	-50.000
199.68	63.636
200.05	57.143
200.43	-100.000
200.81	185.714
201.18	0.000
201.56	177.778
201.94	0.000
202.31	-33.333
202.69	-77.778
203.07	300.000
203.44	-44.444
203.82	-125.000
204.19	-66.667
204.57	-66.667
204.95	-12.500
205.32	1300.000
205.70	200.000
206.08	16.667
206.45	50.000
206.83	340.000
207.20	16.667
207.58	-40.000
207.96	-33.333
208.33	0.000
208.71	125.000
209.08	100.000
209.46	0.000
209.84	150.000
210.21	-100.000
210.59	200.000
210.96	266.667
211.34	175.000
211.71	0.000
212.09	-600.000
212.46	0.000
212.84	700.000
213.22	-260.000
213.59	25.000
213.97	60.000
214.34	-333.333
214.72	200.000
215.09	-150.000
215.47	0.000
215.84	128.571
216.22	850.000
216.59	-120.000
216.97	-20.000
217.34	75.000
217.72	12.500
218.09	-50.000
218.47	-150.000
218.84	0.000
219.22	-80.000
219.59	5.882
219.97	-15.000
220.34	250.000
220.72	-111.111
221.09	0.000
221.47	133.333
221.84	-20.000
222.22	-71.429
222.59	0.000
222.97	12.500
223.34	-180.000
223.72	-1000.000
224.09	-50.000
224.46	-50.000
224.84	160.000
225.21	-85.714
225.59	-225.000
225.96	-25.000
226.34	15.385
226.71	183.333
227.08	-250.000
227.46	13.333
227.83	50.000
228.21	10.526
228.58	75.000
228.95	500.000
229.33	-33.333
229.70	60.000
230.08	73.684
230.45	110.000
230.82	66.667
231.20	-14.286
231.57	-16.667
231.95	0.000
232.32	0.000
232.69	5.000
233.07	25.000
233.44	-35.294
233.81	0.000
234.19	27.778
234.56	4.545
234.93	34.483
235.31	-15.789
235.68	5.556
236.05	-10.000
236.43	53.846
236.80	40.000
237.17	-7.407
237.55	18.182
237.92	-20.000
238.29	19.355
238.67	4.545
239.04	2.778
239.41	11.905
239.79	4.348
240.16	7.407
240.53	30.435
240.91	23.529
241.28	21.311
241.65	22.388
242.02	22.973
242.40	24.615
242.77	16.000
243.14	9.756
243.51	5.263
243.89	12.821
244.26	18.812
244.63	30.392
245.00	15.888
245.38	21.053
245.75	9.735
246.12	27.778
246.49	20.930
246.87	16.429
247.24	32.450
247.61	21.053
247.98	19.463
248.36	16.667
248.73	22.699
249.10	23.497
249.47	27.861
249.84	28.796
250.22	23.316
250.59	23.889
250.96	25.000
251.33	18.367
251.70	22.222
252.08	29.167
252.45	24.180
252.82	22.314
253.19	24.609
253.56	23.574
253.94	23.462
254.31	25.000
254.68	26.923
255.05	27.036
255.42	24.150
255.79	22.654
256.16	24.834
256.54	22.185
256.91	23.279
257.28	23.279
257.65	18.790
258.02	25.074
258.39	25.071
258.76	25.076
259.14	25.575
259.51	22.767
259.88	26.346
260.25	22.500
260.62	21.918
260.99	28.689
261.36	25.737
261.73	22.546
262.10	25.000
262.47	24.129
262.85	26.768
263.22	24.935
263.59	21.053
263.96	26.087
264.33	24.041
264.70	25.926
265.07	29.833
265.44	28.345
265.81	25.231
266.18	26.304
266.55	23.214
266.92	21.868
267.29	26.915
267.66	24.390
268.03	24.017
268.40	24.426
268.77	22.323
269.14	23.568
269.51	23.246
269.88	26.639
270.25	24.145
270.62	24.051
270.99	24.040
271.36	26.139
271.73	23.969
272.10	26.253
272.47	24.649
272.84	23.896
273.21	22.445
273.58	23.185
273.95	22.692
274.32	23.194
274.69	23.598
275.06	26.923
275.43	21.811
275.80	24.162
276.17	21.852
276.54	23.694
276.91	24.508
277.28	23.146
277.65	23.519
278.02	22.610
278.39	22.283
278.76	22.671
279.13	24.645
279.50	25.086
279.87	24.150
280.23	21.479
280.60	21.864
280.97	24.342
281.34	22.071
281.71	23.689
282.08	23.588
282.45	22.422
282.82	22.135
283.19	23.102
283.56	22.623
283.92	23.273
284.29	22.749
284.66	23.317
285.03	20.032
285.40	24.111
285.77	20.433
286.14	24.122
286.51	24.658
286.87	22.907
287.24	24.699
287.61	24.215
287.98	22.356
288.35	21.746
288.72	22.041
289.08	21.669
289.45	21.598
289.82	19.880
290.19	20.977
290.56	21.690
290.93	21.255
291.29	23.140
291.66	19.697
292.03	20.081
292.40	21.905
292.77	19.811
293.13	21.651
293.50	20.631
293.87	20.537
294.24	20.933
294.60	20.228
294.97	17.987
295.34	18.950
295.71	19.672
296.08	18.605
296.44	19.240
296.81	19.001
297.18	19.303
297.55	18.396
297.91	18.031
298.28	18.483
298.65	19.263
299.02	18.182
299.38	18.764
299.75	17.523
300.12	17.245
300.48	18.203
300.85	18.560
301.22	17.338
301.59	17.466
301.95	18.644
302.32	17.889
302.69	16.867
303.05	18.825
303.42	18.958
303.79	17.500
304.15	17.876
304.52	18.182
304.89	18.639
305.25	17.391
305.62	18.809
305.99	17.629
306.35	17.843
306.72	20.269
307.09	18.376
307.45	18.116
307.82	17.659
308.19	17.154
308.55	20.058
308.92	17.819
309.29	19.157
309.65	18.811
310.02	18.812
310.38	19.291
310.75	17.864
311.12	19.367
311.48	18.964
311.85	19.563
312.22	18.501
312.58	20.094
312.95	18.929
313.31	20.325
313.68	20.055
314.05	20.958
314.41	21.858
314.78	21.072
315.14	20.145
315.51	20.776
315.87	21.872
316.24	22.192
316.61	21.581
316.97	20.362
317.34	22.134
317.70	22.882
318.07	22.840
318.43	21.939
318.80	22.575
319.16	22.575
319.53	22.194
319.89	22.612
320.26	24.021
320.62	21.986
320.99	24.561
321.35	24.861
321.72	25.767
322.08	23.805
322.45	26.558
322.81	25.722
323.18	25.487
323.54	25.172
323.91	26.868
324.27	25.129
324.64	26.868
325.00	25.456
325.37	27.109
325.73	26.529
326.10	26.683
326.46	27.362
326.83	27.382
327.19	27.795
327.56	28.617
327.92	27.223
328.29	25.968
328.65	26.884
329.01	28.342
329.38	27.717
329.74	29.281
330.11	27.911
330.47	27.548
330.84	27.046
331.20	29.417
331.56	28.769
331.93	27.950
332.29	28.814
332.66	28.156
333.02	28.894
333.38	27.433
333.75	28.704
334.11	29.358
334.48	28.135
334.84	28.632
335.20	28.128
335.57	29.511
335.93	28.843
336.29	26.206
336.66	27.670
337.02	29.097
337.38	28.486
337.75	27.851
338.11	28.848
338.47	28.371
338.84	27.242
339.20	28.896
339.56	27.759
339.93	28.079
340.29	28.261
340.65	27.737
341.02	28.492
341.38	28.618
341.74	27.603
342.11	28.319
342.47	27.720
342.83	28.986
343.20	29.191
343.56	27.907
343.92	28.583
344.28	28.984
344.65	28.760
345.01	27.223
345.37	28.227
345.73	26.890
346.10	28.237
346.46	28.323
346.82	29.363
347.19	28.342
347.55	27.618
347.91	27.637
348.27	28.225
348.63	28.941
349.00	28.188
349.36	28.327
349.72	27.902
350.08	29.272
350.45	28.745
350.81	28.733
351.17	28.571
351.53	29.492
351.89	29.992
352.26	28.881
352.62	29.328
352.98	28.931
353.34	28.977
353.70	28.891
354.07	29.061
354.43	29.461
354.79	29.544
355.15	27.667
355.51	28.947
355.87	28.497
356.24	29.049
356.60	29.194
356.96	28.984
357.32	28.104
357.68	28.111
358.04	27.171
358.40	29.478
358.77	30.336
359.13	29.616
359.49	29.294
359.85	29.442
360.21	28.694
360.57	29.218
360.93	28.843
361.29	30.175
361.66	29.399
362.02	29.784
362.38	30.148
362.74	29.609
363.10	30.261
363.46	29.224
363.82	29.901
364.18	30.049
364.54	29.945
364.90	30.100
365.26	30.690
365.62	30.333
365.98	30.837
366.35	31.477
366.71	31.293
367.07	31.732
367.43	30.991
367.79	31.387
368.15	30.100
368.51	31.800
368.87	31.483
369.23	30.867
369.59	32.172
369.95	31.305
370.31	32.681
370.67	32.050
371.03	31.717
371.39	31.498
371.75	31.706
372.11	32.046
372.47	31.144
372.83	32.526
373.19	31.288
373.55	31.572
373.91	31.629
374.27	31.630
374.63	32.273
374.99	32.095
375.35	33.052
375.71	32.710
376.07	33.312
376.42	33.186
376.78	33.313
377.14	32.751
377.50	33.776
377.86	33.744
378.22	34.072
378.58	33.591
378.94	33.392
379.30	33.626
379.66	33.862
380.02	34.680
380.38	33.641
380.74	33.972
381.09	32.636
381.45	33.750
381.81	34.895
382.17	34.323
382.53	33.918
382.89	34.537
383.25	34.349
383.61	34.086
383.97	34.217
384.32	34.749
384.68	33.875
385.04	34.991
385.40	35.357
385.76	35.053
386.12	34.111
386.48	35.353
386.83	35.340
387.19	34.531
387.55	35.505
387.91	34.304
388.27	34.931
388.62	34.651
388.98	34.574
389.34	35.474
389.70	36.142
390.06	36.057
390.42	35.783
390.77	36.303
391.13	36.620
391.49	36.473
391.85	35.879
392.20	35.943
392.56	36.740
392.92	36.314
393.28	36.816
393.64	35.475
393.99	35.851
394.35	36.741
394.71	36.886
395.07	35.569
395.42	36.037
395.78	35.954
396.14	36.958
396.50	36.223
396.85	37.329
397.21	36.982
397.57	36.690
397.92	36.197
398.28	36.176
398.64	36.041
399.00	35.288
399.35	36.754
399.71	37.500
400.07	37.844
400.42	37.078
400.78	37.153
401.14	36.369
401.49	36.839
401.85	37.267
402.21	37.138
402.57	37.735
402.92	37.648
403.28	36.475
403.63	36.814
403.99	36.817
404.35	36.669
404.70	37.790
405.06	36.848
405.42	37.354
405.77	37.841
406.13	36.683
406.49	37.950
406.84	36.620
407.20	37.395
407.55	38.462
407.91	37.775
408.27	36.985
408.62	37.755
408.98	37.957
409.34	36.833
409.69	38.504
410.05	37.984
410.40	37.877
410.76	37.745
411.11	37.639
411.47	37.776
411.83	38.213
412.18	38.012
412.54	37.048
412.89	38.417
413.25	37.585
413.60	37.565
413.96	37.587
414.31	37.167
414.67	37.329
415.03	36.554
415.38	38.272
415.74	37.630
416.09	37.631
416.45	36.631
416.80	36.781
417.16	38.123
417.51	38.294
417.87	37.278
418.22	38.263
418.58	37.237
418.93	38.009
419.29	38.101
419.64	38.175
420.00	37.745
420.35	38.069
420.71	38.311
421.06	37.953
421.42	39.220
421.77	37.695
422.12	38.002
422.48	37.583
422.83	38.171
423.19	36.764
423.54	38.219
423.90	36.665
424.25	38.667
424.61	36.797
424.96	38.331
425.31	38.217
425.67	38.164
426.02	37.963
426.38	37.199
426.73	37.277
427.09	38.754
427.44	38.230
427.79	37.977
428.15	37.043
428.50	37.472
428.85	36.338
429.21	37.021
429.56	36.920
429.92	37.445
430.27	38.169
430.62	37.909
430.98	37.236
431.33	37.830
431.68	36.925
432.04	37.227
432.39	37.118
432.74	37.671
433.10	38.183
433.45	36.678
433.80	38.090
434.16	37.138
434.51	37.873
434.86	37.839
435.22	37.832
435.57	37.205
435.92	36.839
436.28	37.543
436.63	38.558
436.98	36.876
437.34	37.655
437.69	36.654
438.04	37.388
438.39	37.277
438.75	37.355
439.10	38.002
439.45	37.898
439.81	36.836
440.16	36.622
440.51	36.901
440.86	36.743
441.22	36.870
441.57	37.317
441.92	37.633
442.27	37.525
442.63	37.009
442.98	37.086
443.33	36.770
443.68	37.166
444.03	37.959
444.39	37.772
444.74	38.183
445.09	36.138
445.44	36.670
445.79	37.692
446.15	37.307
446.50	36.176
446.85	37.208
447.20	36.219
447.55	37.552
447.91	36.963
448.26	36.469
448.61	35.813
448.96	39.002
449.31	35.631
449.66	35.131
450.02	36.129
450.37	36.548
450.72	37.244
451.07	35.478
451.42	36.280
451.77	36.520
452.12	36.456
452.47	36.542
452.83	36.036
453.18	36.135
453.53	35.727
453.88	35.284
454.23	35.876
454.58	36.042
454.93	35.498
455.28	36.123
455.63	36.327
455.98	36.927
456.34	34.982
456.69	36.038
457.04	36.052
457.39	34.368
457.74	36.521
458.09	34.322
458.44	36.315
458.79	35.173
459.14	34.452
459.49	35.710
459.84	35.362
460.19	34.758
460.54	35.945
460.89	34.463
461.24	34.540
461.59	35.916
461.94	35.026
462.29	35.498
462.64	34.037
462.99	35.782
463.34	34.718
463.69	33.939
464.04	35.798
464.39	34.137
464.74	34.265
465.09	34.314
465.44	34.388
465.79	34.215
466.14	34.237
466.49	34.211
466.84	34.105
467.19	34.046
467.54	33.373
467.89	34.023
468.24	34.294
468.59	32.831
468.94	33.450
469.29	32.394
469.64	33.376
469.99	33.015
470.34	33.725
470.68	33.630
471.03	33.661
471.38	33.748
471.73	33.030
472.08	33.756
472.43	33.293
472.78	32.809
473.13	32.048
473.48	32.931
473.83	33.024
474.17	32.415
474.52	32.892
474.87	32.503
475.22	33.803
475.57	31.880
475.92	32.205
476.27	31.896
476.61	32.243
476.96	31.543
477.31	32.574
477.66	32.057
478.01	32.079
478.36	32.303
478.70	32.857
479.05	32.311
479.40	31.836
479.75	31.844
480.10	31.833
480.45	32.179
480.79	31.837
481.14	30.836
481.49	31.622
481.84	31.680
482.19	31.828
482.53	31.920
482.88	32.167
483.23	31.392
483.58	31.790
483.92	30.408
484.27	31.583
484.62	30.487
484.97	30.599
485.31	30.412
485.66	30.354
486.01	30.249
486.36	31.119
486.70	31.455
487.05	31.636
487.40	31.089
487.75	30.636
488.09	30.826
488.44	30.055
488.79	30.320
489.13	30.014
489.48	28.816
489.83	29.497
490.17	29.283
490.52	29.310
490.87	29.611
491.22	29.723
491.56	28.370
491.91	28.870
492.26	28.646
492.60	28.596
492.95	28.916
493.30	29.494
493.64	29.347
493.99	28.640
494.34	27.570
494.68	27.323
495.03	28.678
495.37	28.495
495.72	28.571
496.07	29.273
496.41	28.100
496.76	28.982
497.11	28.408
497.45	28.010
497.80	27.588
498.14	27.619
498.49	27.436
498.84	27.879
499.18	27.755
499.53	28.296
499.87	28.571
500.22	27.516
500.56	27.620
500.91	27.140
501.26	28.227
501.60	26.734
501.95	27.269
502.29	26.942
502.64	27.241
502.98	27.179
503.33	26.479
503.67	26.385
504.02	26.620
504.36	26.810
504.71	26.688
505.06	26.376
505.40	26.554
505.75	26.548
506.09	26.473
506.44	26.370
506.78	26.514
507.13	26.049
507.47	26.291
507.82	26.184
508.16	25.382
508.51	25.738
508.85	25.366
509.19	25.675
509.54	25.696
509.88	25.401
510.23	25.838
510.57	26.631
510.92	25.351
511.26	25.301
511.61	25.640
511.95	25.085
512.30	25.455
512.64	24.338
512.98	25.413
513.33	24.849
513.67	25.089
514.02	26.060
514.36	25.678
514.70	24.323
515.05	24.765
515.39	24.724
515.74	24.337
516.08	24.511
516.42	24.176
516.77	24.869
517.11	23.724
517.46	24.125
517.80	23.731
518.14	24.429
518.49	22.993
518.83	23.949
519.17	24.071
519.52	24.214
519.86	23.918
520.20	24.654
520.55	22.673
520.89	23.142
521.23	23.786
521.58	23.503
521.92	22.833
522.26	22.738
522.61	23.553
522.95	23.010
523.29	23.161
523.64	22.365
523.98	23.788
524.32	23.266
524.66	22.766
525.01	22.084
525.35	22.286
525.69	22.506
526.04	23.421
526.38	22.874
526.72	21.972
527.06	22.815
527.41	23.265
527.75	22.743
528.09	22.727
528.43	22.499
528.78	22.139
529.12	21.846
529.46	22.597
529.80	22.140
530.15	22.087
530.49	22.183
530.83	22.609
531.17	22.162
531.51	22.022
531.86	21.995
532.20	22.012
532.54	21.544
532.88	21.576
533.22	21.509
533.57	22.908
533.91	22.222
534.25	22.442
534.59	21.379
534.93	21.279
535.27	21.803
535.62	22.058
535.96	21.673
536.30	21.915
536.64	22.402
536.98	22.694
537.32	21.852
537.66	22.084
538.01	21.511
538.35	21.498
538.69	21.394
539.03	21.827
539.37	21.555
539.71	22.102
540.05	22.062
540.39	21.271
540.73	21.069
541.07	21.888
541.42	20.614
541.76	20.285
542.10	21.351
542.44	20.463
542.78	21.229
543.12	20.620
543.46	21.368
543.80	20.264
544.14	20.407
544.48	20.449
544.82	21.424
545.16	20.095
545.50	19.952
545.84	20.637
546.18	21.605
546.52	19.809
546.86	20.314
547.20	20.293
547.54	20.537
547.88	19.831
548.22	19.123
548.56	20.421
548.90	20.299
549.24	20.547
549.58	19.937
549.92	19.643
550.26	19.741
550.60	20.676
550.94	19.276
551.28	19.472
551.62	20.283
551.96	19.935
552.30	19.758
552.64	19.477
552.98	19.214
553.32	19.678
553.66	19.486
554.00	20.618
554.34	19.562
554.68	19.174
555.02	19.777
555.36	19.790
555.69	18.706
556.03	19.735
556.37	20.150
556.71	19.721
557.05	19.233
557.39	18.845
557.73	19.022
558.07	19.007
558.41	19.535
558.75	19.270
559.08	19.207
559.42	18.656
559.76	18.657
560.10	19.089
560.44	19.129
560.78	19.188
561.12	19.150
561.45	20.073
561.79	19.231
562.13	19.593
562.47	17.633
562.81	18.734
563.15	18.561
563.48	18.210
563.82	18.984
564.16	18.655
564.50	19.011
564.84	18.761
565.17	19.118
565.51	19.102
565.85	18.646
566.19	18.203
566.52	18.198
566.86	17.997
567.20	18.434
567.54	18.481
567.88	18.807
568.21	19.071
568.55	19.041
568.89	19.428
569.23	19.772
569.56	19.969
569.90	19.672
570.24	20.270
570.57	19.468
570.91	19.535
571.25	19.612
571.59	19.928
571.92	19.563
572.26	19.746
572.60	19.711
572.93	19.315
573.27	19.584
573.61	19.666
573.95	19.932
574.28	19.832
574.62	19.418
574.96	19.718
575.29	19.652
575.63	19.473
575.97	19.449
576.30	19.122
576.64	18.945
576.98	18.907
577.31	19.558
577.65	19.563
577.98	19.559
578.32	19.434
578.66	19.506
578.99	19.005
579.33	18.964
579.67	18.722
580.00	19.285
580.34	19.110
580.67	18.557
581.01	19.212
581.35	19.112
581.68	19.610
582.02	19.511
582.35	19.714
582.69	19.381
583.02	19.062
583.36	19.059
583.70	18.950
584.03	18.431
584.37	18.958
584.70	18.411
585.04	18.693
585.37	18.957
585.71	19.115
586.04	18.868
586.38	18.965
586.72	18.877
587.05	18.342
587.39	18.649
587.72	18.900
588.06	19.028
588.39	18.671
588.73	18.571
589.06	18.736
589.40	18.070
589.73	17.866
590.07	18.336
590.40	18.830
590.73	18.346
591.07	18.578
591.40	17.691
591.74	17.647
592.07	17.905
592.41	17.547
592.74	17.998
593.08	18.854
593.41	18.460
593.75	18.161
594.08	18.146
594.41	18.045
594.75	17.868
595.08	17.833
595.42	17.922
595.75	17.921
596.09	17.689
596.42	17.377
596.75	17.908
597.09	18.182
597.42	17.441
597.75	17.875
598.09	18.056
598.42	17.169
598.76	17.654
599.09	17.693
599.42	17.700
599.76	17.927
600.09	17.918
600.42	17.618
600.76	17.338
601.09	17.059
601.42	17.061
601.76	17.690
602.09	17.405
602.42	17.303
602.76	17.159
603.09	17.144
603.42	17.305
603.76	17.512
604.09	18.169
604.42	17.358
604.76	16.933
605.09	17.511
605.42	17.464
605.75	16.885
606.09	17.730
606.42	17.220
606.75	16.417
607.09	16.897
607.42	17.649
607.75	16.921
608.08	17.482
608.42	16.485
608.75	16.625
609.08	15.959
609.41	16.630
609.75	16.607
610.08	17.150
610.41	16.822
610.74	17.227
611.07	16.874
611.41	17.085
611.74	17.506
612.07	16.784
612.40	16.255
612.73	17.213
613.07	15.844
613.40	16.891
613.73	16.081
614.06	16.290
614.39	15.938
614.72	16.012
615.06	16.266
615.39	16.385
615.72	16.635
616.05	17.144
616.38	16.953
616.71	16.771
617.05	15.815
617.38	16.212
617.71	16.631
618.04	16.190
618.37	16.776
618.70	16.572
619.03	15.114
619.36	15.783
619.69	15.375
620.03	15.756
620.36	15.460
620.69	15.793
621.02	15.748
621.35	16.473
621.68	15.763
622.01	15.516
622.34	14.156
622.67	15.120
623.00	14.777
623.33	16.324
623.66	14.916
623.99	14.681
624.32	16.569
624.65	15.894
624.99	15.995
625.32	15.807
625.65	14.902
625.98	14.712
626.31	15.308
626.64	15.165
626.97	14.479
627.30	13.667
627.63	14.779
627.96	16.216
628.29	15.019
628.62	14.526
628.95	14.023
629.28	13.339
629.61	16.246
629.94	14.226
630.26	14.153
630.59	14.421
630.92	13.766
631.25	14.311
631.58	14.218
631.91	14.246
632.24	14.409
632.57	13.852
632.90	13.741
633.23	13.469
633.56	13.469
633.89	14.050
634.22	13.929
634.55	15.344
634.88	14.719
635.20	14.316
635.53	15.028
635.86	13.109
636.19	14.316
636.52	12.975
636.85	14.709
637.18	12.890
637.51	13.011
637.83	13.732
638.16	12.788
638.49	13.263
638.82	13.529
639.15	12.257
639.48	14.434
639.81	13.741
640.13	12.956
640.46	11.879
640.79	13.848
641.12	12.671
641.45	14.304
641.77	15.019
642.10	13.911
642.43	14.229
642.76	11.924
643.09	12.055
643.41	11.345
643.74	13.103
644.07	14.759
644.40	11.315
644.73	11.030
645.05	12.775
645.38	13.237
645.71	12.757
646.04	13.199
646.36	9.635
646.69	12.423
647.02	12.538
647.35	12.824
647.67	13.527
648.00	12.261
648.33	11.562
648.66	13.552
648.98	11.701
649.31	13.396
649.64	15.007
649.96	13.263
650.29	12.796
650.62	13.579
650.94	11.712
651.27	10.479
651.60	11.257
651.92	13.222
652.25	11.867
652.58	12.105
652.90	11.919
653.23	14.507
653.56	12.553
653.88	15.028
654.21	13.380
654.54	12.283
654.86	13.739
655.19	13.300
655.52	16.042
655.84	17.680
656.17	21.393
656.49	30.337
656.82	32.739
657.15	24.232
657.47	17.759
657.80	13.020
658.13	9.957
658.45	12.568
658.78	15.491
659.10	14.988
659.43	14.452
659.75	14.349
660.08	13.277
660.41	12.076
660.73	11.174
661.06	10.866
661.38	10.048
661.71	11.552
662.03	12.346
662.36	13.417
662.68	11.069
663.01	12.743
663.33	11.342
663.66	14.103
663.98	11.731
664.31	11.257
664.63	9.249
664.96	10.889
665.28	10.708
665.61	13.811
665.93	11.786
666.26	13.262
666.58	9.410
666.91	13.084
667.23	10.857
667.56	13.412
667.88	13.400
668.21	9.570
668.53	10.232
668.86	10.806
669.18	10.998
669.50	11.730
669.83	10.200
670.15	12.402
670.48	11.310
670.80	11.281
671.13	11.720
671.45	11.614
671.77	14.878
672.10	10.000
672.42	11.327
672.75	12.750
673.07	12.388
673.39	12.018
673.72	12.416
674.04	14.483
674.37	10.555
674.69	13.228
675.01	10.857
675.34	9.924
675.66	10.674
675.98	11.007
676.31	13.086
676.63	13.688
676.95	11.686
677.28	9.677
677.60	10.039
677.92	12.284
678.25	11.152
678.57	11.032
678.89	13.481
679.22	10.801
679.54	12.479
679.86	11.356
680.18	11.277
680.51	13.208
680.83	11.293
681.15	10.345
681.48	13.126
681.80	13.126
682.12	11.364
682.44	13.022
682.77	11.879
683.09	11.553
683.41	13.178
683.73	10.626
684.06	11.624
684.38	10.018
684.70	11.849
685.02	13.253
685.34	10.982
685.67	10.883
685.99	13.344
686.31	12.355
686.63	12.480
686.96	12.618
687.28	11.238
687.60	10.943
687.92	10.129
688.24	12.020
688.56	11.897
688.89	13.975
689.21	12.133
689.53	11.176
689.85	11.440
690.17	10.926
690.49	11.952
690.82	11.485
691.14	8.704
691.46	12.237
691.78	13.628
692.10	11.376
692.42	12.321
692.74	10.526
693.06	9.074
693.39	10.436
693.71	11.654
694.03	11.338
694.35	12.190
694.67	11.704
694.99	8.298
695.31	12.804
695.63	11.688
695.95	10.766
696.27	11.209
696.59	11.947
696.91	11.712
697.23	12.527
697.56	10.387
697.88	10.985
698.20	12.241
698.52	14.205
698.84	11.019
699.16	13.469
699.48	10.879
699.80	9.574
700.12	11.135
700.44	11.521
700.76	12.352
701.08	11.380
701.40	10.881
701.72	8.458
702.04	9.626
702.36	6.545
702.68	9.535
703.00	11.247
703.32	10.591
703.64	12.225
703.96	10.263
704.28	9.337
704.60	13.165
704.91	11.224
705.23	11.781
705.55	7.521
705.87	13.030
706.19	11.656
706.51	9.036
706.83	10.375
707.15	10.582
707.47	11.449
707.79	10.262
708.11	10.381
708.43	10.108
708.74	8.482
709.06	8.353
709.38	14.319
709.70	14.640
710.02	13.437
710.34	10.638
710.66	9.777
710.98	14.481
711.29	10.989
711.61	11.299
711.93	9.402
712.25	11.351
712.57	14.454
712.89	12.353
713.20	10.651
713.52	12.139
713.84	10.864
714.16	12.105
714.48	10.567
714.80	15.584
715.11	12.598
715.43	11.406
715.75	13.421
716.07	11.050
716.39	10.929
716.70	6.627
717.02	10.492
717.34	9.408
717.66	11.074
717.97	7.534
718.29	9.966
718.61	8.882
718.93	8.414
719.24	11.180
719.56	10.736
719.88	10.811
720.20	9.677
720.51	9.006
720.83	8.750
721.15	7.895
721.46	5.822
721.78	14.000
722.10	10.032
722.42	11.745
722.73	12.903
723.05	11.579
723.37	10.764
723.68	10.394
724.00	10.830
724.32	7.394
724.63	9.091
724.95	14.894
725.27	9.756
725.58	8.127
725.90	10.345
726.22	10.972
726.53	12.987
726.85	11.006
727.16	12.085
727.48	12.844
727.80	12.914
728.11	10.247
728.43	11.785
728.74	10.033
729.06	8.609
729.38	13.636
729.69	11.074
730.01	10.119
730.32	9.091
730.64	11.321
730.96	10.559
731.27	13.966
731.59	13.187
731.90	11.688
732.22	11.719
732.53	9.669
732.85	11.143
733.16	13.490
733.48	8.232
733.80	10.306
734.11	11.111
734.43	12.432
734.74	13.924
735.06	13.568
735.37	10.270
735.69	11.081
736.00	12.147
736.32	11.860
736.63	12.222
736.95	10.345
737.26	13.939
737.58	10.000
737.89	9.706
738.21	10.398
738.52	10.164
738.83	10.922
739.15	10.284
739.46	11.224
739.78	14.417
740.09	9.169
740.41	15.452
740.72	11.000
741.04	12.298
741.35	13.684
741.66	10.196
741.98	11.475
742.29	8.787
742.61	11.404
742.92	14.231
743.23	10.830
743.55	13.178
743.86	16.000
744.18	4.132
744.49	6.329
744.80	11.934
745.12	13.502
745.43	10.163
745.74	11.638
746.06	8.475
746.37	11.814
746.68	11.789
747.00	11.250
747.31	7.296
747.62	16.538
747.94	12.551
748.25	7.631
748.56	8.163
748.88	10.684
749.19	10.776
749.50	9.524
749.82	14.056
750.13	12.811
750.44	9.000
750.75	11.692
751.07	10.769
751.38	14.511
751.69	13.099
752.01	8.091
752.32	12.745
752.63	12.245
752.94	12.111
753.26	8.550
753.57	8.148
753.88	10.861
754.19	12.219
754.51	11.897
754.82	15.756
755.13	14.098
755.44	15.017
755.75	11.184
756.07	14.627
756.38	7.862
756.69	15.060
757.00	10.526
757.31	9.563
757.63	9.207
757.94	9.624
758.25	14.898
758.56	14.161
758.87	12.727
759.18	14.400
759.50	12.748
759.81	12.605
760.12	11.860
760.43	14.062
760.74	16.256
761.05	11.750
761.36	12.530
761.67	12.690
761.99	13.514
762.30	11.280
762.61	12.541
762.92	11.940
763.23	19.850
763.54	13.309
763.85	12.715
764.16	13.131
764.47	14.789
764.78	14.058
765.10	15.836
765.41	14.359
765.72	9.524
766.03	12.994
766.34	9.404
766.65	6.272
766.96	14.741
767.27	12.442
767.58	7.463
767.89	13.462
768.20	11.737
768.51	10.185
768.82	12.450
769.13	12.500
769.44	11.154
769.75	14.440
770.06	11.923
770.37	14.173
770.68	7.660
770.99	8.097
771.30	15.556
771.61	11.787
771.92	11.481
772.23	15.385
772.54	7.870
772.85	13.825
773.16	15.238
773.47	11.640
773.78	7.027
774.09	13.068
774.39	16.000
774.70	8.197
775.01	3.659
775.32	8.235
775.63	5.521
775.94	3.822
776.25	16.129
776.56	17.308
776.87	11.565
777.18	5.517
777.48	4.895
777.79	8.108
778.10	11.029
778.41	11.806
778.72	12.414
779.03	11.111
779.34	10.909
779.65	15.026
779.95	9.444
780.26	7.955
780.57	7.097
780.88	12.319
781.19	12.903
781.50	13.529
781.80	9.140
782.11	14.286
782.42	8.081
782.73	5.389
783.04	11.732
783.34	8.485
783.65	5.882
783.96	6.832
784.27	8.929
784.57	5.960
784.88	12.857
785.19	8.661
785.50	11.811
785.81	12.782
786.11	13.846
786.42	5.755
786.73	9.353
787.04	14.286
787.34	6.557
787.65	5.600
787.96	3.731
788.26	9.091
788.57	15.385
788.88	7.237
789.19	10.458
789.49	13.699
789.80	8.511
790.11	11.024
790.41	14.062
790.72	10.169
791.03	8.738
791.33	8.696
791.64	5.263
791.95	11.607
792.25	10.476
792.56	19.643
792.87	4.167
793.17	16.964
793.48	4.167
793.79	-2.410
794.09	2.752
794.40	11.927
794.70	10.204
795.01	5.844
795.32	7.534
795.62	11.268
795.93	4.545
796.23	7.377
796.54	5.357
796.85	9.574
797.15	7.609
797.46	2.740
797.76	2.500
798.07	15.217
798.37	3.093
798.68	-9.091
798.99	5.747
799.29	16.854
799.60	12.766
799.90	13.253
800.21	-3.077
800.51	1.493
800.82	-4.412
801.12	1.370
801.43	-13.235
801.73	-8.475
802.04	-6.061
802.34	-15.000
802.65	10.169
802.95	11.940
803.26	8.475
803.56	0.000
803.87	5.714
804.17	5.479
804.48	-10.526
804.78	11.111
805.09	-6.897
805.39	10.811
805.70	-4.225
806.00	9.756
806.30	12.048
806.61	-13.699
806.91	15.385
807.22	11.111
807.52	12.644
807.83	12.500
808.13	21.687
808.43	3.371
808.74	6.250
809.04	2.941
809.35	9.333
809.65	7.143
809.95	4.110
810.26	0.000
810.56	20.690
810.86	1.471
811.17	-3.509
811.47	-9.836
811.77	-4.444
812.08	-1.695
812.38	3.333
812.69	8.621
812.99	11.321
813.29	-20.513
813.59	6.000
813.90	24.561
814.20	9.091
814.50	8.451
814.81	15.385
815.11	9.836
815.41	4.478
815.72	18.966
816.02	25.000
816.32	26.667
816.62	-4.545
816.93	-4.444
817.23	7.407
817.53	4.255
817.84	16.667
818.14	0.000
818.44	12.245
818.74	20.000
819.04	-25.641
819.35	-34.286
819.65	-15.385
819.95	9.434
820.25	6.667
820.56	2.381
820.86	-21.875
821.16	-10.256
821.46	-18.605
821.76	-10.000
822.07	1.786
822.37	21.739
822.67	-19.149
822.97	-32.432
823.27	17.500
823.57	8.163
823.88	28.889
824.18	15.000
824.48	-33.333
824.78	4.000
825.08	-36.364
825.38	4.444
825.69	4.255
825.99	-5.556
826.29	-28.571
826.59	-10.256
826.89	-6.977
827.19	4.000
827.49	-17.647
827.79	22.917
828.09	-27.027
828.39	-10.000
828.70	12.195
829.00	-13.953
829.30	-3.571
829.60	11.765
829.90	4.348
830.20	-25.714
830.50	-44.828
830.80	-72.222
831.10	-26.923
831.40	-5.882
831.70	4.762
832.00	38.710
832.30	-76.471
832.60	-50.000
832.90	-53.846
833.20	-26.316
833.50	-65.000
833.80	-26.316
834.10	-100.000
834.40	0.000
834.70	28.125
835.00	-20.000
835.30	14.706
835.60	-6.667
835.90	-20.000
836.20	-72.727
836.50	-4.000
836.80	-18.182
837.10	-22.222
837.40	-3.704
837.70	-93.750
838.00	17.857
838.30	-13.043
838.60	-6.897
838.90	0.000
839.19	-43.478
839.49	-108.333
839.79	-21.739
840.09	-31.250
840.39	-15.000
840.69	41.935
840.99	7.143
841.29	-66.667
841.59	-15.789
841.88	15.385
842.18	-7.692
842.48	-110.000
842.78	5.000
843.08	36.667
843.38	12.903
843.68	-94.444
843.97	14.706
844.27	-18.750
844.57	-36.842
844.87	-150.000
845.17	-93.333
845.47	-14.286
845.76	19.048
846.06	-33.333
846.36	-41.176
846.66	-3.846
846.96	-26.667
847.25	-82.353
847.55	26.087
847.85	-15.000
848.15	5.882
848.44	-54.545
848.74	4.762
849.04	-20.833
849.34	-37.500
849.63	-8.696
849.93	600.000
850.23	-66.667
850.53	34.615
850.82	72.727
851.12	36.364
851.42	-18.182
851.71	-30.769
852.01	-25.000
852.31	-23.077
852.61	15.789
852.90	0.000
853.20	-5.556
853.50	-144.444
853.79	-23.810
854.09	-31.818
854.39	-41.667
854.68	-3.226
854.98	0.000
855.28	27.778
855.57	28.571
855.87	16.000
856.17	-22.727
856.46	-11.111
856.76	-55.556
857.05	-17.391
857.35	-16.667
857.65	-61.538
857.94	14.286
858.24	22.222
858.53	-4.348
858.83	41.176
859.13	23.529
859.42	52.941
859.72	57.143
860.01	-25.000
860.31	-11.111
860.60	0.000
860.90	-6.667
861.20	-11.111
861.49	-23.077
861.79	-3.333
862.08	-23.077
862.38	21.875
862.67	23.529
862.97	-31.250
863.26	-44.444
863.56	20.000
863.85	9.091
864.15	-16.667
864.44	-233.333
864.74	7.143
865.03	-12.500
865.33	-110.000
865.62	-25.806
865.92	40.909
866.21	-13.043
866.51	-42.857
866.80	-160.000
867.10	-66.667
867.39	-33.333
867.69	1100.000
867.98	85.714
868.27	5.882
868.57	-800.000
868.86	-160.000
869.16	-9.524
869.45	-12.500
869.75	-18.182
870.04	-28.571
870.33	16.667
870.63	-171.429
870.92	-100.000
871.22	-87.500
871.51	-63.636
871.80	-633.333
872.10	-700.000
>>>>>End Processed Spectral Data<<<<<
