SpectraSuite Data File
++++++++++++++++++++++++++++++++++++
Date: Thu May 14 16:16:04 PDT 2015
User: schluterlab
Dark Spectrum Present: Yes
Reference Spectrum Present: Yes
Number of Sampled Component Spectra: 1
Spectrometers: USB2E3373
Integration Time (usec): 3000 (USB2E3373)
Spectra Averaged: 3 (USB2E3373)
Boxcar Smoothing: 0 (USB2E3373)
Correct for Electrical Dark: No (USB2E3373)
Strobe/Lamp Enabled: No (USB2E3373)
Correct for Detector Non-linearity: No (USB2E3373)
Correct for Stray Light: No (USB2E3373)
Number of Pixels in Processed Spectrum: 2048
>>>>>Begin Processed Spectral Data<<<<<
178.53	0.000
178.91	128.571
179.29	-2300.000
179.67	-100.000
180.04	164.286
180.42	60.000
180.80	100.000
181.18	-300.000
181.56	-600.000
181.94	175.000
182.31	50.000
182.69	-33.333
183.07	-50.000
183.45	75.000
183.83	-16.667
184.20	-200.000
184.58	-100.000
184.96	-300.000
185.34	-100.000
185.72	60.000
186.09	155.556
186.47	600.000
186.85	140.000
187.23	-211.111
187.61	-1000.000
187.98	260.000
188.36	175.000
188.74	-150.000
189.12	66.667
189.49	18.750
189.87	-37.500
190.25	0.000
190.63	40.000
191.00	-22.222
191.38	0.000
191.76	-175.000
192.14	-66.667
192.51	50.000
192.89	0.000
193.27	0.000
193.65	42.857
194.02	-300.000
194.40	100.000
194.78	128.571
195.15	0.000
195.53	-18.182
195.91	0.000
196.29	-175.000
196.66	-46.154
197.04	-700.000
197.42	-28.571
197.79	-300.000
198.17	12.500
198.55	-28.571
198.92	0.000
199.30	-62.500
199.68	9.091
200.05	28.571
200.43	0.000
200.81	100.000
201.18	0.000
201.56	88.889
201.94	0.000
202.31	666.667
202.69	-44.444
203.07	400.000
203.44	-44.444
203.82	-75.000
204.19	-58.333
204.57	0.000
204.95	-75.000
205.32	-900.000
205.70	-0.000
206.08	-116.667
206.45	-166.667
206.83	400.000
207.20	-50.000
207.58	-140.000
207.96	-16.667
208.33	16.667
208.71	100.000
209.08	-66.667
209.46	0.000
209.84	283.333
210.21	-0.000
210.59	50.000
210.96	366.667
211.34	50.000
211.71	-37.500
212.09	-700.000
212.46	0.000
212.84	850.000
213.22	-100.000
213.59	25.000
213.97	20.000
214.34	-166.667
214.72	300.000
215.09	50.000
215.47	0.000
215.84	71.429
216.22	1000.000
216.59	40.000
216.97	-60.000
217.34	-200.000
217.72	12.500
218.09	-50.000
218.47	-275.000
218.84	0.000
219.22	200.000
219.59	-17.647
219.97	-20.000
220.34	400.000
220.72	-66.667
221.09	53.846
221.47	0.000
221.84	-10.000
222.22	-142.857
222.59	0.000
222.97	-137.500
223.34	-180.000
223.72	-100.000
224.09	-100.000
224.46	-150.000
224.84	-60.000
225.21	-28.571
225.59	-275.000
225.96	-125.000
226.34	15.385
226.71	116.667
227.08	-200.000
227.46	26.667
227.83	0.000
228.21	-5.263
228.58	100.000
228.95	450.000
229.33	8.333
229.70	20.000
230.08	52.632
230.45	140.000
230.82	100.000
231.20	0.000
231.57	33.333
231.95	-27.273
232.32	100.000
232.69	25.000
233.07	-200.000
233.44	-23.529
233.81	-120.000
234.19	0.000
234.56	22.727
234.93	31.034
235.31	0.000
235.68	5.556
236.05	0.000
236.43	73.077
236.80	52.000
237.17	7.407
237.55	18.182
237.92	-60.000
238.29	22.581
238.67	-6.818
239.04	5.556
239.41	16.667
239.79	6.522
240.16	1.852
240.53	15.217
240.91	-5.882
241.28	27.869
241.65	16.418
242.02	29.730
242.40	15.385
242.77	0.000
243.14	14.634
243.51	2.632
243.89	7.692
244.26	30.693
244.63	25.490
245.00	18.692
245.38	16.667
245.75	15.044
246.12	22.222
246.49	18.605
246.87	21.429
247.24	26.490
247.61	29.605
247.98	23.490
248.36	19.136
248.73	14.110
249.10	19.126
249.47	31.841
249.84	30.366
250.22	19.171
250.59	20.000
250.96	24.091
251.33	15.306
251.70	19.231
252.08	23.333
252.45	20.492
252.82	22.314
253.19	18.750
253.56	24.335
253.94	18.077
254.31	27.273
254.68	23.776
255.05	24.104
255.42	19.728
255.79	19.417
256.16	21.523
256.54	24.834
256.91	25.574
257.28	20.656
257.65	19.745
258.02	17.404
258.39	20.798
258.76	24.465
259.14	22.126
259.51	21.614
259.88	19.263
260.25	20.556
260.62	21.644
260.99	23.224
261.36	19.839
261.73	18.302
262.10	24.176
262.47	23.324
262.85	24.495
263.22	21.818
263.59	18.684
263.96	24.297
264.33	22.506
264.70	22.716
265.07	24.344
265.44	24.717
265.81	20.370
266.18	22.676
266.55	22.768
266.92	21.185
267.29	24.289
267.66	21.508
268.03	22.926
268.40	20.668
268.77	20.273
269.14	22.247
269.51	20.833
269.88	23.361
270.25	20.523
270.62	22.152
270.99	22.424
271.36	21.782
271.73	20.236
272.10	22.846
272.47	22.244
272.84	21.084
273.21	20.842
273.58	21.573
273.95	18.654
274.32	20.532
274.69	19.536
275.06	21.795
275.43	19.963
275.80	20.635
276.17	20.370
276.54	20.896
276.91	21.825
277.28	22.423
277.65	21.364
278.02	20.772
278.39	21.196
278.76	19.156
279.13	20.390
279.50	22.165
279.87	21.825
280.23	19.542
280.60	21.695
280.97	20.888
281.34	20.713
281.71	21.489
282.08	18.937
282.45	18.985
282.82	20.251
283.19	18.094
283.56	17.377
283.92	22.673
284.29	21.169
284.66	21.182
285.03	19.231
285.40	21.175
285.77	20.743
286.14	21.985
286.51	20.091
286.87	19.905
287.24	19.277
287.61	20.478
287.98	19.789
288.35	18.343
288.72	19.083
289.08	20.059
289.45	19.231
289.82	18.675
290.19	18.822
290.56	18.310
290.93	19.116
291.29	19.146
291.66	18.320
292.03	18.589
292.40	20.816
292.77	18.598
293.13	17.591
293.50	17.740
293.87	18.121
294.24	19.867
294.60	17.446
294.97	17.584
295.34	19.846
295.71	16.393
296.08	18.217
296.44	15.686
296.81	17.661
297.18	17.435
297.55	17.335
297.91	16.014
298.28	15.877
298.65	17.598
299.02	17.001
299.38	16.590
299.75	17.757
300.12	17.361
300.48	18.088
300.85	15.636
301.22	17.338
301.59	15.753
301.95	16.836
302.32	16.444
302.69	15.772
303.05	16.649
303.42	16.519
303.79	16.979
304.15	17.666
304.52	15.645
304.89	16.126
305.25	15.528
305.62	17.137
305.99	17.320
306.35	16.935
306.72	16.960
307.09	16.244
307.45	17.288
307.82	17.558
308.19	17.558
308.55	17.647
308.92	18.598
309.29	16.571
309.65	16.277
310.02	16.436
310.38	16.437
310.75	16.893
311.12	16.970
311.48	17.107
311.85	18.234
312.22	17.552
312.58	15.869
312.95	18.164
313.31	17.254
313.68	18.498
314.05	17.886
314.41	18.215
314.78	17.257
315.14	17.241
315.51	16.990
315.87	18.092
316.24	18.995
316.61	18.917
316.97	18.824
317.34	17.901
317.70	18.777
318.07	18.607
318.43	18.707
318.80	20.067
319.16	17.682
319.53	17.652
319.89	18.843
320.26	19.395
320.62	17.819
320.99	18.744
321.35	19.593
321.72	20.558
322.08	19.748
322.45	18.699
322.81	20.487
323.18	19.646
323.54	19.052
323.91	19.751
324.27	19.363
324.64	19.395
325.00	19.818
325.37	20.475
325.73	20.909
326.10	21.087
326.46	21.824
326.83	20.496
327.19	20.236
327.56	20.791
327.92	20.063
328.29	19.919
328.65	20.268
329.01	20.305
329.38	20.640
329.74	20.462
330.11	21.147
330.47	20.472
330.84	19.552
331.20	20.833
331.56	21.317
331.93	20.335
332.29	20.678
332.66	20.266
333.02	20.184
333.38	20.134
333.75	20.286
334.11	20.601
334.48	19.637
334.84	21.495
335.20	19.983
335.57	19.815
335.93	20.496
336.29	18.885
336.66	20.353
337.02	19.983
337.38	20.408
337.75	19.752
338.11	19.260
338.47	19.024
338.84	19.543
339.20	19.545
339.56	19.440
339.93	18.801
340.29	20.612
340.65	18.654
341.02	20.511
341.38	19.806
341.74	19.048
342.11	19.710
342.47	19.142
342.83	19.082
343.20	20.442
343.56	19.888
343.92	18.815
344.28	19.766
344.65	19.535
345.01	19.423
345.37	20.218
345.73	19.096
346.10	19.189
346.46	18.671
346.82	19.401
347.19	19.251
347.55	20.713
347.91	19.242
348.27	18.058
348.63	20.107
349.00	18.419
349.36	19.628
349.72	18.824
350.08	20.431
350.45	18.631
350.81	19.080
351.17	19.173
351.53	19.030
351.89	19.590
352.26	18.358
352.62	18.731
352.98	18.931
353.34	17.625
353.70	18.259
354.07	18.778
354.43	17.920
354.79	19.073
355.15	18.764
355.51	19.518
355.87	17.577
356.24	18.707
356.60	19.069
356.96	18.458
357.32	18.810
357.68	19.180
358.04	18.787
358.40	18.955
358.77	19.810
359.13	18.464
359.49	16.952
359.85	18.637
360.21	18.221
360.57	17.875
360.93	18.054
361.29	18.175
361.66	18.972
362.02	18.789
362.38	18.552
362.74	18.575
363.10	18.088
363.46	18.906
363.82	18.537
364.18	19.916
364.54	17.497
364.90	18.462
365.26	17.931
365.62	18.467
365.98	18.856
366.35	17.919
366.71	18.435
367.07	19.215
367.43	19.041
367.79	18.912
368.15	19.465
368.51	17.659
368.87	18.811
369.23	18.933
369.59	18.511
369.95	18.932
370.31	17.961
370.67	18.157
371.03	18.144
371.39	17.999
371.75	17.882
372.11	17.683
372.47	19.499
372.83	18.914
373.19	19.280
373.55	18.022
373.91	17.246
374.27	17.853
374.63	18.336
374.99	17.639
375.35	19.286
375.71	18.129
376.07	18.528
376.42	18.640
376.78	19.640
377.14	18.465
377.50	18.786
377.86	19.643
378.22	17.725
378.58	18.490
378.94	18.251
379.30	18.571
379.66	18.695
380.02	17.830
380.38	19.067
380.74	17.972
381.09	18.235
381.45	18.523
381.81	19.614
382.17	19.002
382.53	18.421
382.89	19.526
383.25	18.699
383.61	17.824
383.97	18.551
384.32	19.797
384.68	19.084
385.04	18.739
385.40	19.741
385.76	18.933
386.12	18.851
386.48	19.529
386.83	19.249
387.19	18.482
387.55	18.838
387.91	18.322
388.27	18.938
388.62	19.129
388.98	17.992
389.34	19.446
389.70	18.768
390.06	18.354
390.42	19.096
390.77	19.928
391.13	18.369
391.49	18.418
391.85	18.182
392.20	18.565
392.56	18.842
392.92	19.248
393.28	19.624
393.64	18.939
393.99	18.710
394.35	19.100
394.71	19.701
395.07	18.323
395.42	18.789
395.78	19.257
396.14	19.192
396.50	18.290
396.85	19.082
397.21	18.580
397.57	19.552
397.92	19.702
398.28	18.523
398.64	18.535
399.00	17.958
399.35	18.429
399.71	18.370
400.07	18.529
400.42	18.859
400.78	19.039
401.14	19.180
401.49	19.159
401.85	19.070
402.21	20.104
402.57	19.131
402.92	18.853
403.28	18.443
403.63	18.735
403.99	18.824
404.35	19.272
404.70	19.773
405.06	18.750
405.42	19.145
405.77	18.593
406.13	17.936
406.49	18.806
406.84	19.058
407.20	18.781
407.55	17.807
407.91	18.542
408.27	19.140
408.62	19.081
408.98	18.688
409.34	18.240
409.69	19.592
410.05	19.226
410.40	18.619
410.76	18.059
411.11	18.469
411.47	18.612
411.83	19.106
412.18	18.554
412.54	19.561
412.89	18.685
413.25	18.792
413.60	18.150
413.96	18.706
414.31	18.414
414.67	18.605
415.03	18.031
415.38	18.222
415.74	18.204
416.09	19.124
416.45	18.535
416.80	17.993
417.16	19.029
417.51	18.742
417.87	17.781
418.22	18.263
418.58	17.720
418.93	19.674
419.29	18.002
419.64	18.667
420.00	18.813
420.35	18.697
420.71	18.897
421.06	17.424
421.42	17.546
421.77	17.124
422.12	18.235
422.48	18.075
422.83	18.237
423.19	17.347
423.54	18.308
423.90	18.112
424.25	17.920
424.61	17.681
424.96	17.847
425.31	18.524
425.67	17.338
426.02	18.152
426.38	18.370
426.73	18.025
427.09	18.800
427.44	18.187
427.79	17.634
428.15	17.466
428.50	18.090
428.85	17.279
429.21	17.287
429.56	17.325
429.92	17.248
430.27	17.880
430.62	16.561
430.98	16.970
431.33	18.084
431.68	17.098
432.04	17.369
432.39	17.033
432.74	18.151
433.10	17.415
433.45	15.942
433.80	17.650
434.16	18.079
434.51	17.883
434.86	18.187
435.22	17.800
435.57	17.748
435.92	17.585
436.28	17.292
436.63	17.804
436.98	17.391
437.34	17.700
437.69	17.391
438.04	17.345
438.39	17.576
438.75	17.045
439.10	18.129
439.45	17.105
439.81	17.288
440.16	17.534
440.51	16.945
440.86	17.565
441.22	17.363
441.57	16.824
441.92	17.362
442.27	17.121
442.63	17.635
442.98	17.182
443.33	16.833
443.68	17.691
444.03	18.015
444.39	17.013
444.74	17.611
445.09	16.827
445.44	16.913
445.79	16.954
446.15	17.318
446.50	16.382
446.85	17.850
447.20	17.166
447.55	18.096
447.91	16.754
448.26	17.072
448.61	16.525
448.96	17.167
449.31	16.914
449.66	17.211
450.02	17.827
450.37	17.208
450.72	17.600
451.07	16.458
451.42	16.580
451.77	16.064
452.12	16.930
452.47	16.518
452.83	18.074
453.18	17.221
453.53	16.140
453.88	16.952
454.23	16.949
454.58	16.773
454.93	16.930
455.28	18.001
455.63	17.567
455.98	16.983
456.34	17.314
456.69	17.872
457.04	17.612
457.39	16.851
457.74	16.667
458.09	16.255
458.44	16.649
458.79	16.555
459.14	16.780
459.49	16.355
459.84	16.737
460.19	16.435
460.54	16.922
460.89	16.728
461.24	16.264
461.59	16.989
461.94	16.657
462.29	16.797
462.64	15.993
462.99	17.200
463.34	17.521
463.69	16.354
464.04	17.121
464.39	16.087
464.74	16.990
465.09	16.667
465.44	16.470
465.79	16.869
466.14	15.946
466.49	16.474
466.84	18.017
467.19	16.243
467.54	15.922
467.89	16.034
468.24	16.177
468.59	15.808
468.94	16.317
469.29	15.837
469.64	16.147
469.99	16.252
470.34	16.399
470.68	16.610
471.03	16.306
471.38	16.024
471.73	16.320
472.08	16.307
472.43	16.135
472.78	15.869
473.13	15.866
473.48	16.495
473.83	16.773
474.17	16.647
474.52	15.815
474.87	16.334
475.22	16.732
475.57	15.732
475.92	16.277
476.27	15.974
476.61	15.992
476.96	15.016
477.31	16.436
477.66	15.477
478.01	16.472
478.36	15.852
478.70	16.158
479.05	16.922
479.40	15.893
479.75	16.523
480.10	16.153
480.45	16.135
480.79	16.644
481.14	15.303
481.49	15.538
481.84	15.840
482.19	15.699
482.53	15.916
482.88	16.261
483.23	15.829
483.58	15.284
483.92	15.337
484.27	15.580
484.62	15.594
484.97	15.552
485.31	15.699
485.66	15.069
486.01	15.254
486.36	15.261
486.70	15.992
487.05	15.689
487.40	14.952
487.75	15.471
488.09	15.075
488.44	15.012
488.79	15.346
489.13	15.243
489.48	15.223
489.83	14.809
490.17	14.419
490.52	15.599
490.87	15.271
491.22	15.381
491.56	15.358
491.91	16.049
492.26	15.275
492.60	15.785
492.95	15.314
493.30	15.823
493.64	15.550
493.99	15.088
494.34	15.462
494.68	14.946
495.03	14.670
495.37	15.446
495.72	15.692
496.07	15.250
496.41	15.058
496.76	15.680
497.11	15.159
497.45	15.710
497.80	15.415
498.14	15.828
498.49	15.395
498.84	16.088
499.18	15.250
499.53	15.426
499.87	14.945
500.22	14.515
500.56	14.935
500.91	14.966
501.26	15.864
501.60	14.671
501.95	15.198
502.29	15.094
502.64	15.173
502.98	15.574
503.33	15.076
503.67	14.959
504.02	15.412
504.36	15.907
504.71	14.883
505.06	15.189
505.40	15.219
505.75	15.164
506.09	15.009
506.44	15.413
506.78	16.284
507.13	15.722
507.47	15.490
507.82	14.867
508.16	15.679
508.51	14.627
508.85	15.305
509.19	15.017
509.54	15.754
509.88	14.424
510.23	15.590
510.57	15.998
510.92	15.481
511.26	15.633
511.61	15.017
511.95	15.471
512.30	15.313
512.64	14.693
512.98	15.158
513.33	14.869
513.67	14.329
514.02	15.483
514.36	14.476
514.70	15.469
515.05	15.172
515.39	15.223
515.74	15.483
516.08	15.531
516.42	15.751
516.77	14.511
517.11	15.266
517.46	15.217
517.80	15.981
518.14	16.322
518.49	15.889
518.83	15.061
519.17	14.755
519.52	15.409
519.86	15.628
520.20	14.963
520.55	15.170
520.89	14.921
521.23	15.075
521.58	15.028
521.92	15.354
522.26	14.376
522.61	15.509
522.95	15.225
523.29	15.057
523.64	14.798
523.98	16.315
524.32	15.817
524.66	15.879
525.01	14.326
525.35	14.934
525.69	15.777
526.04	14.581
526.38	14.713
526.72	15.917
527.06	15.308
527.41	14.927
527.75	14.964
528.09	15.289
528.43	14.979
528.78	15.376
529.12	14.679
529.46	14.784
529.80	15.389
530.15	15.362
530.49	14.769
530.83	14.758
531.17	14.695
531.51	14.621
531.86	14.844
532.20	15.671
532.54	15.200
532.88	15.758
533.22	15.380
533.57	15.407
533.91	15.320
534.25	15.432
534.59	15.230
534.93	15.280
535.27	15.211
535.62	15.577
535.96	15.689
536.30	14.454
536.64	15.435
536.98	15.314
537.32	15.432
537.66	15.159
538.01	15.408
538.35	15.104
538.69	14.183
539.03	15.696
539.37	15.371
539.71	15.375
540.05	15.348
540.39	14.120
540.73	15.240
541.07	15.021
541.42	14.708
541.76	15.006
542.10	14.355
542.44	14.921
542.78	15.633
543.12	15.495
543.46	14.957
543.80	14.448
544.14	15.739
544.48	15.248
544.82	15.141
545.16	15.086
545.50	15.458
545.84	14.819
546.18	15.679
546.52	15.478
546.86	14.654
547.20	15.585
547.54	14.357
547.88	14.045
548.22	14.971
548.56	14.570
548.90	14.567
549.24	14.529
549.58	15.142
549.92	14.605
550.26	15.469
550.60	15.252
550.94	15.459
551.28	15.446
551.62	15.296
551.96	14.887
552.30	14.659
552.64	15.246
552.98	15.533
553.32	14.920
553.66	14.984
554.00	15.132
554.34	14.801
554.68	14.719
555.02	13.995
555.36	15.516
555.69	14.734
556.03	15.006
556.37	15.207
556.71	15.219
557.05	14.313
557.39	14.267
557.73	15.390
558.07	15.099
558.41	15.017
558.75	14.740
559.08	15.518
559.42	14.746
559.76	15.129
560.10	15.405
560.44	15.303
560.78	15.688
561.12	14.840
561.45	14.964
561.79	15.263
562.13	14.787
562.47	14.365
562.81	14.810
563.15	14.962
563.48	14.295
563.82	14.994
564.16	14.052
564.50	14.482
564.84	14.690
565.17	14.353
565.51	14.672
565.85	14.667
566.19	14.113
566.52	14.745
566.86	14.658
567.20	13.866
567.54	14.764
567.88	14.118
568.21	14.476
568.55	15.060
568.89	14.480
569.23	14.068
569.56	14.459
569.90	14.291
570.24	14.199
570.57	14.112
570.91	14.360
571.25	13.914
571.59	14.250
571.92	14.312
572.26	14.240
572.60	14.223
572.93	13.805
573.27	13.852
573.61	14.320
573.95	13.790
574.28	14.179
574.62	14.097
574.96	13.741
575.29	13.748
575.63	13.883
575.97	13.988
576.30	13.940
576.64	13.911
576.98	13.645
577.31	13.710
577.65	14.383
577.98	14.175
578.32	13.900
578.66	13.758
578.99	14.090
579.33	13.562
579.67	13.667
580.00	13.531
580.34	14.376
580.67	13.658
581.01	13.825
581.35	13.793
581.68	14.144
582.02	14.039
582.35	14.157
582.69	13.992
583.02	13.829
583.36	13.617
583.70	13.724
584.03	13.655
584.37	13.873
584.70	13.716
585.04	13.532
585.37	13.942
585.71	13.873
586.04	14.003
586.38	13.904
586.72	13.512
587.05	13.431
587.39	13.488
587.72	13.756
588.06	13.830
588.39	14.140
588.73	13.386
589.06	13.854
589.40	13.614
589.73	13.946
590.07	13.462
590.40	13.759
590.73	13.963
591.07	13.477
591.40	13.258
591.74	13.871
592.07	14.576
592.41	13.644
592.74	14.022
593.08	14.331
593.41	14.552
593.75	13.994
594.08	13.905
594.41	14.167
594.75	13.750
595.08	13.392
595.42	13.929
595.75	13.691
596.09	13.758
596.42	13.615
596.75	13.817
597.09	14.343
597.42	14.184
597.75	14.387
598.09	13.690
598.42	14.757
598.76	13.642
599.09	13.920
599.42	13.510
599.76	13.767
600.09	14.348
600.42	14.014
600.76	13.507
601.09	13.342
601.42	13.354
601.76	13.724
602.09	13.760
602.42	13.740
602.76	13.690
603.09	13.913
603.42	14.053
603.76	13.813
604.09	13.982
604.42	13.505
604.76	13.166
605.09	13.961
605.42	14.195
605.75	13.423
606.09	13.774
606.42	13.243
606.75	13.868
607.09	13.172
607.42	13.873
607.75	13.873
608.08	13.694
608.42	13.704
608.75	13.557
609.08	12.988
609.41	13.145
609.75	13.661
610.08	13.896
610.41	14.274
610.74	14.160
611.07	13.632
611.41	14.170
611.74	13.764
612.07	14.540
612.40	14.116
612.73	14.083
613.07	14.181
613.40	13.908
613.73	14.011
614.06	14.181
614.39	13.703
614.72	13.634
615.06	13.426
615.39	13.823
615.72	13.934
616.05	13.356
616.38	14.682
616.71	13.741
617.05	12.886
617.38	14.500
617.71	14.093
618.04	14.031
618.37	14.153
618.70	14.140
619.03	13.799
619.36	13.687
619.69	14.029
620.03	13.685
620.36	14.110
620.69	13.880
621.02	14.304
621.35	13.861
621.68	15.691
622.01	14.235
622.34	13.529
622.67	13.746
623.00	12.416
623.33	14.068
623.66	14.721
623.99	14.681
624.32	14.295
624.65	13.771
624.99	14.174
625.32	14.958
625.65	14.565
625.98	14.034
626.31	13.962
626.64	14.286
626.97	14.704
627.30	13.667
627.63	14.179
627.96	15.165
628.29	14.708
628.62	13.770
628.95	13.848
629.28	14.359
629.61	15.657
629.94	14.812
630.26	14.407
630.59	14.594
630.92	14.199
631.25	14.311
631.58	15.160
631.91	13.964
632.24	14.409
632.57	14.231
632.90	14.544
633.23	15.408
633.56	15.000
633.89	14.360
634.22	15.489
634.55	14.301
634.88	14.610
635.20	14.424
635.53	14.350
635.86	15.060
636.19	16.119
636.52	14.979
636.85	14.300
637.18	15.696
637.51	15.269
637.83	15.061
638.16	14.747
638.49	12.676
638.82	15.445
639.15	12.715
639.48	15.589
639.81	15.127
640.13	14.252
640.46	12.970
640.79	12.868
641.12	14.410
641.45	14.053
641.77	15.148
642.10	14.436
642.43	17.287
642.76	15.447
643.09	12.055
643.41	14.706
643.74	14.069
644.07	16.690
644.40	14.427
644.73	14.659
645.05	14.391
645.38	14.532
645.71	15.249
646.04	17.791
646.36	14.891
646.69	13.957
647.02	15.443
647.35	14.351
647.67	14.493
648.00	12.261
648.33	16.066
648.66	14.693
648.98	15.102
649.31	15.020
649.64	15.803
649.96	14.854
650.29	13.630
650.62	15.276
650.94	13.514
651.27	13.174
651.60	15.643
651.92	14.742
652.25	15.051
652.58	13.893
652.90	12.645
653.23	14.648
653.56	14.551
653.88	15.590
654.21	14.085
654.54	13.439
654.86	16.572
655.19	13.927
655.52	15.243
655.84	14.624
656.17	17.644
656.49	24.752
656.82	26.105
657.15	19.572
657.47	14.112
657.80	10.153
658.13	7.735
658.45	9.924
658.78	11.877
659.10	11.429
659.43	11.789
659.75	11.269
660.08	11.541
660.41	12.159
660.73	11.631
661.06	13.069
661.38	13.078
661.71	16.207
662.03	13.933
662.36	15.921
662.68	13.133
663.01	14.690
663.33	15.690
663.66	16.667
663.98	13.846
664.31	16.510
664.63	15.029
664.96	15.245
665.28	16.334
665.61	17.308
665.93	14.107
666.26	15.412
666.58	12.731
666.91	13.832
667.23	15.429
667.56	16.963
667.88	16.800
668.21	14.453
668.53	11.583
668.86	13.949
669.18	13.035
669.50	15.308
669.83	11.400
670.15	14.173
670.48	14.881
670.80	14.340
671.13	14.367
671.45	12.402
671.77	15.066
672.10	15.500
672.42	13.269
672.75	13.825
673.07	15.075
673.39	13.559
673.72	14.430
674.04	14.138
674.37	14.848
674.69	16.049
675.01	11.429
675.34	13.168
675.66	12.921
675.98	12.687
676.31	15.820
676.63	17.871
676.95	13.602
677.28	16.532
677.60	12.795
677.92	13.244
678.25	14.077
678.57	14.057
678.89	15.700
679.22	14.983
679.54	14.188
679.86	12.542
680.18	12.438
680.51	14.780
680.83	13.748
681.15	13.966
681.48	12.953
681.80	15.371
682.12	13.636
682.44	15.192
682.77	16.135
683.09	14.015
683.41	14.922
683.73	13.662
684.06	13.653
684.38	11.986
684.70	14.901
685.02	14.458
685.34	11.148
685.67	12.776
685.99	15.337
686.31	12.936
686.63	13.112
686.96	14.038
687.28	14.007
687.60	12.963
687.92	13.987
688.24	14.691
688.56	13.276
688.89	14.519
689.21	14.286
689.53	13.333
689.85	14.793
690.17	14.815
690.49	12.351
690.82	14.851
691.14	15.385
691.46	12.428
691.78	15.838
692.10	12.844
692.42	11.786
692.74	15.971
693.06	12.037
693.39	15.560
693.71	14.662
694.03	12.454
694.35	14.476
694.67	14.579
694.99	14.043
695.31	14.790
695.63	12.987
695.95	13.872
696.27	11.868
696.59	14.381
696.91	13.288
697.23	15.604
697.56	15.275
697.88	15.720
698.20	14.501
698.52	14.773
698.84	12.474
699.16	14.286
699.48	15.481
699.80	12.979
700.12	12.227
700.44	14.977
700.76	13.064
701.08	11.864
701.40	15.026
701.72	16.915
702.04	14.439
702.36	12.304
702.68	14.670
703.00	13.692
703.32	15.271
703.64	13.936
703.96	15.274
704.28	15.233
704.60	15.949
704.91	14.286
705.23	15.616
705.55	16.435
705.87	17.576
706.19	16.258
706.51	12.349
706.83	10.086
707.15	12.169
707.47	13.084
707.79	11.790
708.11	12.076
708.43	12.258
708.74	11.384
709.06	14.153
709.38	13.615
709.70	15.881
710.02	15.504
710.34	11.968
710.66	9.777
710.98	13.934
711.29	10.989
711.61	14.124
711.93	12.536
712.25	12.432
712.57	12.979
712.89	17.353
713.20	12.722
713.52	15.607
713.84	15.042
714.16	15.789
714.48	16.237
714.80	15.065
715.11	14.961
715.43	12.732
715.75	13.684
716.07	14.365
716.39	15.574
716.70	9.940
717.02	15.410
717.34	10.105
717.66	11.409
717.97	11.644
718.29	9.622
718.61	15.132
718.93	11.974
719.24	15.528
719.56	16.871
719.88	11.411
720.20	14.516
720.51	14.907
720.83	16.563
721.15	9.539
721.46	10.274
721.78	16.000
722.10	14.239
722.42	15.436
722.73	12.581
723.05	11.930
723.37	12.153
723.68	15.054
724.00	14.801
724.32	13.380
724.63	13.636
724.95	13.830
725.27	12.195
725.58	9.187
725.90	16.207
726.22	14.107
726.53	12.662
726.85	11.635
727.16	14.502
727.48	13.761
727.80	14.238
728.11	13.074
728.43	16.498
728.74	16.054
729.06	12.583
729.38	12.338
729.69	16.107
730.01	14.881
730.32	10.909
730.64	15.723
730.96	13.665
731.27	15.922
731.59	10.989
731.90	13.766
732.22	12.240
732.53	9.392
732.85	14.571
733.16	14.076
733.48	14.939
733.80	12.813
734.11	12.821
734.43	12.973
734.74	17.975
735.06	13.819
735.37	13.784
735.69	11.892
736.00	11.299
736.32	14.016
736.63	14.444
736.95	10.920
737.26	15.455
737.58	9.394
737.89	15.588
738.21	10.092
738.52	13.115
738.83	13.993
739.15	12.766
739.46	11.565
739.78	15.644
740.09	15.759
740.41	13.703
740.72	15.000
741.04	13.916
741.35	16.140
741.66	12.157
741.98	20.082
742.29	12.134
742.61	15.351
742.92	15.385
743.23	14.801
743.55	15.504
743.86	11.200
744.18	11.983
744.49	11.814
744.80	15.638
745.12	13.502
745.43	14.634
745.74	12.069
746.06	10.593
746.37	8.861
746.68	11.789
747.00	8.333
747.31	12.017
747.62	15.769
747.94	10.526
748.25	8.835
748.56	10.612
748.88	13.675
749.19	11.638
749.50	9.091
749.82	13.655
750.13	17.438
750.44	10.000
750.75	13.538
751.07	11.077
751.38	13.880
751.69	13.419
752.01	11.327
752.32	12.418
752.63	13.946
752.94	12.803
753.26	9.665
753.57	10.370
753.88	10.487
754.19	9.968
754.51	12.219
754.82	12.540
755.13	18.033
755.44	11.945
755.75	14.803
756.07	13.134
756.38	11.006
756.69	12.349
757.00	11.634
757.31	14.208
757.63	9.463
757.94	10.798
758.25	15.576
758.56	13.725
758.87	14.545
759.18	12.533
759.50	16.431
759.81	13.725
760.12	11.590
760.43	14.844
760.74	14.286
761.05	13.000
761.36	11.807
761.67	12.690
761.99	14.324
762.30	12.195
762.61	10.231
762.92	9.328
763.23	11.985
763.54	12.950
763.85	13.058
764.16	12.795
764.47	13.028
764.78	13.099
765.10	14.370
765.41	15.641
765.72	11.640
766.03	17.232
766.34	6.897
766.65	13.240
766.96	9.562
767.27	14.747
767.58	9.453
767.89	18.269
768.20	15.962
768.51	10.185
768.82	14.859
769.13	12.500
769.44	6.154
769.75	15.884
770.06	14.231
770.37	18.504
770.68	10.213
770.99	8.907
771.30	17.778
771.61	10.266
771.92	12.593
772.23	14.575
772.54	11.574
772.85	15.668
773.16	19.524
773.47	14.286
773.78	6.486
774.09	10.795
774.39	20.000
774.70	18.579
775.01	7.927
775.32	11.176
775.63	14.110
775.94	15.924
776.25	18.065
776.56	14.103
776.87	12.245
777.18	13.103
777.48	12.587
777.79	10.135
778.10	5.147
778.41	14.583
778.72	11.034
779.03	12.963
779.34	16.364
779.65	17.098
779.95	15.000
780.26	13.068
780.57	16.774
780.88	23.913
781.19	18.065
781.50	22.941
781.80	13.441
782.11	10.053
782.42	11.616
782.73	7.186
783.04	16.201
783.34	9.697
783.65	10.458
783.96	13.665
784.27	17.262
784.57	14.570
784.88	22.143
785.19	6.299
785.50	14.961
785.81	14.286
786.11	10.000
786.42	2.878
786.73	8.633
787.04	14.286
787.34	11.475
787.65	7.200
787.96	14.179
788.26	10.490
788.57	20.280
788.88	11.184
789.19	16.340
789.49	7.534
789.80	3.546
790.11	14.173
790.41	10.938
790.72	10.169
791.03	0.971
791.33	17.391
791.64	24.561
791.95	16.071
792.25	20.952
792.56	11.607
792.87	10.417
793.17	11.607
793.48	14.583
793.79	-6.024
794.09	9.174
794.40	6.422
794.70	15.646
795.01	16.234
795.32	11.644
795.62	9.859
795.93	6.818
796.23	17.213
796.54	8.929
796.85	8.511
797.15	-3.261
797.46	9.589
797.76	7.500
798.07	15.217
798.37	10.309
798.68	11.688
798.99	-3.448
799.29	2.247
799.60	21.277
799.90	7.229
800.21	-3.077
800.51	0.000
800.82	1.471
801.12	2.740
801.43	1.471
801.73	-5.085
802.04	24.242
802.34	-1.667
802.65	5.085
802.95	13.433
803.26	-3.390
803.56	2.740
803.87	7.143
804.17	15.068
804.48	3.509
804.78	5.556
805.09	-12.069
805.39	16.216
805.70	5.634
806.00	10.976
806.30	7.229
806.61	12.329
806.91	9.615
807.22	14.444
807.52	-9.195
807.83	18.056
808.13	10.843
808.43	8.989
808.74	10.000
809.04	-7.353
809.35	6.667
809.65	-1.429
809.95	1.370
810.26	0.000
810.56	-10.345
810.86	13.235
811.17	7.018
811.47	0.000
811.77	0.000
812.08	5.085
812.38	16.667
812.69	17.241
812.99	-20.755
813.29	-10.256
813.59	22.000
813.90	19.298
814.20	9.091
814.50	19.718
814.81	15.385
815.11	16.393
815.41	7.463
815.72	22.414
816.02	21.429
816.32	2.222
816.62	20.455
816.93	0.000
817.23	-3.704
817.53	10.638
817.84	7.143
818.14	0.000
818.44	24.490
818.74	-2.222
819.04	-15.385
819.35	-28.571
819.65	3.846
819.95	18.868
820.25	-2.222
820.56	-2.381
820.86	-9.375
821.16	7.692
821.46	6.977
821.76	-12.000
822.07	5.357
822.37	-19.565
822.67	6.383
822.97	-24.324
823.27	-22.500
823.57	-4.082
823.88	24.444
824.18	5.000
824.48	-10.000
824.78	4.000
825.08	3.030
825.38	15.556
825.69	12.766
825.99	8.333
826.29	-8.571
826.59	-2.564
826.89	-4.651
827.19	6.000
827.49	-17.647
827.79	20.833
828.09	-27.027
828.39	0.000
828.70	-17.073
829.00	-6.977
829.30	3.571
829.60	23.529
829.90	23.913
830.20	-11.429
830.50	0.000
830.80	22.222
831.10	53.846
831.40	11.765
831.70	0.000
832.00	0.000
832.30	-82.353
832.60	8.333
832.90	-38.462
833.20	-21.053
833.50	-50.000
833.80	-26.316
834.10	-42.857
834.40	16.667
834.70	25.000
835.00	-17.143
835.30	-5.882
835.60	-26.667
835.90	-12.000
836.20	-95.455
836.50	0.000
836.80	0.000
837.10	-40.741
837.40	-40.741
837.70	-43.750
838.00	14.286
838.30	-17.391
838.60	-17.241
838.90	28.571
839.19	-52.174
839.49	-83.333
839.79	26.087
840.09	-31.250
840.39	-20.000
840.69	6.452
840.99	-14.286
841.29	-40.000
841.59	-57.895
841.88	2.564
842.18	-23.077
842.48	-80.000
842.78	-20.000
843.08	-23.333
843.38	19.355
843.68	-66.667
843.97	11.765
844.27	31.250
844.57	-57.895
844.87	-50.000
845.17	-66.667
845.47	14.286
845.76	-28.571
846.06	-100.000
846.36	0.000
846.66	11.538
846.96	-53.333
847.25	-17.647
847.55	52.174
847.85	-25.000
848.15	-52.941
848.44	-127.273
848.74	-52.381
849.04	-20.833
849.34	-12.500
849.63	34.783
849.93	350.000
850.23	46.667
850.53	7.692
850.82	9.091
851.12	-9.091
851.42	-63.636
851.71	-23.077
852.01	-35.000
852.31	23.077
852.61	-5.263
852.90	-75.000
853.20	-33.333
853.50	-122.222
853.79	-28.571
854.09	-31.818
854.39	-33.333
854.68	-6.452
854.98	-30.769
855.28	38.889
855.57	-10.714
855.87	8.000
856.17	-4.545
856.46	29.630
856.76	-5.556
857.05	4.348
857.35	-20.833
857.65	-38.462
857.94	-23.810
858.24	11.111
858.53	-8.696
858.83	35.294
859.13	5.882
859.42	17.647
859.72	14.286
860.01	-40.000
860.31	-33.333
860.60	0.000
860.90	40.000
861.20	-16.667
861.49	-15.385
861.79	0.000
862.08	-7.692
862.38	53.125
862.67	17.647
862.97	-18.750
863.26	-55.556
863.56	80.000
863.85	-9.091
864.15	-16.667
864.44	-100.000
864.74	21.429
865.03	6.250
865.33	-90.000
865.62	-41.935
865.92	36.364
866.21	34.783
866.51	-35.714
866.80	-220.000
867.10	-41.667
867.39	-125.000
867.69	1300.000
867.98	-14.286
868.27	17.647
868.57	-2100.000
868.86	-140.000
869.16	19.048
869.45	25.000
869.75	72.727
870.04	-71.429
870.33	-8.333
870.63	-228.571
870.92	225.000
871.22	-100.000
871.51	-45.455
871.80	-300.000
872.10	-300.000
>>>>>End Processed Spectral Data<<<<<
