SpectraSuite Data File
++++++++++++++++++++++++++++++++++++
Date: Thu May 14 16:09:03 PDT 2015
User: schluterlab
Dark Spectrum Present: Yes
Reference Spectrum Present: Yes
Number of Sampled Component Spectra: 1
Spectrometers: USB2E3373
Integration Time (usec): 3000 (USB2E3373)
Spectra Averaged: 3 (USB2E3373)
Boxcar Smoothing: 0 (USB2E3373)
Correct for Electrical Dark: No (USB2E3373)
Strobe/Lamp Enabled: No (USB2E3373)
Correct for Detector Non-linearity: No (USB2E3373)
Correct for Stray Light: No (USB2E3373)
Number of Pixels in Processed Spectrum: 2048
>>>>>Begin Processed Spectral Data<<<<<
178.53	0.000
178.91	285.714
179.29	-1800.000
179.67	-1300.000
180.04	185.714
180.42	110.000
180.80	280.000
181.18	-1900.000
181.56	-500.000
181.94	475.000
182.31	-175.000
182.69	733.333
183.07	-500.000
183.45	250.000
183.83	-116.667
184.20	-300.000
184.58	800.000
184.96	-525.000
185.34	-100.000
185.72	-100.000
186.09	188.889
186.47	550.000
186.85	400.000
187.23	-100.000
187.61	-1300.000
187.98	160.000
188.36	425.000
188.74	-175.000
189.12	33.333
189.49	-31.250
189.87	-187.500
190.25	-133.333
190.63	-80.000
191.00	-166.667
191.38	0.000
191.76	-475.000
192.14	-250.000
192.51	600.000
192.89	-100.000
193.27	0.000
193.65	0.000
194.02	-1400.000
194.40	-142.857
194.78	271.429
195.15	0.000
195.53	-172.727
195.91	0.000
196.29	-225.000
196.66	-46.154
197.04	-900.000
197.42	-100.000
197.79	-700.000
198.17	-37.500
198.55	-71.429
198.92	-166.667
199.30	-325.000
199.68	0.000
200.05	-28.571
200.43	-850.000
200.81	371.429
201.18	0.000
201.56	311.111
201.94	0.000
202.31	766.667
202.69	-144.444
203.07	1500.000
203.44	-55.556
203.82	-350.000
204.19	-75.000
204.57	-83.333
204.95	-87.500
205.32	-1300.000
205.70	250.000
206.08	-233.333
206.45	-216.667
206.83	300.000
207.20	-183.333
207.58	-360.000
207.96	-150.000
208.33	-150.000
208.71	116.667
209.08	-66.667
209.46	0.000
209.84	316.667
210.21	700.000
210.59	850.000
210.96	466.667
211.34	-275.000
211.71	-125.000
212.09	-1100.000
212.46	0.000
212.84	1250.000
213.22	-300.000
213.59	-225.000
213.97	-60.000
214.34	-366.667
214.72	300.000
215.09	-125.000
215.47	0.000
215.84	257.143
216.22	1200.000
216.59	-260.000
216.97	-80.000
217.34	-225.000
217.72	-150.000
218.09	-350.000
218.47	-550.000
218.84	0.000
219.22	360.000
219.59	-70.588
219.97	-45.000
220.34	650.000
220.72	-111.111
221.09	-76.923
221.47	-400.000
221.84	-60.000
222.22	-200.000
222.59	0.000
222.97	12.500
223.34	-260.000
223.72	-800.000
224.09	-425.000
224.46	-200.000
224.84	-120.000
225.21	-100.000
225.59	-425.000
225.96	-450.000
226.34	-23.077
226.71	216.667
227.08	-850.000
227.46	-93.333
227.83	-250.000
228.21	26.316
228.58	50.000
228.95	950.000
229.33	-50.000
229.70	-100.000
230.08	15.789
230.45	190.000
230.82	-366.667
231.20	-100.000
231.57	-75.000
231.95	-109.091
232.32	-127.273
232.69	-50.000
233.07	-325.000
233.44	-58.824
233.81	-100.000
234.19	-11.111
234.56	-36.364
234.93	13.793
235.31	-21.053
235.68	-16.667
236.05	-45.000
236.43	-3.846
236.80	8.000
237.17	-11.111
237.55	-15.152
237.92	-110.000
238.29	9.677
238.67	11.364
239.04	19.444
239.41	7.143
239.79	2.174
240.16	-7.407
240.53	-17.391
240.91	-5.882
241.28	0.000
241.65	16.418
242.02	9.459
242.40	12.308
242.77	10.667
243.14	8.537
243.51	-6.579
243.89	-1.282
244.26	20.792
244.63	24.510
245.00	14.019
245.38	12.281
245.75	-1.770
246.12	12.698
246.49	15.504
246.87	18.571
247.24	17.881
247.61	11.842
247.98	12.752
248.36	14.815
248.73	15.951
249.10	15.847
249.47	19.900
249.84	25.131
250.22	16.580
250.59	17.778
250.96	23.636
251.33	17.857
251.70	16.239
252.08	15.833
252.45	20.902
252.82	19.835
253.19	19.141
253.56	21.293
253.94	16.154
254.31	17.803
254.68	24.126
255.05	21.498
255.42	17.007
255.79	19.741
256.16	21.192
256.54	15.232
256.91	17.705
257.28	16.721
257.65	19.108
258.02	16.519
258.39	17.949
258.76	21.101
259.14	21.839
259.51	19.308
259.88	19.263
260.25	21.667
260.62	24.384
260.99	22.404
261.36	20.375
261.73	18.302
262.10	20.604
262.47	19.035
262.85	22.222
263.22	19.221
263.59	16.842
263.96	19.949
264.33	18.670
264.70	20.000
265.07	21.241
265.44	22.222
265.81	18.287
266.18	22.449
266.55	20.536
266.92	19.134
267.29	21.663
267.66	20.177
268.03	21.397
268.40	21.503
268.77	17.312
269.14	15.419
269.51	19.298
269.88	21.107
270.25	20.322
270.62	20.253
270.99	20.606
271.36	21.782
271.73	21.415
272.10	21.443
272.47	19.038
272.84	19.277
273.21	19.439
273.58	17.339
273.95	19.038
274.32	17.681
274.69	18.762
275.06	18.498
275.43	16.266
275.80	20.459
276.17	18.148
276.54	18.097
276.91	18.426
277.28	21.157
277.65	18.312
278.02	20.588
278.39	17.572
278.76	19.684
279.13	19.681
279.50	19.416
279.87	18.426
280.23	16.901
280.60	21.356
280.97	18.421
281.34	17.997
281.71	19.797
282.08	18.771
282.45	17.185
282.82	17.582
283.19	17.286
283.56	19.016
283.92	21.471
284.29	20.695
284.66	18.555
285.03	17.308
285.40	19.629
285.77	17.492
286.14	18.779
286.51	18.113
286.87	18.799
287.24	19.127
287.61	19.283
287.98	17.976
288.35	18.047
288.72	17.604
289.08	19.619
289.45	16.420
289.82	16.566
290.19	17.816
290.56	17.746
290.93	16.548
291.29	17.906
291.66	17.218
292.03	15.739
292.40	17.551
292.77	16.307
293.13	17.456
293.50	17.477
293.87	16.510
294.24	16.667
294.60	18.710
294.97	15.168
295.34	17.414
295.71	15.511
296.08	15.116
296.44	16.422
296.81	16.809
297.18	17.061
297.55	14.623
297.91	16.014
298.28	15.758
298.65	16.766
299.02	14.758
299.38	14.989
299.75	15.070
300.12	13.079
300.48	15.783
300.85	15.298
301.22	14.094
301.59	14.726
301.95	14.915
302.32	15.111
302.69	16.210
303.05	15.343
303.42	14.412
303.79	14.792
304.15	14.406
304.52	13.848
304.89	14.555
305.25	15.114
305.62	13.898
305.99	15.052
306.35	13.810
306.72	15.202
307.09	14.518
307.45	14.596
307.82	15.237
308.19	13.824
308.55	15.622
308.92	14.314
309.29	15.230
309.65	14.522
310.02	13.762
310.38	14.961
310.75	14.272
311.12	15.436
311.48	13.978
311.85	14.530
312.22	16.034
312.58	15.681
312.95	14.054
313.31	15.899
313.68	15.476
314.05	15.718
314.41	16.667
314.78	15.350
315.14	17.151
315.51	16.343
315.87	15.752
316.24	15.799
316.61	16.163
316.97	15.656
317.34	14.727
317.70	16.245
318.07	16.049
318.43	15.816
318.80	17.224
319.16	16.052
319.53	15.767
319.89	15.074
320.26	16.993
320.62	15.160
320.99	15.420
321.35	16.081
321.72	16.558
322.08	16.592
322.45	16.079
322.81	16.245
323.18	15.664
323.54	15.948
323.91	16.637
324.27	16.007
324.64	17.212
325.00	15.672
325.37	17.445
325.73	16.777
326.10	17.437
326.46	17.834
326.83	17.214
327.19	15.827
327.56	16.443
327.92	16.286
328.29	16.774
328.65	16.164
329.01	17.259
329.38	16.007
329.74	16.952
330.11	16.353
330.47	16.681
330.84	14.987
331.20	17.500
331.56	16.638
331.93	16.402
332.29	16.864
332.66	16.694
333.02	15.829
333.38	17.198
333.75	16.667
334.11	15.847
334.48	16.914
334.84	16.822
335.20	15.365
335.57	16.863
335.93	17.521
336.29	14.809
336.66	15.812
337.02	17.057
337.38	16.752
337.75	15.124
338.11	16.905
338.47	16.873
338.84	15.482
339.20	16.091
339.56	16.392
339.93	15.846
340.29	15.459
340.65	17.113
341.02	17.797
341.38	15.926
341.74	17.272
342.11	16.251
342.47	15.727
342.83	16.586
343.20	17.089
343.56	17.001
343.92	16.653
344.28	16.250
344.65	17.752
345.01	16.693
345.37	16.174
345.73	15.900
346.10	16.381
346.46	16.377
346.82	16.704
347.19	16.348
347.55	16.692
347.91	15.453
348.27	15.402
348.63	16.603
349.00	15.436
349.36	16.431
349.72	16.295
350.08	15.750
350.45	15.285
350.81	15.535
351.17	16.090
351.53	15.466
351.89	16.856
352.26	14.701
352.62	15.821
352.98	15.344
353.34	15.534
353.70	15.639
354.07	15.872
354.43	15.718
354.79	15.258
355.15	15.232
355.51	17.032
355.87	15.632
356.24	16.426
356.60	15.299
356.96	15.715
357.32	14.349
357.68	15.739
358.04	15.419
358.40	15.597
358.77	15.789
359.13	14.919
359.49	15.019
359.85	16.099
360.21	15.352
360.57	15.865
360.93	14.528
361.29	15.439
361.66	16.075
362.02	16.493
362.38	15.531
362.74	16.131
363.10	15.750
363.46	16.274
363.82	15.696
364.18	15.060
364.54	16.805
364.90	14.783
365.26	15.172
365.62	15.800
365.98	14.908
366.35	16.040
366.71	16.395
367.07	16.035
367.43	16.021
367.79	15.660
368.15	16.455
368.51	15.562
368.87	16.590
369.23	15.200
369.59	16.530
369.95	14.537
370.31	16.205
370.67	15.406
371.03	16.136
371.39	14.842
371.75	15.887
372.11	15.583
372.47	16.046
372.83	16.099
373.19	16.144
373.55	16.599
373.91	15.951
374.27	15.977
374.63	16.373
374.99	16.446
375.35	16.948
375.71	16.258
376.07	16.914
376.42	16.940
376.78	16.221
377.14	16.095
377.50	16.572
377.86	16.502
378.22	17.066
378.58	16.528
378.94	16.256
379.30	16.169
379.66	17.166
380.02	16.330
380.38	17.281
380.74	16.732
381.09	17.189
381.45	16.023
381.81	17.623
382.17	16.924
382.53	16.550
382.89	17.099
383.25	16.882
383.61	16.262
383.97	17.079
384.32	17.285
384.68	16.125
385.04	17.409
385.40	17.207
385.76	18.113
386.12	16.936
386.48	17.647
386.83	16.806
387.19	17.961
387.55	16.843
387.91	17.123
388.27	17.263
388.62	16.609
388.98	17.033
389.34	17.914
389.70	17.316
390.06	17.466
390.42	17.289
390.77	17.821
391.13	16.960
391.49	18.056
391.85	17.152
392.20	17.734
392.56	18.252
392.92	17.557
393.28	17.966
393.64	17.654
393.99	17.955
394.35	18.575
394.71	17.964
395.07	17.365
395.42	17.933
395.78	18.464
396.14	18.419
396.50	18.646
396.85	17.889
397.21	17.041
397.57	17.727
397.92	18.041
398.28	17.599
398.64	17.677
399.00	17.435
399.35	18.796
399.71	18.152
400.07	18.192
400.42	18.044
400.78	18.229
401.14	18.441
401.49	18.647
401.85	17.500
402.21	18.540
402.57	18.369
402.92	18.676
403.28	18.560
403.63	18.377
403.99	18.884
404.35	17.453
404.70	18.924
405.06	18.478
405.42	18.501
405.77	18.648
406.13	17.828
406.49	18.694
406.84	18.393
407.20	19.173
407.55	17.989
407.91	18.165
408.27	18.316
408.62	19.197
408.98	18.862
409.34	18.651
409.69	18.850
410.05	18.757
410.40	19.548
410.76	18.676
411.11	18.878
411.47	19.595
411.83	19.577
412.18	19.337
412.54	19.265
412.89	18.743
413.25	19.244
413.60	18.553
413.96	18.765
414.31	18.584
414.67	19.439
415.03	18.831
415.38	18.285
415.74	19.426
416.09	19.371
416.45	18.785
416.80	18.972
417.16	19.540
417.51	18.742
417.87	19.191
418.22	19.042
418.58	18.773
418.93	19.849
419.29	18.681
419.64	19.268
420.00	19.881
420.35	18.978
420.71	18.265
421.06	19.034
421.42	19.151
421.77	18.578
422.12	19.503
422.48	18.945
422.83	20.263
423.19	18.196
423.54	19.248
423.90	18.664
424.25	19.147
424.61	18.599
424.96	19.385
425.31	19.533
425.67	19.216
426.02	19.480
426.38	18.772
426.73	18.638
427.09	19.435
427.44	18.460
427.79	18.961
428.15	18.094
428.50	18.933
428.85	18.944
429.21	18.989
429.56	18.608
429.92	18.870
430.27	19.084
430.62	18.759
430.98	18.692
431.33	18.866
431.68	18.966
432.04	18.182
432.39	18.961
432.74	18.836
433.10	18.226
433.45	18.450
433.80	19.045
434.16	19.163
434.51	19.168
434.86	18.730
435.22	19.341
435.57	18.337
435.92	19.199
436.28	18.999
436.63	19.061
436.98	18.894
437.34	19.335
437.69	18.382
438.04	18.667
438.39	19.242
438.75	18.926
439.10	19.397
439.45	19.285
439.81	18.644
440.16	18.391
440.51	19.231
440.86	19.622
441.22	18.542
441.57	19.444
441.92	18.186
442.27	19.091
442.63	18.728
442.98	18.570
443.33	19.043
443.68	19.277
444.03	19.802
444.39	19.325
444.74	18.989
445.09	18.601
445.44	18.651
445.79	19.205
446.15	19.733
446.50	18.605
446.85	18.628
447.20	19.052
447.55	19.090
447.91	18.272
448.26	18.816
448.61	18.863
448.96	19.421
449.31	18.558
449.66	18.192
450.02	18.513
450.37	19.766
450.72	19.214
451.07	18.622
451.42	18.949
451.77	18.844
452.12	19.131
452.47	18.419
452.83	19.369
453.18	17.630
453.53	19.070
453.88	18.829
454.23	18.927
454.58	18.630
454.93	18.143
455.28	19.386
455.63	18.533
455.98	18.771
456.34	18.492
456.69	18.812
457.04	18.913
457.39	18.847
457.74	18.680
458.09	18.671
458.44	18.912
458.79	19.134
459.14	19.088
459.49	18.223
459.84	19.098
460.19	18.268
460.54	18.966
460.89	19.111
461.24	18.276
461.59	19.480
461.94	17.798
462.29	19.205
462.64	18.045
462.99	18.519
463.34	18.494
463.69	18.581
464.04	19.233
464.39	18.946
464.74	18.871
465.09	19.031
465.44	18.884
465.79	19.143
466.14	18.291
466.49	17.684
466.84	18.623
467.19	18.960
467.54	18.801
467.89	18.161
468.24	19.114
468.59	18.471
468.94	18.182
469.29	18.296
469.64	19.135
469.99	18.611
470.34	18.131
470.68	19.002
471.03	20.170
471.38	18.313
471.73	18.140
472.08	19.353
472.43	19.205
472.78	18.640
473.13	18.142
473.48	19.879
473.83	19.733
474.17	18.992
474.52	19.122
474.87	17.996
475.22	18.817
475.57	18.224
475.92	19.014
476.27	18.956
476.61	18.951
476.96	17.935
477.31	19.158
477.66	19.622
478.01	19.065
478.36	19.143
478.70	18.030
479.05	19.121
479.40	18.657
479.75	20.173
480.10	18.948
480.45	18.323
480.79	19.138
481.14	18.474
481.49	18.991
481.84	19.365
482.19	18.667
482.53	18.889
482.88	19.451
483.23	18.542
483.58	17.686
483.92	18.484
484.27	18.586
484.62	18.482
484.97	18.429
485.31	18.374
485.66	16.878
486.01	17.304
486.36	18.307
486.70	18.449
487.05	19.017
487.40	19.132
487.75	18.575
488.09	18.400
488.44	18.064
488.79	19.393
489.13	18.646
489.48	18.757
489.83	18.511
490.17	18.023
490.52	18.103
490.87	18.909
491.22	19.151
491.56	19.027
491.91	19.058
492.26	18.607
492.60	18.977
492.95	18.692
493.30	18.736
493.64	19.141
493.99	18.816
494.34	18.946
494.68	18.415
495.03	19.075
495.37	18.464
495.72	18.866
496.07	19.632
496.41	18.361
496.76	18.682
497.11	19.151
497.45	18.774
497.80	19.147
498.14	18.866
498.49	18.704
498.84	18.967
499.18	18.489
499.53	18.610
499.87	19.297
500.22	18.744
500.56	18.219
500.91	18.352
501.26	19.091
501.60	18.869
501.95	19.019
502.29	19.219
502.64	18.714
502.98	18.507
503.33	18.920
503.67	18.142
504.02	18.651
504.36	19.258
504.71	18.925
505.06	18.963
505.40	19.561
505.75	18.989
506.09	19.061
506.44	19.684
506.78	19.128
507.13	19.456
507.47	18.854
507.82	19.129
508.16	18.547
508.51	18.190
508.85	18.611
509.19	19.185
509.54	19.549
509.88	19.330
510.23	19.330
510.57	19.333
510.92	19.448
511.26	18.422
511.61	18.155
511.95	18.448
512.30	19.547
512.64	19.540
512.98	19.560
513.33	19.808
513.67	19.429
514.02	19.622
514.36	19.898
514.70	19.896
515.05	19.864
515.39	20.052
515.74	20.679
516.08	20.021
516.42	20.670
516.77	19.401
517.11	19.752
517.46	20.042
517.80	19.989
518.14	20.076
518.49	19.848
518.83	19.904
519.17	19.978
519.52	20.283
519.86	19.852
520.20	20.021
520.55	20.865
520.89	19.764
521.23	20.882
521.58	20.339
521.92	19.830
522.26	20.275
522.61	21.065
522.95	20.415
523.29	20.057
523.64	19.731
523.98	20.936
524.32	21.089
524.66	20.831
525.01	19.932
525.35	20.218
525.69	19.258
526.04	20.608
526.38	20.345
526.72	20.588
527.06	20.587
527.41	20.175
527.75	20.784
528.09	20.071
528.43	21.137
528.78	21.676
529.12	21.158
529.46	21.192
529.80	20.881
530.15	21.159
530.49	20.581
530.83	20.897
531.17	19.833
531.51	20.878
531.86	21.815
532.20	21.768
532.54	20.347
532.88	21.455
533.22	21.214
533.57	20.889
533.91	21.268
534.25	20.577
534.59	21.264
534.93	20.374
535.27	20.732
535.62	22.229
535.96	21.325
536.30	21.445
536.64	21.982
536.98	21.402
537.32	21.543
537.66	22.208
538.01	20.906
538.35	20.524
538.69	21.154
539.03	21.459
539.37	21.496
539.71	21.862
540.05	21.882
540.39	21.394
540.73	20.704
541.07	22.440
541.42	21.500
541.76	19.692
542.10	21.773
542.44	20.280
542.78	21.350
543.12	21.037
543.46	21.184
543.80	20.743
544.14	21.185
544.48	22.104
544.82	21.544
545.16	22.123
545.50	21.150
545.84	21.678
546.18	22.407
546.52	21.146
546.86	21.572
547.20	21.565
547.54	21.973
547.88	21.881
548.22	21.287
548.56	22.177
548.90	22.149
549.24	22.553
549.58	22.650
549.92	22.449
550.26	22.654
550.60	22.655
550.94	21.928
551.28	22.244
551.62	22.709
551.96	21.553
552.30	22.498
552.64	22.962
552.98	21.834
553.32	23.215
553.66	22.572
554.00	22.573
554.34	22.008
554.68	22.466
555.02	22.142
555.36	22.945
555.69	22.229
556.03	21.942
556.37	22.716
556.71	22.701
557.05	23.387
557.39	22.362
557.73	23.580
558.07	22.914
558.41	23.854
558.75	24.138
559.08	23.869
559.42	23.320
559.76	24.084
560.10	24.113
560.44	23.153
560.78	23.500
561.12	23.645
561.45	23.358
561.79	23.199
562.13	23.722
562.47	23.058
562.81	23.228
563.15	24.053
563.48	23.617
563.82	23.700
564.16	22.714
564.50	23.540
564.84	23.186
565.17	23.059
565.51	22.900
565.85	23.515
566.19	22.926
566.52	23.581
566.86	23.486
567.20	22.403
567.54	23.420
567.88	23.955
568.21	23.715
568.55	23.837
568.89	23.423
569.23	23.616
569.56	23.212
569.90	23.200
570.24	23.440
570.57	22.739
570.91	22.321
571.25	22.621
571.59	23.184
571.92	22.601
572.26	22.313
572.60	22.877
572.93	22.321
573.27	21.804
573.61	22.525
573.95	22.336
574.28	22.471
574.62	22.328
574.96	21.901
575.29	22.053
575.63	22.245
575.97	21.940
576.30	21.860
576.64	22.190
576.98	22.437
577.31	22.449
577.65	22.348
577.98	21.950
578.32	22.100
578.66	21.881
578.99	22.015
579.33	22.299
579.67	22.167
580.00	22.544
580.34	22.164
580.67	21.867
581.01	21.701
581.35	22.092
581.68	22.112
582.02	22.134
582.35	22.246
582.69	22.545
583.02	22.108
583.36	22.612
583.70	22.268
584.03	22.030
584.37	22.093
584.70	21.711
585.04	21.669
585.37	22.028
585.71	22.050
586.04	22.039
586.38	22.447
586.72	22.186
587.05	21.694
587.39	22.039
587.72	22.416
588.06	22.510
588.39	21.957
588.73	22.460
589.06	22.432
589.40	22.741
589.73	22.815
590.07	22.546
590.40	22.650
590.73	22.446
591.07	23.529
591.40	21.967
591.74	22.496
592.07	23.143
592.41	22.279
592.74	22.790
593.08	22.420
593.41	23.476
593.75	22.414
594.08	23.326
594.41	22.660
594.75	22.185
595.08	22.779
595.42	22.597
595.75	22.215
596.09	22.670
596.42	22.465
596.75	23.196
597.09	22.909
597.42	22.447
597.75	23.481
598.09	22.778
598.42	23.241
598.76	22.965
599.09	21.680
599.42	21.991
599.76	22.351
600.09	22.956
600.42	22.656
600.76	22.622
601.09	21.905
601.42	21.902
601.76	22.276
602.09	21.801
602.42	21.556
602.76	22.435
603.09	22.283
603.42	22.796
603.76	21.952
604.09	22.250
604.42	22.422
604.76	21.842
605.09	22.497
605.42	22.049
605.75	21.692
606.09	22.172
606.42	22.072
606.75	21.964
607.09	21.582
607.42	22.389
607.75	22.509
608.08	21.981
608.42	21.886
608.75	22.222
609.08	21.732
609.41	22.276
609.75	22.143
610.08	22.647
610.41	22.090
610.74	22.227
611.07	22.602
611.41	22.242
611.74	22.910
612.07	22.627
612.40	22.148
612.73	23.130
613.07	23.032
613.40	22.618
613.73	22.388
614.06	22.522
614.39	22.546
614.72	22.368
615.06	23.051
615.39	22.426
615.72	22.844
616.05	22.584
616.38	23.108
616.71	22.414
617.05	21.619
617.38	22.632
617.71	22.516
618.04	22.720
618.37	22.295
618.70	23.473
619.03	22.820
619.36	22.996
619.69	22.165
620.03	23.164
620.36	21.963
620.69	22.455
621.02	23.622
621.35	23.948
621.68	24.223
622.01	23.203
622.34	23.013
622.67	23.230
623.00	22.200
623.33	22.495
623.66	22.244
623.99	22.712
624.32	23.522
624.65	22.458
624.99	23.732
625.32	22.796
625.65	22.185
625.98	22.305
626.31	22.821
626.64	22.930
626.97	22.056
627.30	22.323
627.63	23.256
627.96	23.198
628.29	23.113
628.62	23.510
628.95	24.890
629.28	23.704
629.61	23.232
629.94	22.678
630.26	23.136
630.59	23.057
630.92	22.944
631.25	24.419
631.58	24.011
631.91	23.336
632.24	23.439
632.57	23.814
632.90	23.370
633.23	23.980
633.56	24.694
633.89	23.760
634.22	24.532
634.55	25.261
634.88	24.675
635.20	24.435
635.53	24.859
635.86	23.944
636.19	25.027
636.52	23.523
636.85	24.106
637.18	23.909
637.51	24.839
637.83	24.585
638.16	24.194
638.49	22.887
638.82	24.803
639.15	23.482
639.48	25.173
639.81	24.018
640.13	24.382
640.46	23.515
640.79	23.284
641.12	24.845
641.45	24.467
641.77	25.417
642.10	25.066
642.43	25.399
642.76	24.932
643.09	25.205
643.41	22.969
643.74	24.414
644.07	23.448
644.40	22.772
644.73	23.657
645.05	22.907
645.38	24.173
645.71	24.780
646.04	25.681
646.36	23.066
646.69	25.613
647.02	24.618
647.35	24.275
647.67	24.960
648.00	24.204
648.33	24.775
648.66	24.822
648.98	24.354
649.31	22.057
649.64	23.772
649.96	23.475
650.29	20.723
650.62	23.621
650.94	23.273
651.27	21.557
651.60	23.538
651.92	23.556
652.25	24.168
652.58	23.521
652.90	23.837
653.23	24.366
653.56	22.397
653.88	24.719
654.21	21.408
654.54	23.844
654.86	24.221
655.19	22.459
655.52	21.708
655.84	20.457
656.17	24.362
656.49	33.902
656.82	36.617
657.15	28.085
657.47	20.829
657.80	14.970
658.13	11.628
658.45	15.076
658.78	18.461
659.10	18.080
659.43	17.923
659.75	17.349
660.08	18.263
660.41	17.535
660.73	19.726
661.06	22.026
661.38	21.691
661.71	23.448
662.03	21.693
662.36	26.297
662.68	23.827
663.01	24.248
663.33	24.764
663.66	25.824
663.98	21.923
664.31	23.077
664.63	22.351
664.96	22.142
665.28	20.145
665.61	24.301
665.93	23.393
666.26	22.760
666.58	21.587
666.91	23.738
667.23	24.190
667.56	24.458
667.88	24.800
668.21	23.242
668.53	21.815
668.86	24.361
669.18	20.978
669.50	22.863
669.83	20.600
670.15	20.866
670.48	23.016
670.80	22.562
671.13	23.251
671.45	23.425
671.77	24.105
672.10	22.167
672.42	21.683
672.75	20.584
673.07	21.791
673.39	21.109
673.72	21.477
674.04	22.586
674.37	25.045
674.69	23.810
675.01	22.286
675.34	21.565
675.66	23.034
675.98	22.388
676.31	22.266
676.63	24.715
676.95	23.372
677.28	20.565
677.60	20.079
677.92	24.568
678.25	19.378
678.57	22.954
678.89	23.038
679.22	20.906
679.54	21.026
679.86	19.661
680.18	22.720
680.51	21.698
680.83	22.095
681.15	20.862
681.48	21.244
681.80	21.934
682.12	22.378
682.44	20.701
682.77	20.035
683.09	23.485
683.41	22.868
683.73	21.252
684.06	23.247
684.38	19.678
684.70	21.364
685.02	20.482
685.34	19.634
685.67	18.770
685.99	19.172
686.31	19.186
686.63	21.327
686.96	20.032
687.28	19.870
687.60	21.549
687.92	21.383
688.24	21.202
688.56	19.483
688.89	19.964
689.21	22.114
689.53	20.196
689.85	20.710
690.17	20.000
690.49	20.518
690.82	22.970
691.14	20.850
691.46	21.224
691.78	23.204
692.10	22.385
692.42	18.571
692.74	19.964
693.06	18.889
693.39	21.442
693.71	20.301
694.03	19.331
694.35	20.952
694.67	22.587
694.99	21.702
695.31	20.751
695.63	19.048
695.95	21.739
696.27	20.000
696.59	22.345
696.91	18.468
697.23	20.879
697.56	19.756
697.88	21.023
698.20	21.281
698.52	25.189
698.84	21.206
699.16	21.837
699.48	21.548
699.80	20.213
700.12	19.869
700.44	21.889
700.76	19.715
701.08	22.518
701.40	20.466
701.72	19.900
702.04	21.925
702.36	20.942
702.68	20.293
703.00	17.359
703.32	19.704
703.64	21.760
703.96	21.241
704.28	21.130
704.60	21.013
704.91	19.643
705.23	21.644
705.55	22.284
705.87	20.303
706.19	20.552
706.51	19.578
706.83	16.715
707.15	17.460
707.47	21.028
707.79	18.559
708.11	16.949
708.43	18.925
708.74	14.732
709.06	19.026
709.38	23.239
709.70	19.851
710.02	21.705
710.34	19.681
710.66	17.598
710.98	21.858
711.29	16.484
711.61	22.599
711.93	20.228
712.25	20.541
712.57	22.419
712.89	19.706
713.20	18.639
713.52	20.231
713.84	19.499
714.16	20.526
714.48	20.103
714.80	19.481
715.11	18.635
715.43	19.894
715.75	18.947
716.07	17.680
716.39	20.765
716.70	17.470
717.02	18.689
717.34	16.725
717.66	18.456
717.97	17.123
718.29	20.275
718.61	18.421
718.93	20.712
719.24	17.081
719.56	19.939
719.88	22.523
720.20	20.000
720.51	16.149
720.83	18.125
721.15	21.053
721.46	16.096
721.78	14.000
722.10	13.269
722.42	19.799
722.73	16.774
723.05	19.649
723.37	21.875
723.68	19.355
724.00	22.383
724.32	20.070
724.63	18.182
724.95	19.504
725.27	16.376
725.58	20.495
725.90	22.414
726.22	18.809
726.53	19.805
726.85	24.528
727.16	19.637
727.48	22.018
727.80	22.517
728.11	14.488
728.43	17.845
728.74	18.060
729.06	15.232
729.38	21.429
729.69	19.799
730.01	18.750
730.32	15.455
730.64	17.610
730.96	14.286
731.27	19.553
731.59	21.978
731.90	16.364
732.22	17.969
732.53	15.746
732.85	18.000
733.16	21.994
733.48	17.073
733.80	16.156
734.11	15.670
734.43	14.865
734.74	20.253
735.06	16.834
735.37	20.000
735.69	13.243
736.00	19.774
736.32	17.790
736.63	21.389
736.95	14.943
737.26	20.000
737.58	9.091
737.89	19.706
738.21	14.985
738.52	15.082
738.83	18.771
739.15	16.312
739.46	20.408
739.78	15.951
740.09	16.046
740.41	18.076
740.72	19.000
741.04	20.065
741.35	19.649
741.66	14.118
741.98	16.803
742.29	17.573
742.61	20.175
742.92	18.077
743.23	18.773
743.55	16.279
743.86	16.000
744.18	15.702
744.49	16.878
744.80	18.519
745.12	20.253
745.43	21.138
745.74	17.672
746.06	23.729
746.37	17.722
746.68	18.699
747.00	19.583
747.31	16.738
747.62	21.154
747.94	19.433
748.25	19.277
748.56	15.510
748.88	14.957
749.19	20.690
749.50	15.152
749.82	20.080
750.13	20.641
750.44	13.667
750.75	17.846
751.07	17.846
751.38	17.981
751.69	19.169
752.01	14.887
752.32	16.340
752.63	15.986
752.94	22.145
753.26	15.613
753.57	14.815
753.88	17.603
754.19	18.328
754.51	15.756
754.82	20.257
755.13	18.361
755.44	13.652
755.75	18.750
756.07	17.313
756.38	16.352
756.69	20.482
757.00	16.343
757.31	18.579
757.63	16.368
757.94	17.371
758.25	16.930
758.56	18.301
758.87	18.182
759.18	15.200
759.50	19.547
759.81	15.966
760.12	20.216
760.43	15.625
760.74	17.734
761.05	17.250
761.36	15.422
761.67	13.198
761.99	15.405
762.30	17.073
762.61	16.832
762.92	16.045
763.23	18.727
763.54	14.029
763.85	18.213
764.16	16.498
764.47	14.437
764.78	16.933
765.10	19.355
765.41	20.000
765.72	16.138
766.03	18.079
766.34	17.868
766.65	13.937
766.96	14.343
767.27	20.737
767.58	15.423
767.89	17.308
768.20	15.023
768.51	13.889
768.82	16.867
769.13	18.561
769.44	11.923
769.75	15.884
770.06	17.308
770.37	17.717
770.68	15.745
770.99	15.385
771.30	19.259
771.61	12.928
771.92	15.556
772.23	17.004
772.54	13.889
772.85	21.198
773.16	22.381
773.47	14.286
773.78	10.811
774.09	21.591
774.39	23.000
774.70	20.219
775.01	15.854
775.32	13.529
775.63	16.564
775.94	7.643
776.25	16.774
776.56	20.513
776.87	14.966
777.18	17.241
777.48	9.790
777.79	13.514
778.10	6.618
778.41	13.889
778.72	8.966
779.03	13.580
779.34	16.970
779.65	13.990
779.95	18.333
780.26	10.227
780.57	16.774
780.88	19.565
781.19	16.129
781.50	21.176
781.80	21.505
782.11	16.931
782.42	12.626
782.73	10.778
783.04	15.084
783.34	10.909
783.65	15.686
783.96	14.907
784.27	11.905
784.57	16.556
784.88	17.143
785.19	8.661
785.50	7.087
785.81	9.774
786.11	14.615
786.42	9.353
786.73	9.353
787.04	16.541
787.34	12.295
787.65	15.200
787.96	14.925
788.26	15.385
788.57	23.077
788.88	13.816
789.19	16.993
789.49	15.753
789.80	14.184
790.11	11.811
790.41	8.594
790.72	7.627
791.03	-0.971
791.33	4.348
791.64	7.018
791.95	8.036
792.25	11.429
792.56	17.857
792.87	1.042
793.17	17.857
793.48	4.167
793.79	0.000
794.09	10.092
794.40	9.174
794.70	13.605
795.01	5.844
795.32	7.534
795.62	15.493
795.93	10.606
796.23	9.016
796.54	-2.679
796.85	-6.383
797.15	-6.522
797.46	1.370
797.76	-2.500
798.07	9.783
798.37	-1.031
798.68	-5.195
798.99	8.046
799.29	11.236
799.60	18.085
799.90	1.205
800.21	0.000
800.51	4.478
800.82	7.353
801.12	-12.329
801.43	-2.941
801.73	-8.475
802.04	-3.030
802.34	-1.667
802.65	-5.085
802.95	7.463
803.26	10.169
803.56	-4.110
803.87	1.429
804.17	16.438
804.48	-17.544
804.78	13.889
805.09	-5.172
805.39	6.757
805.70	-4.225
806.00	6.098
806.30	-3.614
806.61	6.849
806.91	17.308
807.22	11.111
807.52	-6.897
807.83	12.500
808.13	13.253
808.43	13.483
808.74	-2.500
809.04	-1.471
809.35	4.000
809.65	2.857
809.95	6.849
810.26	-33.333
810.56	-17.241
810.86	4.412
811.17	-5.263
811.47	-21.311
811.77	-28.889
812.08	-10.169
812.38	5.000
812.69	20.690
812.99	-5.660
813.29	-15.385
813.59	14.000
813.90	8.772
814.20	0.000
814.50	11.268
814.81	-3.846
815.11	13.115
815.41	-8.955
815.72	-8.621
816.02	10.714
816.32	-2.222
816.62	2.273
816.93	-20.000
817.23	16.667
817.53	12.766
817.84	-2.381
818.14	0.000
818.44	8.163
818.74	8.889
819.04	-28.205
819.35	-11.429
819.65	-50.000
819.95	-7.547
820.25	-11.111
820.56	-14.286
820.86	-12.500
821.16	-7.692
821.46	-11.628
821.76	-16.000
822.07	-1.786
822.37	6.522
822.67	-23.404
822.97	-32.432
823.27	-20.000
823.57	12.245
823.88	-4.444
824.18	-5.000
824.48	-26.667
824.78	-32.000
825.08	-3.030
825.38	15.556
825.69	0.000
825.99	-27.778
826.29	-28.571
826.59	-10.256
826.89	13.953
827.19	-2.000
827.49	-14.706
827.79	-12.500
828.09	-13.514
828.39	-43.333
828.70	-12.195
829.00	6.977
829.30	-57.143
829.60	0.000
829.90	-15.217
830.20	-31.429
830.50	-37.931
830.80	-55.556
831.10	-30.769
831.40	-20.588
831.70	-57.143
832.00	-6.452
832.30	-94.118
832.60	-54.167
832.90	-107.692
833.20	-78.947
833.50	-65.000
833.80	-36.842
834.10	-76.190
834.40	-2.778
834.70	-15.625
835.00	-40.000
835.30	-14.706
835.60	-40.000
835.90	-24.000
836.20	-72.727
836.50	4.000
836.80	-21.212
837.10	-33.333
837.40	-37.037
837.70	-81.250
838.00	-17.857
838.30	-86.957
838.60	-13.793
838.90	-142.857
839.19	-91.304
839.49	-58.333
839.79	-47.826
840.09	-106.250
840.39	-45.000
840.69	-19.355
840.99	-25.000
841.29	-86.667
841.59	-21.053
841.88	-12.821
842.18	-46.154
842.48	-150.000
842.78	-70.000
843.08	-6.667
843.38	-38.710
843.68	-111.111
843.97	-35.294
844.27	-81.250
844.57	-89.474
844.87	-180.000
845.17	-120.000
845.47	-47.619
845.76	-80.952
846.06	-122.222
846.36	-94.118
846.66	-15.385
846.96	-73.333
847.25	-76.471
847.55	4.348
847.85	-40.000
848.15	-41.176
848.44	-163.636
848.74	-19.048
849.04	-8.333
849.34	-100.000
849.63	-56.522
849.93	850.000
850.23	6.667
850.53	-7.692
850.82	-81.818
851.12	-9.091
851.42	-118.182
851.71	-46.154
852.01	-65.000
852.31	-46.154
852.61	-36.842
852.90	-58.333
853.20	-66.667
853.50	-166.667
853.79	-61.905
854.09	-40.909
854.39	-191.667
854.68	-25.806
854.98	-7.692
855.28	-72.222
855.57	-25.000
855.87	-16.000
856.17	-13.636
856.46	-18.519
856.76	-72.222
857.05	-56.522
857.35	-50.000
857.65	-92.308
857.94	14.286
858.24	7.407
858.53	-13.043
858.83	-117.647
859.13	-23.529
859.42	-64.706
859.72	-28.571
860.01	-15.000
860.31	-77.778
860.60	-80.000
860.90	-46.667
861.20	-38.889
861.49	-53.846
861.79	-36.667
862.08	-69.231
862.38	9.375
862.67	-35.294
862.97	25.000
863.26	-166.667
863.56	-90.000
863.85	-63.636
864.15	-44.444
864.44	-266.667
864.74	-78.571
865.03	-93.750
865.33	-200.000
865.62	-19.355
865.92	22.727
866.21	-13.043
866.51	-21.429
866.80	-280.000
867.10	-75.000
867.39	-41.667
867.69	1600.000
867.98	-214.286
868.27	-23.529
868.57	-2200.000
868.86	-130.000
869.16	-52.381
869.45	-54.167
869.75	-118.182
870.04	-342.857
870.33	-100.000
870.63	-400.000
870.92	-225.000
871.22	-200.000
871.51	-90.909
871.80	-800.000
872.10	-550.000
>>>>>End Processed Spectral Data<<<<<
