SpectraSuite Data File
++++++++++++++++++++++++++++++++++++
Date: Thu May 14 16:18:45 PDT 2015
User: schluterlab
Dark Spectrum Present: Yes
Reference Spectrum Present: Yes
Number of Sampled Component Spectra: 1
Spectrometers: USB2E3373
Integration Time (usec): 3000 (USB2E3373)
Spectra Averaged: 3 (USB2E3373)
Boxcar Smoothing: 0 (USB2E3373)
Correct for Electrical Dark: No (USB2E3373)
Strobe/Lamp Enabled: No (USB2E3373)
Correct for Detector Non-linearity: No (USB2E3373)
Correct for Stray Light: No (USB2E3373)
Number of Pixels in Processed Spectrum: 2048
>>>>>Begin Processed Spectral Data<<<<<
178.53	0.000
178.91	142.857
179.29	-1700.000
179.67	-1100.000
180.04	114.286
180.42	70.000
180.80	-20.000
181.18	-200.000
181.56	600.000
181.94	125.000
182.31	175.000
182.69	266.667
183.07	-100.000
183.45	125.000
183.83	66.667
184.20	-200.000
184.58	400.000
184.96	-150.000
185.34	22.222
185.72	120.000
186.09	122.222
186.47	650.000
186.85	360.000
187.23	-100.000
187.61	-100.000
187.98	-60.000
188.36	250.000
188.74	-350.000
189.12	66.667
189.49	25.000
189.87	-12.500
190.25	22.222
190.63	-180.000
191.00	-111.111
191.38	0.000
191.76	-225.000
192.14	-166.667
192.51	600.000
192.89	-66.667
193.27	0.000
193.65	0.000
194.02	-800.000
194.40	-14.286
194.78	85.714
195.15	0.000
195.53	-81.818
195.91	0.000
196.29	-125.000
196.66	46.154
197.04	-300.000
197.42	-71.429
197.79	-300.000
198.17	50.000
198.55	-71.429
198.92	0.000
199.30	-75.000
199.68	-54.545
200.05	-7.143
200.43	-350.000
200.81	157.143
201.18	0.000
201.56	266.667
201.94	0.000
202.31	300.000
202.69	-44.444
203.07	-0.000
203.44	55.556
203.82	-100.000
204.19	8.333
204.57	-33.333
204.95	-37.500
205.32	-900.000
205.70	250.000
206.08	33.333
206.45	-116.667
206.83	260.000
207.20	-150.000
207.58	-280.000
207.96	-166.667
208.33	-16.667
208.71	100.000
209.08	66.667
209.46	0.000
209.84	166.667
210.21	300.000
210.59	600.000
210.96	266.667
211.34	-25.000
211.71	75.000
212.09	-800.000
212.46	0.000
212.84	500.000
213.22	-440.000
213.59	-150.000
213.97	-30.000
214.34	-233.333
214.72	150.000
215.09	-125.000
215.47	0.000
215.84	42.857
216.22	750.000
216.59	-80.000
216.97	0.000
217.34	-150.000
217.72	-25.000
218.09	-75.000
218.47	-250.000
218.84	0.000
219.22	100.000
219.59	23.529
219.97	35.000
220.34	150.000
220.72	-66.667
221.09	61.538
221.47	-66.667
221.84	-30.000
222.22	-57.143
222.59	0.000
222.97	-25.000
223.34	-40.000
223.72	-1000.000
224.09	-25.000
224.46	-300.000
224.84	-40.000
225.21	-85.714
225.59	-100.000
225.96	-425.000
226.34	11.538
226.71	33.333
227.08	0.000
227.46	0.000
227.83	-175.000
228.21	5.263
228.58	137.500
228.95	500.000
229.33	66.667
229.70	20.000
230.08	47.368
230.45	110.000
230.82	-166.667
231.20	0.000
231.57	8.333
231.95	-9.091
232.32	-72.727
232.69	25.000
233.07	50.000
233.44	-64.706
233.81	-10.000
234.19	-16.667
234.56	22.727
234.93	55.172
235.31	5.263
235.68	-11.111
236.05	-55.000
236.43	65.385
236.80	48.000
237.17	-44.444
237.55	-12.121
237.92	-110.000
238.29	-6.452
238.67	4.545
239.04	11.111
239.41	-4.762
239.79	4.348
240.16	5.556
240.53	2.174
240.91	-23.529
241.28	1.639
241.65	17.910
242.02	2.703
242.40	-7.692
242.77	-4.000
243.14	-4.878
243.51	-10.526
243.89	-2.564
244.26	9.901
244.63	-0.980
245.00	3.738
245.38	-10.526
245.75	-14.159
246.12	-1.587
246.49	-6.977
246.87	2.143
247.24	0.000
247.61	4.605
247.98	-8.725
248.36	-1.235
248.73	-3.681
249.10	1.093
249.47	4.975
249.84	8.377
250.22	-1.036
250.59	2.222
250.96	8.182
251.33	-0.510
251.70	4.274
252.08	2.917
252.45	3.279
252.82	2.479
253.19	-1.172
253.56	2.662
253.94	-1.538
254.31	-1.136
254.68	5.944
255.05	1.629
255.42	0.340
255.79	1.942
256.16	3.311
256.54	2.318
256.91	1.311
257.28	3.279
257.65	-1.592
258.02	-1.475
258.39	0.285
258.76	6.116
259.14	1.149
259.51	1.153
259.88	1.133
260.25	2.500
260.62	4.110
260.99	4.918
261.36	5.362
261.73	1.592
262.10	0.275
262.47	-1.340
262.85	6.566
263.22	2.597
263.59	0.263
263.96	2.046
264.33	1.279
264.70	1.235
265.07	3.103
265.44	6.349
265.81	4.167
266.18	2.721
266.55	4.464
266.92	0.228
267.29	5.908
267.66	0.887
268.03	3.275
268.40	4.384
268.77	1.367
269.14	2.423
269.51	1.535
269.88	4.508
270.25	3.823
270.62	1.688
270.99	4.040
271.36	4.356
271.73	2.554
272.10	2.405
272.47	2.605
272.84	3.414
273.21	3.808
273.58	3.226
273.95	2.115
274.32	1.521
274.69	0.000
275.06	3.663
275.43	1.479
275.80	4.586
276.17	3.148
276.54	2.612
276.91	3.220
277.28	3.255
277.65	3.052
278.02	4.228
278.39	2.355
278.76	2.285
279.13	2.482
279.50	4.124
279.87	4.114
280.23	1.408
280.60	2.034
280.97	3.289
281.34	1.019
281.71	4.230
282.08	3.987
282.45	2.455
282.82	2.983
283.19	0.485
283.56	2.131
283.92	4.655
284.29	6.477
284.66	3.612
285.03	1.763
285.40	2.628
285.77	2.322
286.14	2.748
286.51	3.196
286.87	2.054
287.24	3.313
287.61	2.541
287.98	0.604
288.35	3.994
288.72	3.550
289.08	3.221
289.45	1.183
289.82	1.958
290.19	3.879
290.56	3.239
290.93	2.710
291.29	2.617
291.66	2.617
292.03	2.578
292.40	4.082
292.77	2.561
293.13	2.842
293.50	1.577
293.87	2.819
294.24	4.533
294.60	4.804
294.97	2.819
295.34	3.713
295.71	4.035
296.08	2.067
296.44	2.696
296.81	3.410
297.18	2.864
297.55	2.594
297.91	2.135
298.28	2.014
298.65	3.924
299.02	3.660
299.38	2.403
299.75	2.687
300.12	1.736
300.48	3.226
300.85	2.700
301.22	3.579
301.59	2.511
301.95	3.503
302.32	3.889
302.69	3.614
303.05	4.353
303.42	3.215
303.79	3.750
304.15	3.049
304.52	2.748
304.89	2.618
305.25	3.727
305.62	2.821
305.99	3.814
306.35	3.629
306.72	4.860
307.09	2.944
307.45	3.830
307.82	4.440
308.19	4.238
308.55	4.822
308.92	4.771
309.29	5.172
309.65	3.606
310.02	4.158
310.38	4.429
310.75	5.049
311.12	6.807
311.48	5.474
311.85	5.603
312.22	5.693
312.58	5.822
312.95	6.597
313.31	7.046
313.68	8.150
314.05	8.491
314.41	8.470
314.78	7.629
315.14	8.439
315.51	7.941
315.87	9.451
316.24	9.589
316.61	11.368
316.97	10.317
317.34	11.023
317.70	10.742
318.07	12.169
318.43	11.905
318.80	13.043
319.16	12.961
319.53	12.082
319.89	12.971
320.26	14.057
320.62	14.362
320.99	15.605
321.35	16.266
321.72	17.209
322.08	17.764
322.45	18.699
322.81	19.043
323.18	18.673
323.54	19.828
323.91	21.441
324.27	22.461
324.64	23.342
325.00	22.305
325.37	24.898
325.73	25.289
326.10	26.521
326.46	27.850
326.83	27.942
327.19	27.559
327.56	28.775
327.92	29.032
328.29	29.435
328.65	29.816
329.01	31.641
329.38	30.918
329.74	31.678
330.11	33.048
330.47	32.603
330.84	33.075
331.20	34.667
331.56	34.749
331.93	34.142
332.29	34.661
332.66	33.970
333.02	34.590
333.38	34.732
333.75	35.101
334.11	37.114
334.48	34.983
334.84	35.854
335.20	35.600
335.57	35.750
335.93	36.364
336.29	36.439
336.66	37.258
337.02	36.037
337.38	37.500
337.75	36.612
338.11	36.838
338.47	36.476
338.84	37.817
339.20	36.563
339.56	36.573
339.93	36.535
340.29	36.634
340.65	37.226
341.02	37.191
341.38	37.591
341.74	37.853
342.11	37.892
342.47	37.411
342.83	38.486
343.20	37.449
343.56	38.893
343.92	38.431
344.28	38.984
344.65	38.605
345.01	38.768
345.37	37.170
345.73	37.724
346.10	37.832
346.46	37.184
346.82	39.326
347.19	37.968
347.55	39.074
347.91	39.450
348.27	38.240
348.63	38.157
349.00	38.702
349.36	38.587
349.72	37.946
350.08	39.004
350.45	38.403
350.81	39.970
351.17	39.549
351.53	40.106
351.89	40.015
352.26	39.478
352.62	39.552
352.98	40.763
353.34	39.731
353.70	41.834
354.07	40.313
354.43	40.699
354.79	39.491
355.15	39.367
355.51	40.278
355.87	41.660
356.24	40.152
356.60	39.911
356.96	40.178
357.32	40.669
357.68	39.971
358.04	40.494
358.40	41.716
358.77	40.497
359.13	40.177
359.49	41.636
359.85	40.682
360.21	41.105
360.57	41.709
360.93	40.903
361.29	42.737
361.66	42.361
362.02	42.658
362.38	42.375
362.74	41.969
363.10	42.641
363.46	42.659
363.82	43.040
364.18	43.490
364.54	42.393
364.90	43.813
365.26	43.448
365.62	44.267
365.98	44.656
366.35	43.221
366.71	43.673
367.07	43.708
367.43	42.613
367.79	45.123
368.15	45.284
368.51	43.978
368.87	44.285
369.23	44.133
369.59	45.014
369.95	45.368
370.31	45.510
370.67	44.429
371.03	45.014
371.39	44.124
371.75	45.461
372.11	45.935
372.47	46.310
372.83	46.335
373.19	44.830
373.55	46.612
373.91	45.126
374.27	45.343
374.63	46.076
374.99	45.756
375.35	46.623
375.71	46.581
376.07	46.611
376.42	46.159
376.78	45.308
377.14	46.725
377.50	47.818
377.86	46.182
378.22	46.946
378.58	46.908
378.94	45.951
379.30	47.276
379.66	47.208
380.02	46.913
380.38	47.350
380.74	47.437
381.09	48.548
381.45	46.761
381.81	48.653
382.17	48.337
382.53	47.193
382.89	46.332
383.25	48.535
383.61	48.148
383.97	47.409
384.32	49.761
384.68	46.752
385.04	47.947
385.40	49.146
385.76	48.886
386.12	48.833
386.48	47.941
386.83	49.940
387.19	47.972
387.55	47.594
387.91	48.459
388.27	50.173
388.62	48.225
388.98	47.885
389.34	49.381
389.70	49.274
390.06	48.194
390.42	48.193
390.77	49.127
391.13	49.472
391.49	48.490
391.85	48.727
392.20	48.577
392.56	48.730
392.92	47.874
393.28	48.148
393.64	47.765
393.99	49.680
394.35	49.357
394.71	49.820
395.07	47.964
395.42	48.658
395.78	49.360
396.14	48.901
396.50	47.743
396.85	48.241
397.21	48.639
397.57	48.763
397.92	48.339
398.28	46.551
398.64	48.856
399.00	46.859
399.35	48.901
399.71	48.043
400.07	47.951
400.42	48.661
400.78	48.322
401.14	47.069
401.49	47.811
401.85	48.140
402.21	48.204
402.57	48.592
402.92	47.577
403.28	47.892
403.63	48.687
403.99	46.021
404.35	47.072
404.70	47.082
405.06	46.793
405.42	47.014
405.77	47.437
406.13	47.488
406.49	47.410
406.84	46.759
407.20	46.562
407.55	46.033
407.91	47.580
408.27	45.642
408.62	47.120
408.98	47.475
409.34	46.217
409.69	47.466
410.05	47.831
410.40	46.752
410.76	46.158
411.11	46.698
411.47	46.622
411.83	46.737
412.18	47.651
412.54	45.050
412.89	45.809
413.25	46.219
413.60	45.893
413.96	46.620
414.31	45.609
414.67	46.094
415.03	46.523
415.38	47.667
415.74	45.693
416.09	46.453
416.45	45.523
416.80	44.920
417.16	47.190
417.51	46.700
417.87	47.456
418.22	45.928
418.58	46.406
418.93	46.857
419.29	47.164
419.64	46.639
420.00	46.231
420.35	46.771
420.71	45.951
421.06	46.003
421.42	47.248
421.77	45.611
422.12	46.195
422.48	46.544
422.83	46.112
423.19	47.056
423.54	48.064
423.90	46.880
424.25	48.587
424.61	47.359
424.96	47.556
425.31	47.983
425.67	46.377
426.02	47.482
426.38	47.646
426.73	46.317
427.09	48.501
427.44	47.788
427.79	46.766
428.15	47.317
428.50	47.865
428.85	48.220
429.21	48.085
429.56	48.124
429.92	47.617
430.27	47.566
430.62	48.950
430.98	48.106
431.33	47.067
431.68	47.462
432.04	48.197
432.39	47.938
432.74	48.801
433.10	49.378
433.45	47.715
433.80	47.586
434.16	48.709
434.51	48.921
434.86	49.783
435.22	49.947
435.57	50.059
435.92	48.358
436.28	49.147
436.63	48.990
436.98	48.631
437.34	48.929
437.69	49.202
438.04	48.757
438.39	49.454
438.75	47.869
439.10	48.837
439.45	48.798
439.81	49.153
440.16	48.418
440.51	48.941
440.86	47.749
441.22	49.732
441.57	50.734
441.92	48.400
442.27	49.596
442.63	48.038
442.98	47.866
443.33	49.132
443.68	49.504
444.03	49.812
444.39	49.561
444.74	49.668
445.09	49.012
445.44	50.053
445.79	50.144
446.15	48.921
446.50	48.889
446.85	49.757
447.20	49.855
447.55	50.994
447.91	49.162
448.26	49.313
448.61	49.256
448.96	49.946
449.31	49.576
449.66	49.074
450.02	49.051
450.37	48.748
450.72	49.623
451.07	49.317
451.42	48.873
451.77	49.361
452.12	49.718
452.47	50.267
452.83	50.563
453.18	48.219
453.53	50.201
453.88	50.083
454.23	49.209
454.58	50.029
454.93	49.029
455.28	49.007
455.63	49.460
455.98	48.883
456.34	50.530
456.69	49.324
457.04	48.877
457.39	49.002
457.74	49.832
458.09	48.984
458.44	49.246
458.79	48.582
459.14	47.404
459.49	49.632
459.84	49.475
460.19	48.084
460.54	48.495
460.89	49.127
461.24	48.851
461.59	48.866
461.94	47.690
462.29	48.376
462.64	48.944
462.99	48.776
463.34	48.864
463.69	48.593
464.04	48.694
464.39	47.197
464.74	48.347
465.09	48.501
465.44	48.820
465.79	48.281
466.14	47.316
466.49	48.053
466.84	48.044
467.19	47.514
467.54	46.475
467.89	46.897
468.24	47.590
468.59	47.250
468.94	46.795
469.29	46.551
469.64	47.171
469.99	47.992
470.34	47.153
470.68	48.667
471.03	48.919
471.38	47.286
471.73	46.944
472.08	47.589
472.43	47.140
472.78	47.796
473.13	46.903
473.48	48.218
473.83	47.475
474.17	46.600
474.52	47.986
474.87	46.622
475.22	47.155
475.57	46.314
475.92	46.989
476.27	46.379
476.61	46.002
476.96	46.820
477.31	46.634
477.66	47.587
478.01	46.365
478.36	45.862
478.70	47.389
479.05	46.933
479.40	46.989
479.75	46.061
480.10	46.376
480.45	45.943
480.79	46.395
481.14	45.772
481.49	45.252
481.84	45.170
482.19	45.419
482.53	46.305
482.88	46.389
483.23	46.287
483.58	45.109
483.92	44.415
484.27	44.962
484.62	44.472
484.97	45.918
485.31	44.280
485.66	43.181
486.01	42.992
486.36	43.916
486.70	44.942
487.05	44.770
487.40	44.114
487.75	44.173
488.09	43.646
488.44	43.896
488.79	43.642
489.13	43.736
489.48	43.456
489.83	43.702
490.17	43.742
490.52	43.144
490.87	44.205
491.22	44.497
491.56	44.369
491.91	44.396
492.26	43.877
492.60	43.507
492.95	43.659
493.30	43.523
493.64	43.495
493.99	44.211
494.34	43.162
494.68	43.169
495.03	43.921
495.37	43.098
495.72	43.311
496.07	43.120
496.41	43.329
496.76	42.994
497.11	43.185
497.45	43.289
497.80	42.825
498.14	43.311
498.49	42.923
498.84	42.962
499.18	42.330
499.53	41.973
499.87	42.901
500.22	41.897
500.56	42.420
500.91	42.883
501.26	43.682
501.60	41.361
501.95	41.858
502.29	42.738
502.64	42.851
502.98	41.458
503.33	41.857
503.67	41.867
504.02	41.725
504.36	41.957
504.71	41.617
505.06	41.428
505.40	41.408
505.75	41.530
506.09	42.127
506.44	41.922
506.78	41.972
507.13	41.402
507.47	42.160
507.82	41.856
508.16	41.348
508.51	40.553
508.85	41.096
509.19	40.455
509.54	42.075
509.88	41.185
510.23	40.845
510.57	41.953
510.92	40.832
511.26	40.356
511.61	39.353
511.95	40.264
512.30	39.882
512.64	38.781
512.98	40.570
513.33	40.373
513.67	40.439
514.02	40.112
514.36	40.870
514.70	40.833
515.05	40.876
515.39	40.210
515.74	39.926
516.08	40.042
516.42	40.293
516.77	39.485
517.11	39.299
517.46	39.343
517.80	40.299
518.14	40.370
518.49	39.371
518.83	38.584
519.17	38.988
519.52	39.203
519.86	38.543
520.20	39.297
520.55	39.321
520.89	39.133
521.23	38.358
521.58	39.209
521.92	39.037
522.26	38.488
522.61	39.468
522.95	38.581
523.29	38.678
523.64	37.724
523.98	38.049
524.32	40.057
524.66	39.385
525.01	38.165
525.35	37.163
525.69	38.341
526.04	38.576
526.38	37.644
526.72	37.659
527.06	38.651
527.41	37.551
527.75	38.064
528.09	37.662
528.43	36.649
528.78	36.069
529.12	38.131
529.46	36.818
529.80	36.613
530.15	37.275
530.49	37.248
530.83	37.485
531.17	36.918
531.51	36.703
531.86	36.959
532.20	36.524
532.54	36.026
532.88	35.455
533.22	37.655
533.57	35.661
533.91	36.756
534.25	35.670
534.59	35.920
534.93	36.050
535.27	36.056
535.62	36.555
535.96	36.549
536.30	35.488
536.64	36.096
536.98	35.055
537.32	35.247
537.66	34.997
538.01	34.381
538.35	34.836
538.69	35.938
539.03	34.825
539.37	34.629
539.71	34.535
540.05	34.772
540.39	34.841
540.73	33.758
541.07	34.396
541.42	33.904
541.76	33.333
542.10	34.741
542.44	34.470
542.78	34.002
543.12	34.327
543.46	33.822
543.80	33.753
544.14	32.615
544.48	33.274
544.82	34.829
545.16	33.453
545.50	33.853
545.84	34.048
546.18	34.259
546.52	33.885
546.86	34.403
547.20	34.033
547.54	32.085
547.88	32.851
548.22	32.982
548.56	32.300
548.90	31.940
549.24	33.070
549.58	32.744
549.92	31.696
550.26	34.369
550.60	32.291
550.94	32.665
551.28	32.013
551.62	32.480
551.96	31.521
552.30	32.569
552.64	32.856
552.98	32.439
553.32	32.733
553.66	31.576
554.00	32.282
554.34	32.368
554.68	32.537
555.02	31.735
555.36	32.544
555.69	30.814
556.03	31.084
556.37	30.788
556.71	32.657
557.05	31.565
557.39	30.657
557.73	31.770
558.07	30.795
558.41	31.296
558.75	30.561
559.08	32.498
559.42	31.001
559.76	30.529
560.10	29.538
560.44	31.135
560.78	31.188
561.12	29.988
561.45	30.779
561.79	30.708
562.13	30.253
562.47	29.408
562.81	30.380
563.15	30.492
563.48	30.143
563.82	29.807
564.16	29.558
564.50	29.261
564.84	28.142
565.17	30.176
565.51	27.963
565.85	28.979
566.19	28.744
566.52	29.257
566.86	30.108
567.20	28.222
567.54	28.837
567.88	28.593
568.21	28.458
568.55	29.736
568.89	29.051
569.23	28.602
569.56	29.074
569.90	28.439
570.24	27.386
570.57	27.518
570.91	26.975
571.25	27.191
571.59	28.277
571.92	27.079
572.26	26.681
572.60	26.399
572.93	26.412
573.27	27.058
573.61	26.548
573.95	26.463
574.28	26.256
574.62	26.057
574.96	25.629
575.29	25.402
575.63	25.826
575.97	26.228
576.30	25.339
576.64	25.245
576.98	25.535
577.31	25.734
577.65	25.898
577.98	25.678
578.32	25.097
578.66	25.481
578.99	25.394
579.33	25.522
579.67	25.113
580.00	25.332
580.34	25.589
580.67	24.846
581.01	24.427
581.35	25.112
581.68	24.720
582.02	24.707
582.35	25.304
582.69	25.214
583.02	24.930
583.36	25.365
583.70	24.563
584.03	25.198
584.37	24.759
584.70	24.523
585.04	24.413
585.37	24.194
585.71	24.272
586.04	24.306
586.38	24.954
586.72	24.868
587.05	24.456
587.39	24.931
587.72	24.856
588.06	24.589
588.39	24.172
588.73	23.942
589.06	24.915
589.40	24.585
589.73	24.068
590.07	24.635
590.40	24.442
590.73	24.214
591.07	24.497
591.40	23.872
591.74	23.847
592.07	24.482
592.41	24.606
592.74	23.926
593.08	24.076
593.41	24.468
593.75	24.052
594.08	24.265
594.41	23.814
594.75	23.879
595.08	23.217
595.42	24.513
595.75	23.507
596.09	23.314
596.42	24.364
596.75	24.006
597.09	24.000
597.42	23.401
597.75	22.854
598.09	23.770
598.42	23.522
598.76	22.965
599.09	23.354
599.42	22.394
599.76	22.483
600.09	23.223
600.42	22.723
600.76	22.853
601.09	22.768
601.42	22.829
601.76	22.552
602.09	22.802
602.42	22.283
602.76	22.472
603.09	23.128
603.42	22.616
603.76	22.375
604.09	22.889
604.42	22.385
604.76	22.032
605.09	23.095
605.42	22.368
605.75	22.462
606.09	22.546
606.42	22.109
606.75	21.477
607.09	21.352
607.42	21.811
607.75	21.962
608.08	21.389
608.42	21.886
608.75	22.098
609.08	21.647
609.41	22.453
609.75	21.071
610.08	22.383
610.41	21.963
610.74	21.555
611.07	22.025
611.41	22.377
611.74	23.187
612.07	22.160
612.40	22.148
612.73	21.760
613.07	21.320
613.40	22.040
613.73	21.521
614.06	22.718
614.39	21.429
614.72	20.670
615.06	20.452
615.39	21.460
615.72	21.232
616.05	20.544
616.38	21.948
616.71	21.055
617.05	20.288
617.38	21.562
617.71	21.166
618.04	21.749
618.37	21.803
618.70	21.606
619.03	21.266
619.36	20.962
619.69	20.948
620.03	20.967
620.36	21.104
620.69	21.345
621.02	21.654
621.35	21.190
621.68	20.897
622.01	20.996
622.34	20.572
622.67	20.412
623.00	20.715
623.33	20.106
623.66	22.049
623.99	20.145
624.32	20.988
624.65	20.785
624.99	21.066
625.32	21.228
625.65	21.106
625.98	20.271
626.31	21.262
626.64	19.927
626.97	20.855
627.30	20.349
627.63	21.380
627.96	21.772
628.29	20.311
628.62	19.312
628.95	21.472
629.28	19.626
629.61	21.044
629.94	19.833
630.26	20.169
630.59	21.762
630.92	21.126
631.25	22.898
631.58	19.774
631.91	20.431
632.24	21.230
632.57	20.683
632.90	20.863
633.23	21.224
633.56	22.041
633.89	19.628
634.22	21.830
634.55	21.190
634.88	21.861
635.20	21.313
635.53	20.452
635.86	20.910
636.19	20.361
636.52	20.675
636.85	18.693
637.18	20.166
637.51	21.398
637.83	20.155
638.16	19.931
638.49	20.775
638.82	20.631
639.15	20.046
639.48	21.016
639.81	19.977
640.13	20.259
640.46	18.909
640.79	17.770
641.12	21.242
641.45	19.573
641.77	22.850
642.10	18.766
642.43	22.872
642.76	20.596
643.09	20.137
643.41	19.888
643.74	21.241
644.07	21.517
644.40	19.378
644.73	19.303
645.05	21.586
645.38	20.000
645.71	21.261
646.04	21.951
646.36	20.146
646.69	20.859
647.02	20.642
647.35	21.374
647.67	20.451
648.00	19.745
648.33	21.471
648.66	19.686
648.98	19.728
649.31	20.974
649.64	19.522
649.96	18.568
650.29	17.663
650.62	18.105
650.94	19.219
651.27	19.461
651.60	20.322
651.92	17.173
652.25	19.392
652.58	19.532
652.90	17.587
653.23	19.014
653.56	18.973
653.88	20.787
654.21	19.155
654.54	19.653
654.86	19.263
655.19	17.189
655.52	18.276
655.84	16.891
656.17	19.544
656.49	27.290
656.82	29.940
657.15	23.392
657.47	17.624
657.80	13.164
658.13	10.220
658.45	13.481
658.78	16.292
659.10	15.667
659.43	15.589
659.75	15.201
660.08	15.294
660.41	14.309
660.73	15.964
661.06	16.006
661.38	18.501
661.71	18.793
662.03	18.342
662.36	21.825
662.68	20.075
663.01	19.646
663.33	20.227
663.66	20.147
663.98	17.692
664.31	18.949
664.63	17.341
664.96	16.334
665.28	17.241
665.61	20.105
665.93	18.929
666.26	20.609
666.58	16.605
666.91	18.879
667.23	21.333
667.56	18.935
667.88	18.000
668.21	17.773
668.53	17.568
668.86	17.485
669.18	16.904
669.50	17.296
669.83	16.000
670.15	18.307
670.48	18.651
670.80	15.870
671.13	17.391
671.45	17.126
671.77	18.267
672.10	18.333
672.42	16.990
672.75	14.900
673.07	17.761
673.39	16.179
673.72	17.114
674.04	18.276
674.37	17.531
674.69	18.695
675.01	16.381
675.34	19.466
675.66	17.228
675.98	16.791
676.31	16.406
676.63	19.202
676.95	19.349
677.28	15.927
677.60	17.520
677.92	16.699
678.25	16.636
678.57	17.616
678.89	16.553
679.22	15.854
679.54	15.897
679.86	15.593
680.18	14.594
680.51	16.509
680.83	15.385
681.15	16.207
681.48	19.516
681.80	18.135
682.12	16.434
682.44	16.694
682.77	16.844
683.09	14.205
683.41	16.473
683.73	16.888
684.06	15.683
684.38	15.027
684.70	18.312
685.02	16.695
685.34	14.309
685.67	12.145
685.99	15.337
686.31	13.953
686.63	15.640
686.96	14.038
687.28	16.612
687.60	13.131
687.92	15.595
688.24	15.192
688.56	13.621
688.89	15.789
689.21	17.221
689.53	14.902
689.85	14.201
690.17	14.815
690.49	16.932
690.82	15.050
691.14	13.968
691.46	15.870
691.78	17.864
692.10	14.128
692.42	12.500
692.74	14.519
693.06	14.444
693.39	18.027
693.71	15.789
694.03	16.171
694.35	17.333
694.67	15.606
694.99	17.234
695.31	12.804
695.63	15.368
695.95	14.286
696.27	13.846
696.59	16.372
696.91	14.414
697.23	18.022
697.56	13.849
697.88	14.962
698.20	15.443
698.52	16.477
698.84	14.969
699.16	15.714
699.48	12.134
699.80	14.468
700.12	14.847
700.44	14.055
700.76	14.964
701.08	13.317
701.40	12.953
701.72	15.672
702.04	11.765
702.36	13.874
702.68	15.403
703.00	14.425
703.32	16.010
703.64	14.425
703.96	16.229
704.28	14.496
704.60	14.177
704.91	13.776
705.23	12.603
705.55	10.585
705.87	14.545
706.19	16.871
706.51	12.952
706.83	13.545
707.15	13.228
707.47	14.720
707.79	14.410
708.11	9.746
708.43	14.409
708.74	11.607
709.06	11.833
709.38	13.380
709.70	15.385
710.02	12.403
710.34	13.298
710.66	12.291
710.98	10.656
711.29	12.912
711.61	14.124
711.93	17.664
712.25	13.784
712.57	17.109
712.89	15.588
713.20	15.089
713.52	14.740
713.84	12.813
714.16	15.263
714.48	14.175
714.80	16.623
715.11	14.436
715.43	12.467
715.75	15.000
716.07	11.326
716.39	14.481
716.70	11.145
717.02	14.426
717.34	12.195
717.66	13.087
717.97	12.671
718.29	10.997
718.61	13.158
718.93	13.269
719.24	13.354
719.56	12.883
719.88	12.613
720.20	17.097
720.51	13.354
720.83	11.563
721.15	10.855
721.46	10.616
721.78	13.000
722.10	11.650
722.42	10.738
722.73	13.871
723.05	14.386
723.37	12.847
723.68	14.337
724.00	15.162
724.32	13.028
724.63	11.189
724.95	18.794
725.27	10.801
725.58	12.367
725.90	17.586
726.22	11.912
726.53	10.390
726.85	14.151
727.16	12.387
727.48	13.761
727.80	15.563
728.11	9.541
728.43	12.458
728.74	13.043
729.06	11.258
729.38	10.065
729.69	11.745
730.01	11.310
730.32	10.606
730.64	11.321
730.96	12.422
731.27	10.056
731.59	12.912
731.90	10.390
732.22	12.760
732.53	9.945
732.85	13.714
733.16	14.956
733.48	10.671
733.80	11.142
734.11	11.111
734.43	14.054
734.74	13.418
735.06	10.302
735.37	7.027
735.69	10.270
736.00	10.734
736.32	11.590
736.63	11.389
736.95	10.345
737.26	11.212
737.58	11.212
737.89	13.235
738.21	7.645
738.52	9.836
738.83	11.945
739.15	9.574
739.46	10.544
739.78	12.883
740.09	11.461
740.41	12.536
740.72	11.667
741.04	12.298
741.35	12.281
741.66	7.059
741.98	12.705
742.29	13.808
742.61	7.895
742.92	11.923
743.23	11.552
743.55	10.078
743.86	13.600
744.18	7.025
744.49	7.595
744.80	12.346
745.12	13.080
745.43	10.163
745.74	11.638
746.06	8.898
746.37	13.080
746.68	17.480
747.00	11.667
747.31	9.871
747.62	11.923
747.94	11.741
748.25	7.631
748.56	9.796
748.88	10.684
749.19	15.517
749.50	8.658
749.82	15.261
750.13	12.100
750.44	7.000
750.75	9.231
751.07	11.077
751.38	14.196
751.69	9.585
752.01	8.738
752.32	12.745
752.63	8.844
752.94	12.803
753.26	7.435
753.57	8.148
753.88	12.360
754.19	11.254
754.51	6.752
754.82	11.897
755.13	14.098
755.44	8.874
755.75	9.211
756.07	14.030
756.38	9.119
756.69	12.048
757.00	9.695
757.31	9.563
757.63	6.905
757.94	8.451
758.25	11.287
758.56	11.765
758.87	11.364
759.18	11.200
759.50	10.482
759.81	11.204
760.12	9.973
760.43	10.156
760.74	11.823
761.05	10.250
761.36	7.711
761.67	9.645
761.99	8.108
762.30	8.841
762.61	8.911
762.92	9.701
763.23	8.989
763.54	9.712
763.85	10.997
764.16	13.131
764.47	10.211
764.78	8.946
765.10	10.264
765.41	12.051
765.72	7.937
766.03	11.299
766.34	8.464
766.65	4.530
766.96	12.351
767.27	8.756
767.58	6.468
767.89	12.500
768.20	11.737
768.51	7.407
768.82	12.851
769.13	11.364
769.44	1.923
769.75	11.191
770.06	9.231
770.37	10.236
770.68	5.957
770.99	6.883
771.30	14.074
771.61	10.266
771.92	9.630
772.23	12.146
772.54	7.407
772.85	18.433
773.16	13.333
773.47	10.582
773.78	8.649
774.09	7.386
774.39	15.000
774.70	16.393
775.01	2.439
775.32	4.706
775.63	6.748
775.94	5.732
776.25	7.097
776.56	10.256
776.87	17.007
777.18	9.655
777.48	7.692
777.79	9.459
778.10	-2.941
778.41	4.167
778.72	9.655
779.03	4.938
779.34	9.697
779.65	5.699
779.95	11.111
780.26	6.818
780.57	5.806
780.88	10.870
781.19	14.194
781.50	14.706
781.80	8.602
782.11	7.937
782.42	2.525
782.73	-1.198
783.04	10.615
783.34	8.485
783.65	5.882
783.96	6.211
784.27	6.548
784.57	12.583
784.88	4.286
785.19	-3.150
785.50	11.811
785.81	14.286
786.11	2.308
786.42	3.597
786.73	0.719
787.04	12.030
787.34	9.836
787.65	2.400
787.96	2.239
788.26	13.287
788.57	12.587
788.88	5.263
789.19	13.072
789.49	8.904
789.80	5.674
790.11	10.236
790.41	6.250
790.72	1.695
791.03	-1.942
791.33	6.957
791.64	7.895
791.95	-1.786
792.25	6.667
792.56	7.143
792.87	0.000
793.17	4.464
793.48	15.625
793.79	-8.434
794.09	4.587
794.40	2.752
794.70	6.803
795.01	5.844
795.32	7.534
795.62	7.042
795.93	4.545
796.23	9.016
796.54	0.000
796.85	1.064
797.15	14.130
797.46	1.370
797.76	-3.750
798.07	8.696
798.37	-5.155
798.68	-5.195
798.99	10.345
799.29	12.360
799.60	12.766
799.90	2.410
800.21	-1.538
800.51	-8.955
800.82	0.000
801.12	-4.110
801.43	-20.588
801.73	-13.559
802.04	-7.576
802.34	-18.333
802.65	-10.169
802.95	5.970
803.26	3.390
803.56	8.219
803.87	10.000
804.17	-8.219
804.48	-7.018
804.78	13.889
805.09	-15.517
805.39	-2.703
805.70	-5.634
806.00	3.659
806.30	0.000
806.61	8.219
806.91	13.462
807.22	7.778
807.52	-4.598
807.83	9.722
808.13	10.843
808.43	5.618
808.74	1.250
809.04	4.412
809.35	-6.667
809.65	-7.143
809.95	10.959
810.26	-28.070
810.56	-3.448
810.86	17.647
811.17	12.281
811.47	-4.918
811.77	-33.333
812.08	1.695
812.38	-10.000
812.69	6.897
812.99	-5.660
813.29	-35.897
813.59	16.000
813.90	-10.526
814.20	3.636
814.50	21.127
814.81	8.974
815.11	9.836
815.41	0.000
815.72	0.000
816.02	5.357
816.32	24.444
816.62	-6.818
816.93	-2.222
817.23	16.667
817.53	10.638
817.84	14.286
818.14	-5.882
818.44	8.163
818.74	-4.444
819.04	-17.949
819.35	-34.286
819.65	-50.000
819.95	11.321
820.25	4.444
820.56	-9.524
820.86	-40.625
821.16	-28.205
821.46	-27.907
821.76	-20.000
822.07	1.786
822.37	2.174
822.67	-4.255
822.97	-56.757
823.27	-15.000
823.57	6.122
823.88	2.222
824.18	25.000
824.48	3.333
824.78	-32.000
825.08	9.091
825.38	15.556
825.69	12.766
825.99	0.000
826.29	-57.143
826.59	-12.821
826.89	-6.977
827.19	2.000
827.49	8.824
827.79	6.250
828.09	-18.919
828.39	-10.000
828.70	-4.878
829.00	2.326
829.30	-7.143
829.60	23.529
829.90	0.000
830.20	11.429
830.50	6.897
830.80	-33.333
831.10	-7.692
831.40	-23.529
831.70	-19.048
832.00	22.581
832.30	-111.765
832.60	-66.667
832.90	-92.308
833.20	0.000
833.50	-40.000
833.80	-78.947
834.10	-104.762
834.40	-2.778
834.70	9.375
835.00	-8.571
835.30	17.647
835.60	-3.333
835.90	-12.000
836.20	-54.545
836.50	-20.000
836.80	-51.515
837.10	-14.815
837.40	14.815
837.70	-68.750
838.00	17.857
838.30	-4.348
838.60	3.448
838.90	-42.857
839.19	-39.130
839.49	-100.000
839.79	-13.043
840.09	-18.750
840.39	0.000
840.69	16.129
840.99	-39.286
841.29	-66.667
841.59	-63.158
841.88	38.462
842.18	-26.923
842.48	-30.000
842.78	-15.000
843.08	3.333
843.38	0.000
843.68	-44.444
843.97	2.941
844.27	-31.250
844.57	-73.684
844.87	-130.000
845.17	-73.333
845.47	33.333
845.76	-4.762
846.06	0.000
846.36	-58.824
846.66	11.538
846.96	-40.000
847.25	-17.647
847.55	17.391
847.85	-30.000
848.15	-17.647
848.44	-90.909
848.74	-28.571
849.04	-8.333
849.34	-25.000
849.63	-26.087
849.93	700.000
850.23	-13.333
850.53	19.231
850.82	-81.818
851.12	-4.545
851.42	-36.364
851.71	-61.538
852.01	-85.000
852.31	-30.769
852.61	-10.526
852.90	-16.667
853.20	38.889
853.50	-166.667
853.79	-76.190
854.09	-45.455
854.39	-108.333
854.68	3.226
854.98	-30.769
855.28	-11.111
855.57	0.000
855.87	-24.000
856.17	-4.545
856.46	-11.111
856.76	-16.667
857.05	-47.826
857.35	-4.167
857.65	-76.923
857.94	4.762
858.24	-11.111
858.53	13.043
858.83	-11.765
859.13	-35.294
859.42	-35.294
859.72	0.000
860.01	5.000
860.31	-111.111
860.60	-50.000
860.90	6.667
861.20	16.667
861.49	0.000
861.79	-20.000
862.08	-15.385
862.38	12.500
862.67	35.294
862.97	-18.750
863.26	-33.333
863.56	30.000
863.85	-27.273
864.15	5.556
864.44	-366.667
864.74	-7.143
865.03	-62.500
865.33	-130.000
865.62	16.129
865.92	4.545
866.21	0.000
866.51	-42.857
866.80	-240.000
867.10	-33.333
867.39	-75.000
867.69	1700.000
867.98	-100.000
868.27	-11.765
868.57	-1500.000
868.86	-150.000
869.16	-47.619
869.45	-29.167
869.75	-27.273
870.04	-71.429
870.33	-8.333
870.63	-300.000
870.92	-275.000
871.22	-237.500
871.51	-36.364
871.80	-233.333
872.10	-500.000
>>>>>End Processed Spectral Data<<<<<
