SpectraSuite Data File
++++++++++++++++++++++++++++++++++++
Date: Thu May 14 16:14:32 PDT 2015
User: schluterlab
Dark Spectrum Present: Yes
Reference Spectrum Present: Yes
Number of Sampled Component Spectra: 1
Spectrometers: USB2E3373
Integration Time (usec): 3000 (USB2E3373)
Spectra Averaged: 3 (USB2E3373)
Boxcar Smoothing: 0 (USB2E3373)
Correct for Electrical Dark: No (USB2E3373)
Strobe/Lamp Enabled: No (USB2E3373)
Correct for Detector Non-linearity: No (USB2E3373)
Correct for Stray Light: No (USB2E3373)
Number of Pixels in Processed Spectrum: 2048
>>>>>Begin Processed Spectral Data<<<<<
178.53	0.000
178.91	-14.286
179.29	-1100.000
179.67	-400.000
180.04	142.857
180.42	40.000
180.80	-40.000
181.18	-1100.000
181.56	100.000
181.94	-0.000
182.31	75.000
182.69	-0.000
183.07	200.000
183.45	200.000
183.83	83.333
184.20	-100.000
184.58	-100.000
184.96	-50.000
185.34	22.222
185.72	100.000
186.09	133.333
186.47	400.000
186.85	300.000
187.23	-44.444
187.61	-1700.000
187.98	140.000
188.36	25.000
188.74	-125.000
189.12	0.000
189.49	37.500
189.87	-50.000
190.25	44.444
190.63	-20.000
191.00	-177.778
191.38	0.000
191.76	-150.000
192.14	-100.000
192.51	150.000
192.89	33.333
193.27	0.000
193.65	-42.857
194.02	-1100.000
194.40	28.571
194.78	28.571
195.15	0.000
195.53	-9.091
195.91	0.000
196.29	75.000
196.66	15.385
197.04	-700.000
197.42	-100.000
197.79	-450.000
198.17	-112.500
198.55	-42.857
198.92	-177.778
199.30	-87.500
199.68	27.273
200.05	21.429
200.43	-200.000
200.81	185.714
201.18	0.000
201.56	77.778
201.94	0.000
202.31	300.000
202.69	-44.444
203.07	400.000
203.44	-88.889
203.82	-125.000
204.19	58.333
204.57	-100.000
204.95	-125.000
205.32	-600.000
205.70	-0.000
206.08	-116.667
206.45	-133.333
206.83	300.000
207.20	-83.333
207.58	-200.000
207.96	-150.000
208.33	50.000
208.71	108.333
209.08	83.333
209.46	0.000
209.84	133.333
210.21	250.000
210.59	100.000
210.96	133.333
211.34	75.000
211.71	-100.000
212.09	-500.000
212.46	0.000
212.84	1000.000
213.22	-220.000
213.59	25.000
213.97	100.000
214.34	-300.000
214.72	66.667
215.09	-75.000
215.47	0.000
215.84	100.000
216.22	350.000
216.59	0.000
216.97	-100.000
217.34	50.000
217.72	-12.500
218.09	25.000
218.47	-275.000
218.84	0.000
219.22	120.000
219.59	-82.353
219.97	-20.000
220.34	550.000
220.72	-122.222
221.09	69.231
221.47	33.333
221.84	-10.000
222.22	-100.000
222.59	0.000
222.97	0.000
223.34	-40.000
223.72	-100.000
224.09	-175.000
224.46	-200.000
224.84	200.000
225.21	0.000
225.59	-300.000
225.96	-75.000
226.34	7.692
226.71	183.333
227.08	-450.000
227.46	-13.333
227.83	-400.000
228.21	47.368
228.58	75.000
228.95	300.000
229.33	0.000
229.70	-90.000
230.08	42.105
230.45	80.000
230.82	-33.333
231.20	42.857
231.57	-58.333
231.95	9.091
232.32	27.273
232.69	-35.000
233.07	-100.000
233.44	23.529
233.81	-110.000
234.19	16.667
234.56	0.000
234.93	37.931
235.31	47.368
235.68	0.000
236.05	-45.000
236.43	69.231
236.80	44.000
237.17	-7.407
237.55	12.121
237.92	-60.000
238.29	-12.903
238.67	13.636
239.04	16.667
239.41	-9.524
239.79	0.000
240.16	16.667
240.53	10.870
240.91	11.765
241.28	14.754
241.65	20.896
242.02	20.270
242.40	15.385
242.77	21.333
243.14	8.537
243.51	-7.895
243.89	2.564
244.26	16.832
244.63	10.784
245.00	8.411
245.38	11.404
245.75	0.885
246.12	8.730
246.49	10.078
246.87	10.714
247.24	11.258
247.61	5.921
247.98	6.711
248.36	15.432
248.73	9.816
249.10	8.197
249.47	14.428
249.84	9.948
250.22	8.808
250.59	8.333
250.96	13.182
251.33	3.061
251.70	10.684
252.08	11.667
252.45	9.426
252.82	9.504
253.19	10.547
253.56	9.506
253.94	7.692
254.31	9.470
254.68	14.685
255.05	13.681
255.42	8.503
255.79	7.120
256.16	9.934
256.54	7.285
256.91	9.508
257.28	8.197
257.65	8.917
258.02	7.965
258.39	6.838
258.76	13.456
259.14	12.356
259.51	7.493
259.88	6.799
260.25	12.500
260.62	11.507
260.99	13.934
261.36	9.651
261.73	7.692
262.10	10.440
262.47	10.456
262.85	12.121
263.22	6.234
263.59	6.316
263.96	9.719
264.33	11.765
264.70	11.605
265.07	12.649
265.44	11.791
265.81	9.722
266.18	10.204
266.55	10.268
266.92	9.795
267.29	13.348
267.66	10.865
268.03	12.009
268.40	9.395
268.77	9.112
269.14	8.150
269.51	9.649
269.88	11.475
270.25	12.072
270.62	9.072
270.99	11.111
271.36	13.069
271.73	9.627
272.10	11.824
272.47	10.220
272.84	10.442
273.21	9.820
273.58	12.298
273.95	11.923
274.32	7.034
274.69	10.251
275.06	11.538
275.43	9.797
275.80	11.993
276.17	8.704
276.54	10.261
276.91	9.481
277.28	11.212
277.65	10.054
278.02	11.029
278.39	8.877
278.76	9.315
279.13	9.574
279.50	12.199
279.87	10.733
280.23	6.162
280.60	9.661
280.97	11.842
281.34	8.319
281.71	12.860
282.08	8.970
282.45	10.802
282.82	8.948
283.19	10.339
283.56	9.836
283.92	10.210
284.29	11.216
284.66	10.345
285.03	8.494
285.40	11.128
285.77	9.133
286.14	9.008
286.51	9.589
286.87	9.005
287.24	10.241
287.61	11.061
287.98	8.761
288.35	10.503
288.72	9.320
289.08	9.663
289.45	7.840
289.82	9.036
290.19	9.339
290.56	9.859
290.93	10.271
291.29	9.917
291.66	8.678
292.03	7.056
292.40	10.884
292.77	8.491
293.13	8.119
293.50	8.804
293.87	8.054
294.24	11.333
294.60	9.355
294.97	7.651
295.34	9.603
295.71	7.945
296.08	7.494
296.44	8.333
296.81	8.526
297.18	7.721
297.55	8.137
297.91	9.371
298.28	7.583
298.65	7.729
299.02	8.146
299.38	8.810
299.75	8.762
300.12	6.481
300.48	8.295
300.85	9.449
301.22	8.166
301.59	7.078
301.95	8.927
302.32	9.667
302.69	9.310
303.05	8.814
303.42	7.871
303.79	8.750
304.15	10.095
304.52	8.140
304.89	9.319
305.25	7.867
305.62	9.195
305.99	8.969
306.35	7.964
306.72	9.204
307.09	8.629
307.45	8.696
307.82	8.174
308.19	8.981
308.55	9.932
308.92	9.932
309.29	10.057
309.65	9.747
310.02	9.703
310.38	10.039
310.75	8.738
311.12	10.355
311.48	8.798
311.85	9.877
312.22	8.729
312.58	11.080
312.95	9.178
313.31	11.201
313.68	10.073
314.05	10.840
314.41	12.022
314.78	10.536
315.14	11.343
315.51	11.634
315.87	10.351
316.24	11.872
316.61	12.966
316.97	11.403
317.34	11.993
317.70	12.838
318.07	13.316
318.43	14.456
318.80	14.967
319.16	13.906
319.53	12.082
319.89	12.708
320.26	14.591
320.62	13.741
320.99	15.512
321.35	14.418
321.72	16.000
322.08	15.059
322.45	15.718
322.81	15.162
323.18	15.841
323.54	16.810
323.91	18.060
324.27	16.523
324.64	18.136
325.00	16.750
325.37	17.936
325.73	19.091
326.10	18.167
326.46	19.625
326.83	19.936
327.19	19.843
327.56	19.526
327.92	18.489
328.29	19.435
328.65	19.933
329.01	19.289
329.38	20.977
329.74	22.003
330.11	21.147
330.47	21.314
330.84	20.586
331.20	22.500
331.56	23.050
331.93	22.176
332.29	21.017
332.66	21.262
333.02	22.194
333.38	21.644
333.75	22.643
334.11	23.019
334.48	22.442
334.84	23.280
335.20	22.502
335.57	22.344
335.93	22.975
336.29	22.130
336.66	23.129
337.02	23.244
337.38	22.619
337.75	22.231
338.11	22.708
338.47	24.069
338.84	23.689
339.20	22.662
339.56	23.229
339.93	23.071
340.29	23.188
340.65	23.033
341.02	23.543
341.38	23.767
341.74	23.083
342.11	23.009
342.47	22.478
342.83	23.510
343.20	22.976
343.56	23.897
343.92	22.818
344.28	23.516
344.65	23.101
345.01	23.713
345.37	23.250
345.73	23.227
346.10	23.323
346.46	24.604
346.82	23.071
347.19	23.759
347.55	24.127
347.91	23.848
348.27	24.052
348.63	23.077
349.00	23.639
349.36	23.271
349.72	23.512
350.08	23.848
350.45	23.422
350.81	22.323
351.17	23.383
351.53	24.488
351.89	24.753
352.26	24.030
352.62	23.507
352.98	23.053
353.34	23.450
353.70	23.960
354.07	23.398
354.43	23.842
354.79	23.934
355.15	23.400
355.51	25.000
355.87	23.485
356.24	24.259
356.60	24.464
356.96	23.647
357.32	23.569
357.68	23.206
358.04	23.802
358.40	23.731
358.77	24.488
359.13	24.003
359.49	23.346
359.85	23.858
360.21	24.821
360.57	24.767
360.93	24.118
361.29	24.491
361.66	23.534
362.02	25.052
362.38	23.823
362.74	25.279
363.10	26.066
363.46	25.000
363.82	25.071
364.18	24.912
364.54	25.726
364.90	25.886
365.26	24.000
365.62	26.067
365.98	24.983
366.35	25.101
366.71	25.306
367.07	25.101
367.43	26.198
367.79	26.012
368.15	26.020
368.51	26.590
368.87	25.082
369.23	26.000
369.59	25.888
369.95	25.423
370.31	26.334
370.67	26.685
371.03	25.416
371.39	25.722
371.75	26.204
372.11	25.203
372.47	27.150
372.83	26.047
373.19	26.551
373.55	26.558
373.91	26.176
374.27	26.003
374.63	27.740
374.99	27.122
375.35	27.078
375.71	27.161
376.07	26.469
376.42	27.519
376.78	27.284
377.14	27.261
377.50	27.008
377.86	28.448
378.22	28.204
378.58	28.537
378.94	27.465
379.30	27.885
379.66	27.748
380.02	27.871
380.38	28.859
380.74	28.620
381.09	28.339
381.45	28.125
381.81	30.035
382.17	29.988
382.53	29.708
382.89	28.499
383.25	29.601
383.61	28.530
383.97	28.445
384.32	29.904
384.68	28.828
385.04	30.249
385.40	31.114
385.76	30.539
386.12	29.623
386.48	29.588
386.83	30.691
387.19	29.838
387.55	30.282
387.91	30.422
388.27	30.831
388.62	30.641
388.98	29.836
389.34	31.467
389.70	32.655
390.06	30.610
390.42	30.663
390.77	32.089
391.13	31.338
391.49	31.401
391.85	32.424
392.20	31.732
392.56	32.841
392.92	32.225
393.28	31.896
393.64	32.235
393.99	31.842
394.35	33.178
394.71	32.695
395.07	32.335
395.42	32.210
395.78	34.065
396.14	32.858
396.50	32.363
396.85	32.976
397.21	32.663
397.57	34.335
397.92	34.536
398.28	33.134
398.64	33.867
399.00	32.670
399.35	33.351
399.71	34.022
400.07	33.970
400.42	33.644
400.78	33.854
401.14	33.068
401.49	34.792
401.85	34.070
402.21	35.458
402.57	35.974
402.92	34.988
403.28	33.958
403.63	34.785
403.99	35.273
404.35	34.395
404.70	36.204
405.06	34.620
405.42	35.831
405.77	36.478
406.13	35.981
406.49	35.755
406.84	36.122
407.20	36.445
407.55	35.554
407.91	35.827
408.27	36.572
408.62	36.475
408.98	36.274
409.34	37.009
409.69	37.392
410.05	36.870
410.40	37.935
410.76	37.521
411.11	37.814
411.47	37.961
411.83	37.625
412.18	38.434
412.54	37.759
412.89	38.591
413.25	38.431
413.60	38.713
413.96	39.336
414.31	37.847
414.67	37.865
415.03	39.015
415.38	40.038
415.74	37.996
416.09	38.680
416.45	37.884
416.80	38.250
417.16	39.080
417.51	39.352
417.87	39.362
418.22	39.162
418.58	39.281
418.93	39.639
419.29	40.197
419.64	39.796
420.00	39.941
420.35	40.371
420.71	40.781
421.06	40.541
421.42	40.654
421.77	39.849
422.12	39.482
422.48	40.451
422.83	40.088
423.19	40.955
423.54	42.367
423.90	40.917
424.25	41.440
424.61	40.815
424.96	40.967
425.31	42.091
425.67	41.868
426.02	40.730
426.38	41.734
426.73	40.960
427.09	42.964
427.44	41.835
427.79	41.680
428.15	41.952
428.50	41.966
428.85	41.447
429.21	42.553
429.56	41.856
429.92	41.572
430.27	41.446
430.62	41.866
430.98	42.843
431.33	42.571
431.68	43.151
432.04	42.509
432.39	42.957
432.74	41.895
433.10	43.970
433.45	42.419
433.80	42.811
434.16	43.285
434.51	43.628
434.86	43.865
435.22	44.315
435.57	45.519
435.92	44.073
436.28	44.596
436.63	45.057
436.98	43.317
437.34	42.897
437.69	43.588
438.04	44.104
438.39	44.744
438.75	44.604
439.10	45.137
439.45	45.109
439.81	45.141
440.16	44.611
440.51	43.924
440.86	44.469
441.22	44.480
441.57	45.597
441.92	44.471
442.27	46.162
442.63	43.964
442.98	45.197
443.33	45.976
443.68	46.333
444.03	45.720
444.39	45.215
444.74	45.431
445.09	45.160
445.44	45.680
445.79	46.121
446.15	45.581
446.50	45.478
446.85	46.109
447.20	45.261
447.55	45.973
447.91	45.131
448.26	46.459
448.61	45.962
448.96	46.835
449.31	45.970
449.66	46.078
450.02	45.833
450.37	46.191
450.72	47.363
451.07	46.526
451.42	45.927
451.77	46.971
452.12	46.614
452.47	46.762
452.83	48.592
453.18	46.585
453.53	46.870
453.88	47.211
454.23	47.119
454.58	47.359
454.93	47.027
455.28	47.502
455.63	47.129
455.98	47.821
456.34	46.820
456.69	48.148
457.04	48.463
457.39	47.561
457.74	47.707
458.09	47.172
458.44	47.198
458.79	46.725
459.14	47.562
459.49	48.331
459.84	48.216
460.19	46.863
460.54	49.461
460.89	47.909
461.24	48.621
461.59	48.478
461.94	48.317
462.29	48.600
462.64	48.039
462.99	48.399
463.34	47.891
463.69	47.597
464.04	48.972
464.39	48.038
464.74	48.119
465.09	47.693
465.44	48.552
465.79	47.435
466.14	47.785
466.49	47.474
466.84	50.028
467.19	49.769
467.54	46.416
467.89	49.138
468.24	48.255
468.59	49.739
468.94	48.543
469.29	48.710
469.64	48.379
469.99	50.860
470.34	48.762
470.68	49.624
471.03	51.539
471.38	50.687
471.73	49.415
472.08	50.127
472.43	49.849
472.78	50.945
473.13	49.684
473.48	49.668
473.83	51.364
474.17	49.707
474.52	50.030
474.87	49.557
475.22	50.986
475.57	49.429
475.92	48.980
476.27	50.692
476.61	50.623
476.96	49.270
477.31	49.554
477.66	50.944
478.01	50.941
478.36	49.701
478.70	49.901
479.05	51.022
479.40	50.444
479.75	51.681
480.10	50.924
480.45	50.182
480.79	50.567
481.14	50.460
481.49	50.841
481.84	50.870
482.19	50.581
482.53	51.202
482.88	52.016
483.23	50.200
483.58	51.266
483.92	50.266
484.27	50.720
484.62	49.670
484.97	50.700
485.31	49.630
485.66	47.934
486.01	46.242
486.36	47.589
486.70	48.587
487.05	49.643
487.40	49.756
487.75	49.695
488.09	49.789
488.44	49.538
488.79	50.793
489.13	50.941
489.48	49.942
489.83	50.624
490.17	50.263
490.52	50.985
490.87	51.650
491.22	51.690
491.56	51.408
491.91	51.461
492.26	52.358
492.60	51.990
492.95	51.382
493.30	52.443
493.64	51.905
493.99	51.886
494.34	51.829
494.68	51.135
495.03	52.247
495.37	52.020
495.72	52.925
496.07	51.490
496.41	51.437
496.76	52.210
497.11	52.569
497.45	52.568
497.80	52.110
498.14	52.063
498.49	52.574
498.84	53.839
499.18	52.632
499.53	53.184
499.87	52.000
500.22	51.603
500.56	52.767
500.91	52.174
501.26	52.864
501.60	52.497
501.95	52.366
502.29	53.269
502.64	53.126
502.98	51.596
503.33	52.657
503.67	52.377
504.02	52.364
504.36	53.485
504.71	53.881
505.06	52.478
505.40	52.788
505.75	52.596
506.09	53.867
506.44	54.132
506.78	53.578
507.13	53.250
507.47	53.861
507.82	53.835
508.16	53.920
508.51	53.399
508.85	54.086
509.19	54.571
509.54	55.235
509.88	55.172
510.23	53.764
510.57	54.712
510.92	54.523
511.26	54.257
511.61	53.790
511.95	53.978
512.30	54.604
512.64	55.072
512.98	55.428
513.33	55.444
513.67	55.635
514.02	55.749
514.36	56.010
514.70	55.625
515.05	56.726
515.39	56.378
515.74	57.158
516.08	55.573
516.42	56.515
516.77	57.203
517.11	54.771
517.46	56.628
517.80	57.723
518.14	58.161
518.49	56.887
518.83	55.561
519.17	56.112
519.52	56.604
519.86	56.441
520.20	56.337
520.55	57.284
520.89	57.714
521.23	57.733
521.58	58.249
521.92	58.640
522.26	56.930
522.61	58.044
522.95	56.632
523.29	58.391
523.64	57.511
523.98	58.357
524.32	59.656
524.66	59.021
525.01	57.644
525.35	58.013
525.69	59.339
526.04	57.233
526.38	58.046
526.72	57.843
527.06	59.062
527.41	58.134
527.75	59.442
528.09	59.150
528.43	59.325
528.78	57.341
529.12	58.085
529.46	57.504
529.80	60.641
530.15	58.493
530.49	58.600
530.83	58.146
531.17	59.259
531.51	58.484
531.86	59.435
532.20	59.390
532.54	58.169
532.88	59.030
533.22	56.453
533.57	57.877
533.91	57.688
534.25	57.773
534.59	59.138
534.93	57.442
535.27	58.986
535.62	60.091
535.96	58.571
536.30	58.343
536.64	58.438
536.98	58.979
537.32	58.642
537.66	59.264
538.01	56.858
538.35	58.404
538.69	57.692
539.03	58.860
539.37	57.833
539.71	58.318
540.05	58.393
540.39	58.496
540.73	57.256
541.07	59.289
541.42	57.236
541.76	56.762
542.10	57.358
542.44	58.222
542.78	58.637
543.12	57.569
543.46	58.120
543.80	57.734
544.14	57.271
544.48	57.270
544.82	57.570
545.16	57.484
545.50	58.898
545.84	58.053
546.18	58.889
546.52	57.834
546.86	58.553
547.20	57.952
547.54	55.805
547.88	57.806
548.22	57.193
548.56	57.226
548.90	56.716
549.24	57.325
549.58	58.297
549.92	57.143
550.26	59.094
550.60	56.796
550.94	57.762
551.28	56.304
551.62	58.895
551.96	58.252
552.30	55.895
552.64	57.125
552.98	56.769
553.32	58.135
553.66	57.363
554.00	57.251
554.34	57.079
554.68	57.134
555.02	57.424
555.36	59.632
555.69	56.246
556.03	56.431
556.37	58.198
556.71	58.339
557.05	57.380
557.39	57.399
557.73	56.407
558.07	57.947
558.41	57.940
558.75	57.066
559.08	58.942
559.42	58.436
559.76	57.327
560.10	57.870
560.44	56.464
560.78	56.750
561.12	56.773
561.45	57.178
561.79	56.654
562.13	56.624
562.47	55.734
562.81	56.962
563.15	56.566
563.48	56.992
563.82	55.320
564.16	54.815
564.50	55.959
564.84	55.398
565.17	55.882
565.51	55.639
565.85	55.404
566.19	54.205
566.52	55.705
566.86	55.178
567.20	54.595
567.54	54.700
567.88	54.230
568.21	53.508
568.55	53.621
568.89	53.382
569.23	52.176
569.56	52.599
569.90	51.604
570.24	50.388
570.57	50.289
570.91	49.878
571.25	49.841
571.59	49.235
571.92	49.627
572.26	48.782
572.60	49.004
572.93	48.511
573.27	48.974
573.61	48.147
573.95	47.949
574.28	48.096
574.62	47.772
574.96	47.419
575.29	47.081
575.63	47.540
575.97	48.120
576.30	46.904
576.64	47.316
576.98	47.175
577.31	47.525
577.65	47.689
577.98	46.931
578.32	45.689
578.66	45.684
578.99	46.959
579.33	47.288
579.67	46.940
580.00	46.909
580.34	46.117
580.67	46.050
581.01	46.365
581.35	45.704
581.68	46.069
582.02	45.293
582.35	46.070
582.69	46.100
583.02	45.861
583.36	46.231
583.70	46.330
584.03	46.316
584.37	46.556
584.70	46.308
585.04	45.757
585.37	45.493
585.71	45.502
586.04	45.553
586.38	45.799
586.72	46.077
587.05	46.457
587.39	46.821
587.72	46.722
588.06	46.688
588.39	46.278
588.73	46.270
589.06	46.275
589.40	46.312
589.73	47.397
590.07	47.513
590.40	46.755
590.73	46.448
591.07	48.287
591.40	47.939
591.74	48.013
592.07	47.787
592.41	46.530
592.74	46.681
593.08	46.242
593.41	46.398
593.75	46.236
594.08	46.592
594.41	46.538
594.75	46.131
595.08	45.559
595.42	46.039
595.75	45.399
596.09	46.018
596.42	46.578
596.75	47.009
597.09	47.838
597.42	46.365
597.75	46.296
598.09	46.548
598.42	46.763
598.76	46.236
599.09	45.710
599.42	44.888
599.76	44.767
600.09	44.912
600.42	45.345
600.76	45.310
601.09	44.839
601.42	44.696
601.76	45.310
602.09	44.853
602.42	44.820
602.76	45.535
603.09	45.595
603.42	45.051
603.76	45.384
604.09	46.061
604.42	44.514
604.76	45.738
605.09	45.911
605.42	45.654
605.75	45.692
606.09	44.793
606.42	44.801
606.75	44.490
607.09	44.739
607.42	44.432
607.75	45.369
608.08	44.120
608.42	44.619
608.75	45.605
609.08	44.737
609.41	46.052
609.75	44.955
610.08	45.383
610.41	44.647
610.74	44.244
611.07	44.583
611.41	45.785
611.74	46.143
612.07	46.143
612.40	45.627
612.73	45.770
613.07	45.819
613.40	45.188
613.73	45.643
614.06	45.829
614.39	44.606
614.72	45.852
615.06	44.899
615.39	44.901
615.72	44.787
616.05	45.119
616.38	46.115
616.71	46.290
617.05	44.143
617.38	44.730
617.71	45.356
618.04	45.224
618.37	46.066
618.70	45.984
619.03	46.057
619.36	46.547
619.69	46.765
620.03	47.207
620.36	45.828
620.69	45.466
621.02	47.966
621.35	49.202
621.68	48.228
622.01	47.758
622.34	46.722
622.67	46.254
623.00	45.884
623.33	47.180
623.66	47.211
623.99	44.766
624.32	45.679
624.65	46.010
624.99	46.294
625.32	46.897
625.65	46.460
625.98	46.441
626.31	46.208
626.64	47.985
626.97	46.737
627.30	45.862
627.63	47.187
627.96	46.396
628.29	48.872
628.62	47.691
628.95	48.116
629.28	48.428
629.61	48.485
629.94	47.197
630.26	47.034
630.59	46.718
630.92	47.273
631.25	49.016
631.58	49.341
631.91	49.485
632.24	49.568
632.57	48.197
632.90	49.348
633.23	48.878
633.56	50.000
633.89	48.967
634.22	48.649
634.55	48.643
634.88	50.108
635.20	49.085
635.53	51.525
635.86	50.379
636.19	49.947
636.52	48.945
636.85	48.723
637.18	46.570
637.51	49.785
637.83	49.391
638.16	51.728
638.49	50.117
638.82	49.493
639.15	48.339
639.48	51.501
639.81	48.383
640.13	49.941
640.46	47.394
640.79	49.020
641.12	50.435
641.45	48.557
641.77	52.760
642.10	49.475
642.43	50.798
642.76	50.678
643.09	50.411
643.41	49.160
643.74	47.172
644.07	50.483
644.40	50.354
644.73	50.073
645.05	51.395
645.38	50.072
645.71	50.587
646.04	50.646
646.36	49.343
646.69	49.693
647.02	51.070
647.35	52.672
647.67	52.496
648.00	53.981
648.33	51.351
648.66	48.930
648.98	48.571
649.31	46.955
649.64	47.278
649.96	45.889
650.29	45.619
650.62	46.818
650.94	49.850
651.27	48.802
651.60	47.076
651.92	48.936
652.25	48.625
652.58	45.942
652.90	48.110
653.23	48.028
653.56	48.787
653.88	49.298
654.21	47.887
654.54	49.566
654.86	48.300
655.19	43.664
655.52	41.101
655.84	34.243
656.17	39.690
656.49	55.199
656.82	60.278
657.15	47.318
657.47	35.671
657.80	26.735
658.13	20.617
658.45	27.740
658.78	34.030
659.10	33.489
659.43	34.590
659.75	35.752
660.08	35.294
660.41	37.386
660.73	40.479
661.06	43.319
661.38	46.730
661.71	47.414
662.03	47.266
662.36	47.943
662.68	47.842
663.01	48.319
663.33	48.582
663.66	51.282
663.98	48.269
664.31	49.719
664.63	49.904
664.96	48.276
665.28	46.642
665.61	47.028
665.93	46.786
666.26	46.595
666.58	45.572
666.91	48.037
667.23	47.619
667.56	49.310
667.88	52.800
668.21	46.289
668.53	48.649
668.86	49.116
669.18	48.065
669.50	48.708
669.83	45.800
670.15	46.260
670.48	47.619
670.80	45.507
671.13	45.936
671.45	46.457
671.77	48.211
672.10	45.333
672.42	43.042
672.75	42.396
673.07	43.881
673.39	42.065
673.72	44.966
674.04	44.828
674.37	46.154
674.69	46.384
675.01	44.571
675.34	43.511
675.66	44.757
675.98	46.269
676.31	44.141
676.63	46.388
676.95	46.935
677.28	45.565
677.60	43.701
677.92	45.298
678.25	46.801
678.57	43.060
678.89	41.638
679.22	40.592
679.54	41.368
679.86	43.559
680.18	39.801
680.51	41.981
680.83	42.390
681.15	44.310
681.48	41.105
681.80	41.451
682.12	42.308
682.44	40.735
682.77	42.376
683.09	44.129
683.41	44.767
683.73	42.505
684.06	43.173
684.38	40.429
684.70	43.806
685.02	43.201
685.34	40.433
685.67	41.798
685.99	38.650
686.31	35.029
686.63	39.021
686.96	38.801
687.28	40.065
687.60	39.562
687.92	37.781
688.24	39.232
688.56	39.828
688.89	40.653
689.21	43.249
689.53	41.569
689.85	41.420
690.17	39.630
690.49	42.032
690.82	39.010
691.14	40.081
691.46	41.491
691.78	40.884
692.10	39.817
692.42	38.214
692.74	39.201
693.06	38.704
693.39	39.848
693.71	40.789
694.03	41.078
694.35	38.286
694.67	40.862
694.99	38.298
695.31	38.631
695.63	42.208
695.95	39.752
696.27	36.044
696.59	40.708
696.91	42.342
697.23	43.516
697.56	38.086
697.88	38.068
698.20	40.113
698.52	39.583
698.84	41.372
699.16	41.633
699.48	38.494
699.80	41.915
700.12	41.048
700.44	41.014
700.76	38.242
701.08	38.741
701.40	40.933
701.72	42.786
702.04	43.048
702.36	39.791
702.68	38.631
703.00	42.787
703.32	35.961
703.64	40.831
703.96	42.482
704.28	36.118
704.60	40.759
704.91	39.031
705.23	46.301
705.55	41.783
705.87	38.182
706.19	43.252
706.51	37.952
706.83	42.363
707.15	37.566
707.47	34.346
707.79	36.463
708.11	33.898
708.43	36.129
708.74	34.152
709.06	36.195
709.38	36.854
709.70	37.965
710.02	38.760
710.34	40.957
710.66	37.709
710.98	39.344
711.29	35.989
711.61	42.655
711.93	41.880
712.25	37.297
712.57	43.363
712.89	41.176
713.20	33.728
713.52	36.127
713.84	39.554
714.16	40.263
714.48	35.825
714.80	40.519
715.11	37.533
715.43	39.523
715.75	37.895
716.07	38.122
716.39	39.617
716.70	38.855
717.02	38.361
717.34	39.373
717.66	40.604
717.97	34.932
718.29	36.426
718.61	37.829
718.93	41.100
719.24	35.714
719.56	35.583
719.88	36.036
720.20	37.419
720.51	40.062
720.83	35.625
721.15	38.158
721.46	35.959
721.78	37.667
722.10	34.951
722.42	31.544
722.73	35.161
723.05	38.246
723.37	36.806
723.68	40.502
724.00	39.350
724.32	35.915
724.63	36.014
724.95	41.135
725.27	35.192
725.58	33.922
725.90	38.621
726.22	36.364
726.53	37.662
726.85	40.881
727.16	34.441
727.48	32.416
727.80	36.093
728.11	37.456
728.43	34.343
728.74	35.786
729.06	36.093
729.38	36.039
729.69	36.242
730.01	30.655
730.32	31.818
730.64	31.761
730.96	32.919
731.27	32.402
731.59	33.516
731.90	31.948
732.22	32.292
732.53	28.729
732.85	34.000
733.16	30.205
733.48	28.963
733.80	33.426
734.11	34.188
734.43	34.324
734.74	34.937
735.06	28.894
735.37	33.514
735.69	28.919
736.00	32.486
736.32	30.458
736.63	31.667
736.95	31.609
737.26	34.242
737.58	27.273
737.89	32.353
738.21	32.416
738.52	28.525
738.83	35.836
739.15	36.170
739.46	37.755
739.78	31.288
740.09	29.513
740.41	33.819
740.72	31.667
741.04	34.304
741.35	31.579
741.66	32.549
741.98	35.656
742.29	34.728
742.61	36.404
742.92	31.923
743.23	35.018
743.55	36.822
743.86	35.200
744.18	30.579
744.49	34.177
744.80	34.979
745.12	34.599
745.43	34.553
745.74	31.897
746.06	33.475
746.37	37.553
746.68	35.772
747.00	35.417
747.31	37.768
747.62	37.692
747.94	25.101
748.25	30.924
748.56	30.204
748.88	32.906
749.19	38.362
749.50	32.468
749.82	37.751
750.13	31.317
750.44	29.667
750.75	30.154
751.07	29.231
751.38	28.076
751.69	30.032
752.01	33.657
752.32	28.431
752.63	31.293
752.94	30.796
753.26	27.881
753.57	27.778
753.88	29.588
754.19	29.582
754.51	33.441
754.82	33.441
755.13	30.164
755.44	26.962
755.75	29.605
756.07	33.731
756.38	28.616
756.69	31.325
757.00	26.870
757.31	27.596
757.63	29.668
757.94	24.413
758.25	27.991
758.56	27.015
758.87	28.182
759.18	28.267
759.50	30.312
759.81	28.011
760.12	29.919
760.43	26.042
760.74	28.079
761.05	27.500
761.36	26.747
761.67	26.142
761.99	27.297
762.30	31.098
762.61	30.033
762.92	30.597
763.23	28.464
763.54	29.137
763.85	28.522
764.16	27.946
764.47	29.225
764.78	29.712
765.10	23.754
765.41	30.000
765.72	24.339
766.03	27.401
766.34	26.646
766.65	28.920
766.96	32.271
767.27	32.258
767.58	33.831
767.89	32.692
768.20	31.455
768.51	31.481
768.82	30.120
769.13	25.379
769.44	24.231
769.75	31.047
770.06	26.923
770.37	30.709
770.68	29.362
770.99	21.053
771.30	28.519
771.61	28.897
771.92	25.556
772.23	29.555
772.54	27.778
772.85	35.023
773.16	34.762
773.47	26.984
773.78	26.486
774.09	32.955
774.39	33.000
774.70	32.240
775.01	29.878
775.32	23.529
775.63	28.834
775.94	22.293
776.25	32.903
776.56	28.205
776.87	38.095
777.18	28.966
777.48	27.972
777.79	33.108
778.10	28.676
778.41	27.083
778.72	42.069
779.03	25.926
779.34	25.455
779.65	28.497
779.95	32.222
780.26	28.409
780.57	34.839
780.88	39.855
781.19	30.323
781.50	32.353
781.80	26.882
782.11	25.397
782.42	22.222
782.73	27.545
783.04	20.670
783.34	20.606
783.65	21.569
783.96	24.224
784.27	22.024
784.57	21.854
784.88	26.429
785.19	27.559
785.50	26.772
785.81	33.835
786.11	33.846
786.42	23.022
786.73	23.741
787.04	29.323
787.34	23.770
787.65	27.200
787.96	26.119
788.26	34.266
788.57	31.469
788.88	21.053
789.19	27.451
789.49	31.507
789.80	26.950
790.11	28.346
790.41	27.344
790.72	21.186
791.03	19.417
791.33	24.348
791.64	35.965
791.95	26.786
792.25	36.190
792.56	30.357
792.87	32.292
793.17	22.321
793.48	32.292
793.79	10.843
794.09	24.771
794.40	16.514
794.70	33.333
795.01	14.286
795.32	26.027
795.62	24.648
795.93	18.182
796.23	23.770
796.54	23.214
796.85	26.596
797.15	25.000
797.46	20.548
797.76	16.250
798.07	18.478
798.37	10.309
798.68	9.091
798.99	19.540
799.29	31.461
799.60	23.404
799.90	22.892
800.21	23.077
800.51	20.896
800.82	23.529
801.12	17.808
801.43	17.647
801.73	23.729
802.04	37.879
802.34	16.667
802.65	22.034
802.95	23.881
803.26	35.593
803.56	28.767
803.87	22.857
804.17	31.507
804.48	10.526
804.78	19.444
805.09	22.414
805.39	21.622
805.70	5.634
806.00	26.829
806.30	20.482
806.61	16.438
806.91	15.385
807.22	14.444
807.52	16.092
807.83	29.167
808.13	22.892
808.43	24.719
808.74	16.250
809.04	7.353
809.35	28.000
809.65	17.143
809.95	34.247
810.26	-1.754
810.56	15.517
810.86	25.000
811.17	35.088
811.47	1.639
811.77	24.444
812.08	15.254
812.38	43.333
812.69	31.034
812.99	20.755
813.29	2.564
813.59	20.000
813.90	19.298
814.20	12.727
814.50	22.535
814.81	25.641
815.11	37.705
815.41	16.418
815.72	25.862
816.02	14.286
816.32	40.000
816.62	38.636
816.93	22.222
817.23	20.370
817.53	25.532
817.84	47.619
818.14	11.765
818.44	34.694
818.74	37.778
819.04	10.256
819.35	5.714
819.65	3.846
819.95	20.755
820.25	31.111
820.56	7.143
820.86	28.125
821.16	7.692
821.46	32.558
821.76	18.000
822.07	16.071
822.37	0.000
822.67	17.021
822.97	-18.919
823.27	15.000
823.57	34.694
823.88	31.111
824.18	22.500
824.48	46.667
824.78	-4.000
825.08	33.333
825.38	35.556
825.69	23.404
825.99	33.333
826.29	-5.714
826.59	15.385
826.89	-13.953
827.19	18.000
827.49	47.059
827.79	27.083
828.09	-2.703
828.39	-16.667
828.70	9.756
829.00	11.628
829.30	14.286
829.60	26.471
829.90	26.087
830.20	5.714
830.50	37.931
830.80	33.333
831.10	34.615
831.40	29.412
831.70	28.571
832.00	16.129
832.30	-58.824
832.60	-20.833
832.90	-23.077
833.20	-26.316
833.50	-20.000
833.80	21.053
834.10	-52.381
834.40	33.333
834.70	53.125
835.00	-14.286
835.30	32.353
835.60	-23.333
835.90	16.000
836.20	-27.273
836.50	32.000
836.80	-9.091
837.10	22.222
837.40	18.519
837.70	-12.500
838.00	14.286
838.30	39.130
838.60	10.345
838.90	-14.286
839.19	-39.130
839.49	-108.333
839.79	-4.348
840.09	-56.250
840.39	20.000
840.69	22.581
840.99	-28.571
841.29	-100.000
841.59	15.789
841.88	53.846
842.18	34.615
842.48	-40.000
842.78	35.000
843.08	23.333
843.38	45.161
843.68	-33.333
843.97	29.412
844.27	0.000
844.57	-5.263
844.87	-50.000
845.17	0.000
845.47	61.905
845.76	-14.286
846.06	22.222
846.36	47.059
846.66	30.769
846.96	-33.333
847.25	-35.294
847.55	43.478
847.85	35.000
848.15	5.882
848.44	-18.182
848.74	-19.048
849.04	8.333
849.34	-12.500
849.63	21.739
849.93	450.000
850.23	0.000
850.53	50.000
850.82	18.182
851.12	45.455
851.42	-54.545
851.71	46.154
852.01	-15.000
852.31	-69.231
852.61	63.158
852.90	58.333
853.20	38.889
853.50	-55.556
853.79	-4.762
854.09	22.727
854.39	-91.667
854.68	3.226
854.98	3.846
855.28	-33.333
855.57	0.000
855.87	-16.000
856.17	31.818
856.46	29.630
856.76	-16.667
857.05	0.000
857.35	20.833
857.65	7.692
857.94	61.905
858.24	55.556
858.53	17.391
858.83	23.529
859.13	-11.765
859.42	17.647
859.72	64.286
860.01	30.000
860.31	-100.000
860.60	-40.000
860.90	-13.333
861.20	16.667
861.49	-46.154
861.79	36.667
862.08	23.077
862.38	56.250
862.67	94.118
862.97	-25.000
863.26	-55.556
863.56	-50.000
863.85	-100.000
864.15	5.556
864.44	-333.333
864.74	14.286
865.03	0.000
865.33	-70.000
865.62	3.226
865.92	31.818
866.21	21.739
866.51	-21.429
866.80	-220.000
867.10	-133.333
867.39	-50.000
867.69	900.000
867.98	28.571
868.27	35.294
868.57	-1900.000
868.86	-70.000
869.16	4.762
869.45	12.500
869.75	9.091
870.04	57.143
870.33	-66.667
870.63	-200.000
870.92	100.000
871.22	-100.000
871.51	-72.727
871.80	-433.333
872.10	-400.000
>>>>>End Processed Spectral Data<<<<<
