SpectraSuite Data File
++++++++++++++++++++++++++++++++++++
Date: Thu May 14 15:50:26 PDT 2015
User: schluterlab
Dark Spectrum Present: Yes
Reference Spectrum Present: Yes
Number of Sampled Component Spectra: 1
Spectrometers: USB2E3373
Integration Time (usec): 3000 (USB2E3373)
Spectra Averaged: 3 (USB2E3373)
Boxcar Smoothing: 0 (USB2E3373)
Correct for Electrical Dark: No (USB2E3373)
Strobe/Lamp Enabled: No (USB2E3373)
Correct for Detector Non-linearity: No (USB2E3373)
Correct for Stray Light: No (USB2E3373)
Number of Pixels in Processed Spectrum: 2048
>>>>>Begin Processed Spectral Data<<<<<
178.53	0.000
178.91	628.571
179.29	-5300.000
179.67	-4700.000
180.04	442.857
180.42	400.000
180.80	820.000
181.18	-4500.000
181.56	-4200.000
181.94	1225.000
182.31	-1000.000
182.69	1300.000
183.07	-2200.000
183.45	1175.000
183.83	-600.000
184.20	-1333.333
184.58	3500.000
184.96	-1325.000
185.34	-455.556
185.72	-640.000
186.09	555.556
186.47	2250.000
186.85	940.000
187.23	-422.222
187.61	-4500.000
187.98	840.000
188.36	975.000
188.74	-1050.000
189.12	-1133.333
189.49	-218.750
189.87	-625.000
190.25	-477.778
190.63	-920.000
191.00	-522.222
191.38	0.000
191.76	-1150.000
192.14	-666.667
192.51	1950.000
192.89	-516.667
193.27	0.000
193.65	-585.714
194.02	-4200.000
194.40	-671.429
194.78	728.571
195.15	0.000
195.53	-245.455
195.91	0.000
196.29	-800.000
196.66	-292.308
197.04	-4700.000
197.42	-700.000
197.79	-2100.000
198.17	-475.000
198.55	-585.714
198.92	-344.444
199.30	-475.000
199.68	-345.455
200.05	-235.714
200.43	-2350.000
200.81	785.714
201.18	0.000
201.56	611.111
201.94	0.000
202.31	1600.000
202.69	-500.000
203.07	3800.000
203.44	-411.111
203.82	-1250.000
204.19	-425.000
204.57	-766.667
204.95	-575.000
205.32	-4400.000
205.70	1175.000
206.08	-700.000
206.45	-650.000
206.83	940.000
207.20	-650.000
207.58	-840.000
207.96	-666.667
208.33	-666.667
208.71	383.333
209.08	-600.000
209.46	0.000
209.84	833.333
210.21	2250.000
210.59	2050.000
210.96	1633.333
211.34	-1100.000
211.71	-575.000
212.09	-4900.000
212.46	0.000
212.84	2600.000
213.22	-900.000
213.59	-1025.000
213.97	-310.000
214.34	-1566.667
214.72	800.000
215.09	-1175.000
215.47	0.000
215.84	628.571
216.22	2000.000
216.59	-700.000
216.97	-760.000
217.34	-1125.000
217.72	-537.500
218.09	-950.000
218.47	-1200.000
218.84	0.000
219.22	820.000
219.59	-223.529
219.97	-175.000
220.34	2600.000
220.72	-577.778
221.09	-207.692
221.47	-1233.333
221.84	-390.000
222.22	-571.429
222.59	0.000
222.97	-500.000
223.34	-940.000
223.72	-5200.000
224.09	-1075.000
224.46	-1025.000
224.84	-760.000
225.21	-542.857
225.59	-975.000
225.96	-1200.000
226.34	-123.077
226.71	800.000
227.08	-1900.000
227.46	-233.333
227.83	-1000.000
228.21	-210.526
228.58	550.000
228.95	2250.000
229.33	-233.333
229.70	-480.000
230.08	-178.947
230.45	520.000
230.82	-1533.333
231.20	-328.571
231.57	-333.333
231.95	-400.000
232.32	-327.273
232.69	-170.000
233.07	-1250.000
233.44	-264.706
233.81	-430.000
234.19	-188.889
234.56	-172.727
234.93	-89.655
235.31	-194.737
235.68	-205.556
236.05	-205.000
236.43	-92.308
236.80	-116.000
237.17	-129.630
237.55	-112.121
237.92	-460.000
238.29	-93.548
238.67	-72.727
239.04	-100.000
239.41	-66.667
239.79	-69.565
240.16	-48.148
240.53	-47.826
240.91	-58.824
241.28	-37.705
241.65	-16.418
242.02	-17.568
242.40	-61.538
242.77	-22.667
243.14	-28.049
243.51	-44.737
243.89	-47.436
244.26	-16.832
244.63	-8.824
245.00	-14.953
245.38	-15.789
245.75	-19.469
246.12	-7.143
246.49	-8.527
246.87	-0.714
247.24	2.649
247.61	-0.658
247.98	1.342
248.36	4.321
248.73	3.681
249.10	-1.093
249.47	9.950
249.84	8.377
250.22	8.808
250.59	8.333
250.96	5.000
251.33	5.612
251.70	2.991
252.08	10.833
252.45	12.705
252.82	10.331
253.19	10.156
253.56	11.407
253.94	6.538
254.31	12.500
254.68	11.888
255.05	13.355
255.42	8.844
255.79	13.269
256.16	11.589
256.54	10.927
256.91	11.475
257.28	12.787
257.65	9.873
258.02	11.209
258.39	12.536
258.76	17.737
259.14	16.667
259.51	16.138
259.88	10.765
260.25	13.056
260.62	16.712
260.99	16.940
261.36	15.550
261.73	15.650
262.10	18.407
262.47	13.673
262.85	18.939
263.22	11.948
263.59	14.474
263.96	17.903
264.33	15.857
264.70	18.272
265.07	19.570
265.44	18.821
265.81	15.741
266.18	21.088
266.55	18.750
266.92	19.362
267.29	19.037
267.66	17.073
268.03	18.559
268.40	16.701
268.77	15.034
269.14	16.300
269.51	15.351
269.88	20.492
270.25	17.304
270.62	18.987
270.99	18.788
271.36	19.208
271.73	15.521
272.10	19.038
272.47	16.433
272.84	18.072
273.21	19.038
273.58	19.355
273.95	16.346
274.32	16.920
274.69	16.248
275.06	18.315
275.43	16.636
275.80	18.871
276.17	18.519
276.54	18.097
276.91	16.995
277.28	19.892
277.65	18.312
278.02	17.647
278.39	15.761
278.76	16.344
279.13	19.504
279.50	17.354
279.87	18.426
280.23	13.732
280.60	18.644
280.97	16.941
281.34	18.166
281.71	19.120
282.08	17.110
282.45	17.021
282.82	18.210
283.19	16.640
283.56	16.721
283.92	18.318
284.29	20.537
284.66	18.062
285.03	16.346
285.40	18.238
285.77	18.266
286.14	19.237
286.51	18.265
286.87	17.220
287.24	19.127
287.61	19.581
287.98	16.767
288.35	18.195
288.72	15.385
289.08	18.302
289.45	15.680
289.82	16.114
290.19	18.103
290.56	16.761
290.93	16.833
291.29	15.840
291.66	16.942
292.03	17.096
292.40	16.871
292.77	15.633
293.13	15.562
293.50	15.637
293.87	16.107
294.24	17.200
294.60	15.803
294.97	14.899
295.34	16.005
295.71	15.259
296.08	14.212
296.44	15.196
296.81	13.642
297.18	14.570
297.55	15.566
297.91	16.014
298.28	14.218
298.65	15.339
299.02	15.230
299.38	14.645
299.75	14.369
300.12	13.542
300.48	14.516
300.85	15.186
301.22	14.989
301.59	13.470
301.95	14.124
302.32	14.000
302.69	14.677
303.05	14.472
303.42	13.969
303.79	14.896
304.15	15.037
304.52	13.636
304.89	14.555
305.25	14.803
305.62	12.226
305.99	15.258
306.35	14.516
306.72	14.995
307.09	14.416
307.45	15.217
307.82	13.623
308.19	14.329
308.55	14.947
308.92	14.995
309.29	14.368
309.65	13.743
310.02	13.960
310.38	13.386
310.75	14.175
311.12	14.765
311.48	14.663
311.85	14.245
312.22	14.801
312.58	14.742
312.95	15.201
313.31	14.634
313.68	14.286
314.05	16.170
314.41	15.756
314.78	15.441
315.14	14.882
315.51	15.974
315.87	16.562
316.24	16.164
316.61	15.631
316.97	14.932
317.34	15.256
317.70	16.943
318.07	15.432
318.43	17.007
318.80	16.304
319.16	16.052
319.53	15.253
319.89	15.074
320.26	16.192
320.62	16.312
320.99	16.620
321.35	16.821
321.72	17.023
322.08	16.321
322.45	17.796
322.81	18.592
323.18	18.407
323.54	18.017
323.91	18.238
324.27	17.556
324.64	19.479
325.00	18.574
325.37	19.492
325.73	18.595
326.10	18.573
326.46	20.440
326.83	19.376
327.19	20.079
327.56	20.316
327.92	19.906
328.29	20.323
328.65	18.425
329.01	18.782
329.38	20.219
329.74	21.490
330.11	20.462
330.47	21.314
330.84	19.294
331.20	21.000
331.56	20.711
331.93	20.335
332.29	20.424
332.66	21.013
333.02	21.441
333.38	20.386
333.75	21.212
334.11	21.852
334.48	21.452
334.84	21.920
335.20	20.739
335.57	21.164
335.93	21.488
336.29	19.967
336.66	20.101
337.02	21.154
337.38	21.344
337.75	21.488
338.11	21.615
338.47	20.347
338.84	20.135
339.20	20.725
339.56	20.346
339.93	20.608
340.29	19.565
340.65	20.276
341.02	21.628
341.38	21.099
341.74	19.290
342.11	21.561
342.47	20.413
342.83	21.739
343.20	21.586
343.56	21.010
343.92	19.616
344.28	21.016
344.65	21.473
345.01	21.061
345.37	20.762
345.73	20.889
346.10	21.919
346.46	21.044
346.82	21.273
347.19	21.543
347.55	21.320
347.91	20.505
348.27	21.168
348.63	21.097
349.00	21.253
349.36	21.487
349.72	21.057
350.08	22.511
350.45	21.749
350.81	20.814
351.17	21.053
351.53	20.546
351.89	21.185
352.26	20.597
352.62	20.970
352.98	20.916
353.34	20.762
353.70	21.803
354.07	20.417
354.43	21.564
354.79	21.391
355.15	21.045
355.51	21.637
355.87	19.820
356.24	21.065
356.60	20.769
356.96	21.127
357.32	21.041
357.68	19.985
358.04	21.557
358.40	20.597
358.77	21.418
359.13	20.384
359.49	20.149
359.85	20.522
360.21	20.732
360.57	20.459
360.93	21.016
361.29	21.544
361.66	20.927
362.02	21.294
362.38	20.520
362.74	20.182
363.10	22.146
363.46	20.845
363.82	21.307
364.18	21.112
364.54	21.646
364.90	22.207
365.26	21.379
365.62	22.267
365.98	22.192
366.35	20.805
366.71	21.429
367.07	20.907
367.43	20.814
367.79	22.097
368.15	22.542
368.51	22.598
368.87	21.620
369.23	21.800
369.59	21.926
369.95	21.974
370.31	22.890
370.67	22.077
371.03	21.884
371.39	21.357
371.75	21.733
372.11	21.545
372.47	21.869
372.83	21.401
373.19	22.348
373.55	22.493
373.91	20.995
374.27	21.863
374.63	23.207
374.99	22.480
375.35	21.753
375.71	21.677
376.07	23.757
376.42	22.166
376.78	22.498
377.14	23.082
377.50	22.328
377.86	23.153
378.22	22.515
378.58	22.949
378.94	23.239
379.30	22.671
379.66	22.810
380.02	23.947
380.38	24.366
380.74	24.000
381.09	23.926
381.45	24.034
381.81	25.117
382.17	24.109
382.53	23.743
382.89	23.533
383.25	24.443
383.61	23.148
383.97	24.323
384.32	24.940
384.68	23.782
385.04	24.986
385.40	24.926
385.76	25.440
386.12	24.835
386.48	24.765
386.83	26.162
387.19	24.739
387.55	25.704
387.91	25.114
388.27	25.693
388.62	24.914
388.98	24.704
389.34	25.928
389.70	25.741
390.06	25.340
390.42	25.301
390.77	26.189
391.13	25.880
391.49	26.268
391.85	25.152
392.20	25.504
392.56	26.934
392.92	26.445
393.28	27.197
393.64	26.983
393.99	27.484
394.35	27.453
394.71	27.605
395.07	25.928
395.42	26.785
395.78	28.336
396.14	27.629
396.50	27.257
396.85	27.191
397.21	27.574
397.57	27.150
397.92	28.179
398.28	28.246
398.64	28.318
399.00	27.539
399.35	28.429
399.71	28.261
400.07	29.646
400.42	29.278
400.78	29.051
401.14	29.027
401.49	29.392
401.85	30.174
402.21	30.359
402.57	30.282
402.92	28.901
403.28	29.215
403.63	29.117
403.99	29.691
404.35	29.051
404.70	29.518
405.06	30.435
405.42	29.977
405.77	30.752
406.13	31.442
406.49	31.475
406.84	30.416
407.20	30.799
407.55	31.254
407.91	31.741
408.27	29.682
408.62	31.995
408.98	31.283
409.34	30.323
409.69	31.706
410.05	32.356
410.40	32.425
410.76	32.305
411.11	32.437
411.47	33.170
411.83	34.098
412.18	34.759
412.54	33.373
412.89	33.178
413.25	33.747
413.60	33.946
413.96	33.858
414.31	33.031
414.67	33.154
415.03	32.923
415.38	34.426
415.74	33.965
416.09	34.855
416.45	34.627
416.80	34.639
417.16	34.036
417.51	34.558
417.87	35.377
418.22	34.790
418.58	35.502
418.93	34.400
419.29	35.080
419.64	35.174
420.00	35.015
420.35	35.879
420.71	35.439
421.06	34.905
421.42	36.583
421.77	35.110
422.12	36.469
422.48	35.893
422.83	36.911
423.19	36.976
423.54	37.500
423.90	36.720
424.25	37.813
424.61	36.854
424.96	37.068
425.31	36.837
425.67	37.252
426.02	38.185
426.38	38.232
426.73	38.002
427.09	37.889
427.44	36.483
427.79	38.640
428.15	37.671
428.50	37.640
428.85	37.773
429.21	39.043
429.56	37.710
429.92	38.280
430.27	38.024
430.62	39.863
430.98	39.252
431.33	38.905
431.68	38.697
432.04	39.766
432.39	39.636
432.74	38.356
433.10	40.184
433.45	37.960
433.80	39.700
434.16	39.153
434.51	40.442
434.86	41.477
435.22	41.020
435.57	41.568
435.92	39.455
436.28	40.273
436.63	40.852
436.98	39.291
437.34	40.586
437.69	40.451
438.04	40.137
438.39	40.494
438.75	40.564
439.10	41.702
439.45	41.140
439.81	40.734
440.16	40.858
440.51	41.304
440.86	40.467
441.22	41.265
441.57	41.195
441.92	41.562
442.27	41.465
442.63	41.629
442.98	41.676
443.33	41.189
443.68	42.220
444.03	42.615
444.39	41.794
444.74	42.113
445.09	41.004
445.44	42.466
445.79	41.954
446.15	42.703
446.50	41.344
446.85	42.899
447.20	42.263
447.55	42.626
447.91	41.728
448.26	43.023
448.61	42.030
448.96	43.294
449.31	42.948
449.66	42.211
450.02	42.036
450.37	42.941
450.72	43.541
451.07	42.882
451.42	42.288
451.77	43.580
452.12	42.607
452.47	41.592
452.83	44.144
453.18	41.973
453.53	42.389
453.88	42.628
454.23	43.333
454.58	44.225
454.93	43.265
455.28	43.347
455.63	42.865
455.98	42.626
456.34	41.991
456.69	41.917
457.04	43.440
457.39	43.182
457.74	43.400
458.09	43.602
458.44	42.026
458.79	42.651
459.14	43.681
459.49	43.916
459.84	43.704
460.19	42.921
460.54	43.782
460.89	42.827
461.24	41.609
461.59	43.442
461.94	42.841
462.29	44.905
462.64	43.271
462.99	43.252
463.34	42.440
463.69	42.732
464.04	42.857
464.39	43.498
464.74	42.873
465.09	42.676
465.44	43.026
465.79	42.940
466.14	42.262
466.49	43.211
466.84	43.912
467.19	43.931
467.54	42.421
467.89	41.724
468.24	43.213
468.59	42.328
468.94	43.531
469.29	43.611
469.64	43.420
469.99	43.467
470.34	43.936
470.68	43.062
471.03	43.680
471.38	42.838
471.73	43.368
472.08	44.099
472.43	42.685
472.78	43.451
473.13	44.437
473.48	42.840
473.83	43.297
474.17	42.614
474.52	44.859
474.87	43.189
475.22	44.056
475.57	43.510
475.92	44.052
476.27	43.930
476.61	44.133
476.96	43.639
477.31	44.455
477.66	45.226
478.01	45.196
478.36	43.420
478.70	43.744
479.05	42.638
479.40	44.423
479.75	44.092
480.10	45.334
480.45	44.257
480.79	43.129
481.14	43.612
481.49	44.343
481.84	44.560
482.19	44.301
482.53	44.644
482.88	44.174
483.23	45.131
483.58	44.017
483.92	44.326
484.27	44.666
484.62	43.193
484.97	44.479
485.31	43.611
485.66	41.102
486.01	40.942
486.36	42.676
486.70	44.878
487.05	46.811
487.40	45.948
487.75	45.980
488.09	46.210
488.44	43.896
488.79	44.924
489.13	44.533
489.48	43.534
489.83	43.501
490.17	43.742
490.52	44.171
490.87	44.670
491.22	44.367
491.56	43.857
491.91	44.222
492.26	43.747
492.60	44.906
492.95	44.054
493.30	44.106
493.64	44.109
493.99	43.860
494.34	44.556
494.68	43.940
495.03	44.758
495.37	44.696
495.72	44.490
496.07	45.092
496.41	44.402
496.76	44.037
497.11	45.180
497.45	44.713
497.80	44.647
498.14	45.125
498.49	44.577
498.84	44.835
499.18	43.635
499.53	44.215
499.87	44.264
500.22	44.078
500.56	44.894
500.91	44.531
501.26	44.773
501.60	44.233
501.95	45.549
502.29	44.230
502.64	45.300
502.98	43.486
503.33	44.276
503.67	43.785
504.02	44.133
504.36	46.828
504.71	44.878
505.06	45.566
505.40	45.430
505.75	44.991
506.09	45.626
506.44	45.636
506.78	45.367
507.13	44.859
507.47	45.334
507.82	45.644
508.16	45.507
508.51	44.679
508.85	46.009
509.19	45.239
509.54	46.254
509.88	45.459
510.23	46.576
510.57	46.738
510.92	45.670
511.26	46.368
511.61	45.582
511.95	45.290
512.30	46.381
512.64	46.177
512.98	46.573
513.33	47.026
513.67	45.997
514.02	46.040
514.36	47.059
514.70	47.500
515.05	46.455
515.39	46.982
515.74	47.932
516.08	46.223
516.42	47.462
516.77	48.265
517.11	47.035
517.46	47.137
517.80	48.049
518.14	47.878
518.49	47.560
518.83	47.738
519.17	47.119
519.52	47.694
519.86	47.730
520.20	48.136
520.55	48.193
520.89	49.043
521.23	48.465
521.58	49.379
521.92	48.839
522.26	47.824
522.61	48.843
522.95	47.809
523.29	48.908
523.64	48.318
523.98	50.143
524.32	51.003
524.66	49.118
525.01	49.434
525.35	49.397
525.69	48.376
526.04	48.737
526.38	49.080
526.72	49.193
527.06	48.856
527.41	49.679
527.75	50.416
528.09	49.174
528.43	49.734
528.78	49.480
529.12	49.369
529.46	49.859
529.80	50.057
530.15	49.507
530.49	50.000
530.83	49.882
531.17	51.732
531.51	49.759
531.86	50.781
532.20	50.244
532.54	47.995
532.88	49.333
533.22	49.735
533.57	49.279
533.91	50.056
534.25	51.159
534.59	50.690
534.93	50.141
535.27	49.465
535.62	49.915
535.96	50.726
536.30	49.589
536.64	49.790
536.98	50.677
537.32	51.049
537.66	51.279
538.01	49.486
538.35	49.756
538.69	50.120
539.03	50.153
539.37	48.704
539.71	49.610
540.05	51.079
540.39	48.839
540.73	50.091
541.07	50.153
541.42	48.966
541.76	49.941
542.10	49.638
542.44	49.208
542.78	49.818
543.12	50.119
543.46	49.756
543.80	49.520
544.14	50.389
544.48	50.118
544.82	50.150
545.16	50.089
545.50	50.629
545.84	49.051
546.18	51.358
546.52	49.873
546.86	49.371
547.20	49.364
547.54	49.938
547.88	49.548
548.22	49.357
548.56	48.508
548.90	49.254
549.24	48.693
549.58	48.707
549.92	49.426
550.26	49.579
550.60	48.373
550.94	49.224
551.28	48.647
551.62	50.943
551.96	47.702
552.30	49.968
552.64	48.787
552.98	49.844
553.32	51.576
553.66	49.582
554.00	49.811
554.34	49.550
554.68	48.418
555.02	49.474
555.36	50.164
555.69	48.943
556.03	49.243
556.37	49.687
556.71	48.193
557.05	49.776
557.39	49.436
557.73	49.009
558.07	48.411
558.41	49.701
558.75	49.358
559.08	50.592
559.42	48.422
559.76	49.389
560.10	49.230
560.44	48.945
560.78	49.250
561.12	48.892
561.45	48.783
561.79	49.389
562.13	49.291
562.47	48.644
562.81	49.620
563.15	47.538
563.48	48.229
563.82	47.400
564.16	47.850
564.50	47.974
564.84	46.608
565.17	48.529
565.51	47.066
565.85	48.100
566.19	46.717
566.52	48.508
566.86	48.274
567.20	46.601
567.54	46.150
567.88	48.165
568.21	47.628
568.55	46.715
568.89	46.981
569.23	46.684
569.56	45.995
569.90	45.830
570.24	46.239
570.57	46.183
570.91	46.020
571.25	45.299
571.59	46.591
571.92	45.069
572.26	45.659
572.60	45.700
572.93	45.644
573.27	45.322
573.61	44.918
573.95	45.132
574.28	45.036
574.62	44.839
574.96	44.729
575.29	44.900
575.63	44.953
575.97	45.054
576.30	44.412
576.64	44.476
576.98	43.964
577.31	44.196
577.65	44.593
577.98	44.032
578.32	43.979
578.66	44.176
578.99	44.174
579.33	45.109
579.67	44.900
580.00	44.482
580.34	43.957
580.67	43.601
581.01	44.029
581.35	43.503
581.68	43.443
582.02	43.436
582.35	43.834
582.69	44.372
583.02	44.646
583.36	44.280
583.70	44.422
584.03	43.988
584.37	44.680
584.70	43.765
585.04	43.781
585.37	43.615
585.71	43.193
586.04	43.373
586.38	43.965
586.72	43.194
587.05	43.489
587.39	43.904
587.72	44.043
588.06	43.569
588.39	43.888
588.73	43.360
589.06	44.300
589.40	44.007
589.73	43.959
590.07	43.435
590.40	44.084
590.73	43.231
591.07	44.676
591.40	43.351
591.74	43.720
592.07	43.443
592.41	43.336
592.74	43.237
593.08	43.694
593.41	43.890
593.75	43.247
594.08	44.047
594.41	43.237
594.75	43.275
595.08	43.674
595.42	44.026
595.75	42.590
596.09	43.748
596.42	43.246
596.75	43.883
597.09	44.283
597.42	43.306
597.75	42.807
598.09	42.857
598.42	43.426
598.76	42.377
599.09	42.328
599.42	42.239
599.76	42.753
600.09	43.277
600.42	42.876
600.76	43.197
601.09	42.615
601.42	42.087
601.76	43.172
602.09	42.459
602.42	42.203
602.76	42.140
603.09	42.878
603.42	42.160
603.76	41.579
604.09	41.980
604.42	42.385
604.76	41.819
605.09	42.361
605.42	42.823
605.75	41.385
606.09	41.620
606.42	41.189
606.75	41.867
607.09	41.513
607.42	41.618
607.75	41.540
608.08	41.752
608.42	41.032
608.75	42.330
609.08	40.662
609.41	41.200
609.75	42.232
610.08	43.404
610.41	41.121
610.74	41.429
611.07	41.918
611.41	41.839
611.74	42.032
612.07	41.889
612.40	42.776
612.73	41.858
613.07	42.543
613.40	41.193
613.73	41.598
614.06	41.757
614.39	40.185
614.72	40.563
615.06	41.049
615.39	41.228
615.72	41.896
616.05	41.039
616.38	42.634
616.71	42.268
617.05	41.267
617.38	41.520
617.71	40.335
618.04	41.932
618.37	41.803
618.70	41.742
619.03	41.219
619.36	41.862
619.69	41.832
620.03	42.185
620.36	41.227
620.69	41.456
621.02	42.651
621.35	43.614
621.68	42.444
622.01	41.210
622.34	41.353
622.67	41.443
623.00	40.013
623.33	41.473
623.66	40.661
623.99	41.080
624.32	42.560
624.65	41.892
624.99	41.938
625.32	42.195
625.65	42.144
625.98	40.000
626.31	41.035
626.64	41.465
626.97	40.885
627.30	42.293
627.63	42.611
627.96	41.742
628.29	40.778
628.62	40.722
628.95	41.981
629.28	40.357
629.61	40.488
629.94	40.000
630.26	39.576
630.59	39.983
630.92	40.433
631.25	41.682
631.58	43.315
631.91	42.268
632.24	41.691
632.57	40.133
632.90	41.123
633.23	41.020
633.56	41.020
633.89	40.083
634.22	42.827
634.55	41.023
634.88	40.801
635.20	41.012
635.53	42.034
635.86	41.062
636.19	40.297
636.52	41.034
636.85	40.552
637.18	41.060
637.51	39.462
637.83	41.971
638.16	41.705
638.49	40.141
638.82	39.459
639.15	40.893
639.48	41.801
639.81	39.030
640.13	40.283
640.46	39.152
640.79	39.216
641.12	40.373
641.45	39.147
641.77	40.693
642.10	39.501
642.43	42.154
642.76	39.973
643.09	38.904
643.41	40.476
643.74	40.966
644.07	40.000
644.40	38.331
644.73	39.187
645.05	40.969
645.38	41.295
645.71	40.616
646.04	39.311
646.36	39.124
646.69	38.957
647.02	40.826
647.35	37.710
647.67	39.614
648.00	42.675
648.33	39.489
648.66	40.942
648.98	37.143
649.31	39.783
649.64	38.513
649.96	36.340
650.29	37.552
650.62	37.482
650.94	37.688
651.27	38.623
651.60	38.596
651.92	37.538
652.25	36.903
652.58	38.790
652.90	37.355
653.23	38.028
653.56	36.519
653.88	38.764
654.21	39.155
654.54	37.572
654.86	35.694
655.19	37.516
655.52	41.022
655.84	38.810
656.17	42.709
656.49	58.790
656.82	63.994
657.15	50.671
657.47	39.225
657.80	29.160
658.13	22.797
658.45	29.921
658.78	35.827
659.10	34.379
659.43	33.184
659.75	31.658
660.08	29.300
660.41	30.604
660.73	31.471
661.06	32.599
661.38	35.566
661.71	35.690
662.03	38.095
662.36	36.315
662.68	38.649
663.01	36.991
663.33	35.539
663.66	39.927
663.98	36.154
664.31	36.023
664.63	32.370
664.96	37.931
665.28	33.938
665.61	38.462
665.93	36.071
666.26	37.097
666.58	34.502
666.91	36.822
667.23	35.429
667.56	34.517
667.88	37.000
668.21	36.328
668.53	35.907
668.86	35.560
669.18	34.420
669.50	35.586
669.83	34.400
670.15	34.055
670.48	35.317
670.80	34.990
671.13	33.270
671.45	35.236
671.77	35.593
672.10	35.000
672.42	34.790
672.75	34.869
673.07	34.179
673.39	34.977
673.72	34.899
674.04	34.828
674.37	33.274
674.69	34.744
675.01	32.762
675.34	33.206
675.66	32.959
675.98	35.821
676.31	33.789
676.63	35.551
676.95	35.441
677.28	33.669
677.60	30.709
677.92	34.357
678.25	33.272
678.57	37.367
678.89	33.276
679.22	31.533
679.54	31.282
679.86	32.542
680.18	33.831
680.51	32.704
680.83	34.534
681.15	33.448
681.48	32.988
681.80	34.197
682.12	33.217
682.44	33.890
682.77	31.738
683.09	32.765
683.41	31.202
683.73	31.689
684.06	29.889
684.38	29.875
684.70	37.522
685.02	32.358
685.34	30.283
685.67	30.915
685.99	31.748
686.31	30.814
686.63	31.912
686.96	32.177
687.28	32.248
687.60	28.283
687.92	30.064
688.24	30.718
688.56	31.207
688.89	30.853
689.21	30.137
689.53	31.569
689.85	30.769
690.17	29.630
690.49	30.080
690.82	31.089
691.14	31.377
691.46	32.314
691.78	30.203
692.10	30.459
692.42	29.821
692.74	28.675
693.06	28.889
693.39	32.258
693.71	28.195
694.03	30.855
694.35	29.524
694.67	31.211
694.99	27.872
695.31	30.022
695.63	30.303
695.95	27.329
696.27	29.670
696.59	28.097
696.91	27.703
697.23	30.769
697.56	30.143
697.88	27.083
698.20	28.060
698.52	29.167
698.84	32.225
699.16	31.224
699.48	30.962
699.80	30.851
700.12	28.821
700.44	27.880
700.76	27.553
701.08	27.361
701.40	29.275
701.72	28.109
702.04	27.540
702.36	26.702
702.68	26.161
703.00	30.073
703.32	28.571
703.64	30.562
703.96	31.026
704.28	29.238
704.60	30.886
704.91	27.296
705.23	26.575
705.55	26.741
705.87	29.697
706.19	27.914
706.51	23.193
706.83	27.954
707.15	24.868
707.47	27.570
707.79	26.638
708.11	23.941
708.43	24.731
708.74	25.223
709.06	26.450
709.38	27.700
709.70	30.521
710.02	22.997
710.34	26.330
710.66	24.022
710.98	29.235
711.29	23.626
711.61	24.859
711.93	26.781
712.25	25.135
712.57	27.729
712.89	27.059
713.20	25.148
713.52	23.988
713.84	21.170
714.16	23.421
714.48	22.680
714.80	25.195
715.11	24.147
715.43	24.668
715.75	24.211
716.07	21.823
716.39	24.044
716.70	26.205
717.02	23.279
717.34	21.951
717.66	22.148
717.97	22.260
718.29	22.337
718.61	20.395
718.93	25.243
719.24	21.739
719.56	23.313
719.88	23.123
720.20	21.935
720.51	21.118
720.83	18.438
721.15	19.079
721.46	18.493
721.78	21.667
722.10	17.152
722.42	21.477
722.73	19.032
723.05	22.456
723.37	21.875
723.68	24.731
724.00	20.217
724.32	18.310
724.63	20.280
724.95	21.631
725.27	20.209
725.58	19.081
725.90	25.517
726.22	17.555
726.53	23.377
726.85	27.673
727.16	23.867
727.48	22.324
727.80	21.523
728.11	20.495
728.43	21.212
728.74	20.067
729.06	20.199
729.38	21.429
729.69	22.819
730.01	21.429
730.32	20.303
730.64	22.013
730.96	21.429
731.27	23.464
731.59	23.352
731.90	21.039
732.22	20.052
732.53	16.851
732.85	19.429
733.16	19.062
733.48	18.902
733.80	20.891
734.11	21.083
734.43	17.568
734.74	26.076
735.06	21.859
735.37	21.351
735.69	20.811
736.00	21.751
736.32	18.598
736.63	19.444
736.95	15.517
737.26	24.545
737.58	13.333
737.89	18.529
738.21	16.514
738.52	18.361
738.83	19.113
739.15	11.702
739.46	19.048
739.78	23.313
740.09	18.625
740.41	17.201
740.72	17.667
741.04	20.388
741.35	20.000
741.66	13.725
741.98	20.082
742.29	17.573
742.61	19.298
742.92	17.308
743.23	21.300
743.55	18.605
743.86	17.200
744.18	13.636
744.49	10.549
744.80	13.580
745.12	14.768
745.43	14.634
745.74	16.810
746.06	15.678
746.37	20.253
746.68	21.545
747.00	13.333
747.31	15.451
747.62	19.615
747.94	17.814
748.25	14.056
748.56	13.878
748.88	17.094
749.19	17.241
749.50	13.853
749.82	18.072
750.13	19.929
750.44	15.000
750.75	18.462
751.07	20.308
751.38	16.088
751.69	18.530
752.01	17.476
752.32	18.954
752.63	17.687
752.94	19.377
753.26	11.896
753.57	14.074
753.88	19.101
754.19	17.363
754.51	17.363
754.82	16.077
755.13	20.000
755.44	19.113
755.75	14.474
756.07	19.701
756.38	15.723
756.69	20.783
757.00	14.127
757.31	18.852
757.63	16.624
757.94	19.014
758.25	19.865
758.56	18.083
758.87	18.864
759.18	17.333
759.50	20.397
759.81	17.927
760.12	19.407
760.43	20.052
760.74	18.966
761.05	17.250
761.36	17.831
761.67	19.036
761.99	20.541
762.30	16.768
762.61	11.551
762.92	15.672
763.23	18.727
763.54	20.504
763.85	8.935
764.16	15.488
764.47	15.141
764.78	17.252
765.10	14.956
765.41	20.513
765.72	12.169
766.03	17.514
766.34	13.480
766.65	13.589
766.96	12.351
767.27	12.903
767.58	7.463
767.89	12.019
768.20	11.268
768.51	6.019
768.82	13.655
769.13	17.045
769.44	10.000
769.75	16.606
770.06	13.846
770.37	16.535
770.68	8.936
770.99	10.931
771.30	18.519
771.61	10.266
771.92	11.852
772.23	13.765
772.54	5.093
772.85	15.207
773.16	13.333
773.47	11.640
773.78	6.486
774.09	10.795
774.39	10.500
774.70	6.557
775.01	3.049
775.32	2.353
775.63	1.840
775.94	-1.274
776.25	3.871
776.56	9.615
776.87	8.844
777.18	0.690
777.48	5.594
777.79	1.351
778.10	-2.941
778.41	0.694
778.72	4.828
779.03	8.025
779.34	3.030
779.65	8.290
779.95	9.444
780.26	5.682
780.57	1.935
780.88	4.348
781.19	3.871
781.50	5.882
781.80	9.677
782.11	4.233
782.42	0.505
782.73	-1.796
783.04	7.263
783.34	0.000
783.65	-7.843
783.96	9.938
784.27	4.762
784.57	0.000
784.88	-1.429
785.19	-2.362
785.50	1.575
785.81	7.519
786.11	3.077
786.42	-5.036
786.73	-2.878
787.04	-1.504
787.34	-16.393
787.65	-2.400
787.96	-0.746
788.26	2.797
788.57	2.098
788.88	-0.658
789.19	3.922
789.49	2.740
789.80	-0.709
790.11	0.787
790.41	-0.781
790.72	-11.017
791.03	-18.447
791.33	0.870
791.64	-7.018
791.95	-10.714
792.25	-2.857
792.56	-3.571
792.87	-15.625
793.17	-9.821
793.48	-8.333
793.79	-37.349
794.09	-13.761
794.40	-12.844
794.70	2.041
795.01	-5.844
795.32	-6.849
795.62	-2.113
795.93	-6.061
796.23	-6.557
796.54	-18.750
796.85	-13.830
797.15	-21.739
797.46	-38.356
797.76	-17.500
798.07	-18.478
798.37	-21.649
798.68	-19.481
798.99	-18.391
799.29	-19.101
799.60	-18.085
799.90	-27.711
800.21	-40.000
800.51	-40.299
800.82	-47.059
801.12	-34.247
801.43	-54.412
801.73	-54.237
802.04	-31.818
802.34	-51.667
802.65	-50.847
802.95	-37.313
803.26	-33.898
803.56	-28.767
803.87	-37.143
804.17	-27.397
804.48	-70.175
804.78	-34.722
805.09	-63.793
805.39	-21.622
805.70	-42.254
806.00	-23.171
806.30	-27.711
806.61	-32.877
806.91	-13.462
807.22	-28.889
807.52	-39.080
807.83	-16.667
808.13	-26.506
808.43	-22.472
808.74	-16.250
809.04	-42.647
809.35	-42.667
809.65	-44.286
809.95	-34.247
810.26	-52.632
810.56	-55.172
810.86	-30.882
811.17	-49.123
811.47	-55.738
811.77	-86.667
812.08	-49.153
812.38	-38.333
812.69	-44.828
812.99	-60.377
813.29	-66.667
813.59	-54.000
813.90	-43.860
814.20	-54.545
814.50	-21.127
814.81	-20.513
815.11	-44.262
815.41	-50.746
815.72	-48.276
816.02	-44.643
816.32	-57.778
816.62	-65.909
816.93	-82.222
817.23	-29.630
817.53	-70.213
817.84	-59.524
818.14	-91.176
818.44	-59.184
818.74	-62.222
819.04	-105.128
819.35	-111.429
819.65	-153.846
819.95	-52.830
820.25	-77.778
820.56	-92.857
820.86	-128.125
821.16	-74.359
821.46	-60.465
821.76	-68.000
822.07	-30.357
822.37	-78.261
822.67	-63.830
822.97	-116.216
823.27	-87.500
823.57	-63.265
823.88	-57.778
824.18	-72.500
824.48	-110.000
824.78	-152.000
825.08	-75.758
825.38	-48.889
825.69	-59.574
825.99	-97.222
826.29	-108.571
826.59	-92.308
826.89	-88.372
827.19	-58.000
827.49	-82.353
827.79	-43.750
828.09	-94.595
828.39	-123.333
828.70	-82.927
829.00	-69.767
829.30	-146.429
829.60	-55.882
829.90	-54.348
830.20	-74.286
830.50	-127.586
830.80	-250.000
831.10	-142.308
831.40	-102.941
831.70	-180.952
832.00	-103.226
832.30	-288.235
832.60	-183.333
832.90	-384.615
833.20	-268.421
833.50	-205.000
833.80	-205.263
834.10	-214.286
834.40	-108.333
834.70	-96.875
835.00	-120.000
835.30	-111.765
835.60	-106.667
835.90	-116.000
836.20	-231.818
836.50	-116.000
836.80	-115.152
837.10	-166.667
837.40	-140.741
837.70	-287.500
838.00	-110.714
838.30	-195.652
838.60	-131.034
838.90	-278.571
839.19	-182.609
839.49	-400.000
839.79	-178.261
840.09	-268.750
840.39	-200.000
840.69	-90.323
840.99	-142.857
841.29	-226.667
841.59	-168.421
841.88	-82.051
842.18	-146.154
842.48	-430.000
842.78	-210.000
843.08	-123.333
843.38	-112.903
843.68	-288.889
843.97	-100.000
844.27	-275.000
844.57	-200.000
844.87	-400.000
845.17	-266.667
845.47	-133.333
845.76	-200.000
846.06	-466.667
846.36	-223.529
846.66	-142.308
846.96	-313.333
847.25	-270.588
847.55	-169.565
847.85	-200.000
848.15	-194.118
848.44	-409.091
848.74	-176.190
849.04	-170.833
849.34	-250.000
849.63	-134.783
849.93	2150.000
850.23	-280.000
850.53	-115.385
850.82	-400.000
851.12	-186.364
851.42	-390.909
851.71	-238.462
852.01	-220.000
852.31	-307.692
852.61	-189.474
852.90	-316.667
853.20	-200.000
853.50	-511.111
853.79	-209.524
854.09	-190.909
854.39	-358.333
854.68	-116.129
854.98	-161.538
855.28	-211.111
855.57	-132.143
855.87	-128.000
856.17	-159.091
856.46	-111.111
856.76	-211.111
857.05	-186.957
857.35	-175.000
857.65	-346.154
857.94	-195.238
858.24	-151.852
858.53	-165.217
858.83	-223.529
859.13	-252.941
859.42	-176.471
859.72	-257.143
860.01	-180.000
860.31	-400.000
860.60	-420.000
860.90	-246.667
861.20	-222.222
861.49	-315.385
861.79	-130.000
862.08	-323.077
862.38	-93.750
862.67	-194.118
862.97	-200.000
863.26	-500.000
863.56	-400.000
863.85	-363.636
864.15	-233.333
864.44	-1500.000
864.74	-264.286
865.03	-256.250
865.33	-470.000
865.62	-141.935
865.92	-186.364
866.21	-173.913
866.51	-278.571
866.80	-1020.000
867.10	-433.333
867.39	-383.333
867.69	4500.000
867.98	-571.429
868.27	-235.294
868.57	-5800.000
868.86	-500.000
869.16	-200.000
869.45	-183.333
869.75	-381.818
870.04	-585.714
870.33	-375.000
870.63	-842.857
870.92	-925.000
871.22	-687.500
871.51	-427.273
871.80	-1666.667
872.10	-2200.000
>>>>>End Processed Spectral Data<<<<<
