SpectraSuite Data File
++++++++++++++++++++++++++++++++++++
Date: Thu May 14 16:05:58 PDT 2015
User: schluterlab
Dark Spectrum Present: Yes
Reference Spectrum Present: Yes
Number of Sampled Component Spectra: 1
Spectrometers: USB2E3373
Integration Time (usec): 3000 (USB2E3373)
Spectra Averaged: 3 (USB2E3373)
Boxcar Smoothing: 0 (USB2E3373)
Correct for Electrical Dark: No (USB2E3373)
Strobe/Lamp Enabled: No (USB2E3373)
Correct for Detector Non-linearity: No (USB2E3373)
Correct for Stray Light: No (USB2E3373)
Number of Pixels in Processed Spectrum: 2048
>>>>>Begin Processed Spectral Data<<<<<
178.53	0.000
178.91	242.857
179.29	-2200.000
179.67	-2000.000
180.04	235.714
180.42	90.000
180.80	340.000
181.18	-900.000
181.56	-600.000
181.94	350.000
182.31	-225.000
182.69	433.333
183.07	-100.000
183.45	375.000
183.83	-216.667
184.20	-233.333
184.58	1200.000
184.96	-425.000
185.34	-133.333
185.72	-200.000
186.09	188.889
186.47	900.000
186.85	420.000
187.23	-222.222
187.61	-1600.000
187.98	140.000
188.36	325.000
188.74	-350.000
189.12	-133.333
189.49	-37.500
189.87	-237.500
190.25	-88.889
190.63	-320.000
191.00	-211.111
191.38	0.000
191.76	-475.000
192.14	-166.667
192.51	450.000
192.89	-233.333
193.27	0.000
193.65	-214.286
194.02	-2600.000
194.40	-114.286
194.78	200.000
195.15	0.000
195.53	-81.818
195.91	0.000
196.29	-75.000
196.66	-100.000
197.04	-2500.000
197.42	-214.286
197.79	-600.000
198.17	-262.500
198.55	-314.286
198.92	-177.778
199.30	-237.500
199.68	-54.545
200.05	-28.571
200.43	-650.000
200.81	414.286
201.18	0.000
201.56	277.778
201.94	0.000
202.31	666.667
202.69	-244.444
203.07	1300.000
203.44	-122.222
203.82	-450.000
204.19	-108.333
204.57	-250.000
204.95	-237.500
205.32	-2000.000
205.70	425.000
206.08	-216.667
206.45	-216.667
206.83	520.000
207.20	-133.333
207.58	-380.000
207.96	-233.333
208.33	-116.667
208.71	141.667
209.08	83.333
209.46	0.000
209.84	466.667
210.21	700.000
210.59	850.000
210.96	533.333
211.34	-250.000
211.71	-112.500
212.09	-2100.000
212.46	0.000
212.84	1350.000
213.22	-400.000
213.59	-300.000
213.97	-90.000
214.34	-533.333
214.72	250.000
215.09	-400.000
215.47	0.000
215.84	257.143
216.22	1050.000
216.59	-340.000
216.97	-200.000
217.34	-375.000
217.72	-212.500
218.09	-475.000
218.47	-350.000
218.84	0.000
219.22	240.000
219.59	-35.294
219.97	-65.000
220.34	1100.000
220.72	-222.222
221.09	-23.077
221.47	-666.667
221.84	-140.000
222.22	-200.000
222.59	0.000
222.97	-12.500
223.34	-340.000
223.72	-1200.000
224.09	-275.000
224.46	-425.000
224.84	-240.000
225.21	-200.000
225.59	-450.000
225.96	-525.000
226.34	-11.538
226.71	300.000
227.08	-650.000
227.46	-93.333
227.83	-475.000
228.21	-21.053
228.58	237.500
228.95	450.000
229.33	-33.333
229.70	-90.000
230.08	-36.842
230.45	140.000
230.82	-533.333
231.20	-92.857
231.57	-133.333
231.95	-118.182
232.32	-18.182
232.69	-55.000
233.07	-250.000
233.44	-41.176
233.81	-130.000
234.19	-27.778
234.56	-18.182
234.93	-24.138
235.31	0.000
235.68	5.556
236.05	-75.000
236.43	7.692
236.80	48.000
237.17	-33.333
237.55	-12.121
237.92	-190.000
238.29	-19.355
238.67	-27.273
239.04	0.000
239.41	-4.762
239.79	-8.696
240.16	1.852
240.53	-26.087
240.91	-27.451
241.28	4.918
241.65	-2.985
242.02	20.270
242.40	3.077
242.77	-6.667
243.14	15.854
243.51	3.947
243.89	5.128
244.26	18.812
244.63	13.725
245.00	23.364
245.38	25.439
245.75	7.080
246.12	18.254
246.49	14.729
246.87	15.714
247.24	19.868
247.61	23.684
247.98	17.450
248.36	17.901
248.73	12.883
249.10	20.765
249.47	24.876
249.84	26.178
250.22	17.098
250.59	20.000
250.96	28.636
251.33	18.367
251.70	24.359
252.08	25.000
252.45	22.131
252.82	20.248
253.19	21.875
253.56	26.996
253.94	20.000
254.31	23.106
254.68	25.175
255.05	25.733
255.42	19.048
255.79	21.683
256.16	21.854
256.54	21.523
256.91	22.951
257.28	25.246
257.65	24.841
258.02	22.124
258.39	20.798
258.76	28.746
259.14	28.161
259.51	27.954
259.88	23.796
260.25	27.500
260.62	26.301
260.99	27.049
261.36	26.005
261.73	25.995
262.10	25.549
262.47	26.273
262.85	27.525
263.22	25.455
263.59	24.211
263.96	26.598
264.33	27.877
264.70	29.136
265.07	27.446
265.44	29.025
265.81	25.694
266.18	27.438
266.55	24.554
266.92	26.424
267.29	26.477
267.66	26.829
268.03	28.384
268.40	24.426
268.77	26.196
269.14	24.890
269.51	27.412
269.88	27.254
270.25	25.755
270.62	28.903
270.99	28.081
271.36	27.129
271.73	27.112
272.10	28.858
272.47	27.255
272.84	26.707
273.21	29.058
273.58	29.435
273.95	26.346
274.32	24.905
274.69	28.627
275.06	28.022
275.43	25.323
275.80	25.926
276.17	24.815
276.54	23.507
276.91	25.581
277.28	29.114
277.65	27.648
278.02	25.184
278.39	25.543
278.76	26.889
279.13	24.823
279.50	25.945
279.87	26.655
280.23	25.176
280.60	27.119
280.97	29.276
281.34	24.958
281.71	25.719
282.08	24.585
282.45	25.532
282.82	25.589
283.19	25.525
283.56	27.541
283.92	25.526
284.29	26.856
284.66	25.616
285.03	23.878
285.40	26.739
285.77	24.458
286.14	25.344
286.51	24.962
286.87	25.118
287.24	25.000
287.61	26.009
287.98	25.680
288.35	25.296
288.72	24.260
289.08	26.061
289.45	22.189
289.82	23.645
290.19	24.282
290.56	24.366
290.93	22.967
291.29	24.105
291.66	24.656
292.03	23.066
292.40	25.306
292.77	21.429
293.13	22.057
293.50	21.288
293.87	22.282
294.24	24.667
294.60	22.503
294.97	21.074
295.34	23.560
295.71	19.924
296.08	21.835
296.44	21.078
296.81	21.924
297.18	21.918
297.55	19.811
297.91	20.403
298.28	19.076
298.65	19.857
299.02	19.835
299.38	20.481
299.75	20.794
300.12	21.065
300.48	20.507
300.85	21.485
301.22	20.582
301.59	18.607
301.95	19.887
302.32	19.667
302.69	18.729
303.05	19.587
303.42	19.069
303.79	19.062
304.15	20.294
304.52	19.345
304.89	19.267
305.25	19.979
305.62	17.450
305.99	20.309
306.35	18.851
306.72	21.200
307.09	18.883
307.45	17.909
307.82	19.576
308.19	19.273
308.55	19.576
308.92	17.722
309.29	18.966
309.65	19.493
310.02	19.703
310.38	18.504
310.75	19.126
311.12	19.271
311.48	18.280
311.85	18.519
312.22	18.121
312.58	17.840
312.95	17.782
313.31	18.699
313.68	19.414
314.05	17.706
314.41	18.397
314.78	18.074
315.14	18.512
315.51	19.391
315.87	18.452
316.24	19.269
316.61	18.739
316.97	18.281
317.34	17.284
317.70	19.563
318.07	18.607
318.43	17.262
318.80	18.813
319.16	17.682
319.53	17.138
319.89	17.616
320.26	17.883
320.62	18.085
320.99	17.544
321.35	18.762
321.72	18.419
322.08	18.034
322.45	18.248
322.81	18.231
323.18	17.876
323.54	18.707
323.91	18.772
324.27	17.384
324.64	18.136
325.00	16.667
325.37	18.919
325.73	19.091
326.10	18.086
326.46	17.834
326.83	19.456
327.19	17.953
327.56	18.103
327.92	17.860
328.29	18.952
328.65	17.672
329.01	17.597
329.38	18.366
329.74	17.723
330.11	17.979
330.47	18.029
330.84	18.432
331.20	18.667
331.56	18.458
331.93	18.326
332.29	18.051
332.66	18.189
333.02	18.090
333.38	17.450
333.75	17.929
334.11	18.766
334.48	18.317
334.84	18.352
335.20	17.464
335.57	18.044
335.93	18.017
336.29	17.720
336.66	17.325
337.02	17.475
337.38	18.367
337.75	17.934
338.11	19.596
338.47	18.114
338.84	17.259
339.20	17.439
339.56	17.875
339.93	16.749
340.29	17.552
340.65	17.194
341.02	18.037
341.38	17.785
341.74	17.030
342.11	17.056
342.47	16.362
342.83	17.874
343.20	17.416
343.56	17.161
343.92	17.134
344.28	17.109
344.65	17.907
345.01	17.941
345.37	17.807
345.73	16.446
346.10	17.941
346.46	16.772
346.82	17.978
347.19	16.578
347.55	17.375
347.91	17.385
348.27	16.995
348.63	17.441
349.00	16.555
349.36	17.398
349.72	17.188
350.08	17.533
350.45	17.567
350.81	16.968
351.17	16.466
351.53	17.968
351.89	17.312
352.26	16.269
352.62	16.940
352.98	16.947
353.34	16.355
353.70	17.180
354.07	16.915
354.43	16.477
354.79	15.707
355.15	17.366
355.51	17.325
355.87	16.081
356.24	16.350
356.60	15.447
356.96	16.457
357.32	16.580
357.68	15.300
358.04	16.692
358.40	15.373
358.77	16.374
359.13	15.953
359.49	15.836
359.85	15.881
360.21	16.714
360.57	16.009
360.93	16.784
361.29	16.351
361.66	16.582
362.02	16.910
362.38	16.585
362.74	15.223
363.10	15.887
363.46	15.928
363.82	15.909
364.18	16.890
364.54	16.321
364.90	16.054
365.26	15.034
365.62	16.800
365.98	15.589
366.35	16.577
366.71	16.259
367.07	15.900
367.43	15.955
367.79	15.328
368.15	16.789
368.51	15.629
368.87	15.676
369.23	15.800
369.59	15.574
369.95	16.160
370.31	16.813
370.67	16.300
371.03	16.136
371.39	15.111
371.75	16.575
372.11	16.531
372.47	15.301
372.83	17.277
373.19	15.610
373.55	16.057
373.91	14.792
374.27	15.977
374.63	16.238
374.99	15.385
375.35	16.364
375.71	14.258
376.07	15.558
376.42	15.050
376.78	16.159
377.14	15.346
377.50	15.117
377.86	14.840
378.22	15.269
378.58	15.398
378.94	15.669
379.30	15.524
379.66	15.814
380.02	16.388
380.38	15.841
380.74	15.211
381.09	15.273
381.45	15.511
381.81	15.925
382.17	16.211
382.53	15.673
382.89	15.971
383.25	15.006
383.61	15.972
383.97	14.723
384.32	15.311
384.68	15.139
385.04	15.269
385.40	15.203
385.76	16.002
386.12	14.662
386.48	16.412
386.83	15.912
387.19	15.817
387.55	15.317
387.91	15.011
388.27	15.762
388.62	15.063
388.98	15.003
389.34	15.616
389.70	15.340
390.06	15.335
390.42	14.458
390.77	16.195
391.13	15.258
391.49	15.278
391.85	14.788
392.20	14.591
392.56	16.125
392.92	15.213
393.28	15.257
393.64	14.972
393.99	16.095
394.35	15.479
394.71	15.090
395.07	14.251
395.42	15.877
395.78	16.575
396.14	15.627
396.50	15.618
396.85	14.609
397.21	15.858
397.57	15.018
397.92	15.464
398.28	15.046
398.64	14.817
399.00	14.450
399.35	15.497
399.71	14.239
400.07	15.778
400.42	14.261
400.78	15.451
401.14	14.058
401.49	15.748
401.85	15.523
402.21	15.585
402.57	15.317
402.92	15.189
403.28	14.520
403.63	14.021
403.99	14.133
404.35	15.179
404.70	15.581
405.06	15.054
405.42	15.340
405.77	14.995
406.13	15.505
406.49	14.696
406.84	15.069
407.20	14.645
407.55	14.416
407.91	14.393
408.27	15.371
408.62	14.951
408.98	14.684
409.34	15.132
409.69	15.328
410.05	14.771
410.40	15.081
410.76	14.077
411.11	14.962
411.47	14.988
411.83	16.049
412.18	16.084
412.54	15.056
412.89	14.494
413.25	15.293
413.60	14.187
413.96	15.268
414.31	14.958
414.67	15.027
415.03	14.954
415.38	14.502
415.74	14.661
416.09	14.929
416.45	13.901
416.80	15.055
417.16	14.879
417.51	15.131
417.87	15.389
418.22	15.269
418.58	14.808
418.93	15.891
419.29	14.673
419.64	14.646
420.00	14.481
420.35	14.093
420.71	14.360
421.06	14.894
421.42	13.991
421.77	14.486
422.12	14.799
422.48	15.105
422.83	14.677
423.19	14.164
423.54	14.878
423.90	14.467
424.25	15.360
424.61	14.351
424.96	14.443
425.31	14.756
425.67	14.224
426.02	14.167
426.38	14.925
426.73	14.230
427.09	15.975
427.44	13.818
427.79	14.704
428.15	14.555
428.50	14.719
428.85	14.179
429.21	15.798
429.56	15.054
429.92	14.742
430.27	15.084
430.62	14.558
430.98	15.347
431.33	13.832
431.68	13.985
432.04	15.033
432.39	15.426
432.74	14.212
433.10	14.548
433.45	13.545
433.80	14.431
434.16	14.928
434.51	14.594
434.86	14.387
435.22	15.356
435.57	13.797
435.92	14.914
436.28	13.538
436.63	14.582
436.98	14.761
437.34	14.487
437.69	13.043
438.04	13.749
438.39	14.245
438.75	14.001
439.10	15.645
439.45	14.701
439.81	14.011
440.16	14.209
440.51	14.771
440.86	14.119
441.22	13.666
441.57	14.518
441.92	14.840
442.27	14.949
442.63	14.506
442.98	15.101
443.33	14.256
443.68	15.114
444.03	15.428
444.39	14.840
444.74	14.446
445.09	14.445
445.44	14.015
445.79	14.368
446.15	14.183
446.50	14.315
446.85	15.272
447.20	14.894
447.55	14.644
447.91	13.613
448.26	14.535
448.61	15.090
448.96	14.109
449.31	14.793
449.66	13.399
450.02	14.662
450.37	14.598
450.72	14.424
451.07	14.920
451.42	14.385
451.77	14.397
452.12	14.334
452.47	14.141
452.83	14.921
453.18	14.127
453.53	14.072
453.88	14.025
454.23	14.746
454.58	14.510
454.93	14.381
455.28	14.509
455.63	14.838
455.98	14.749
456.34	15.077
456.69	14.815
457.04	13.830
457.39	13.692
457.74	15.268
458.09	13.564
458.44	14.278
458.79	14.544
459.14	14.106
459.49	14.035
459.84	14.376
460.19	13.604
460.54	14.708
460.89	14.452
461.24	13.506
461.59	14.444
461.94	14.147
462.29	14.054
462.64	14.303
462.99	13.999
463.34	14.536
463.69	14.127
464.04	14.564
464.39	14.238
464.74	13.911
465.09	13.668
465.44	13.466
465.79	14.384
466.14	14.435
466.49	14.789
466.84	14.215
467.19	13.699
467.54	13.631
467.89	13.678
468.24	13.352
468.59	12.739
468.94	13.520
469.29	12.478
469.64	13.096
469.99	13.830
470.34	14.356
470.68	13.465
471.03	12.836
471.38	13.865
471.73	12.809
472.08	13.832
472.43	13.967
472.78	14.106
473.13	13.085
473.48	13.233
473.83	14.800
474.17	14.068
474.52	13.650
474.87	13.677
475.22	14.254
475.57	13.863
475.92	13.987
476.27	13.791
476.61	13.603
476.96	14.234
477.31	13.960
477.66	14.271
478.01	13.421
478.36	13.908
478.70	14.286
479.05	14.162
479.40	13.771
479.75	14.601
480.10	14.306
480.45	13.993
480.79	14.785
481.14	13.695
481.49	13.857
481.84	13.664
482.19	14.194
482.53	14.167
482.88	14.045
483.23	13.606
483.58	13.450
483.92	13.032
484.27	13.294
484.62	13.696
484.97	14.191
485.31	14.256
485.66	14.691
486.01	14.848
486.36	15.628
486.70	16.378
487.05	15.531
487.40	15.161
487.75	15.165
488.09	14.398
488.44	13.995
488.79	13.187
489.13	13.287
489.48	12.854
489.83	13.038
490.17	12.920
490.52	13.629
490.87	13.452
491.22	13.215
491.56	13.865
491.91	12.952
492.26	13.284
492.60	13.336
492.95	13.339
493.30	13.940
493.64	13.973
493.99	13.596
494.34	13.720
494.68	13.062
495.03	14.053
495.37	14.115
495.72	13.379
496.07	14.023
496.41	13.428
496.76	13.845
497.11	13.715
497.45	13.120
497.80	13.949
498.14	12.880
498.49	13.006
498.84	13.254
499.18	13.270
499.53	13.543
499.87	13.714
500.22	13.580
500.56	13.315
500.91	13.318
501.26	13.545
501.60	13.389
501.95	13.721
502.29	13.515
502.64	13.467
502.98	13.460
503.33	13.780
503.67	12.952
504.02	13.091
504.36	13.986
504.71	13.275
505.06	13.142
505.40	13.026
505.75	13.069
506.09	13.766
506.44	13.742
506.78	14.083
507.13	14.338
507.47	13.643
507.82	13.021
508.16	13.958
508.51	12.752
508.85	13.274
509.19	13.074
509.54	13.256
509.88	13.307
510.23	13.307
510.57	14.210
510.92	13.304
511.26	13.276
511.61	12.844
511.95	12.689
512.30	13.688
512.64	12.644
512.98	13.857
513.33	13.306
513.67	12.647
514.02	12.877
514.36	13.248
514.70	13.229
515.05	13.191
515.39	13.386
515.74	13.468
516.08	13.312
516.42	13.344
516.77	13.617
517.11	12.429
517.46	13.150
517.80	13.255
518.14	14.418
518.49	12.852
518.83	12.613
519.17	12.386
519.52	13.103
519.86	13.358
520.20	13.632
520.55	12.322
520.89	13.176
521.23	13.735
521.58	12.994
521.92	13.428
522.26	12.829
522.61	12.789
522.95	13.091
523.29	12.874
523.64	12.668
523.98	13.349
524.32	12.837
524.66	13.375
525.01	12.967
525.35	12.866
525.69	12.413
526.04	13.146
526.38	12.586
526.72	12.572
527.06	12.903
527.41	12.711
527.75	13.005
528.09	12.987
528.43	12.315
528.78	12.312
529.12	12.844
529.46	12.760
529.80	12.414
530.15	12.754
530.49	12.278
530.83	13.105
531.17	12.903
531.51	12.335
531.86	13.341
532.20	12.927
532.54	12.328
532.88	13.212
533.22	13.023
533.57	13.503
533.91	13.412
534.25	13.510
534.59	13.103
534.93	12.507
535.27	13.408
535.62	13.303
535.96	13.132
536.30	13.102
536.64	13.273
536.98	13.899
537.32	13.642
537.66	13.038
538.01	12.749
538.35	12.728
538.69	12.440
539.03	12.753
539.37	13.369
539.71	12.432
540.05	12.890
540.39	12.408
540.73	12.568
541.07	13.182
541.42	13.349
541.76	13.582
542.10	13.148
542.44	12.485
542.78	14.051
543.12	13.468
543.46	13.187
543.80	12.890
544.14	12.029
544.48	13.475
544.82	12.747
545.16	13.178
545.50	14.260
545.84	12.860
546.18	14.321
546.52	12.930
546.86	12.453
547.20	12.786
547.54	13.795
547.88	12.538
548.22	12.690
548.56	13.692
548.90	13.791
549.24	13.070
549.58	12.681
549.92	12.628
550.26	13.010
550.60	12.444
550.94	13.777
551.28	12.937
551.62	12.399
551.96	13.204
552.30	14.149
552.64	13.815
552.98	13.100
553.32	13.376
553.66	12.797
554.00	13.808
554.34	13.642
554.68	12.072
555.02	13.075
555.36	13.872
555.69	12.748
556.03	12.799
556.37	13.642
556.71	12.999
557.05	13.291
557.39	12.409
557.73	12.946
558.07	12.185
558.41	13.289
558.75	12.373
559.08	12.874
559.42	12.551
559.76	13.229
560.10	13.329
560.44	12.929
560.78	13.813
561.12	13.670
561.45	13.808
561.79	12.943
562.13	13.124
562.47	12.700
562.81	12.215
563.15	12.942
563.48	13.424
563.82	13.603
564.16	13.144
564.50	13.528
564.84	13.510
565.17	13.882
565.51	13.521
565.85	13.836
566.19	13.134
566.52	13.049
566.86	14.148
567.20	12.779
567.54	14.073
567.88	14.067
568.21	14.674
568.55	14.724
568.89	14.662
569.23	14.364
569.56	14.498
569.90	15.574
570.24	14.941
570.57	14.978
570.91	15.003
571.25	15.302
571.59	15.586
571.92	15.538
572.26	15.193
572.60	15.206
572.93	15.085
573.27	15.004
573.61	15.299
573.95	15.174
574.28	16.094
574.62	15.371
574.96	14.976
575.29	15.730
575.63	15.431
575.97	15.114
576.30	14.779
576.64	15.271
576.98	15.103
577.31	15.331
577.65	15.642
577.98	15.569
578.32	15.812
578.66	15.417
578.99	15.277
579.33	15.251
579.67	15.345
580.00	14.902
580.34	15.532
580.67	14.916
581.01	15.296
581.35	16.131
581.68	15.794
582.02	16.140
582.35	16.031
582.69	15.857
583.02	15.717
583.36	15.178
583.70	15.133
584.03	14.543
584.37	14.836
584.70	14.890
585.04	14.671
585.37	15.312
585.71	15.534
586.04	15.918
586.38	15.436
586.72	14.916
587.05	14.889
587.39	15.682
587.72	15.718
588.06	15.571
588.39	15.708
588.73	15.159
589.06	15.237
589.40	15.304
589.73	14.781
590.07	15.119
590.40	14.773
590.73	15.164
591.07	14.966
591.40	14.502
591.74	14.865
592.07	15.144
592.41	14.274
592.74	15.264
593.08	15.637
593.41	16.506
593.75	15.402
594.08	15.420
594.41	15.256
594.75	15.211
595.08	15.007
595.42	15.357
595.75	14.982
596.09	14.978
596.42	15.263
596.75	14.319
597.09	15.192
597.42	14.938
597.75	14.426
598.09	14.167
598.42	15.239
598.76	14.444
599.09	15.308
599.42	15.387
599.76	15.154
600.09	14.615
600.42	15.382
600.76	14.729
601.09	14.404
601.42	14.967
601.76	14.793
602.09	14.618
602.42	14.831
602.76	15.092
603.09	14.941
603.42	15.643
603.76	14.940
604.09	15.756
604.42	14.936
604.76	14.269
605.09	14.878
605.42	14.354
605.75	14.577
606.09	14.782
606.42	14.958
606.75	13.756
607.09	14.516
607.42	15.067
607.75	14.810
608.08	14.404
608.42	14.228
608.75	14.428
609.08	14.219
609.41	14.910
609.75	14.152
610.08	14.468
610.41	14.316
610.74	14.580
611.07	14.742
611.41	15.112
611.74	14.596
612.07	14.399
612.40	13.783
612.73	14.377
613.07	14.230
613.40	14.678
613.73	14.588
614.06	14.524
614.39	13.557
614.72	14.799
615.06	13.956
615.39	13.630
615.72	14.692
616.05	14.133
616.38	15.035
616.71	14.159
617.05	13.791
617.38	14.018
617.71	14.147
618.04	13.977
618.37	14.372
618.70	13.462
619.03	13.560
619.36	13.810
619.69	13.901
620.03	14.250
620.36	13.006
620.69	13.263
621.02	13.189
621.35	13.208
621.68	14.172
622.01	13.238
622.34	12.901
622.67	13.265
623.00	12.686
623.33	14.200
623.66	14.008
623.99	13.693
624.32	14.295
624.65	12.870
624.99	14.369
625.32	14.500
625.65	13.419
625.98	12.610
626.31	13.395
626.64	13.040
626.97	12.078
627.30	11.693
627.63	12.453
627.96	13.138
628.29	12.451
628.62	12.007
628.95	12.708
629.28	11.640
629.61	13.215
629.94	11.967
630.26	11.525
630.59	11.140
630.92	12.554
631.25	11.807
631.58	12.335
631.91	11.059
632.24	12.776
632.57	12.144
632.90	12.337
633.23	12.245
633.56	12.245
633.89	10.331
634.22	11.019
634.55	11.795
634.88	10.823
635.20	13.025
635.53	11.525
635.86	11.809
636.19	11.983
636.52	12.975
636.85	12.768
637.18	12.578
637.51	10.968
637.83	11.849
638.16	11.060
638.49	9.859
638.82	11.048
639.15	11.455
639.48	12.702
639.81	11.894
640.13	12.956
640.46	9.212
640.79	10.539
641.12	10.311
641.45	11.920
641.77	12.837
642.10	8.661
642.43	11.835
642.76	10.569
643.09	9.452
643.41	10.224
643.74	10.345
644.07	11.034
644.40	10.042
644.73	9.289
645.05	10.132
645.38	12.662
645.71	12.170
646.04	12.769
646.36	10.365
646.69	9.356
647.02	10.856
647.35	9.924
647.67	9.340
648.00	9.395
648.33	9.760
648.66	10.984
648.98	8.571
649.31	12.855
649.64	10.757
649.96	11.141
650.29	10.153
650.62	9.618
650.94	7.207
651.27	10.180
651.60	11.404
651.92	9.422
652.25	10.999
652.58	10.867
652.90	9.738
653.23	12.113
653.56	11.127
653.88	13.343
654.21	10.282
654.54	10.116
654.86	10.198
655.19	10.790
655.52	15.243
655.84	18.764
656.17	22.411
656.49	30.838
656.82	32.697
657.15	24.155
657.47	17.462
657.80	12.451
658.13	9.355
658.45	11.341
658.78	13.342
659.10	12.904
659.43	12.059
659.75	10.661
660.08	10.196
660.41	9.512
660.73	9.236
661.06	7.342
661.38	9.569
661.71	7.586
662.03	7.584
662.36	11.628
662.68	9.381
663.01	10.088
663.33	8.507
663.66	12.821
663.98	10.000
664.31	12.570
664.63	6.744
664.96	10.526
665.28	8.530
665.61	10.315
665.93	9.643
666.26	9.857
666.58	9.225
666.91	10.841
667.23	10.476
667.56	7.495
667.88	7.800
668.21	6.055
668.53	7.143
668.86	10.609
669.18	7.739
669.50	8.151
669.83	6.600
670.15	8.661
670.48	9.921
670.80	6.883
671.13	7.940
671.45	9.449
671.77	9.416
672.10	9.667
672.42	9.871
672.75	10.753
673.07	9.701
673.39	9.861
673.72	10.738
674.04	10.172
674.37	9.839
674.69	10.406
675.01	7.238
675.34	8.588
675.66	7.491
675.98	8.769
676.31	10.938
676.63	11.027
676.95	10.920
677.28	9.476
677.60	7.874
677.92	8.253
678.25	10.603
678.57	11.566
678.89	10.580
679.22	10.453
679.54	10.256
679.86	8.475
680.18	7.463
680.51	10.535
680.83	11.784
681.15	9.483
681.48	11.399
681.80	11.399
682.12	9.091
682.44	9.516
682.77	12.411
683.09	8.902
683.41	10.078
683.73	11.195
684.06	11.439
684.38	8.945
684.70	11.131
685.02	10.499
685.34	8.985
685.67	9.779
685.99	9.969
686.31	10.901
686.63	10.742
686.96	9.621
687.28	10.098
687.60	9.259
687.92	8.199
688.24	12.020
688.56	7.241
688.89	8.167
689.21	10.568
689.53	8.039
689.85	7.692
690.17	10.185
690.49	10.757
690.82	9.703
691.14	9.514
691.46	8.222
691.78	11.418
692.10	7.890
692.42	10.536
692.74	9.256
693.06	7.593
693.39	12.903
693.71	9.586
694.03	11.152
694.35	10.476
694.67	8.624
694.99	8.723
695.31	7.285
695.63	9.091
695.95	8.075
696.27	8.571
696.59	9.292
696.91	10.586
697.23	10.549
697.56	7.943
697.88	9.659
698.20	9.040
698.52	13.068
698.84	11.227
699.16	11.429
699.48	9.833
699.80	8.511
700.12	8.952
700.44	10.138
700.76	7.363
701.08	8.959
701.40	6.736
701.72	9.950
702.04	8.289
702.36	5.236
702.68	9.780
703.00	8.068
703.32	6.897
703.64	8.557
703.96	9.069
704.28	8.845
704.60	9.367
704.91	8.673
705.23	7.945
705.55	9.749
705.87	6.970
706.19	7.362
706.51	7.229
706.83	8.934
707.15	4.233
707.47	8.178
707.79	10.699
708.11	8.686
708.43	7.957
708.74	7.812
709.06	8.121
709.38	9.624
709.70	10.174
710.02	6.718
710.34	8.245
710.66	7.542
710.98	5.738
711.29	7.143
711.61	6.497
711.93	6.838
712.25	8.108
712.57	9.440
712.89	9.706
713.20	7.692
713.52	8.671
713.84	7.242
714.16	12.632
714.48	9.536
714.80	10.130
715.11	9.449
715.43	12.732
715.75	8.158
716.07	8.011
716.39	7.377
716.70	3.916
717.02	5.574
717.34	7.317
717.66	4.027
717.97	3.767
718.29	6.186
718.61	7.566
718.93	4.207
719.24	9.938
719.56	6.442
719.88	6.907
720.20	6.129
720.51	9.006
720.83	7.500
721.15	10.526
721.46	6.507
721.78	5.667
722.10	7.443
722.42	3.020
722.73	5.484
723.05	6.667
723.37	7.986
723.68	10.753
724.00	5.415
724.32	4.225
724.63	5.944
724.95	7.447
725.27	8.014
725.58	5.300
725.90	12.414
726.22	5.643
726.53	8.442
726.85	11.006
727.16	6.344
727.48	11.315
727.80	8.940
728.11	4.594
728.43	6.061
728.74	6.020
729.06	7.285
729.38	7.143
729.69	8.389
730.01	9.524
730.32	6.667
730.64	7.233
730.96	5.590
731.27	8.380
731.59	8.242
731.90	6.234
732.22	11.198
732.53	6.354
732.85	8.857
733.16	5.279
733.48	6.098
733.80	9.471
734.11	8.547
734.43	7.838
734.74	14.430
735.06	11.558
735.37	13.514
735.69	10.811
736.00	12.147
736.32	9.973
736.63	9.444
736.95	6.609
737.26	7.576
737.58	7.879
737.89	10.882
738.21	6.116
738.52	5.902
738.83	10.580
739.15	8.865
739.46	8.503
739.78	9.509
740.09	8.596
740.41	10.496
740.72	10.333
741.04	7.767
741.35	9.123
741.66	5.098
741.98	8.197
742.29	3.766
742.61	10.088
742.92	8.846
743.23	9.386
743.55	8.527
743.86	7.600
744.18	1.653
744.49	2.110
744.80	10.288
745.12	6.751
745.43	10.163
745.74	7.759
746.06	7.627
746.37	5.907
746.68	7.317
747.00	7.500
747.31	8.155
747.62	8.846
747.94	8.502
748.25	8.835
748.56	1.633
748.88	5.556
749.19	8.621
749.50	5.195
749.82	9.237
750.13	12.456
750.44	6.000
750.75	8.923
751.07	10.769
751.38	7.886
751.69	12.780
752.01	8.738
752.32	10.784
752.63	8.163
752.94	3.460
753.26	5.204
753.57	2.222
753.88	8.240
754.19	7.074
754.51	10.932
754.82	9.646
755.13	12.131
755.44	7.509
755.75	7.895
756.07	11.642
756.38	11.006
756.69	12.349
757.00	8.033
757.31	7.104
757.63	6.905
757.94	10.563
758.25	13.318
758.56	11.329
758.87	14.545
759.18	8.267
759.50	12.181
759.81	9.244
760.12	9.973
760.43	11.458
760.74	11.576
761.05	9.500
761.36	11.084
761.67	10.152
761.99	11.622
762.30	9.756
762.61	5.941
762.92	7.463
763.23	10.112
763.54	8.993
763.85	6.873
764.16	8.081
764.47	7.042
764.78	10.863
765.10	12.317
765.41	15.385
765.72	10.847
766.03	10.452
766.34	8.777
766.65	5.923
766.96	9.163
767.27	10.599
767.58	3.483
767.89	10.096
768.20	3.756
768.51	4.167
768.82	8.434
769.13	8.333
769.44	5.385
769.75	9.747
770.06	9.231
770.37	7.480
770.68	4.681
770.99	4.049
771.30	13.704
771.61	9.886
771.92	6.296
772.23	13.360
772.54	4.630
772.85	8.756
773.16	6.667
773.47	0.529
773.78	1.622
774.09	2.273
774.39	12.000
774.70	6.557
775.01	-3.659
775.32	4.118
775.63	4.294
775.94	-7.006
776.25	3.871
776.56	6.410
776.87	2.721
777.18	1.379
777.48	7.692
777.79	2.703
778.10	-2.206
778.41	9.722
778.72	-0.690
779.03	4.938
779.34	6.667
779.65	5.699
779.95	7.222
780.26	-2.273
780.57	3.226
780.88	7.246
781.19	9.032
781.50	14.118
781.80	5.914
782.11	4.233
782.42	1.515
782.73	6.587
783.04	8.939
783.34	0.000
783.65	5.882
783.96	6.211
784.27	-2.381
784.57	-1.325
784.88	-0.714
785.19	0.000
785.50	4.724
785.81	3.008
786.11	2.308
786.42	-2.878
786.73	4.317
787.04	2.256
787.34	2.459
787.65	-2.400
787.96	-4.478
788.26	11.888
788.57	11.888
788.88	9.868
789.19	6.536
789.49	-0.685
789.80	4.255
790.11	1.575
790.41	2.344
790.72	6.780
791.03	-1.942
791.33	-6.087
791.64	-5.263
791.95	4.464
792.25	1.905
792.56	-0.893
792.87	-6.250
793.17	2.679
793.48	-9.375
793.79	-12.048
794.09	-9.174
794.40	-4.587
794.70	3.401
795.01	0.000
795.32	-0.685
795.62	4.225
795.93	6.061
796.23	-3.279
796.54	4.464
796.85	-2.128
797.15	-3.261
797.46	-12.329
797.76	1.250
798.07	-4.348
798.37	-9.278
798.68	-10.390
798.99	5.747
799.29	-8.989
799.60	-2.128
799.90	4.819
800.21	-7.692
800.51	-17.910
800.82	0.000
801.12	-13.699
801.43	-16.176
801.73	-28.814
802.04	-16.667
802.34	5.000
802.65	-18.644
802.95	-8.955
803.26	-18.644
803.56	-12.329
803.87	-4.286
804.17	2.740
804.48	-19.298
804.78	-5.556
805.09	-24.138
805.39	2.703
805.70	-18.310
806.00	4.878
806.30	-1.205
806.61	-12.329
806.91	1.923
807.22	-6.667
807.52	-4.598
807.83	-6.944
808.13	1.205
808.43	-7.865
808.74	-6.250
809.04	-29.412
809.35	-6.667
809.65	-5.714
809.95	-13.699
810.26	-22.807
810.56	-15.517
810.86	5.882
811.17	1.754
811.47	-29.508
811.77	-48.889
812.08	1.695
812.38	-15.000
812.69	1.724
812.99	-30.189
813.29	-38.462
813.59	-26.000
813.90	1.754
814.20	-29.091
814.50	1.408
814.81	2.564
815.11	-13.115
815.41	-2.985
815.72	-8.621
816.02	-16.071
816.32	-11.111
816.62	-18.182
816.93	-8.889
817.23	-11.111
817.53	-17.021
817.84	-11.905
818.14	-44.118
818.44	-24.490
818.74	-15.556
819.04	-33.333
819.35	-74.286
819.65	-57.692
819.95	-11.321
820.25	-11.111
820.56	-33.333
820.86	-12.500
821.16	-30.769
821.46	-18.605
821.76	-48.000
822.07	-28.571
822.37	-21.739
822.67	-27.660
822.97	-54.054
823.27	-45.000
823.57	-24.490
823.88	-17.778
824.18	-10.000
824.48	-36.667
824.78	-44.000
825.08	-42.424
825.38	2.222
825.69	-23.404
825.99	-30.556
826.29	-65.714
826.59	-23.077
826.89	-37.209
827.19	-34.000
827.49	-44.118
827.79	-6.250
828.09	-48.649
828.39	-36.667
828.70	-26.829
829.00	-32.558
829.30	-42.857
829.60	-17.647
829.90	-10.870
830.20	-28.571
830.50	-44.828
830.80	-105.556
831.10	-50.000
831.40	-38.235
831.70	-47.619
832.00	-12.903
832.30	-135.294
832.60	-100.000
832.90	-146.154
833.20	-78.947
833.50	-70.000
833.80	-52.632
834.10	-142.857
834.40	-16.667
834.70	-18.750
835.00	-71.429
835.30	-41.176
835.60	-56.667
835.90	-72.000
836.20	-86.364
836.50	-28.000
836.80	-33.333
837.10	-29.630
837.40	-70.370
837.70	-131.250
838.00	-17.857
838.30	-91.304
838.60	-20.690
838.90	-107.143
839.19	-86.957
839.49	-191.667
839.79	-47.826
840.09	-150.000
840.39	-55.000
840.69	-32.258
840.99	-50.000
841.29	-113.333
841.59	-89.474
841.88	-7.692
842.18	-46.154
842.48	-190.000
842.78	-80.000
843.08	-43.333
843.38	-22.581
843.68	-111.111
843.97	-47.059
844.27	-81.250
844.57	-63.158
844.87	-150.000
845.17	-153.333
845.47	-66.667
845.76	-90.476
846.06	-144.444
846.36	-117.647
846.66	-61.538
846.96	-113.333
847.25	-94.118
847.55	-26.087
847.85	-80.000
848.15	-29.412
848.44	-145.455
848.74	-4.762
849.04	-62.500
849.34	-87.500
849.63	-26.087
849.93	1250.000
850.23	-60.000
850.53	3.846
850.82	-163.636
851.12	-22.727
851.42	-136.364
851.71	-84.615
852.01	-80.000
852.31	-76.923
852.61	-68.421
852.90	-150.000
853.20	-44.444
853.50	-166.667
853.79	-80.952
854.09	-86.364
854.39	-158.333
854.68	-16.129
854.98	-57.692
855.28	-44.444
855.57	-28.571
855.87	-56.000
856.17	-59.091
856.46	-44.444
856.76	-77.778
857.05	-100.000
857.35	-58.333
857.65	-107.692
857.94	-57.143
858.24	-11.111
858.53	-60.870
858.83	-41.176
859.13	-76.471
859.42	-23.529
859.72	-64.286
860.01	-50.000
860.31	-77.778
860.60	-230.000
860.90	-46.667
861.20	-61.111
861.49	-130.769
861.79	-46.667
862.08	-107.692
862.38	-6.250
862.67	-76.471
862.97	-50.000
863.26	-144.444
863.56	-160.000
863.85	-90.909
864.15	-94.444
864.44	-766.667
864.74	-57.143
865.03	-112.500
865.33	-130.000
865.62	-35.484
865.92	-31.818
866.21	-39.130
866.51	-64.286
866.80	-440.000
867.10	-116.667
867.39	-100.000
867.69	3200.000
867.98	-157.143
868.27	-41.176
868.57	-2600.000
868.86	-190.000
869.16	-95.238
869.45	-45.833
869.75	-136.364
870.04	-171.429
870.33	-91.667
870.63	-371.429
870.92	-125.000
871.22	-250.000
871.51	-118.182
871.80	-733.333
872.10	-1250.000
>>>>>End Processed Spectral Data<<<<<
