SpectraSuite Data File
++++++++++++++++++++++++++++++++++++
Date: Thu May 14 16:18:18 PDT 2015
User: schluterlab
Dark Spectrum Present: Yes
Reference Spectrum Present: Yes
Number of Sampled Component Spectra: 1
Spectrometers: USB2E3373
Integration Time (usec): 3000 (USB2E3373)
Spectra Averaged: 3 (USB2E3373)
Boxcar Smoothing: 0 (USB2E3373)
Correct for Electrical Dark: No (USB2E3373)
Strobe/Lamp Enabled: No (USB2E3373)
Correct for Detector Non-linearity: No (USB2E3373)
Correct for Stray Light: No (USB2E3373)
Number of Pixels in Processed Spectrum: 2048
>>>>>Begin Processed Spectral Data<<<<<
178.53	0.000
178.91	71.429
179.29	-400.000
179.67	-400.000
180.04	121.429
180.42	100.000
180.80	120.000
181.18	-700.000
181.56	500.000
181.94	175.000
182.31	-300.000
182.69	200.000
183.07	-200.000
183.45	100.000
183.83	-33.333
184.20	-100.000
184.58	300.000
184.96	-175.000
185.34	33.333
185.72	140.000
186.09	255.556
186.47	450.000
186.85	160.000
187.23	-222.222
187.61	-500.000
187.98	180.000
188.36	225.000
188.74	-150.000
189.12	-133.333
189.49	6.250
189.87	-62.500
190.25	11.111
190.63	80.000
191.00	-100.000
191.38	0.000
191.76	-225.000
192.14	-116.667
192.51	500.000
192.89	0.000
193.27	0.000
193.65	28.571
194.02	-1700.000
194.40	-71.429
194.78	114.286
195.15	0.000
195.53	-9.091
195.91	0.000
196.29	-250.000
196.66	0.000
197.04	100.000
197.42	-114.286
197.79	-450.000
198.17	-87.500
198.55	-100.000
198.92	-44.444
199.30	-75.000
199.68	45.455
200.05	57.143
200.43	-150.000
200.81	185.714
201.18	0.000
201.56	155.556
201.94	0.000
202.31	400.000
202.69	11.111
203.07	100.000
203.44	33.333
203.82	75.000
204.19	66.667
204.57	-216.667
204.95	-62.500
205.32	-600.000
205.70	-125.000
206.08	-66.667
206.45	0.000
206.83	220.000
207.20	-100.000
207.58	-300.000
207.96	-133.333
208.33	116.667
208.71	8.333
209.08	100.000
209.46	0.000
209.84	233.333
210.21	-50.000
210.59	250.000
210.96	300.000
211.34	-25.000
211.71	12.500
212.09	-1300.000
212.46	0.000
212.84	450.000
213.22	-80.000
213.59	-125.000
213.97	40.000
214.34	-33.333
214.72	150.000
215.09	-150.000
215.47	0.000
215.84	42.857
216.22	650.000
216.59	-140.000
216.97	80.000
217.34	0.000
217.72	112.500
218.09	-150.000
218.47	-150.000
218.84	0.000
219.22	-20.000
219.59	17.647
219.97	30.000
220.34	400.000
220.72	0.000
221.09	53.846
221.47	-100.000
221.84	-20.000
222.22	-185.714
222.59	0.000
222.97	37.500
223.34	-120.000
223.72	300.000
224.09	-100.000
224.46	-425.000
224.84	0.000
225.21	-14.286
225.59	-275.000
225.96	-350.000
226.34	30.769
226.71	116.667
227.08	-300.000
227.46	46.667
227.83	-100.000
228.21	-21.053
228.58	25.000
228.95	200.000
229.33	-16.667
229.70	20.000
230.08	36.842
230.45	130.000
230.82	-133.333
231.20	0.000
231.57	8.333
231.95	-109.091
232.32	9.091
232.69	-15.000
233.07	-250.000
233.44	-41.176
233.81	-40.000
234.19	22.222
234.56	-9.091
234.93	34.483
235.31	-15.789
235.68	-5.556
236.05	-55.000
236.43	46.154
236.80	40.000
237.17	-3.704
237.55	30.303
237.92	-50.000
238.29	-19.355
238.67	31.818
239.04	-8.333
239.41	28.571
239.79	19.565
240.16	9.259
240.53	0.000
240.91	7.843
241.28	8.197
241.65	25.373
242.02	29.730
242.40	1.538
242.77	14.667
243.14	0.000
243.51	1.316
243.89	5.128
244.26	17.822
244.63	15.686
245.00	9.346
245.38	7.895
245.75	6.195
246.12	6.349
246.49	10.078
246.87	20.000
247.24	21.192
247.61	21.053
247.98	19.463
248.36	12.963
248.73	6.748
249.10	14.754
249.47	20.398
249.84	15.183
250.22	10.881
250.59	16.111
250.96	19.091
251.33	12.755
251.70	17.094
252.08	15.000
252.45	18.033
252.82	15.289
253.19	16.016
253.56	16.350
253.94	12.692
254.31	16.667
254.68	20.629
255.05	18.893
255.42	13.946
255.79	13.592
256.16	16.225
256.54	15.232
256.91	20.328
257.28	16.066
257.65	17.197
258.02	13.569
258.39	15.954
258.76	20.489
259.14	17.529
259.51	16.427
259.88	16.714
260.25	19.167
260.62	17.260
260.99	20.219
261.36	17.962
261.73	12.467
262.10	13.736
262.47	18.767
262.85	19.949
263.22	14.286
263.59	14.211
263.96	15.601
264.33	16.624
264.70	19.012
265.07	17.184
265.44	17.460
265.81	17.130
266.18	16.780
266.55	14.955
266.92	15.490
267.29	17.505
267.66	15.299
268.03	18.777
268.40	15.240
268.77	17.084
269.14	16.079
269.51	16.447
269.88	18.852
270.25	20.121
270.62	19.198
270.99	19.192
271.36	17.228
271.73	15.914
272.10	17.836
272.47	17.435
272.84	19.478
273.21	18.036
273.58	16.734
273.95	16.346
274.32	13.688
274.69	14.507
275.06	18.315
275.43	15.157
275.80	18.519
276.17	15.556
276.54	13.246
276.91	16.637
277.28	16.998
277.65	17.415
278.02	17.096
278.39	16.123
278.76	15.114
279.13	15.603
279.50	16.323
279.87	17.889
280.23	13.204
280.60	15.763
280.97	15.132
281.34	16.129
281.71	18.443
282.08	16.113
282.45	14.566
282.82	16.484
283.19	16.640
283.56	14.918
283.92	18.468
284.29	16.746
284.66	17.241
285.03	13.942
285.40	16.229
285.77	15.170
286.14	15.878
286.51	16.286
286.87	16.114
287.24	16.265
287.61	14.948
287.98	15.106
288.35	15.976
288.72	15.976
289.08	16.984
289.45	14.053
289.82	14.006
290.19	16.236
290.56	15.775
290.93	14.551
291.29	14.601
291.66	15.427
292.03	13.161
292.40	16.327
292.77	14.690
293.13	14.208
293.50	12.615
293.87	14.362
294.24	13.867
294.60	14.033
294.97	13.020
295.34	13.572
295.71	13.619
296.08	12.920
296.44	12.990
296.81	13.276
297.18	12.951
297.55	12.972
297.91	14.116
298.28	11.256
298.65	12.485
299.02	12.515
299.38	12.243
299.75	12.617
300.12	11.458
300.48	12.788
300.85	12.823
301.22	12.864
301.59	11.530
301.95	11.186
302.32	12.444
302.69	12.924
303.05	12.840
303.42	11.973
303.79	11.458
304.15	11.356
304.52	11.099
304.89	12.251
305.25	12.215
305.62	12.644
305.99	11.031
306.35	11.996
306.72	12.203
307.09	12.487
307.45	12.112
307.82	11.504
308.19	11.604
308.55	13.018
308.92	12.853
309.29	11.590
309.65	11.891
310.02	11.188
310.38	12.500
310.75	11.262
311.12	12.656
311.48	12.512
311.85	10.731
312.22	11.480
312.58	11.080
312.95	11.090
313.31	11.743
313.68	12.088
314.05	12.737
314.41	11.931
314.78	11.807
315.14	11.978
315.51	11.357
315.87	11.611
316.24	10.776
316.61	12.167
316.97	10.679
317.34	11.023
317.70	11.703
318.07	10.847
318.43	13.265
318.80	12.458
319.16	12.446
319.53	9.426
319.89	10.079
320.26	11.299
320.62	10.638
320.99	11.819
321.35	10.166
321.72	10.977
322.08	11.001
322.45	13.008
322.81	12.274
323.18	11.593
323.54	11.724
323.91	11.655
324.27	11.360
324.64	11.839
325.00	10.365
325.37	11.548
325.73	11.736
326.10	11.517
326.46	11.238
326.83	12.170
327.19	11.024
327.56	11.304
327.92	10.858
328.29	10.484
328.65	11.307
329.01	11.168
329.38	12.216
329.74	11.473
330.11	10.959
330.47	11.205
330.84	10.594
331.20	10.667
331.56	10.745
331.93	12.887
332.29	11.441
332.66	10.797
333.02	11.055
333.38	11.242
333.75	11.279
334.11	10.592
334.48	11.056
334.84	11.385
335.20	11.167
335.57	10.961
335.93	11.240
336.29	9.567
336.66	10.008
337.02	11.037
337.38	11.565
337.75	10.579
338.11	12.279
338.47	10.505
338.84	9.645
339.20	10.362
339.56	10.956
339.93	10.345
340.29	10.548
340.65	10.219
341.02	10.694
341.38	11.479
341.74	9.685
342.11	10.941
342.47	10.008
342.83	10.225
343.20	11.284
343.56	10.906
343.92	10.729
344.28	10.703
344.65	10.698
345.01	10.686
345.37	10.420
345.73	9.977
346.10	10.608
346.46	9.889
346.82	11.086
347.19	10.619
347.55	11.229
347.91	10.253
348.27	10.774
348.63	10.586
349.00	10.142
349.36	10.037
349.72	10.491
350.08	9.955
350.45	10.114
350.81	9.955
351.17	10.827
351.53	10.008
351.89	11.162
352.26	9.701
352.62	9.627
352.98	9.771
353.34	10.007
353.70	10.092
354.07	10.432
354.43	11.010
354.79	10.396
355.15	10.228
355.51	10.161
355.87	9.200
356.24	10.342
356.60	9.165
356.96	9.711
357.32	9.219
357.68	9.151
358.04	10.180
358.40	10.000
358.77	11.038
359.13	9.232
359.49	9.368
359.85	9.717
360.21	10.545
360.57	9.045
360.93	9.803
361.29	10.316
361.66	9.269
362.02	10.230
362.38	9.417
362.74	9.148
363.10	10.248
363.46	9.834
363.82	8.807
364.18	9.711
364.54	9.474
364.90	9.766
365.26	8.069
365.62	10.000
365.98	9.530
366.35	9.732
366.71	9.728
367.07	8.863
367.43	10.046
367.79	9.954
368.15	9.498
368.51	9.540
368.87	9.471
369.23	9.533
369.59	10.178
369.95	9.736
370.31	10.331
370.67	9.697
371.03	9.695
371.39	8.596
371.75	9.216
372.11	9.146
372.47	9.208
372.83	9.686
373.19	9.940
373.55	9.417
373.91	8.521
374.27	10.026
374.63	9.066
374.99	9.350
375.35	10.000
375.71	9.935
376.07	8.909
376.42	9.383
376.78	9.323
377.14	10.044
377.50	8.792
377.86	9.483
378.22	10.180
378.58	9.453
378.94	9.800
379.30	9.607
379.66	9.406
380.02	9.175
380.38	9.447
380.74	9.690
381.09	8.479
381.45	9.261
381.81	10.070
382.17	9.026
382.53	9.181
382.89	10.271
383.25	9.437
383.61	9.201
383.97	9.128
384.32	9.031
384.68	8.121
385.04	9.138
385.40	9.075
385.76	9.320
386.12	8.977
386.48	10.059
386.83	9.893
387.19	8.691
387.55	8.568
387.91	9.646
388.27	9.411
388.62	9.049
388.98	9.193
389.34	8.662
389.70	9.123
390.06	10.006
390.42	9.337
390.77	9.994
391.13	9.448
391.49	9.118
391.85	8.848
392.20	9.727
392.56	9.510
392.92	9.706
393.28	9.232
393.64	8.939
393.99	9.413
394.35	8.995
394.71	9.281
395.07	8.922
395.42	8.966
395.78	9.628
396.14	9.210
396.50	9.323
396.85	8.825
397.21	8.876
397.57	9.187
397.92	9.164
398.28	8.202
398.64	8.524
399.00	8.691
399.35	9.110
399.71	8.750
400.07	8.815
400.42	8.673
400.78	9.201
401.14	8.651
401.49	8.926
401.85	9.651
402.21	10.023
402.57	9.448
402.92	9.397
403.28	8.665
403.63	8.294
403.99	7.957
404.35	9.437
404.70	9.065
405.06	8.696
405.42	8.958
405.77	9.815
406.13	8.860
406.49	9.178
406.84	9.529
407.20	10.061
407.55	8.601
407.91	8.799
408.27	9.246
408.62	8.551
408.98	9.402
409.34	8.974
409.69	8.405
410.05	9.027
410.40	9.049
410.76	9.591
411.11	9.585
411.47	9.705
411.83	9.759
412.18	8.916
412.54	9.484
412.89	9.488
413.25	8.973
413.60	8.501
413.96	9.324
414.31	9.972
414.67	9.362
415.03	8.246
415.38	9.142
415.74	9.285
416.09	9.870
416.45	8.954
416.80	9.486
417.16	8.174
417.51	8.655
417.87	9.197
418.22	9.102
418.58	9.170
418.93	9.837
419.29	9.001
419.64	8.403
420.00	8.724
420.35	9.208
420.71	9.650
421.06	7.763
421.42	9.404
421.77	8.831
422.12	8.827
422.48	8.858
422.83	9.529
423.19	9.019
423.54	8.518
423.90	9.111
424.25	9.387
424.61	8.898
424.96	9.390
425.31	9.607
425.67	8.535
426.02	9.297
426.38	8.783
426.73	8.650
427.09	9.862
427.44	8.411
427.79	9.121
428.15	8.390
428.50	9.157
428.85	8.840
429.21	10.106
429.56	8.736
429.92	9.435
430.27	8.916
430.62	8.842
430.98	8.952
431.33	9.140
431.68	8.860
432.04	9.192
432.39	9.427
432.74	8.562
433.10	9.302
433.45	8.863
433.80	9.496
434.16	9.194
434.51	8.736
434.86	9.066
435.22	9.724
435.57	8.491
435.92	8.904
436.28	9.272
436.63	9.230
436.98	8.803
437.34	9.696
437.69	8.586
438.04	8.726
438.39	8.616
438.75	7.914
439.10	9.884
439.45	8.608
439.81	8.249
440.16	9.169
440.51	9.030
440.86	9.505
441.22	9.218
441.57	9.591
441.92	8.972
442.27	9.646
442.63	9.190
442.98	9.552
443.33	9.574
443.68	10.010
444.03	9.972
444.39	9.570
444.74	10.005
445.09	8.718
445.44	9.009
445.79	9.866
446.15	10.329
446.50	9.612
446.85	9.533
447.20	9.043
447.55	8.891
447.91	8.429
448.26	8.192
448.61	8.767
448.96	9.281
449.31	9.544
449.66	9.368
450.02	9.019
450.37	9.909
450.72	8.773
451.07	9.510
451.42	9.301
451.77	9.950
452.12	8.747
452.47	8.972
452.83	9.065
453.18	9.340
453.53	8.960
453.88	9.001
454.23	9.492
454.58	9.925
454.93	8.495
455.28	9.874
455.63	9.153
455.98	9.944
456.34	10.071
456.69	9.289
457.04	8.865
457.39	9.756
457.74	9.172
458.09	9.171
458.44	9.644
458.79	8.974
459.14	9.649
459.49	9.508
459.84	9.549
460.19	8.773
460.54	9.994
460.89	9.052
461.24	8.851
461.59	9.685
461.94	8.785
462.29	10.022
462.64	9.173
462.99	10.044
463.34	10.253
463.69	9.496
464.04	9.894
464.39	9.922
464.74	9.863
465.09	9.400
465.44	9.442
465.79	9.889
466.14	8.755
466.49	9.526
466.84	9.421
467.19	9.595
467.54	8.872
467.89	9.425
468.24	9.252
468.59	8.859
468.94	9.207
469.29	9.238
469.64	8.264
469.99	9.114
470.34	9.530
470.68	9.433
471.03	8.906
471.38	9.156
471.73	8.908
472.08	10.089
472.43	9.693
472.78	9.887
473.13	9.735
473.48	9.607
473.83	8.938
474.17	9.848
474.52	9.501
474.87	9.801
475.22	8.958
475.57	9.242
475.92	10.154
476.27	9.372
476.61	9.242
476.96	9.020
477.31	10.149
477.66	10.231
478.01	9.558
478.36	8.973
478.70	9.113
479.05	9.969
479.40	9.230
479.75	10.086
480.10	9.522
480.45	9.936
480.79	10.113
481.14	9.421
481.49	8.814
481.84	9.574
482.19	9.591
482.53	9.751
482.88	9.526
483.23	9.071
483.58	9.563
483.92	8.954
484.27	9.441
484.62	9.158
484.97	9.370
485.31	9.222
485.66	9.182
486.01	8.403
486.36	8.740
486.70	9.377
487.05	9.925
487.40	9.705
487.75	9.924
488.09	9.552
488.44	9.926
488.79	9.983
489.13	9.776
489.48	9.165
489.83	8.974
490.17	9.437
490.52	9.688
490.87	9.095
491.22	9.619
491.56	9.599
491.91	9.812
492.26	9.736
492.60	9.401
492.95	9.434
493.30	10.444
493.64	9.374
493.99	9.561
494.34	9.756
494.68	9.465
495.03	10.176
495.37	10.031
495.72	9.705
496.07	9.597
496.41	9.481
496.76	9.591
497.11	9.299
497.45	9.279
497.80	9.907
498.14	9.751
498.49	9.559
498.84	9.781
499.18	9.627
499.53	10.314
499.87	9.451
500.22	8.949
500.56	9.987
500.91	9.108
501.26	9.727
501.60	9.456
501.95	9.509
502.29	10.224
502.64	10.013
502.98	9.577
503.33	8.942
503.67	9.071
504.02	9.413
504.36	9.651
504.71	9.784
505.06	9.914
505.40	9.781
505.75	9.973
506.09	9.945
506.44	9.842
506.78	9.725
507.13	10.005
507.47	10.232
507.82	9.991
508.16	9.560
508.51	9.330
508.85	10.250
509.19	9.995
509.54	10.279
509.88	9.859
510.23	10.685
510.57	10.198
510.92	10.208
511.26	9.957
511.61	9.802
511.95	9.614
512.30	10.684
512.64	9.695
512.98	10.955
513.33	9.577
513.67	10.607
514.02	10.066
514.36	10.281
514.70	10.000
515.05	9.958
515.39	10.026
515.74	10.445
516.08	10.143
516.42	10.623
516.77	10.200
517.11	10.108
517.46	9.862
517.80	10.743
518.14	10.174
518.49	9.761
518.83	10.271
519.17	9.855
519.52	10.587
519.86	10.771
520.20	10.437
520.55	10.843
520.89	10.417
521.23	11.223
521.58	10.791
521.92	10.878
522.26	10.137
522.61	10.069
522.95	9.516
523.29	10.057
523.64	10.426
523.98	10.610
524.32	11.805
524.66	11.383
525.01	10.532
525.35	10.167
525.69	10.905
526.04	10.505
526.38	10.977
526.72	10.611
527.06	11.202
527.41	10.321
527.75	10.926
528.09	10.153
528.43	10.657
528.78	10.983
529.12	10.436
529.46	9.949
529.80	10.870
530.15	11.652
530.49	10.024
530.83	10.153
531.17	10.573
531.51	10.590
531.86	10.697
532.20	11.220
532.54	10.832
532.88	10.848
533.22	10.784
533.57	10.675
533.91	11.167
534.25	11.193
534.59	10.747
534.93	10.809
535.27	10.930
535.62	10.972
535.96	11.331
536.30	11.046
536.64	11.111
536.98	10.947
537.32	11.296
537.66	11.167
538.01	10.755
538.35	10.414
538.69	10.817
539.03	11.527
539.37	11.131
539.71	10.691
540.05	11.091
540.39	9.841
540.73	9.957
541.07	10.055
541.42	11.341
541.76	10.142
542.10	10.676
542.44	10.110
542.78	11.010
543.12	10.906
543.46	10.684
543.80	10.612
544.14	10.652
544.48	10.993
544.82	10.832
545.16	10.435
545.50	10.545
545.84	11.023
546.18	11.420
546.52	10.255
546.86	11.384
547.20	11.005
547.54	10.549
547.88	10.549
548.22	10.000
548.56	10.240
548.90	10.866
549.24	10.578
549.58	10.789
549.92	10.332
550.26	10.874
550.60	10.530
550.94	11.320
551.28	11.353
551.62	10.916
551.96	10.680
552.30	11.472
552.64	10.579
552.98	10.667
553.32	10.611
553.66	10.740
554.00	10.719
554.34	10.553
554.68	11.039
555.02	10.644
555.36	10.914
555.69	10.634
556.03	10.404
556.37	11.014
556.71	10.146
557.05	11.502
557.39	11.347
557.73	9.643
558.07	10.861
558.41	10.498
558.75	10.548
559.08	11.134
559.42	9.739
559.76	11.058
560.10	10.650
560.44	11.412
560.78	11.563
561.12	10.283
561.45	10.645
561.79	11.050
562.13	10.783
562.47	10.358
562.81	9.747
563.15	10.859
563.48	11.374
563.82	11.125
564.16	10.357
564.50	10.072
564.84	10.324
565.17	10.941
565.51	10.644
565.85	10.036
566.19	10.196
566.52	9.713
566.86	11.036
567.20	9.570
567.54	10.196
567.88	10.652
568.21	11.364
568.55	9.928
568.89	10.213
569.23	10.351
569.56	9.730
569.90	10.406
570.24	9.578
570.57	9.814
570.91	9.430
571.25	9.575
571.59	10.242
571.92	9.755
572.26	9.767
572.60	9.746
572.93	10.437
573.27	9.778
573.61	9.767
573.95	10.148
574.28	9.741
574.62	9.118
574.96	9.572
575.29	9.518
575.63	9.610
575.97	9.940
576.30	9.697
576.64	10.093
576.98	9.704
577.31	9.658
577.65	9.802
577.98	9.168
578.32	9.450
578.66	9.631
578.99	9.769
579.33	9.938
579.67	9.927
580.00	9.688
580.34	9.773
580.67	9.819
581.01	9.736
581.35	9.527
581.68	9.406
582.02	9.365
582.35	9.355
582.69	9.665
583.02	9.662
583.36	10.125
583.70	9.884
584.03	9.911
584.37	9.825
584.70	9.535
585.04	9.463
585.37	9.589
585.71	9.773
586.04	9.555
586.38	9.889
586.72	9.351
587.05	9.593
587.39	9.549
587.72	9.522
588.06	9.913
588.39	10.057
588.73	9.683
589.06	9.735
589.40	9.773
589.73	9.801
590.07	10.245
590.40	10.007
590.73	9.721
591.07	10.201
591.40	9.720
591.74	10.056
592.07	10.191
592.41	9.385
592.74	9.798
593.08	9.873
593.41	9.886
593.75	9.626
594.08	10.148
594.41	10.032
594.75	9.731
595.08	9.690
595.42	9.773
595.75	9.913
596.09	10.030
596.42	9.781
596.75	10.691
597.09	10.061
597.42	9.654
597.75	10.074
598.09	10.159
598.42	10.052
598.76	9.744
599.09	9.968
599.42	9.152
599.76	10.102
600.09	9.943
600.42	10.544
600.76	9.676
601.09	9.658
601.42	9.921
601.76	9.828
602.09	9.757
602.42	9.669
602.76	10.111
603.09	9.875
603.42	9.971
603.76	9.584
604.09	10.291
604.42	9.688
604.76	9.741
605.09	10.132
605.42	10.367
605.75	9.538
606.09	9.481
606.42	9.668
606.75	9.820
607.09	9.601
607.42	9.942
607.75	9.574
608.08	9.708
608.42	9.754
608.75	10.158
609.08	9.975
609.41	9.969
609.75	10.134
610.08	9.850
610.41	10.323
610.74	9.706
611.07	10.036
611.41	10.045
611.74	10.624
612.07	10.986
612.40	9.458
612.73	9.829
613.07	9.633
613.40	10.346
613.73	9.870
614.06	10.108
614.39	10.253
614.72	9.801
615.06	9.528
615.39	10.440
615.72	10.474
616.05	10.005
616.38	9.939
616.71	10.815
617.05	9.851
617.38	10.433
617.71	10.259
618.04	10.470
618.37	10.055
618.70	10.916
619.03	10.155
619.36	10.296
619.69	10.250
620.03	9.856
620.36	10.307
620.69	10.241
621.02	10.564
621.35	9.942
621.68	11.280
622.01	10.819
622.34	9.066
622.67	10.447
623.00	8.907
623.33	10.750
623.66	10.117
623.99	9.941
624.32	11.241
624.65	10.039
624.99	10.858
625.32	10.843
625.65	10.384
625.98	9.898
626.31	10.064
626.64	11.209
626.97	9.227
627.30	10.934
627.63	10.878
627.96	11.336
628.29	10.584
628.62	10.495
628.95	9.728
629.28	10.195
629.61	10.017
629.94	10.293
630.26	10.254
630.59	10.104
630.92	9.091
631.25	10.465
631.58	10.169
631.91	10.028
632.24	11.143
632.57	11.006
632.90	10.130
633.23	10.510
633.56	11.122
633.89	11.260
634.22	10.707
634.55	12.109
634.88	10.173
635.20	10.980
635.53	12.090
635.86	11.809
636.19	11.453
636.52	12.131
636.85	11.849
637.18	9.771
637.51	10.753
637.83	10.299
638.16	11.060
638.49	9.977
638.82	10.710
639.15	10.767
639.48	11.201
639.81	12.009
640.13	11.779
640.46	9.697
640.79	10.784
641.12	9.441
641.45	9.536
641.77	13.864
642.10	11.155
642.43	11.037
642.76	11.518
643.09	10.274
643.41	11.625
643.74	11.034
644.07	12.690
644.40	9.335
644.73	9.724
645.05	11.160
645.38	10.935
645.71	10.704
646.04	13.343
646.36	10.219
646.69	9.816
647.02	12.538
647.35	11.450
647.67	10.628
648.00	9.873
648.33	11.111
648.66	10.984
648.98	10.884
649.31	10.014
649.64	11.952
649.96	11.273
650.29	9.597
650.62	9.477
650.94	9.009
651.27	7.784
651.60	9.649
651.92	11.246
652.25	11.143
652.58	11.279
652.90	8.576
653.23	12.113
653.56	10.699
653.88	13.624
654.21	8.873
654.54	11.272
654.86	11.190
655.19	10.414
655.52	10.535
655.84	8.446
656.17	9.780
656.49	14.277
656.82	16.170
657.15	13.088
657.47	10.389
657.80	8.049
658.13	6.454
658.45	8.697
658.78	10.842
659.10	10.398
659.43	10.622
659.75	10.174
660.08	10.924
660.41	10.008
660.73	10.718
661.06	9.838
661.38	10.048
661.71	11.034
662.03	11.287
662.36	13.238
662.68	9.381
663.01	10.088
663.33	11.909
663.66	13.004
663.98	10.192
664.31	12.008
664.63	8.863
664.96	14.156
665.28	9.982
665.61	11.713
665.93	10.714
666.26	12.366
666.58	9.779
666.91	9.907
667.23	12.952
667.56	12.032
667.88	10.000
668.21	8.008
668.53	11.004
668.86	12.181
669.18	9.980
669.50	11.531
669.83	10.200
670.15	9.646
670.48	10.516
670.80	12.620
671.13	12.665
671.45	10.039
671.77	9.228
672.10	9.167
672.42	10.194
672.75	9.677
673.07	10.448
673.39	9.553
673.72	10.906
674.04	10.862
674.37	11.091
674.69	12.169
675.01	10.286
675.34	9.924
675.66	11.236
675.98	11.754
676.31	12.305
676.63	13.498
676.95	14.176
677.28	11.290
677.60	8.858
677.92	11.132
678.25	12.431
678.57	9.253
678.89	11.092
679.22	11.150
679.54	9.744
679.86	9.322
680.18	10.614
680.51	10.535
680.83	12.439
681.15	10.517
681.48	12.781
681.80	13.472
682.12	9.441
682.44	11.519
682.77	9.220
683.09	10.606
683.41	10.853
683.73	10.816
684.06	10.148
684.38	9.302
684.70	10.592
685.02	9.983
685.34	9.983
685.67	9.464
685.99	8.742
686.31	9.302
686.63	10.111
686.96	10.883
687.28	10.261
687.60	9.259
687.92	9.807
688.24	11.686
688.56	10.172
688.89	11.797
689.21	11.350
689.53	9.412
689.85	8.087
690.17	10.000
690.49	10.159
690.82	10.693
691.14	9.919
691.46	9.178
691.78	10.129
692.10	8.624
692.42	8.036
692.74	10.708
693.06	8.333
693.39	11.954
693.71	7.519
694.03	10.409
694.35	11.619
694.67	11.294
694.99	8.723
695.31	9.934
695.63	11.472
695.95	9.524
696.27	10.110
696.59	12.168
696.91	10.135
697.23	11.868
697.56	7.943
697.88	10.227
698.20	10.169
698.52	12.311
698.84	9.356
699.16	14.286
699.48	12.343
699.80	9.362
700.12	9.170
700.44	10.829
700.76	11.164
701.08	9.927
701.40	11.399
701.72	11.194
702.04	10.963
702.36	6.021
702.68	7.579
703.00	9.291
703.32	9.113
703.64	11.980
703.96	10.979
704.28	10.074
704.60	13.671
704.91	9.949
705.23	9.589
705.55	8.914
705.87	13.030
706.19	8.589
706.51	9.940
706.83	6.628
707.15	7.143
707.47	9.579
707.79	10.262
708.11	6.992
708.43	9.462
708.74	7.143
709.06	12.529
709.38	11.502
709.70	10.174
710.02	10.078
710.34	14.096
710.66	10.056
710.98	10.109
711.29	9.615
711.61	6.780
711.93	11.111
712.25	9.189
712.57	12.684
712.89	11.176
713.20	7.396
713.52	13.873
713.84	10.306
714.16	15.263
714.48	12.629
714.80	11.948
715.11	10.761
715.43	7.692
715.75	10.526
716.07	11.050
716.39	10.383
716.70	9.639
717.02	8.525
717.34	8.711
717.66	11.074
717.97	9.247
718.29	7.560
718.61	9.868
718.93	7.767
719.24	11.491
719.56	8.896
719.88	10.210
720.20	7.097
720.51	11.180
720.83	10.625
721.15	9.211
721.46	8.562
721.78	7.333
722.10	8.091
722.42	10.403
722.73	10.323
723.05	11.228
723.37	7.986
723.68	9.677
724.00	10.830
724.32	8.803
724.63	7.692
724.95	12.766
725.27	6.272
725.58	8.481
725.90	13.103
726.22	9.091
726.53	10.390
726.85	11.321
727.16	9.970
727.48	12.844
727.80	8.609
728.11	8.834
728.43	9.428
728.74	8.027
729.06	8.940
729.38	7.792
729.69	9.396
730.01	12.500
730.32	6.364
730.64	8.805
730.96	8.696
731.27	9.497
731.59	9.341
731.90	10.909
732.22	9.896
732.53	4.972
732.85	11.429
733.16	10.557
733.48	7.622
733.80	7.242
734.11	8.262
734.43	11.081
734.74	10.380
735.06	7.789
735.37	9.189
735.69	8.108
736.00	10.734
736.32	9.704
736.63	10.556
736.95	6.897
737.26	10.000
737.58	10.000
737.89	8.235
738.21	4.587
738.52	9.836
738.83	13.311
739.15	7.092
739.46	9.524
739.78	6.442
740.09	5.731
740.41	9.038
740.72	7.000
741.04	11.974
741.35	16.140
741.66	7.059
741.98	9.016
742.29	12.134
742.61	9.211
742.92	9.231
743.23	10.469
743.55	7.752
743.86	10.000
744.18	6.612
744.49	7.595
744.80	11.523
745.12	10.127
745.43	9.756
745.74	5.172
746.06	6.356
746.37	11.814
746.68	9.756
747.00	13.750
747.31	6.009
747.62	11.923
747.94	8.502
748.25	8.032
748.56	7.755
748.88	11.111
749.19	9.483
749.50	3.463
749.82	10.843
750.13	13.879
750.44	4.333
750.75	8.000
751.07	7.077
751.38	11.356
751.69	9.585
752.01	9.709
752.32	10.784
752.63	5.442
752.94	7.266
753.26	11.152
753.57	7.407
753.88	8.614
754.19	10.932
754.51	9.003
754.82	10.932
755.13	11.148
755.44	6.485
755.75	7.237
756.07	11.343
756.38	9.434
756.69	8.133
757.00	8.310
757.31	5.191
757.63	7.161
757.94	7.746
758.25	9.255
758.56	8.497
758.87	10.000
759.18	11.200
759.50	11.331
759.81	10.924
760.12	9.434
760.43	9.115
760.74	8.128
761.05	8.250
761.36	5.542
761.67	7.107
761.99	7.297
762.30	9.756
762.61	5.941
762.92	10.821
763.23	7.865
763.54	7.914
763.85	10.997
764.16	8.081
764.47	6.690
764.78	9.265
765.10	5.572
765.41	10.000
765.72	7.407
766.03	12.994
766.34	6.897
766.65	6.620
766.96	7.171
767.27	10.599
767.58	10.945
767.89	13.462
768.20	4.695
768.51	7.870
768.82	8.835
769.13	7.197
769.44	2.692
769.75	11.191
770.06	10.769
770.37	10.236
770.68	6.383
770.99	0.810
771.30	11.481
771.61	9.886
771.92	5.185
772.23	11.336
772.54	6.019
772.85	11.982
773.16	12.381
773.47	3.175
773.78	1.081
774.09	9.659
774.39	12.000
774.70	10.929
775.01	3.049
775.32	4.706
775.63	5.521
775.94	-0.637
776.25	5.806
776.56	16.026
776.87	8.163
777.18	8.966
777.48	4.196
777.79	9.459
778.10	8.088
778.41	4.167
778.72	14.483
779.03	8.642
779.34	6.667
779.65	10.881
779.95	11.667
780.26	1.705
780.57	5.806
780.88	7.246
781.19	11.613
781.50	7.647
781.80	11.290
782.11	10.582
782.42	6.566
782.73	3.593
783.04	1.676
783.34	0.000
783.65	1.961
783.96	4.348
784.27	4.167
784.57	10.596
784.88	9.286
785.19	3.937
785.50	14.961
785.81	7.519
786.11	9.231
786.42	-2.158
786.73	-0.719
787.04	6.767
787.34	5.738
787.65	3.200
787.96	4.478
788.26	8.392
788.57	11.189
788.88	11.842
789.19	10.458
789.49	4.110
789.80	12.766
790.11	12.598
790.41	7.031
790.72	6.780
791.03	-5.825
791.33	4.348
791.64	14.912
791.95	7.143
792.25	11.429
792.56	12.500
792.87	3.125
793.17	4.464
793.48	4.167
793.79	-10.843
794.09	4.587
794.40	4.587
794.70	7.483
795.01	8.442
795.32	6.164
795.62	9.155
795.93	8.333
796.23	9.016
796.54	8.036
796.85	8.511
797.15	0.000
797.46	1.370
797.76	8.750
798.07	18.478
798.37	1.031
798.68	14.286
798.99	1.149
799.29	4.494
799.60	7.447
799.90	4.819
800.21	-9.231
800.51	8.955
800.82	1.471
801.12	-15.068
801.43	-4.412
801.73	-3.390
802.04	-10.606
802.34	-10.000
802.65	-15.254
802.95	4.478
803.26	-5.085
803.56	8.219
803.87	8.571
804.17	12.329
804.48	-14.035
804.78	-2.778
805.09	-5.172
805.39	21.622
805.70	2.817
806.00	7.317
806.30	-2.410
806.61	-1.370
806.91	1.923
807.22	7.778
807.52	1.149
807.83	-5.556
808.13	4.819
808.43	11.236
808.74	6.250
809.04	1.471
809.35	1.333
809.65	-4.286
809.95	1.370
810.26	-17.544
810.56	13.793
810.86	7.353
811.17	-12.281
811.47	1.639
811.77	-22.222
812.08	5.085
812.38	3.333
812.69	15.517
812.99	13.208
813.29	-12.821
813.59	0.000
813.90	12.281
814.20	-14.545
814.50	16.901
814.81	6.410
815.11	11.475
815.41	-2.985
815.72	22.414
816.02	7.143
816.32	6.667
816.62	0.000
816.93	4.444
817.23	7.407
817.53	-19.149
817.84	2.381
818.14	-23.529
818.44	-4.082
818.74	-8.889
819.04	-12.821
819.35	-25.714
819.65	-57.692
819.95	7.547
820.25	11.111
820.56	-4.762
820.86	-9.375
821.16	5.128
821.46	-32.558
821.76	-22.000
822.07	-1.786
822.37	4.348
822.67	2.128
822.97	-35.135
823.27	0.000
823.57	28.571
823.88	15.556
824.18	7.500
824.48	10.000
824.78	-8.000
825.08	-36.364
825.38	2.222
825.69	17.021
825.99	27.778
826.29	-57.143
826.59	-5.128
826.89	-6.977
827.19	-12.000
827.49	-8.824
827.79	33.333
828.09	-35.135
828.39	-13.333
828.70	-29.268
829.00	11.628
829.30	-32.143
829.60	5.882
829.90	-6.522
830.20	0.000
830.50	-6.897
830.80	-5.556
831.10	23.077
831.40	-2.941
831.70	-9.524
832.00	-3.226
832.30	-64.706
832.60	-33.333
832.90	-84.615
833.20	-36.842
833.50	-35.000
833.80	-5.263
834.10	-42.857
834.40	-8.333
834.70	6.250
835.00	-40.000
835.30	0.000
835.60	-33.333
835.90	12.000
836.20	-63.636
836.50	20.000
836.80	-21.212
837.10	14.815
837.40	3.704
837.70	-62.500
838.00	-17.857
838.30	-43.478
838.60	10.345
838.90	-78.571
839.19	-56.522
839.49	-108.333
839.79	-52.174
840.09	-68.750
840.39	5.000
840.69	45.161
840.99	-7.143
841.29	-53.333
841.59	-36.842
841.88	-15.385
842.18	-42.308
842.48	-40.000
842.78	20.000
843.08	20.000
843.38	16.129
843.68	-33.333
843.97	-23.529
844.27	-18.750
844.57	-26.316
844.87	-150.000
845.17	13.333
845.47	19.048
845.76	-14.286
846.06	-44.444
846.36	29.412
846.66	30.769
846.96	-6.667
847.25	-41.176
847.55	-34.783
847.85	-50.000
848.15	17.647
848.44	-63.636
848.74	-28.571
849.04	-29.167
849.34	-50.000
849.63	0.000
849.93	350.000
850.23	-20.000
850.53	38.462
850.82	-63.636
851.12	18.182
851.42	-72.727
851.71	30.769
852.01	-10.000
852.31	-53.846
852.61	-57.895
852.90	-25.000
853.20	-27.778
853.50	-77.778
853.79	-42.857
854.09	-54.545
854.39	-41.667
854.68	9.677
854.98	0.000
855.28	0.000
855.57	-32.143
855.87	0.000
856.17	-50.000
856.46	-14.815
856.76	-5.556
857.05	-43.478
857.35	-37.500
857.65	-123.077
857.94	-4.762
858.24	0.000
858.53	21.739
858.83	-35.294
859.13	5.882
859.42	0.000
859.72	42.857
860.01	10.000
860.31	-11.111
860.60	40.000
860.90	46.667
861.20	-38.889
861.49	23.077
861.79	36.667
862.08	-69.231
862.38	12.500
862.67	17.647
862.97	-62.500
863.26	-77.778
863.56	-30.000
863.85	-36.364
864.15	0.000
864.44	-133.333
864.74	0.000
865.03	-37.500
865.33	-100.000
865.62	0.000
865.92	9.091
866.21	4.348
866.51	-57.143
866.80	-220.000
867.10	-58.333
867.39	-141.667
867.69	1600.000
867.98	-71.429
868.27	5.882
868.57	-800.000
868.86	-10.000
869.16	38.095
869.45	45.833
869.75	-27.273
870.04	0.000
870.33	-33.333
870.63	-257.143
870.92	75.000
871.22	-100.000
871.51	-45.455
871.80	-366.667
872.10	-400.000
>>>>>End Processed Spectral Data<<<<<
