SpectraSuite Data File
++++++++++++++++++++++++++++++++++++
Date: Thu May 14 16:14:37 PDT 2015
User: schluterlab
Dark Spectrum Present: Yes
Reference Spectrum Present: Yes
Number of Sampled Component Spectra: 1
Spectrometers: USB2E3373
Integration Time (usec): 3000 (USB2E3373)
Spectra Averaged: 3 (USB2E3373)
Boxcar Smoothing: 0 (USB2E3373)
Correct for Electrical Dark: No (USB2E3373)
Strobe/Lamp Enabled: No (USB2E3373)
Correct for Detector Non-linearity: No (USB2E3373)
Correct for Stray Light: No (USB2E3373)
Number of Pixels in Processed Spectrum: 2048
>>>>>Begin Processed Spectral Data<<<<<
178.53	0.000
178.91	42.857
179.29	-1000.000
179.67	-500.000
180.04	135.714
180.42	70.000
180.80	260.000
181.18	-400.000
181.56	600.000
181.94	100.000
182.31	-150.000
182.69	300.000
183.07	-100.000
183.45	50.000
183.83	-83.333
184.20	0.000
184.58	400.000
184.96	-25.000
185.34	-55.556
185.72	-60.000
186.09	188.889
186.47	100.000
186.85	380.000
187.23	-33.333
187.61	-400.000
187.98	-20.000
188.36	125.000
188.74	-150.000
189.12	-166.667
189.49	31.250
189.87	-87.500
190.25	22.222
190.63	140.000
191.00	-44.444
191.38	0.000
191.76	-175.000
192.14	66.667
192.51	350.000
192.89	16.667
193.27	0.000
193.65	14.286
194.02	-900.000
194.40	71.429
194.78	142.857
195.15	0.000
195.53	-45.455
195.91	0.000
196.29	25.000
196.66	-53.846
197.04	-1400.000
197.42	-200.000
197.79	-350.000
198.17	-50.000
198.55	-128.571
198.92	-11.111
199.30	-137.500
199.68	81.818
200.05	42.857
200.43	-500.000
200.81	257.143
201.18	0.000
201.56	177.778
201.94	0.000
202.31	333.333
202.69	-177.778
203.07	800.000
203.44	33.333
203.82	0.000
204.19	50.000
204.57	-66.667
204.95	12.500
205.32	-100.000
205.70	150.000
206.08	-33.333
206.45	-83.333
206.83	240.000
207.20	-66.667
207.58	-180.000
207.96	-250.000
208.33	-50.000
208.71	41.667
209.08	83.333
209.46	0.000
209.84	83.333
210.21	600.000
210.59	350.000
210.96	200.000
211.34	-200.000
211.71	-25.000
212.09	-900.000
212.46	0.000
212.84	800.000
213.22	-80.000
213.59	0.000
213.97	-110.000
214.34	-166.667
214.72	116.667
215.09	-300.000
215.47	0.000
215.84	114.286
216.22	700.000
216.59	160.000
216.97	-60.000
217.34	-100.000
217.72	-25.000
218.09	-175.000
218.47	-25.000
218.84	0.000
219.22	120.000
219.59	41.176
219.97	-15.000
220.34	-350.000
220.72	-55.556
221.09	0.000
221.47	-366.667
221.84	-110.000
222.22	-142.857
222.59	0.000
222.97	75.000
223.34	-80.000
223.72	-1000.000
224.09	0.000
224.46	-150.000
224.84	80.000
225.21	-114.286
225.59	-300.000
225.96	-125.000
226.34	19.231
226.71	283.333
227.08	-200.000
227.46	-33.333
227.83	-275.000
228.21	-10.526
228.58	125.000
228.95	500.000
229.33	25.000
229.70	40.000
230.08	78.947
230.45	100.000
230.82	-300.000
231.20	50.000
231.57	83.333
231.95	27.273
232.32	-18.182
232.69	-20.000
233.07	50.000
233.44	35.294
233.81	-10.000
234.19	0.000
234.56	27.273
234.93	31.034
235.31	31.579
235.68	16.667
236.05	-45.000
236.43	19.231
236.80	56.000
237.17	22.222
237.55	9.091
237.92	-80.000
238.29	25.806
238.67	18.182
239.04	11.111
239.41	-4.762
239.79	8.696
240.16	3.704
240.53	8.696
240.91	17.647
241.28	18.033
241.65	29.851
242.02	20.270
242.40	18.462
242.77	10.667
243.14	8.537
243.51	11.842
243.89	11.538
244.26	17.822
244.63	14.706
245.00	15.888
245.38	19.298
245.75	3.540
246.12	16.667
246.49	13.178
246.87	9.286
247.24	19.205
247.61	20.395
247.98	16.779
248.36	21.605
248.73	14.110
249.10	18.579
249.47	25.373
249.84	24.084
250.22	23.316
250.59	17.778
250.96	19.091
251.33	16.327
251.70	18.803
252.08	21.250
252.45	25.820
252.82	18.182
253.19	17.969
253.56	20.913
253.94	16.923
254.31	17.803
254.68	21.329
255.05	18.893
255.42	15.986
255.79	20.065
256.16	19.205
256.54	17.219
256.91	20.328
257.28	19.344
257.65	15.605
258.02	15.044
258.39	15.954
258.76	21.713
259.14	22.126
259.51	18.732
259.88	16.714
260.25	20.000
260.62	20.274
260.99	20.765
261.36	21.984
261.73	18.833
262.10	16.484
262.47	22.788
262.85	21.717
263.22	16.364
263.59	19.474
263.96	19.949
264.33	18.159
264.70	21.235
265.07	18.854
265.44	22.676
265.81	18.750
266.18	19.955
266.55	19.420
266.92	18.451
267.29	19.912
267.66	20.399
268.03	19.432
268.40	19.415
268.77	17.540
269.14	17.621
269.51	18.640
269.88	20.902
270.25	17.505
270.62	19.831
270.99	22.424
271.36	20.000
271.73	20.236
272.10	20.842
272.47	21.443
272.84	20.281
273.21	19.038
273.58	20.363
273.95	18.077
274.32	16.350
274.69	17.795
275.06	19.414
275.43	17.006
275.80	21.517
276.17	19.259
276.54	18.657
276.91	19.678
277.28	17.722
277.65	18.851
278.02	18.750
278.39	19.022
278.76	18.278
279.13	20.745
279.50	19.931
279.87	18.426
280.23	16.725
280.60	18.814
280.97	17.763
281.34	17.487
281.71	19.459
282.08	18.439
282.45	17.840
282.82	19.309
283.19	16.801
283.56	18.361
283.92	17.718
284.29	18.325
284.66	20.033
285.03	17.628
285.40	17.774
285.77	19.350
286.14	17.710
286.51	18.874
286.87	18.325
287.24	17.018
287.61	17.040
287.98	18.127
288.35	17.899
288.72	16.124
289.08	19.180
289.45	17.899
289.82	17.620
290.19	17.672
290.56	17.887
290.93	16.976
291.29	17.493
291.66	18.595
292.03	15.061
292.40	16.463
292.77	15.768
293.13	17.050
293.50	14.717
293.87	15.839
294.24	17.333
294.60	15.550
294.97	17.047
295.34	15.493
295.71	14.376
296.08	15.504
296.44	14.951
296.81	15.591
297.18	15.442
297.55	14.741
297.91	13.760
298.28	13.981
298.65	14.031
299.02	14.758
299.38	16.018
299.75	15.070
300.12	14.352
300.48	15.553
300.85	13.836
301.22	14.765
301.59	13.584
301.95	15.480
302.32	15.889
302.69	13.253
303.05	14.146
303.42	15.078
303.79	14.792
304.15	13.775
304.52	13.742
304.89	14.031
305.25	13.561
305.62	14.525
305.99	13.814
306.35	15.323
306.72	13.961
307.09	13.604
307.45	14.803
307.82	14.834
308.19	12.412
308.55	15.236
308.92	14.800
309.29	15.326
309.65	13.548
310.02	13.861
310.38	13.976
310.75	14.757
311.12	14.861
311.48	13.978
311.85	14.340
312.22	13.852
312.58	15.023
312.95	13.576
313.31	14.724
313.68	16.117
314.05	15.357
314.41	15.847
314.78	14.714
315.14	16.152
315.51	15.974
315.87	15.842
316.24	16.621
316.61	15.897
316.97	15.837
317.34	15.256
317.70	16.245
318.07	16.755
318.43	17.007
318.80	18.144
319.16	17.167
319.53	15.510
319.89	17.178
320.26	15.391
320.62	16.135
320.99	18.375
321.35	17.745
321.72	17.953
322.08	17.313
322.45	18.519
322.81	17.780
323.18	17.788
323.54	18.017
323.91	18.505
324.27	18.933
324.64	19.060
325.00	17.330
325.37	19.247
325.73	19.421
326.10	18.978
326.46	19.218
326.83	19.456
327.19	18.189
327.56	20.316
327.92	18.725
328.29	20.323
328.65	20.519
329.01	19.289
329.38	20.219
329.74	20.120
330.11	19.606
330.47	19.545
330.84	21.102
331.20	21.417
331.56	20.191
331.93	21.172
332.29	19.576
332.66	20.764
333.02	20.268
333.38	20.302
333.75	20.791
334.11	21.018
334.48	20.132
334.84	21.750
335.20	20.319
335.57	21.164
335.93	22.066
336.29	21.048
336.66	20.269
337.02	20.318
337.38	21.514
337.75	20.083
338.11	21.362
338.47	20.347
338.84	19.882
339.20	19.461
339.56	19.852
339.93	21.346
340.29	19.807
340.65	20.438
341.02	20.511
341.38	21.423
341.74	20.500
342.11	20.434
342.47	19.301
342.83	21.256
343.20	20.278
343.56	21.251
343.92	21.297
344.28	20.547
344.65	21.008
345.01	19.969
345.37	21.540
345.73	20.187
346.10	20.983
346.46	19.699
346.82	20.824
347.19	20.321
347.55	22.003
347.91	20.579
348.27	20.106
348.63	20.259
349.00	19.985
349.36	21.190
349.72	20.536
350.08	20.505
350.45	19.696
350.81	20.211
351.17	20.000
351.53	21.001
351.89	20.577
352.26	19.776
352.62	20.075
352.98	20.992
353.34	19.193
353.70	20.493
354.07	21.162
354.43	20.881
354.79	20.494
355.15	20.383
355.51	20.614
355.87	19.746
356.24	21.445
356.60	19.364
356.96	19.348
357.32	20.000
357.68	20.278
358.04	19.910
358.40	20.970
358.77	20.687
359.13	19.719
359.49	19.331
359.85	21.102
360.21	20.373
360.57	19.742
360.93	20.381
361.29	20.421
361.66	20.492
362.02	20.946
362.38	20.731
362.74	20.321
363.10	21.320
363.46	20.360
363.82	20.810
364.18	20.197
364.54	21.577
364.90	20.134
365.26	19.724
365.62	21.533
365.98	20.150
366.35	20.738
366.71	21.156
367.07	20.704
367.43	21.602
367.79	21.632
368.15	21.940
368.51	20.907
368.87	20.379
369.23	20.933
369.59	21.516
369.95	20.554
370.31	21.337
370.67	21.458
371.03	20.914
371.39	20.685
371.75	20.358
372.11	21.138
372.47	20.379
372.83	21.335
373.19	22.015
373.55	20.393
373.91	20.314
374.27	21.410
374.63	21.380
374.99	21.286
375.35	21.883
375.71	21.484
376.07	20.852
376.42	21.159
376.78	20.883
377.14	21.834
377.50	21.695
377.86	21.121
378.22	21.617
378.58	21.700
378.94	21.655
379.30	21.500
379.66	21.752
380.02	22.677
380.38	22.062
380.74	22.141
381.09	21.312
381.45	21.989
381.81	22.365
382.17	22.803
382.53	21.696
382.89	22.912
383.25	22.743
383.61	22.280
383.97	22.674
384.32	22.010
384.68	21.462
385.04	22.383
385.40	23.276
385.76	22.509
386.12	23.459
386.48	22.941
386.83	23.719
387.19	22.190
387.55	21.948
387.91	23.059
388.27	23.268
388.62	23.196
388.98	22.955
389.34	23.276
389.70	23.533
390.06	23.031
390.42	22.229
390.77	23.961
391.13	22.711
391.49	23.792
391.85	23.152
392.20	23.310
392.56	23.981
392.92	22.901
393.28	23.936
393.64	23.408
393.99	24.056
394.35	24.708
394.71	24.072
395.07	23.413
395.42	24.386
395.78	25.655
396.14	24.777
396.50	23.278
396.85	23.435
397.21	24.615
397.57	24.264
397.92	24.513
398.28	23.900
398.64	24.142
399.00	23.403
399.35	24.764
399.71	23.913
400.07	24.256
400.42	24.505
400.78	25.405
401.14	25.213
401.49	25.867
401.85	25.349
402.21	24.855
402.57	25.587
402.92	25.118
403.28	24.532
403.63	24.403
403.99	25.534
404.35	24.673
404.70	25.949
405.06	24.620
405.42	25.585
405.77	25.300
406.13	24.203
406.49	25.619
406.84	25.706
407.20	25.489
407.55	25.500
407.91	26.210
408.27	25.854
408.62	25.596
408.98	25.711
409.34	25.513
409.69	25.773
410.05	27.198
410.40	26.392
410.76	25.351
411.11	26.534
411.47	26.413
411.83	25.808
412.18	27.349
412.54	25.667
412.89	25.960
413.25	26.637
413.60	26.709
413.96	26.865
414.31	26.232
414.67	26.774
415.03	26.892
415.38	26.608
415.74	26.695
416.09	27.637
416.45	26.362
416.80	26.438
417.16	27.395
417.51	27.086
417.87	27.468
418.22	27.186
418.58	26.952
418.93	28.231
419.29	27.065
419.64	27.071
420.00	27.181
420.35	27.232
420.71	26.479
421.06	27.487
421.42	27.695
421.77	27.356
422.12	27.378
422.48	28.008
422.83	28.258
423.19	27.162
423.54	28.595
423.90	27.775
424.25	29.067
424.61	27.669
424.96	27.293
425.31	27.601
425.67	27.375
426.02	28.777
426.38	28.588
426.73	28.013
427.09	28.604
427.44	27.307
427.79	27.418
428.15	27.683
428.50	28.146
428.85	28.588
429.21	28.830
429.56	28.085
429.92	26.880
430.27	28.145
430.62	28.481
430.98	28.923
431.33	28.690
431.68	27.730
432.04	29.253
432.39	28.923
432.74	29.395
433.10	28.989
433.45	28.372
433.80	28.916
434.16	28.719
434.51	29.342
434.86	28.502
435.22	29.330
435.57	30.248
435.92	29.160
436.28	29.636
436.63	29.929
436.98	29.469
437.34	29.030
437.69	29.554
438.04	29.350
438.39	28.834
438.75	28.445
439.10	30.603
439.45	29.011
439.81	29.040
440.16	29.651
440.51	29.264
440.86	28.961
441.22	29.100
441.57	30.189
441.92	29.486
442.27	30.152
442.63	29.856
442.98	29.936
443.33	30.037
443.68	30.476
444.03	30.668
444.39	30.559
444.74	30.066
445.09	29.346
445.44	29.715
445.79	30.987
446.15	29.702
446.50	29.509
446.85	29.864
447.20	30.561
447.55	30.805
447.91	30.471
448.26	29.968
448.61	30.234
448.96	30.687
449.31	30.011
449.66	29.956
450.02	29.641
450.37	30.314
450.72	29.925
451.07	31.093
451.42	30.560
451.77	30.406
452.12	30.926
452.47	29.590
452.83	30.349
453.18	30.181
453.53	30.155
453.88	30.149
454.23	30.678
454.58	30.238
454.93	30.704
455.28	31.186
455.63	30.870
455.98	30.447
456.34	30.565
456.69	30.864
457.04	30.910
457.39	30.876
457.74	31.264
458.09	30.862
458.44	30.765
458.79	29.706
459.14	29.733
459.49	30.956
459.84	30.745
460.19	29.706
460.54	30.210
460.89	31.128
461.24	30.690
461.59	31.323
461.94	30.462
462.29	31.803
462.64	30.296
462.99	31.513
463.34	32.317
463.69	30.657
464.04	31.518
464.39	31.222
464.74	30.616
465.09	30.969
465.44	30.848
465.79	31.042
466.14	30.485
466.49	31.474
466.84	30.854
467.19	31.503
467.54	30.141
467.89	30.287
468.24	31.413
468.59	30.631
468.94	30.478
469.29	30.234
469.64	30.579
469.99	30.338
470.34	31.002
470.68	31.716
471.03	32.286
471.38	31.458
471.73	30.429
472.08	31.536
472.43	31.005
472.78	30.982
473.13	30.784
473.48	31.964
473.83	31.631
474.17	30.891
474.52	32.231
474.87	29.790
475.22	30.986
475.57	31.464
475.92	31.309
476.27	30.884
476.61	30.530
476.96	30.657
477.31	31.089
477.66	32.162
478.01	30.605
478.36	31.057
478.70	30.148
479.05	31.237
479.40	30.898
479.75	30.980
480.10	31.170
480.45	31.814
480.79	31.474
481.14	30.561
481.49	31.395
481.84	32.158
482.19	31.011
482.53	31.526
482.88	30.970
483.23	32.192
483.58	30.917
483.92	30.718
484.27	31.626
484.62	31.559
484.97	30.560
485.31	31.116
485.66	29.490
486.01	29.086
486.36	29.496
486.70	30.459
487.05	31.280
487.40	31.112
487.75	31.221
488.09	31.840
488.44	31.319
488.79	31.939
489.13	31.644
489.48	30.602
489.83	30.986
490.17	30.701
490.52	31.856
490.87	30.922
491.22	31.282
491.56	31.271
491.91	31.574
492.26	30.939
492.60	31.745
492.95	31.988
493.30	30.569
493.64	31.625
493.99	31.140
494.34	31.446
494.68	31.263
495.03	32.291
495.37	31.203
495.72	31.610
496.07	31.201
496.41	31.446
496.76	31.776
497.11	30.318
497.45	31.075
497.80	30.964
498.14	30.748
498.49	31.434
498.84	32.404
499.18	31.534
499.53	30.987
499.87	31.473
500.22	31.300
500.56	31.534
500.91	32.128
501.26	32.091
501.60	30.137
501.95	31.220
502.29	30.891
502.64	31.439
502.98	30.932
503.33	30.756
503.67	30.397
504.02	30.342
504.36	31.680
504.71	31.971
505.06	30.014
505.40	31.399
505.75	31.694
506.09	31.630
506.44	31.569
506.78	30.963
507.13	31.397
507.47	31.075
507.82	30.682
508.16	31.023
508.51	30.849
508.85	30.515
509.19	30.886
509.54	32.277
509.88	31.666
510.23	31.909
510.57	31.706
510.92	31.495
511.26	31.602
511.61	30.565
511.95	30.991
512.30	31.758
512.64	30.885
512.98	31.616
513.33	32.107
513.67	30.954
514.02	31.937
514.36	30.844
514.70	32.135
515.05	31.543
515.39	31.391
515.74	32.238
516.08	31.907
516.42	32.810
516.77	32.229
517.11	31.253
517.46	32.131
517.80	32.977
518.14	31.610
518.49	31.833
518.83	31.879
519.17	30.856
519.52	31.971
519.86	31.098
520.20	31.896
520.55	31.051
520.89	32.545
521.23	31.770
521.58	31.921
521.92	31.841
522.26	30.584
522.61	31.829
522.95	32.295
523.29	31.149
523.64	31.166
523.98	32.573
524.32	32.837
524.66	31.417
525.01	31.484
525.35	30.959
525.69	32.367
526.04	30.999
526.38	31.667
526.72	31.776
527.06	32.199
527.41	32.187
527.75	32.720
528.09	31.051
528.43	31.912
528.78	31.561
529.12	30.906
529.46	31.310
529.80	31.236
530.15	32.058
530.49	31.198
530.83	31.936
531.17	31.123
531.51	30.686
531.86	32.031
532.20	31.768
532.54	31.777
532.88	31.091
533.22	31.998
533.57	31.333
533.91	31.201
534.25	30.582
534.59	31.782
534.93	30.787
535.27	31.042
535.62	31.211
535.96	32.365
536.30	30.611
536.64	31.171
536.98	32.718
537.32	30.988
537.66	31.566
538.01	30.514
538.35	30.694
538.69	30.709
539.03	31.085
539.37	30.506
539.71	30.991
540.05	30.456
540.39	31.235
540.73	30.298
541.07	30.779
541.42	29.711
541.76	30.130
542.10	30.579
542.44	29.598
542.78	31.265
543.12	30.513
543.46	31.258
543.80	29.317
544.14	30.461
544.48	30.851
544.82	30.042
545.16	30.769
545.50	30.737
545.84	29.577
546.18	31.420
546.52	30.510
546.86	30.943
547.20	31.234
547.54	30.275
547.88	29.717
548.22	29.766
548.56	30.544
548.90	30.328
549.24	30.152
549.58	30.095
549.92	30.102
550.26	30.615
550.60	30.121
550.94	30.530
551.28	29.703
551.62	32.008
551.96	29.385
552.30	31.421
552.64	28.376
552.98	29.881
553.32	29.839
553.66	30.225
554.00	30.265
554.34	29.151
554.68	29.632
555.02	29.566
555.36	31.558
555.69	29.532
556.03	29.130
556.37	30.663
556.71	30.945
557.05	29.712
557.39	29.529
557.73	30.978
558.07	30.265
558.41	30.764
558.75	30.020
559.08	28.810
559.42	30.178
559.76	30.122
560.10	29.270
560.44	29.683
560.78	30.062
561.12	28.818
561.45	29.440
561.79	29.243
562.13	30.006
562.47	27.928
562.81	29.494
563.15	29.356
563.48	29.584
563.82	28.174
564.16	28.528
564.50	28.963
564.84	29.322
565.17	28.412
565.51	28.021
565.85	29.632
566.19	28.802
566.52	28.613
566.86	28.353
567.20	27.624
567.54	28.996
567.88	28.389
568.21	28.310
568.55	28.297
568.89	28.098
569.23	28.095
569.56	28.175
569.90	27.334
570.24	27.825
570.57	26.588
570.91	27.159
571.25	26.699
571.59	26.830
571.92	26.599
572.26	27.263
572.60	26.727
572.93	26.858
573.27	26.918
573.61	26.628
573.95	26.730
574.28	26.419
574.62	25.853
574.96	25.695
575.29	25.644
575.63	26.288
575.97	26.467
576.30	25.981
576.64	26.223
576.98	26.014
577.31	25.799
577.65	26.310
577.98	25.715
578.32	25.703
578.66	25.971
578.99	26.111
579.33	26.478
579.67	25.839
580.00	25.916
580.34	26.156
580.67	26.412
581.01	25.617
581.35	25.599
581.68	25.129
582.02	25.684
582.35	25.682
582.69	25.676
583.02	25.715
583.36	25.981
583.70	26.244
584.03	26.134
584.37	26.290
584.70	25.672
585.04	25.087
585.37	25.917
585.71	25.761
586.04	25.165
586.38	25.511
586.72	25.144
587.05	25.505
587.39	25.156
587.72	25.167
588.06	25.895
588.39	25.541
588.73	25.741
589.06	26.157
589.40	25.722
589.73	25.643
590.07	26.194
590.40	26.504
590.73	26.440
591.07	26.136
591.40	25.855
591.74	26.232
592.07	25.619
592.41	26.144
592.74	26.482
593.08	25.287
593.41	25.051
593.75	25.000
594.08	25.598
594.41	25.897
594.75	25.573
595.08	25.673
595.42	24.610
595.75	26.445
596.09	26.228
596.42	26.012
596.75	25.357
597.09	25.980
597.42	25.546
597.75	25.598
598.09	25.357
598.42	26.136
598.76	24.570
599.09	24.956
599.42	23.835
599.76	25.157
600.09	25.259
600.42	25.025
600.76	24.670
601.09	24.959
601.42	24.785
601.76	24.448
602.09	24.839
602.42	24.973
602.76	24.686
603.09	25.000
603.42	25.434
603.76	24.595
604.09	25.621
604.42	25.174
604.76	24.315
605.09	25.329
605.42	24.482
605.75	24.615
606.09	24.337
606.42	24.334
606.75	24.475
607.09	24.808
607.42	24.277
607.75	24.658
608.08	24.743
608.42	24.627
608.75	25.207
609.08	24.321
609.41	24.790
609.75	25.759
610.08	25.154
610.41	24.511
610.74	24.748
611.07	24.556
611.41	25.022
611.74	24.573
612.07	24.918
612.40	24.097
612.73	25.183
613.07	24.548
613.40	25.746
613.73	25.373
614.06	24.975
614.39	24.295
614.72	24.842
615.06	23.580
615.39	24.118
615.72	24.408
616.05	24.624
616.38	25.328
616.71	25.862
617.05	24.547
617.38	25.361
617.71	24.838
618.04	24.879
618.37	25.628
618.70	25.000
619.03	24.014
619.36	25.647
619.69	25.432
620.03	24.670
620.36	24.172
620.69	25.231
621.02	25.197
621.35	25.689
621.68	25.597
622.01	24.982
622.34	24.547
622.67	25.223
623.00	24.359
623.33	25.481
623.66	24.773
623.99	25.411
624.32	26.316
624.65	24.646
624.99	24.707
625.32	24.690
625.65	25.354
625.98	24.881
626.31	24.947
626.64	25.788
626.97	24.831
627.30	24.374
627.63	24.606
627.96	25.976
628.29	25.914
628.62	25.357
628.95	25.592
629.28	25.319
629.61	25.421
629.94	24.854
630.26	24.831
630.59	24.525
630.92	25.195
631.25	25.671
631.58	26.554
631.91	24.930
632.24	24.688
632.57	25.427
632.90	24.774
633.23	28.163
633.56	26.122
633.89	25.207
634.22	25.156
634.55	25.887
634.88	24.784
635.20	27.664
635.53	24.859
635.86	26.002
636.19	26.087
636.52	27.743
636.85	24.719
637.18	25.676
637.51	25.161
637.83	25.692
638.16	25.691
638.49	25.939
638.82	23.788
639.15	24.742
639.48	26.559
639.81	26.097
640.13	25.677
640.46	25.091
640.79	25.613
641.12	25.839
641.45	22.710
641.77	26.316
642.10	25.459
642.43	27.527
642.76	25.610
643.09	25.753
643.41	25.070
643.74	27.034
644.07	25.931
644.40	25.884
644.73	24.819
645.05	22.467
645.38	25.036
645.71	26.393
646.04	26.112
646.36	26.131
646.69	25.460
647.02	27.370
647.35	26.260
647.67	27.697
648.00	24.841
648.33	25.826
648.66	26.819
648.98	25.306
649.31	23.410
649.64	24.303
649.96	24.403
650.29	23.783
650.62	25.884
650.94	25.375
651.27	23.503
651.60	23.538
651.92	27.508
652.25	26.049
652.58	24.484
652.90	25.145
653.23	22.817
653.56	25.250
653.88	25.000
654.21	24.648
654.54	25.145
654.86	25.354
655.19	23.588
655.52	22.506
655.84	20.523
656.17	23.827
656.49	34.326
656.82	37.991
657.15	30.275
657.47	23.145
657.80	17.209
658.13	13.934
658.45	18.266
658.78	23.051
659.10	22.717
659.43	22.741
659.75	22.416
660.08	21.737
660.41	21.836
660.73	23.033
661.06	23.054
661.38	26.156
661.71	23.448
662.03	26.631
662.36	25.939
662.68	25.891
663.01	24.602
663.33	25.520
663.66	27.106
663.98	27.308
664.31	24.765
664.63	22.351
664.96	26.497
665.28	23.230
665.61	25.874
665.93	23.393
666.26	25.090
666.58	20.664
666.91	25.234
667.23	24.952
667.56	25.838
667.88	25.400
668.21	24.023
668.53	24.324
668.86	23.183
669.18	23.829
669.50	24.652
669.83	23.800
670.15	23.228
670.48	24.405
670.80	23.709
671.13	23.251
671.45	22.047
671.77	24.482
672.10	20.667
672.42	24.272
672.75	21.198
673.07	21.493
673.39	21.109
673.72	24.497
674.04	24.828
674.37	24.150
674.69	22.575
675.01	23.048
675.34	23.092
675.66	22.097
675.98	22.201
676.31	24.414
676.63	24.905
676.95	24.330
677.28	23.589
677.60	21.457
677.92	24.376
678.25	23.035
678.57	24.021
678.89	23.720
679.22	20.557
679.54	22.393
679.86	19.322
680.18	22.720
680.51	22.327
680.83	21.768
681.15	20.345
681.48	24.180
681.80	23.316
682.12	22.378
682.44	22.371
682.77	22.872
683.09	20.644
683.41	23.450
683.73	22.391
684.06	23.616
684.38	20.036
684.70	23.339
685.02	22.719
685.34	20.133
685.67	22.397
685.99	19.325
686.31	20.058
686.63	21.169
686.96	21.136
687.28	21.336
687.60	20.370
687.92	21.543
688.24	21.369
688.56	23.103
688.89	23.412
689.21	25.245
689.53	20.980
689.85	19.329
690.17	19.815
690.49	19.721
690.82	23.960
691.14	20.445
691.46	20.650
691.78	23.941
692.10	21.468
692.42	22.143
692.74	21.779
693.06	20.000
693.39	24.288
693.71	21.805
694.03	19.145
694.35	21.333
694.67	19.302
694.99	22.128
695.31	22.737
695.63	22.511
695.95	19.669
696.27	19.560
696.59	23.894
696.91	22.297
697.23	22.637
697.56	18.330
697.88	22.348
698.20	19.774
698.52	21.780
698.84	21.206
699.16	23.265
699.48	23.431
699.80	21.489
700.12	22.707
700.44	20.737
700.76	21.615
701.08	23.729
701.40	22.021
701.72	22.388
702.04	22.193
702.36	19.634
702.68	21.027
703.00	19.804
703.32	22.906
703.64	22.005
703.96	21.718
704.28	20.639
704.60	23.797
704.91	22.959
705.23	21.370
705.55	22.841
705.87	23.939
706.19	24.847
706.51	16.265
706.83	21.326
707.15	17.989
707.47	19.393
707.79	18.341
708.11	17.797
708.43	19.570
708.74	21.429
709.06	21.810
709.38	21.127
709.70	23.077
710.02	21.964
710.34	23.936
710.66	17.039
710.98	21.038
711.29	15.659
711.61	20.339
711.93	20.228
712.25	19.459
712.57	24.484
712.89	19.706
713.20	18.343
713.52	25.145
713.84	18.942
714.16	24.474
714.48	19.845
714.80	23.896
715.11	18.898
715.43	20.424
715.75	20.526
716.07	19.890
716.39	23.770
716.70	18.976
717.02	19.344
717.34	19.512
717.66	23.490
717.97	18.151
718.29	17.182
718.61	19.079
718.93	21.036
719.24	18.323
719.56	20.859
719.88	20.120
720.20	19.355
720.51	19.565
720.83	22.813
721.15	18.092
721.46	16.096
721.78	19.000
722.10	17.152
722.42	14.430
722.73	17.097
723.05	21.754
723.37	17.014
723.68	19.713
724.00	20.217
724.32	19.014
724.63	19.930
724.95	22.340
725.27	17.073
725.58	16.961
725.90	20.690
726.22	19.122
726.53	20.455
726.85	17.296
727.16	16.314
727.48	22.018
727.80	20.530
728.11	16.961
728.43	16.835
728.74	21.739
729.06	17.881
729.38	18.506
729.69	21.141
730.01	21.131
730.32	17.273
730.64	17.610
730.96	17.391
731.27	20.670
731.59	17.308
731.90	17.403
732.22	17.448
732.53	16.022
732.85	20.286
733.16	17.302
733.48	18.293
733.80	20.056
734.11	20.513
734.43	20.270
734.74	20.000
735.06	17.337
735.37	17.568
735.69	18.919
736.00	18.362
736.32	17.790
736.63	18.611
736.95	16.092
737.26	17.576
737.58	17.273
737.89	19.412
738.21	18.349
738.52	17.377
738.83	20.819
739.15	18.085
739.46	21.088
739.78	19.325
740.09	17.479
740.41	19.825
740.72	19.333
741.04	17.476
741.35	17.544
741.66	16.863
741.98	21.311
742.29	17.155
742.61	17.105
742.92	16.923
743.23	18.773
743.55	20.155
743.86	18.000
744.18	18.182
744.49	14.768
744.80	19.753
745.12	21.941
745.43	15.447
745.74	20.259
746.06	11.441
746.37	21.519
746.68	15.854
747.00	19.583
747.31	17.167
747.62	18.462
747.94	17.814
748.25	14.458
748.56	13.061
748.88	16.239
749.19	21.552
749.50	16.450
749.82	21.285
750.13	19.573
750.44	14.333
750.75	15.077
751.07	20.308
751.38	18.297
751.69	19.808
752.01	15.210
752.32	15.359
752.63	20.748
752.94	15.917
753.26	17.100
753.57	18.889
753.88	14.607
754.19	14.791
754.51	18.006
754.82	18.971
755.13	21.311
755.44	20.137
755.75	16.776
756.07	18.806
756.38	19.497
756.69	18.675
757.00	16.066
757.31	15.847
757.63	12.020
757.94	14.789
758.25	18.059
758.56	16.776
758.87	18.864
759.18	15.467
759.50	20.963
759.81	18.487
760.12	17.520
760.43	18.490
760.74	19.212
761.05	16.750
761.36	15.663
761.67	14.975
761.99	16.486
762.30	15.244
762.61	15.182
762.92	16.045
763.23	21.723
763.54	19.065
763.85	11.684
764.16	17.508
764.47	14.085
764.78	19.169
765.10	16.716
765.41	19.231
765.72	12.434
766.03	15.537
766.34	16.614
766.65	11.150
766.96	16.733
767.27	17.512
767.58	12.935
767.89	22.115
768.20	14.085
768.51	14.815
768.82	15.663
769.13	14.773
769.44	13.462
769.75	17.690
770.06	18.846
770.37	16.929
770.68	14.894
770.99	12.955
771.30	23.704
771.61	16.730
771.92	17.037
772.23	19.028
772.54	14.352
772.85	20.737
773.16	20.000
773.47	16.931
773.78	10.270
774.09	21.591
774.39	26.000
774.70	21.311
775.01	12.805
775.32	12.353
775.63	15.951
775.94	13.376
776.25	19.355
776.56	19.231
776.87	19.728
777.18	14.483
777.48	11.189
777.79	14.865
778.10	10.294
778.41	16.667
778.72	12.414
779.03	16.667
779.34	15.758
779.65	17.617
779.95	18.889
780.26	12.500
780.57	16.774
780.88	21.739
781.19	14.839
781.50	20.588
781.80	16.667
782.11	17.460
782.42	9.596
782.73	10.180
783.04	12.291
783.34	9.091
783.65	11.765
783.96	8.075
784.27	13.690
784.57	14.570
784.88	20.000
785.19	11.024
785.50	16.535
785.81	21.805
786.11	16.154
786.42	11.511
786.73	8.633
787.04	18.797
787.34	18.852
787.65	10.400
787.96	15.672
788.26	21.678
788.57	20.280
788.88	16.447
789.19	15.033
789.49	10.959
789.80	17.730
790.11	11.024
790.41	13.281
790.72	12.712
791.03	11.650
791.33	18.261
791.64	18.421
791.95	5.357
792.25	19.048
792.56	12.500
792.87	10.417
793.17	20.536
793.48	8.333
793.79	9.639
794.09	4.587
794.40	13.761
794.70	12.245
795.01	6.494
795.32	9.589
795.62	10.563
795.93	15.909
796.23	18.852
796.54	15.179
796.85	3.191
797.15	4.348
797.46	-2.740
797.76	5.000
798.07	9.783
798.37	1.031
798.68	9.091
798.99	8.046
799.29	8.989
799.60	23.404
799.90	15.663
800.21	10.769
800.51	5.970
800.82	7.353
801.12	0.000
801.43	-20.588
801.73	5.085
802.04	6.061
802.34	16.667
802.65	6.780
802.95	20.896
803.26	20.339
803.56	4.110
803.87	15.714
804.17	19.178
804.48	-5.263
804.78	9.722
805.09	10.345
805.39	10.811
805.70	-4.225
806.00	14.634
806.30	2.410
806.61	0.000
806.91	17.308
807.22	11.111
807.52	14.943
807.83	18.056
808.13	10.843
808.43	15.730
808.74	7.500
809.04	2.941
809.35	-6.667
809.65	-1.429
809.95	10.959
810.26	1.754
810.56	0.000
810.86	5.882
811.17	0.000
811.47	-8.197
811.77	-2.222
812.08	11.864
812.38	25.000
812.69	13.793
812.99	-5.660
813.29	-20.513
813.59	20.000
813.90	21.053
814.20	0.000
814.50	18.310
814.81	26.923
815.11	14.754
815.41	10.448
815.72	20.690
816.02	17.857
816.32	20.000
816.62	20.455
816.93	0.000
817.23	22.222
817.53	29.787
817.84	19.048
818.14	-14.706
818.44	10.204
818.74	11.111
819.04	-17.949
819.35	0.000
819.65	-11.538
819.95	9.434
820.25	17.778
820.56	9.524
820.86	0.000
821.16	17.949
821.46	18.605
821.76	-20.000
822.07	19.643
822.37	8.696
822.67	-2.128
822.97	-27.027
823.27	10.000
823.57	18.367
823.88	28.889
824.18	0.000
824.48	0.000
824.78	-8.000
825.08	-3.030
825.38	4.444
825.69	14.894
825.99	-11.111
826.29	-31.429
826.59	-2.564
826.89	-11.628
827.19	2.000
827.49	-2.941
827.79	16.667
828.09	2.703
828.39	-10.000
828.70	7.317
829.00	-2.326
829.30	0.000
829.60	-11.765
829.90	6.522
830.20	-17.143
830.50	-10.345
830.80	-38.889
831.10	-26.923
831.40	8.824
831.70	47.619
832.00	22.581
832.30	-58.824
832.60	-41.667
832.90	-69.231
833.20	-10.526
833.50	-35.000
833.80	-42.105
834.10	-52.381
834.40	8.333
834.70	43.750
835.00	-11.429
835.30	-5.882
835.60	10.000
835.90	20.000
836.20	-22.727
836.50	36.000
836.80	-12.121
837.10	-11.111
837.40	22.222
837.70	-68.750
838.00	-3.571
838.30	-34.783
838.60	13.793
838.90	-28.571
839.19	-43.478
839.49	-50.000
839.79	-30.435
840.09	-56.250
840.39	-40.000
840.69	-19.355
840.99	-7.143
841.29	-6.667
841.59	-42.105
841.88	25.641
842.18	-34.615
842.48	-130.000
842.78	-25.000
843.08	10.000
843.38	25.806
843.68	-55.556
843.97	14.706
844.27	12.500
844.57	-15.789
844.87	-120.000
845.17	-26.667
845.47	-4.762
845.76	-52.381
846.06	-33.333
846.36	-41.176
846.66	26.923
846.96	-20.000
847.25	29.412
847.55	0.000
847.85	15.000
848.15	5.882
848.44	-63.636
848.74	14.286
849.04	-41.667
849.34	37.500
849.63	34.783
849.93	1050.000
850.23	-53.333
850.53	50.000
850.82	-18.182
851.12	36.364
851.42	-45.455
851.71	38.462
852.01	-15.000
852.31	-38.462
852.61	-21.053
852.90	33.333
853.20	-11.111
853.50	-88.889
853.79	-28.571
854.09	-45.455
854.39	-41.667
854.68	12.903
854.98	-11.538
855.28	-11.111
855.57	7.143
855.87	-4.000
856.17	-4.545
856.46	18.519
856.76	-55.556
857.05	-17.391
857.35	-8.333
857.65	-7.692
857.94	-14.286
858.24	22.222
858.53	30.435
858.83	-17.647
859.13	17.647
859.42	17.647
859.72	-7.143
860.01	-15.000
860.31	-22.222
860.60	-60.000
860.90	-40.000
861.20	-44.444
861.49	38.462
861.79	33.333
862.08	-46.154
862.38	46.875
862.67	0.000
862.97	-6.250
863.26	-55.556
863.56	-60.000
863.85	-63.636
864.15	5.556
864.44	-166.667
864.74	-14.286
865.03	-18.750
865.33	-90.000
865.62	-3.226
865.92	0.000
866.21	-8.696
866.51	64.286
866.80	-120.000
867.10	-58.333
867.39	-75.000
867.69	2100.000
867.98	-28.571
868.27	-23.529
868.57	-1400.000
868.86	-90.000
869.16	-33.333
869.45	8.333
869.75	18.182
870.04	-85.714
870.33	33.333
870.63	-57.143
870.92	-50.000
871.22	-175.000
871.51	-63.636
871.80	-566.667
872.10	100.000
>>>>>End Processed Spectral Data<<<<<
