SpectraSuite Data File
++++++++++++++++++++++++++++++++++++
Date: Thu May 14 16:05:55 PDT 2015
User: schluterlab
Dark Spectrum Present: Yes
Reference Spectrum Present: Yes
Number of Sampled Component Spectra: 1
Spectrometers: USB2E3373
Integration Time (usec): 3000 (USB2E3373)
Spectra Averaged: 3 (USB2E3373)
Boxcar Smoothing: 0 (USB2E3373)
Correct for Electrical Dark: No (USB2E3373)
Strobe/Lamp Enabled: No (USB2E3373)
Correct for Detector Non-linearity: No (USB2E3373)
Correct for Stray Light: No (USB2E3373)
Number of Pixels in Processed Spectrum: 2048
>>>>>Begin Processed Spectral Data<<<<<
178.53	0.000
178.91	214.286
179.29	-2300.000
179.67	-2000.000
180.04	250.000
180.42	180.000
180.80	520.000
181.18	-800.000
181.56	-1100.000
181.94	500.000
182.31	-325.000
182.69	166.667
183.07	-600.000
183.45	775.000
183.83	-400.000
184.20	-600.000
184.58	700.000
184.96	-300.000
185.34	-177.778
185.72	-200.000
186.09	288.889
186.47	650.000
186.85	500.000
187.23	-177.778
187.61	-3100.000
187.98	260.000
188.36	400.000
188.74	-75.000
189.12	-300.000
189.49	-81.250
189.87	-200.000
190.25	-22.222
190.63	-220.000
191.00	-133.333
191.38	0.000
191.76	-450.000
192.14	-250.000
192.51	750.000
192.89	-116.667
193.27	0.000
193.65	-157.143
194.02	-2400.000
194.40	-142.857
194.78	200.000
195.15	0.000
195.53	-100.000
195.91	0.000
196.29	-350.000
196.66	-100.000
197.04	-1200.000
197.42	-271.429
197.79	-350.000
198.17	-187.500
198.55	-328.571
198.92	-100.000
199.30	-237.500
199.68	-9.091
200.05	-64.286
200.43	-550.000
200.81	300.000
201.18	0.000
201.56	266.667
201.94	0.000
202.31	700.000
202.69	-288.889
203.07	1100.000
203.44	-133.333
203.82	-425.000
204.19	-83.333
204.57	-150.000
204.95	-125.000
205.32	-1900.000
205.70	325.000
206.08	-100.000
206.45	-200.000
206.83	480.000
207.20	-216.667
207.58	-320.000
207.96	-183.333
208.33	-133.333
208.71	183.333
209.08	-116.667
209.46	0.000
209.84	300.000
210.21	800.000
210.59	550.000
210.96	533.333
211.34	-300.000
211.71	-150.000
212.09	-1600.000
212.46	0.000
212.84	1250.000
213.22	-260.000
213.59	-325.000
213.97	-70.000
214.34	-466.667
214.72	400.000
215.09	-625.000
215.47	0.000
215.84	57.143
216.22	1050.000
216.59	-240.000
216.97	-420.000
217.34	-400.000
217.72	-87.500
218.09	-400.000
218.47	-425.000
218.84	0.000
219.22	240.000
219.59	-70.588
219.97	-55.000
220.34	950.000
220.72	-244.444
221.09	-30.769
221.47	-466.667
221.84	-120.000
222.22	-271.429
222.59	0.000
222.97	-250.000
223.34	-320.000
223.72	-1600.000
224.09	-400.000
224.46	-425.000
224.84	-80.000
225.21	-214.286
225.59	-425.000
225.96	-350.000
226.34	-61.538
226.71	366.667
227.08	-750.000
227.46	-73.333
227.83	-200.000
228.21	-63.158
228.58	200.000
228.95	1200.000
229.33	-125.000
229.70	-140.000
230.08	-15.789
230.45	180.000
230.82	-600.000
231.20	0.000
231.57	-150.000
231.95	-118.182
232.32	-81.818
232.69	-55.000
233.07	-200.000
233.44	-94.118
233.81	-150.000
234.19	-38.889
234.56	-27.273
234.93	0.000
235.31	-36.842
235.68	-55.556
236.05	-100.000
236.43	11.538
236.80	-8.000
237.17	-37.037
237.55	-18.182
237.92	-230.000
238.29	-35.484
238.67	-27.273
239.04	-19.444
239.41	-16.667
239.79	-32.609
240.16	-11.111
240.53	-17.391
240.91	-17.647
241.28	-13.115
241.65	23.881
242.02	-1.351
242.40	-3.077
242.77	0.000
243.14	2.439
243.51	-1.316
243.89	0.000
244.26	5.941
244.63	5.882
245.00	7.477
245.38	7.895
245.75	-1.770
246.12	8.730
246.49	3.876
246.87	13.571
247.24	9.934
247.61	16.447
247.98	10.738
248.36	9.877
248.73	11.656
249.10	11.475
249.47	12.935
249.84	10.995
250.22	9.845
250.59	10.556
250.96	15.909
251.33	13.265
251.70	13.675
252.08	14.583
252.45	15.164
252.82	18.595
253.19	12.500
253.56	15.589
253.94	15.000
254.31	11.742
254.68	17.483
255.05	14.007
255.42	16.327
255.79	11.327
256.16	14.901
256.54	17.219
256.91	18.689
257.28	12.787
257.65	13.057
258.02	16.224
258.39	16.239
258.76	18.654
259.14	14.943
259.51	14.986
259.88	13.598
260.25	12.500
260.62	16.438
260.99	20.492
261.36	17.962
261.73	14.854
262.10	14.286
262.47	14.477
262.85	18.182
263.22	16.623
263.59	16.842
263.96	17.647
264.33	14.578
264.70	17.284
265.07	17.661
265.44	18.367
265.81	15.046
266.18	17.234
266.55	15.179
266.92	16.629
267.29	17.724
267.66	16.630
268.03	18.122
268.40	17.119
268.77	15.490
269.14	15.859
269.51	16.447
269.88	18.443
270.25	18.109
270.62	16.034
270.99	19.192
271.36	18.218
271.73	17.485
272.10	17.836
272.47	15.431
272.84	18.474
273.21	17.034
273.58	17.137
273.95	15.962
274.32	16.350
274.69	15.280
275.06	19.414
275.43	15.157
275.80	18.166
276.17	17.222
276.54	16.604
276.91	16.995
277.28	17.722
277.65	18.133
278.02	18.750
278.39	15.036
278.76	16.696
279.13	14.362
279.50	18.729
279.87	17.174
280.23	13.204
280.60	17.288
280.97	15.954
281.34	16.978
281.71	19.628
282.08	16.445
282.45	18.003
282.82	15.385
283.19	17.932
283.56	17.541
283.92	17.568
284.29	18.167
284.66	20.690
285.03	14.904
285.40	18.238
285.77	15.944
286.14	16.794
286.51	16.438
286.87	15.008
287.24	15.813
287.61	16.592
287.98	15.408
288.35	16.420
288.72	15.533
289.08	16.398
289.45	14.349
289.82	16.717
290.19	15.948
290.56	17.042
290.93	15.835
291.29	15.152
291.66	14.601
292.03	14.518
292.40	13.878
292.77	13.342
293.13	15.562
293.50	13.272
293.87	13.691
294.24	14.400
294.60	15.676
294.97	13.557
295.34	14.981
295.71	14.250
296.08	12.532
296.44	13.235
296.81	14.129
297.18	12.453
297.55	12.500
297.91	13.286
298.28	13.507
298.65	12.961
299.02	12.633
299.38	13.844
299.75	12.617
300.12	12.731
300.48	13.710
300.85	13.836
301.22	12.975
301.59	12.329
301.95	12.429
302.32	13.333
302.69	12.705
303.05	13.275
303.42	13.304
303.79	12.188
304.15	12.198
304.52	13.002
304.89	12.880
305.25	14.079
305.62	13.898
305.99	11.753
306.35	12.097
306.72	12.823
307.09	12.081
307.45	12.733
307.82	10.797
308.19	11.907
308.55	12.054
308.92	11.392
309.29	12.165
309.65	10.429
310.02	12.871
310.38	12.008
310.75	12.718
311.12	12.176
311.48	11.926
311.85	12.536
312.22	11.860
312.58	12.488
312.95	11.185
313.31	11.653
313.68	12.637
314.05	13.189
314.41	12.022
314.78	12.352
315.14	11.434
315.51	12.927
315.87	12.241
316.24	11.963
316.61	11.456
316.97	11.584
317.34	11.552
317.70	12.751
318.07	12.875
318.43	12.415
318.80	12.542
319.16	12.017
319.53	11.568
319.89	12.445
320.26	10.943
320.62	11.791
320.99	11.542
321.35	11.275
321.72	12.093
322.08	10.550
322.45	11.924
322.81	11.282
323.18	11.416
323.54	11.552
323.91	11.655
324.27	11.274
324.64	12.175
325.00	12.189
325.37	11.384
325.73	11.901
326.10	12.247
326.46	12.622
326.83	13.291
327.19	11.575
327.56	11.621
327.92	10.464
328.29	11.371
328.65	11.055
329.01	11.591
329.38	12.300
329.74	12.329
330.11	11.473
330.47	12.300
330.84	12.489
331.20	12.833
331.56	11.179
331.93	12.887
332.29	11.102
332.66	11.877
333.02	12.060
333.38	10.906
333.75	11.616
334.11	11.843
334.48	11.386
334.84	12.574
335.20	11.335
335.57	11.636
335.93	11.322
336.29	11.398
336.66	10.597
337.02	10.452
337.38	11.735
337.75	10.992
338.11	11.775
338.47	12.159
338.84	11.591
339.20	11.626
339.56	11.532
339.93	11.248
340.29	12.399
340.65	11.111
341.02	12.291
341.38	11.884
341.74	11.784
342.11	11.746
342.47	10.326
342.83	10.467
343.20	11.365
343.56	11.067
343.92	11.529
344.28	11.719
344.65	12.171
345.01	11.934
345.37	11.742
345.73	10.288
346.10	11.700
346.46	10.443
346.82	11.835
347.19	12.529
347.55	10.926
347.91	10.847
348.27	10.470
348.63	12.262
349.00	10.962
349.36	10.483
349.72	10.565
350.08	11.738
350.45	10.038
350.81	11.765
351.17	11.203
351.53	10.917
351.89	11.541
352.26	10.896
352.62	11.194
352.98	10.305
353.34	11.053
353.70	11.325
354.07	10.507
354.43	10.402
354.79	10.396
355.15	10.817
355.51	12.061
355.87	10.022
356.24	10.798
356.60	10.791
356.96	11.045
357.32	8.922
357.68	10.176
358.04	10.704
358.40	10.896
358.77	11.111
359.13	10.561
359.49	9.665
359.85	10.660
360.21	10.904
360.57	10.840
360.93	11.425
361.29	10.246
361.66	10.717
362.02	11.413
362.38	10.822
362.74	10.754
363.10	10.316
363.46	10.665
363.82	10.795
364.18	10.345
364.54	11.342
364.90	11.237
365.26	9.793
365.62	11.667
365.98	10.347
366.35	10.336
366.71	11.020
367.07	10.487
367.43	10.900
367.79	11.015
368.15	10.903
368.51	8.999
368.87	11.039
369.23	11.267
369.59	11.134
369.95	9.939
370.31	10.533
370.67	10.523
371.03	10.457
371.39	10.007
371.75	10.385
372.11	10.705
372.47	9.817
372.83	10.798
373.19	11.074
373.55	10.230
373.91	9.475
374.27	10.608
374.63	10.893
374.99	9.682
375.35	9.935
375.71	10.645
376.07	10.394
376.42	10.076
376.78	10.317
377.14	10.543
377.50	10.310
377.86	11.022
378.22	10.240
378.58	10.880
378.94	10.857
379.30	9.900
379.66	9.935
380.02	10.156
380.38	10.945
380.74	10.310
381.09	9.930
381.45	10.227
381.81	10.714
382.17	10.986
382.53	10.760
382.89	10.666
383.25	10.258
383.61	9.549
383.97	9.953
384.32	10.227
384.68	9.339
385.04	10.295
385.40	10.666
385.76	10.492
386.12	10.054
386.48	10.529
386.83	11.323
387.19	10.660
387.55	9.977
387.91	10.502
388.27	10.681
388.62	10.137
388.98	9.363
389.34	10.018
389.70	10.633
390.06	9.414
390.42	10.241
390.77	10.596
391.13	10.211
391.49	10.266
391.85	10.061
392.20	10.202
392.56	10.750
392.92	10.578
393.28	10.171
393.64	9.721
393.99	10.808
394.35	10.572
394.71	10.180
395.07	9.940
395.42	9.880
395.78	10.847
396.14	10.517
396.50	9.739
396.85	10.078
397.21	9.882
397.57	10.424
397.92	10.538
398.28	8.963
398.64	9.611
399.00	10.262
399.35	10.366
399.71	9.837
400.07	10.331
400.42	9.779
400.78	10.590
401.14	10.757
401.49	9.892
401.85	10.930
402.21	10.371
402.57	10.681
402.92	10.461
403.28	10.070
403.63	9.845
403.99	10.154
404.35	9.721
404.70	10.142
405.06	10.109
405.42	10.890
405.77	10.578
406.13	10.319
406.49	10.304
406.84	10.360
407.20	10.676
407.55	9.388
407.91	9.617
408.27	10.071
408.62	10.297
408.98	9.925
409.34	9.208
409.69	9.642
410.05	10.199
410.40	10.499
410.76	10.264
411.11	10.929
411.47	10.811
411.83	10.994
412.18	9.940
412.54	10.551
412.89	10.652
413.25	10.158
413.60	10.684
413.96	10.082
414.31	10.482
414.67	10.614
415.03	10.400
415.38	10.340
415.74	10.507
416.09	9.809
416.45	10.207
416.80	10.588
417.16	10.473
417.51	10.648
417.87	10.546
418.22	11.198
418.58	9.913
418.93	10.943
419.29	10.358
419.64	10.144
420.00	10.682
420.35	11.173
420.71	10.913
421.06	10.063
421.42	11.181
421.77	9.855
422.12	10.518
422.48	9.933
422.83	10.624
423.19	10.875
423.54	9.900
423.90	10.768
424.25	11.200
424.61	9.816
424.96	11.587
425.31	11.359
425.67	10.413
426.02	10.625
426.38	11.194
426.73	10.045
427.09	11.476
427.44	10.595
427.79	10.392
428.15	9.932
428.50	10.225
428.85	10.505
429.21	10.851
429.56	10.365
429.92	10.614
430.27	10.506
430.62	10.894
430.98	10.379
431.33	9.775
431.68	10.776
432.04	10.615
432.39	10.552
432.74	9.418
433.10	10.654
433.45	9.978
433.80	10.944
434.16	10.640
434.51	10.534
434.86	10.532
435.22	11.265
435.57	10.967
435.92	10.684
436.28	10.410
436.63	10.978
436.98	10.145
437.34	10.428
437.69	10.732
438.04	10.788
438.39	10.684
438.75	10.459
439.10	11.258
439.45	10.509
439.81	10.452
440.16	10.831
440.51	10.647
440.86	10.617
441.22	11.147
441.57	10.797
441.92	10.475
442.27	11.212
442.63	10.432
442.98	11.206
443.33	11.047
443.68	10.951
444.03	11.947
444.39	10.541
444.74	10.924
445.09	10.593
445.44	11.064
445.79	11.590
446.15	11.614
446.50	10.439
446.85	10.944
447.20	10.832
447.55	11.245
447.91	10.733
448.26	11.047
448.61	10.999
448.96	11.749
449.31	11.400
449.66	10.784
450.02	10.496
450.37	11.401
450.72	10.118
451.07	11.390
451.42	11.150
451.77	11.062
452.12	12.020
452.47	10.695
452.83	10.473
453.18	11.851
453.53	10.684
453.88	11.320
454.23	11.412
454.58	11.550
454.93	11.468
455.28	11.379
455.63	11.597
455.98	11.453
456.34	11.602
456.69	11.111
457.04	11.525
457.39	11.364
457.74	11.913
458.09	11.093
458.44	11.315
458.79	11.707
459.14	11.589
459.49	11.432
459.84	11.805
460.19	10.439
460.54	11.982
460.89	11.382
461.24	10.977
461.59	11.843
461.94	10.154
462.29	11.254
462.64	12.010
462.99	11.676
463.34	11.811
463.69	12.134
464.04	12.118
464.39	11.435
464.74	11.574
465.09	11.015
465.44	11.534
465.79	11.581
466.14	11.360
466.49	11.737
466.84	10.909
467.19	11.272
467.54	10.928
467.89	11.724
468.24	11.801
468.59	11.465
468.94	11.480
469.29	11.578
469.64	11.252
469.99	10.962
470.34	11.943
470.68	12.098
471.03	12.115
471.38	12.557
471.73	11.508
472.08	12.690
472.43	11.559
472.78	12.594
473.13	11.947
473.48	11.964
473.83	12.072
474.17	12.309
474.52	12.688
474.87	12.514
475.22	11.831
475.57	11.994
475.92	12.295
476.27	11.928
476.61	11.994
476.96	11.887
477.31	12.525
477.66	12.959
478.01	12.150
478.36	12.263
478.70	11.724
479.05	12.781
479.40	12.586
479.75	12.536
480.10	11.843
480.45	12.443
480.79	12.290
481.14	12.408
481.49	12.131
481.84	12.315
482.19	12.387
482.53	12.899
482.88	12.539
483.23	12.672
483.58	12.096
483.92	11.480
484.27	12.193
484.62	12.335
484.97	12.481
485.31	12.003
485.66	11.720
486.01	11.542
486.36	11.220
486.70	11.994
487.05	11.747
487.40	12.166
487.75	12.468
488.09	12.088
488.44	12.300
488.79	12.715
489.13	12.274
489.48	11.728
489.83	12.636
490.17	11.624
490.52	12.685
490.87	12.648
491.22	12.955
491.56	13.311
491.91	13.171
492.26	12.678
492.60	12.287
492.95	12.988
493.30	12.192
493.64	12.790
493.99	12.544
494.34	13.023
494.68	12.505
495.03	13.656
495.37	12.960
495.72	12.880
496.07	13.497
496.41	12.570
496.76	12.719
497.11	12.611
497.45	12.559
497.80	13.327
498.14	12.925
498.49	13.051
498.84	13.391
499.18	13.540
499.53	12.960
499.87	13.495
500.22	12.467
500.56	12.821
500.91	13.135
501.26	14.364
501.60	12.815
501.95	13.678
502.29	13.734
502.64	12.899
502.98	13.028
503.33	12.916
503.67	13.345
504.02	13.135
504.36	14.120
504.71	13.000
505.06	13.370
505.40	13.071
505.75	12.568
506.09	13.490
506.44	13.092
506.78	13.165
507.13	13.693
507.47	13.643
507.82	13.305
508.16	13.289
508.51	13.033
508.85	13.746
509.19	14.401
509.54	14.025
509.88	13.696
510.23	13.453
510.57	14.741
510.92	14.078
511.26	13.612
511.61	13.423
511.95	14.446
512.30	13.885
512.64	13.693
512.98	14.107
513.33	14.567
513.67	14.329
514.02	14.154
514.36	14.629
514.70	14.115
515.05	14.442
515.39	14.646
515.74	15.270
516.08	14.950
516.42	14.757
516.77	14.090
517.11	13.976
517.46	15.164
517.80	15.339
518.14	15.125
518.49	14.967
518.83	14.582
519.17	14.216
519.52	14.675
519.86	14.572
520.20	15.602
520.55	13.472
520.89	14.809
521.23	15.075
521.58	15.763
521.92	14.901
522.26	14.318
522.61	15.451
522.95	15.513
523.29	15.230
523.64	15.078
523.98	15.402
524.32	16.103
524.66	15.879
525.01	15.062
525.35	14.934
525.69	14.501
526.04	14.581
526.38	16.092
526.72	15.744
527.06	15.601
527.41	15.743
527.75	16.211
528.09	15.466
528.43	15.571
528.78	15.491
529.12	15.424
529.46	15.008
529.80	15.561
530.15	15.420
530.49	14.650
530.83	15.880
531.17	15.950
531.51	15.463
531.86	16.286
532.20	16.220
532.54	16.038
532.88	15.636
533.22	14.143
533.57	15.003
533.91	15.488
534.25	15.941
534.59	15.575
534.93	15.676
535.27	14.930
535.62	16.146
535.96	15.572
536.30	15.100
536.64	15.856
536.98	15.683
537.32	15.926
537.66	16.157
538.01	15.650
538.35	15.895
538.69	15.264
539.03	15.941
539.37	15.548
539.71	15.315
540.05	16.607
540.39	15.648
540.73	15.968
541.07	15.451
541.42	15.535
541.76	15.599
542.10	15.742
542.44	15.469
542.78	15.450
543.12	15.793
543.46	15.263
543.80	14.928
544.14	15.200
544.48	15.130
544.82	15.260
545.16	15.623
545.50	15.219
545.84	16.044
546.18	16.790
546.52	16.624
546.86	15.849
547.20	15.712
547.54	15.605
547.88	15.793
548.22	15.029
548.56	15.097
548.90	14.627
549.24	16.049
549.58	14.890
549.92	15.689
550.26	16.570
550.60	15.826
550.94	15.006
551.28	15.842
551.62	16.442
551.96	15.728
552.30	16.316
552.64	15.557
552.98	15.471
553.32	15.949
553.66	15.498
554.00	16.141
554.34	16.152
554.68	15.752
555.02	16.360
555.36	16.502
555.69	15.247
556.03	15.322
556.37	16.270
556.71	16.424
557.05	16.102
557.39	15.727
557.73	14.597
558.07	16.755
558.41	15.748
558.75	16.295
559.08	16.493
559.42	14.883
559.76	16.350
560.10	16.343
560.44	16.557
560.78	16.500
561.12	16.010
561.45	16.058
561.79	15.568
562.13	15.588
562.47	15.043
562.81	15.949
563.15	15.404
563.48	15.848
563.82	15.840
564.16	16.051
564.50	15.554
564.84	15.870
565.17	15.765
565.51	15.823
565.85	16.271
566.19	16.359
566.52	15.272
566.86	15.167
567.20	14.954
567.54	14.286
567.88	14.832
568.21	15.069
568.55	14.868
568.89	14.480
569.23	14.237
569.56	14.342
569.90	15.039
570.24	14.098
570.57	13.502
570.91	13.625
571.25	13.682
571.59	13.665
571.92	13.699
572.26	13.049
572.60	13.568
572.93	13.888
573.27	13.684
573.61	13.896
573.95	13.426
574.28	13.245
574.62	13.438
574.96	13.057
575.29	13.175
575.63	13.329
575.97	13.557
576.30	13.175
576.64	13.529
576.98	13.257
577.31	13.316
577.65	13.496
577.98	13.159
578.32	12.999
578.66	12.778
578.99	12.840
579.33	12.872
579.67	12.874
580.00	13.104
580.34	13.154
580.67	13.019
581.01	13.068
581.35	12.975
581.68	12.671
582.02	13.013
582.35	12.973
582.69	12.915
583.02	13.026
583.36	13.001
583.70	13.179
584.03	12.887
584.37	13.379
584.70	12.763
585.04	12.927
585.37	12.903
585.71	13.074
586.04	12.946
586.38	13.069
586.72	12.810
587.05	12.893
587.39	13.239
587.72	13.086
588.06	13.370
588.39	13.343
588.73	13.042
589.06	13.234
589.40	13.368
589.73	13.432
590.07	13.959
590.40	14.097
590.73	14.281
591.07	14.445
591.40	13.841
591.74	13.553
592.07	15.063
592.41	13.880
592.74	13.809
593.08	13.790
593.41	13.765
593.75	13.851
594.08	13.481
594.41	13.686
594.75	13.783
595.08	13.156
595.42	13.442
595.75	14.014
596.09	13.995
596.42	13.615
596.75	13.971
597.09	14.424
597.42	14.223
597.75	13.720
598.09	13.810
598.42	14.314
598.76	13.833
599.09	13.706
599.42	13.778
599.76	13.965
600.09	13.514
600.42	13.380
600.76	13.606
601.09	13.541
601.42	13.594
601.76	13.621
602.09	13.724
602.42	13.595
602.76	14.059
603.09	13.767
603.42	14.306
603.76	13.601
604.09	13.804
604.42	13.761
604.76	13.584
605.09	14.001
605.42	14.195
605.75	14.269
606.09	13.848
606.42	13.572
606.75	13.943
607.09	13.441
607.42	13.642
607.75	14.224
608.08	13.575
608.42	13.906
608.75	13.806
609.08	14.049
609.41	13.851
609.75	13.304
610.08	14.600
610.41	13.636
610.74	14.202
611.07	13.810
611.41	14.484
611.74	14.226
612.07	14.353
612.40	14.259
612.73	14.230
613.07	13.888
613.40	14.918
613.73	14.492
614.06	15.113
614.39	14.140
614.72	14.508
615.06	14.437
615.39	14.306
615.72	14.123
616.05	14.376
616.38	14.632
616.71	13.793
617.05	13.738
617.38	15.195
617.71	15.065
618.04	14.409
618.37	14.426
618.70	14.593
619.03	14.576
619.36	14.858
619.69	14.798
620.03	14.940
620.36	15.153
620.69	15.608
621.02	15.223
621.35	14.877
621.68	15.691
622.01	14.947
622.34	14.644
622.67	15.945
623.00	15.587
623.33	15.594
623.66	14.591
623.99	14.220
624.32	14.945
624.65	15.187
624.99	15.345
625.32	15.545
625.65	15.711
625.98	14.576
626.31	14.245
626.64	15.238
626.97	15.229
627.30	13.743
627.63	15.529
627.96	17.042
628.29	16.342
628.62	15.953
628.95	16.477
629.28	15.548
629.61	14.983
629.94	16.402
630.26	15.593
630.59	15.803
630.92	16.450
631.25	16.369
631.58	16.384
631.91	15.651
632.24	16.619
632.57	16.034
632.90	16.650
633.23	17.143
633.56	17.143
633.89	16.116
634.22	17.048
634.55	17.954
634.88	15.476
635.20	17.546
635.53	15.932
635.86	17.660
636.19	16.967
636.52	17.827
636.85	16.445
637.18	17.152
637.51	16.667
637.83	18.272
638.16	17.281
638.49	15.962
638.82	17.813
639.15	15.922
639.48	18.360
639.81	17.206
640.13	18.963
640.46	15.030
640.79	16.176
641.12	16.522
641.45	18.695
641.77	20.411
642.10	15.617
642.43	18.218
642.76	17.886
643.09	17.808
643.41	17.647
643.74	18.759
644.07	17.793
644.40	16.124
644.73	17.562
645.05	17.915
645.38	16.259
645.71	18.035
646.04	20.373
646.36	16.788
646.69	17.178
647.02	19.725
647.35	18.626
647.67	18.519
648.00	17.994
648.33	19.369
648.66	18.830
648.98	16.463
649.31	15.968
649.64	17.928
649.96	17.772
650.29	16.690
650.62	17.680
650.94	15.916
651.27	18.563
651.60	18.421
651.92	17.629
652.25	17.945
652.58	15.406
652.90	17.878
653.23	16.620
653.56	17.546
653.88	17.416
654.21	16.761
654.54	16.618
654.86	17.847
655.19	16.311
655.52	15.563
655.84	12.849
656.17	14.505
656.49	20.346
656.82	21.965
657.15	16.703
657.47	12.467
657.80	9.355
658.13	7.251
658.45	9.746
658.78	11.838
659.10	11.358
659.43	12.238
659.75	11.877
660.08	12.941
660.41	11.828
660.73	14.367
661.06	15.272
661.38	17.384
661.71	17.586
662.03	16.931
662.36	20.215
662.68	19.887
663.01	18.584
663.33	17.013
663.66	21.429
663.98	18.269
664.31	17.448
664.63	15.800
664.96	18.149
665.28	15.426
665.61	19.231
665.93	15.179
666.26	17.204
666.58	15.129
666.91	17.944
667.23	19.810
667.56	18.146
667.88	17.000
668.21	16.602
668.53	15.251
668.86	19.646
669.18	17.108
669.50	19.483
669.83	15.600
670.15	16.929
670.48	19.246
670.80	14.914
671.13	16.446
671.45	15.354
671.77	19.962
672.10	16.833
672.42	14.725
672.75	16.590
673.07	15.075
673.39	15.871
673.72	16.107
674.04	16.552
674.37	15.564
674.69	17.813
675.01	16.762
675.34	16.603
675.66	15.169
675.98	16.418
676.31	16.406
676.63	18.821
676.95	18.774
677.28	17.339
677.60	15.551
677.92	17.274
678.25	17.733
678.57	16.014
678.89	18.259
679.22	15.157
679.54	16.410
679.86	13.559
680.18	15.755
680.51	15.252
680.83	17.512
681.15	13.793
681.48	15.371
681.80	18.480
682.12	14.336
682.44	14.023
682.77	17.199
683.09	17.424
683.41	15.698
683.73	15.939
684.06	14.022
684.38	15.385
684.70	15.978
685.02	14.974
685.34	15.141
685.67	13.880
685.99	15.337
686.31	14.390
686.63	15.798
686.96	14.669
687.28	15.635
687.60	14.646
687.92	15.595
688.24	15.693
688.56	13.966
688.89	16.515
689.21	16.634
689.53	14.510
689.85	14.004
690.17	12.963
690.49	16.534
690.82	14.851
691.14	14.777
691.46	14.532
691.78	15.285
692.10	15.046
692.42	12.500
692.74	13.793
693.06	14.815
693.39	15.750
693.71	15.602
694.03	15.799
694.35	14.095
694.67	14.990
694.99	15.745
695.31	13.687
695.63	16.234
695.95	16.149
696.27	13.187
696.59	17.257
696.91	15.991
697.23	13.846
697.56	12.220
697.88	14.583
698.20	14.124
698.52	17.424
698.84	13.721
699.16	16.531
699.48	14.435
699.80	15.957
700.12	14.410
700.44	13.594
700.76	14.252
701.08	15.738
701.40	16.062
701.72	13.433
702.04	15.775
702.36	12.827
702.68	14.181
703.00	14.670
703.32	15.517
703.64	16.870
703.96	16.706
704.28	15.971
704.60	15.696
704.91	16.071
705.23	18.356
705.55	15.599
705.87	15.152
706.19	16.258
706.51	13.855
706.83	13.833
707.15	12.169
707.47	14.720
707.79	14.192
708.11	11.441
708.43	13.978
708.74	12.054
709.06	13.457
709.38	15.493
709.70	15.633
710.02	14.212
710.34	15.426
710.66	12.011
710.98	16.120
711.29	12.912
711.61	11.017
711.93	17.379
712.25	15.676
712.57	18.584
712.89	15.588
713.20	13.314
713.52	14.162
713.84	14.763
714.16	18.684
714.48	12.629
714.80	15.584
715.11	12.336
715.43	12.467
715.75	12.632
716.07	16.298
716.39	15.847
716.70	12.651
717.02	16.393
717.34	12.544
717.66	12.081
717.97	10.616
718.29	14.089
718.61	14.145
718.93	16.505
719.24	18.012
719.56	14.110
719.88	11.712
720.20	12.581
720.51	13.665
720.83	13.438
721.15	16.118
721.46	8.904
721.78	12.000
722.10	11.327
722.42	11.409
722.73	15.806
723.05	17.895
723.37	17.014
723.68	13.262
724.00	12.996
724.32	11.620
724.63	11.538
724.95	15.957
725.27	11.847
725.58	14.841
725.90	18.276
726.22	10.658
726.53	12.662
726.85	15.723
727.16	12.085
727.48	16.514
727.80	8.609
728.11	11.661
728.43	12.795
728.74	11.706
729.06	15.894
729.38	12.338
729.69	10.067
730.01	13.690
730.32	10.606
730.64	13.836
730.96	10.559
731.27	12.849
731.59	12.637
731.90	10.909
732.22	11.719
732.53	12.155
732.85	10.571
733.16	12.903
733.48	10.061
733.80	11.978
734.11	9.402
734.43	14.054
734.74	14.430
735.06	11.055
735.37	12.162
735.69	10.000
736.00	10.734
736.32	12.129
736.63	10.833
736.95	11.207
737.26	10.909
737.58	10.909
737.89	11.471
738.21	11.315
738.52	9.836
738.83	15.358
739.15	14.539
739.46	9.184
739.78	11.043
740.09	6.304
740.41	9.913
740.72	9.333
741.04	12.945
741.35	12.982
741.66	12.549
741.98	16.393
742.29	14.644
742.61	14.035
742.92	10.385
743.23	13.718
743.55	10.853
743.86	10.400
744.18	7.025
744.49	13.502
744.80	13.169
745.12	12.236
745.43	10.569
745.74	8.621
746.06	13.559
746.37	16.456
746.68	15.854
747.00	12.917
747.31	14.592
747.62	15.000
747.94	8.097
748.25	10.442
748.56	9.796
748.88	10.684
749.19	14.655
749.50	14.286
749.82	13.655
750.13	15.658
750.44	8.333
750.75	13.846
751.07	12.308
751.38	11.041
751.69	11.502
752.01	11.327
752.32	14.706
752.63	12.585
752.94	12.111
753.26	10.409
753.57	9.259
753.88	10.861
754.19	13.505
754.51	12.862
754.82	13.505
755.13	11.803
755.44	15.017
755.75	12.500
756.07	14.030
756.38	10.692
756.69	12.952
757.00	7.756
757.31	8.470
757.63	10.486
757.94	9.859
758.25	12.190
758.56	12.636
758.87	12.045
759.18	10.933
759.50	13.031
759.81	12.325
760.12	9.973
760.43	11.198
760.74	12.562
761.05	9.750
761.36	8.675
761.67	11.168
761.99	8.919
762.30	8.841
762.61	8.251
762.92	9.328
763.23	12.734
763.54	11.871
763.85	10.997
764.16	11.785
764.47	10.563
764.78	12.460
765.10	12.317
765.41	13.846
765.72	6.085
766.03	10.169
766.34	9.091
766.65	7.317
766.96	9.163
767.27	11.521
767.58	6.965
767.89	10.096
768.20	13.146
768.51	13.426
768.82	11.245
769.13	10.606
769.44	6.923
769.75	10.830
770.06	9.615
770.37	12.598
770.68	6.809
770.99	9.717
771.30	15.556
771.61	12.548
771.92	8.148
772.23	14.575
772.54	5.093
772.85	14.747
773.16	10.952
773.47	2.646
773.78	9.189
774.09	12.500
774.39	17.000
774.70	8.743
775.01	5.488
775.32	11.176
775.63	9.816
775.94	5.096
776.25	10.323
776.56	10.256
776.87	14.966
777.18	6.207
777.48	16.783
777.79	3.378
778.10	3.676
778.41	6.250
778.72	3.448
779.03	4.321
779.34	7.879
779.65	7.772
779.95	11.111
780.26	7.386
780.57	9.032
780.88	9.420
781.19	8.387
781.50	11.765
781.80	8.602
782.11	5.291
782.42	2.525
782.73	7.186
783.04	6.145
783.34	2.424
783.65	9.150
783.96	9.317
784.27	6.548
784.57	3.974
784.88	4.286
785.19	4.724
785.50	9.449
785.81	4.511
786.11	7.692
786.42	-0.719
786.73	4.317
787.04	6.015
787.34	9.016
787.65	1.600
787.96	7.463
788.26	11.189
788.57	13.287
788.88	5.921
789.19	6.536
789.49	2.740
789.80	10.638
790.11	14.961
790.41	1.563
790.72	13.559
791.03	-2.913
791.33	0.870
791.64	-0.877
791.95	1.786
792.25	6.667
792.56	9.821
792.87	-3.125
793.17	2.679
793.48	-5.208
793.79	-8.434
794.09	1.835
794.40	-1.835
794.70	6.122
795.01	5.844
795.32	6.164
795.62	4.930
795.93	-1.515
796.23	12.295
796.54	8.929
796.85	-5.319
797.15	-5.435
797.46	-10.959
797.76	2.500
798.07	8.696
798.37	4.124
798.68	-5.195
798.99	2.299
799.29	-3.371
799.60	-2.128
799.90	-2.410
800.21	-6.154
800.51	-7.463
800.82	-1.471
801.12	-16.438
801.43	-4.412
801.73	-8.475
802.04	-1.515
802.34	-18.333
802.65	5.085
802.95	1.493
803.26	-10.169
803.56	1.370
803.87	-7.143
804.17	10.959
804.48	-29.825
804.78	-15.278
805.09	-1.724
805.39	2.703
805.70	-9.859
806.00	7.317
806.30	-8.434
806.61	-12.329
806.91	5.769
807.22	-1.111
807.52	0.000
807.83	2.778
808.13	10.843
808.43	2.247
808.74	-7.500
809.04	-14.706
809.35	-12.000
809.65	-7.143
809.95	10.959
810.26	-15.789
810.56	-10.345
810.86	-7.353
811.17	-15.789
811.47	-21.311
811.77	-22.222
812.08	10.169
812.38	-10.000
812.69	-10.345
812.99	-30.189
813.29	-20.513
813.59	0.000
813.90	-1.754
814.20	-27.273
814.50	9.859
814.81	2.564
815.11	16.393
815.41	-8.955
815.72	-3.448
816.02	-16.071
816.32	0.000
816.62	13.636
816.93	-24.444
817.23	-7.407
817.53	-6.383
817.84	2.381
818.14	-5.882
818.44	-16.327
818.74	-17.778
819.04	-12.821
819.35	-34.286
819.65	-34.615
819.95	0.000
820.25	-20.000
820.56	-28.571
820.86	-53.125
821.16	-7.692
821.46	-25.581
821.76	-24.000
822.07	1.786
822.37	-19.565
822.67	-23.404
822.97	-37.838
823.27	-2.500
823.57	-34.694
823.88	-2.222
824.18	-17.500
824.48	-16.667
824.78	-32.000
825.08	-6.061
825.38	11.111
825.69	-6.383
825.99	-33.333
826.29	-40.000
826.59	-43.590
826.89	-27.907
827.19	-6.000
827.49	-14.706
827.79	-4.167
828.09	-37.838
828.39	-36.667
828.70	-34.146
829.00	-23.256
829.30	-57.143
829.60	-14.706
829.90	-19.565
830.20	-31.429
830.50	-13.793
830.80	-88.889
831.10	-42.308
831.40	-17.647
831.70	-71.429
832.00	-19.355
832.30	-94.118
832.60	-33.333
832.90	-161.538
833.20	-47.368
833.50	-70.000
833.80	-68.421
834.10	-71.429
834.40	-13.889
834.70	-18.750
835.00	-48.571
835.30	2.941
835.60	-46.667
835.90	-36.000
836.20	-77.273
836.50	-44.000
836.80	-30.303
837.10	-85.185
837.40	-22.222
837.70	-112.500
838.00	-17.857
838.30	-65.217
838.60	-6.897
838.90	-64.286
839.19	-91.304
839.49	-108.333
839.79	-34.783
840.09	-106.250
840.39	-35.000
840.69	-6.452
840.99	-28.571
841.29	-46.667
841.59	-78.947
841.88	-10.256
842.18	-65.385
842.48	-170.000
842.78	-80.000
843.08	-30.000
843.38	-16.129
843.68	-111.111
843.97	-17.647
844.27	-106.250
844.57	-115.789
844.87	-230.000
845.17	-106.667
845.47	-19.048
845.76	-61.905
846.06	-44.444
846.36	-35.294
846.66	-53.846
846.96	-100.000
847.25	-29.412
847.55	-21.739
847.85	-80.000
848.15	-105.882
848.44	-109.091
848.74	-57.143
849.04	-41.667
849.34	-137.500
849.63	-43.478
849.93	1250.000
850.23	-66.667
850.53	3.846
850.82	-45.455
851.12	-22.727
851.42	-118.182
851.71	-130.769
852.01	-90.000
852.31	0.000
852.61	-94.737
852.90	-125.000
853.20	-61.111
853.50	-166.667
853.79	-52.381
854.09	-31.818
854.39	-133.333
854.68	-9.677
854.98	-84.615
855.28	-44.444
855.57	-39.286
855.87	-24.000
856.17	-77.273
856.46	-48.148
856.76	-88.889
857.05	-69.565
857.35	-50.000
857.65	-130.769
857.94	-52.381
858.24	-3.704
858.53	0.000
858.83	-23.529
859.13	-76.471
859.42	-41.176
859.72	-35.714
860.01	-75.000
860.31	-255.556
860.60	-170.000
860.90	-80.000
861.20	-16.667
861.49	-153.846
861.79	-53.333
862.08	-107.692
862.38	-6.250
862.67	-82.353
862.97	-62.500
863.26	-177.778
863.56	-110.000
863.85	-72.727
864.15	-55.556
864.44	-633.333
864.74	-35.714
865.03	-87.500
865.33	-280.000
865.62	-32.258
865.92	-13.636
866.21	-21.739
866.51	-92.857
866.80	-140.000
867.10	-133.333
867.39	-241.667
867.69	1500.000
867.98	-114.286
868.27	-111.765
868.57	-2800.000
868.86	-240.000
869.16	-57.143
869.45	-16.667
869.75	-127.273
870.04	-114.286
870.33	-100.000
870.63	-242.857
870.92	-275.000
871.22	-262.500
871.51	-172.727
871.80	-566.667
872.10	-850.000
>>>>>End Processed Spectral Data<<<<<
