SpectraSuite Data File
++++++++++++++++++++++++++++++++++++
Date: Thu May 14 16:07:20 PDT 2015
User: schluterlab
Dark Spectrum Present: Yes
Reference Spectrum Present: Yes
Number of Sampled Component Spectra: 1
Spectrometers: USB2E3373
Integration Time (usec): 3000 (USB2E3373)
Spectra Averaged: 3 (USB2E3373)
Boxcar Smoothing: 0 (USB2E3373)
Correct for Electrical Dark: No (USB2E3373)
Strobe/Lamp Enabled: No (USB2E3373)
Correct for Detector Non-linearity: No (USB2E3373)
Correct for Stray Light: No (USB2E3373)
Number of Pixels in Processed Spectrum: 2048
>>>>>Begin Processed Spectral Data<<<<<
178.53	0.000
178.91	200.000
179.29	-1800.000
179.67	-1400.000
180.04	178.571
180.42	130.000
180.80	340.000
181.18	-400.000
181.56	-700.000
181.94	175.000
182.31	-425.000
182.69	533.333
183.07	-250.000
183.45	500.000
183.83	-300.000
184.20	-66.667
184.58	1500.000
184.96	-275.000
185.34	-122.222
185.72	-80.000
186.09	255.556
186.47	1000.000
186.85	420.000
187.23	-122.222
187.61	-2100.000
187.98	380.000
188.36	575.000
188.74	-450.000
189.12	-300.000
189.49	-25.000
189.87	-200.000
190.25	-111.111
190.63	-320.000
191.00	-111.111
191.38	0.000
191.76	-225.000
192.14	-50.000
192.51	950.000
192.89	-133.333
193.27	0.000
193.65	-71.429
194.02	-2400.000
194.40	-57.143
194.78	328.571
195.15	0.000
195.53	-63.636
195.91	0.000
196.29	-250.000
196.66	-123.077
197.04	-1800.000
197.42	-128.571
197.79	-950.000
198.17	-162.500
198.55	-185.714
198.92	-33.333
199.30	-137.500
199.68	-100.000
200.05	-71.429
200.43	-850.000
200.81	257.143
201.18	0.000
201.56	244.444
201.94	0.000
202.31	700.000
202.69	-222.222
203.07	1200.000
203.44	-122.222
203.82	-450.000
204.19	-91.667
204.57	-333.333
204.95	-175.000
205.32	-1500.000
205.70	225.000
206.08	-200.000
206.45	-183.333
206.83	620.000
207.20	-216.667
207.58	-480.000
207.96	-200.000
208.33	-200.000
208.71	150.000
209.08	-100.000
209.46	0.000
209.84	400.000
210.21	800.000
210.59	950.000
210.96	1033.333
211.34	-150.000
211.71	-75.000
212.09	-2100.000
212.46	0.000
212.84	1050.000
213.22	-360.000
213.59	-125.000
213.97	-100.000
214.34	-433.333
214.72	266.667
215.09	-350.000
215.47	0.000
215.84	228.571
216.22	900.000
216.59	-80.000
216.97	-260.000
217.34	-275.000
217.72	-50.000
218.09	-400.000
218.47	-575.000
218.84	0.000
219.22	120.000
219.59	-35.294
219.97	-15.000
220.34	850.000
220.72	-188.889
221.09	-15.385
221.47	-166.667
221.84	-100.000
222.22	-257.143
222.59	0.000
222.97	-75.000
223.34	-300.000
223.72	-1400.000
224.09	-450.000
224.46	-400.000
224.84	-20.000
225.21	-185.714
225.59	-550.000
225.96	-325.000
226.34	-34.615
226.71	400.000
227.08	-750.000
227.46	-73.333
227.83	-425.000
228.21	-5.263
228.58	250.000
228.95	400.000
229.33	-50.000
229.70	-70.000
230.08	21.053
230.45	280.000
230.82	-366.667
231.20	-64.286
231.57	-125.000
231.95	-54.545
232.32	-36.364
232.69	-35.000
233.07	-125.000
233.44	-76.471
233.81	-60.000
234.19	-27.778
234.56	-22.727
234.93	-20.690
235.31	-26.316
235.68	0.000
236.05	-25.000
236.43	11.538
236.80	28.000
237.17	7.407
237.55	9.091
237.92	-90.000
238.29	-3.226
238.67	-13.636
239.04	16.667
239.41	11.905
239.79	2.174
240.16	22.222
240.53	10.870
240.91	7.843
241.28	14.754
241.65	17.910
242.02	31.081
242.40	3.077
242.77	26.667
243.14	19.512
243.51	15.789
243.89	21.795
244.26	23.762
244.63	38.235
245.00	33.645
245.38	37.719
245.75	23.894
246.12	38.889
246.49	28.682
246.87	29.286
247.24	33.775
247.61	34.211
247.98	34.899
248.36	30.864
248.73	34.356
249.10	34.973
249.47	36.318
249.84	38.743
250.22	35.233
250.59	43.889
250.96	38.636
251.33	34.184
251.70	37.179
252.08	37.083
252.45	42.623
252.82	35.124
253.19	36.719
253.56	35.741
253.94	34.615
254.31	43.561
254.68	41.608
255.05	37.785
255.42	35.374
255.79	38.511
256.16	34.437
256.54	38.411
256.91	40.000
257.28	38.361
257.65	39.809
258.02	36.283
258.39	41.026
258.76	40.979
259.14	42.241
259.51	37.752
259.88	41.076
260.25	42.500
260.62	39.178
260.99	40.984
261.36	39.410
261.73	38.727
262.10	39.560
262.47	42.895
262.85	41.919
263.22	38.961
263.59	36.053
263.96	38.363
264.33	38.619
264.70	40.494
265.07	37.470
265.44	40.816
265.81	40.046
266.18	40.363
266.55	40.625
266.92	40.091
267.29	42.451
267.66	40.576
268.03	41.048
268.40	38.622
268.77	40.547
269.14	40.308
269.51	39.254
269.88	42.623
270.25	40.644
270.62	38.819
270.99	43.838
271.36	41.386
271.73	40.079
272.10	41.082
272.47	41.683
272.84	38.956
273.21	38.277
273.58	39.516
273.95	36.154
274.32	39.924
274.69	37.524
275.06	40.110
275.43	37.153
275.80	38.272
276.17	36.852
276.54	38.619
276.91	38.819
277.28	40.506
277.65	39.138
278.02	40.257
278.39	39.312
278.76	38.313
279.13	39.362
279.50	37.973
279.87	39.177
280.23	37.500
280.60	40.339
280.97	38.487
281.34	40.407
281.71	39.255
282.08	38.040
282.45	37.152
282.82	37.991
283.19	37.641
283.56	38.852
283.92	40.691
284.29	38.705
284.66	39.245
285.03	36.378
285.40	36.631
285.77	36.997
286.14	39.542
286.51	37.747
286.87	36.335
287.24	36.446
287.61	38.117
287.98	35.196
288.35	36.243
288.72	38.018
289.08	37.335
289.45	35.059
289.82	34.940
290.19	37.213
290.56	34.225
290.93	34.379
291.29	34.711
291.66	33.884
292.03	32.972
292.40	34.422
292.77	30.593
293.13	31.935
293.50	31.932
293.87	33.020
294.24	33.200
294.60	31.732
294.97	31.544
295.34	33.291
295.71	29.760
296.08	30.620
296.44	31.495
296.81	30.085
297.18	31.258
297.55	30.071
297.91	29.893
298.28	28.910
298.65	29.132
299.02	31.523
299.38	29.634
299.75	29.790
300.12	27.431
300.48	28.571
300.85	29.021
301.22	28.523
301.59	27.169
301.95	29.379
302.32	27.778
302.69	28.039
303.05	30.141
303.42	28.825
303.79	29.167
304.15	29.863
304.52	27.061
304.89	27.539
305.25	26.087
305.62	27.482
305.99	27.320
306.35	27.520
306.72	28.128
307.09	27.411
307.45	26.812
307.82	27.447
308.19	27.043
308.55	26.519
308.92	26.972
309.29	26.533
309.65	24.951
310.02	28.119
310.38	27.362
310.75	26.019
311.12	27.517
311.48	26.882
311.85	27.160
312.22	26.565
312.58	26.479
312.95	26.386
313.31	26.378
313.68	26.557
314.05	26.739
314.41	26.685
314.78	26.158
315.14	26.316
315.51	26.039
315.87	26.643
316.24	26.210
316.61	26.732
316.97	26.063
317.34	25.397
317.70	24.978
318.07	26.543
318.43	26.616
318.80	26.923
319.16	26.524
319.53	24.764
319.89	24.277
320.26	26.068
320.62	24.911
320.99	25.577
321.35	25.139
321.72	26.140
322.08	25.969
322.45	24.300
322.81	27.256
323.18	24.779
323.54	27.672
323.91	26.690
324.27	24.957
324.64	26.364
325.00	25.373
325.37	26.454
325.73	25.950
326.10	26.845
326.46	26.140
326.83	27.222
327.19	25.984
327.56	25.692
327.92	26.357
328.29	24.758
328.65	24.874
329.01	25.719
329.38	26.706
329.74	27.226
330.11	25.856
330.47	25.190
330.84	25.237
331.20	24.833
331.56	24.697
331.93	25.356
332.29	25.932
332.66	25.415
333.02	25.042
333.38	25.419
333.75	26.684
334.11	26.022
334.48	24.422
334.84	25.404
335.20	25.609
335.57	24.283
335.93	25.041
336.29	25.125
336.66	26.072
337.02	25.418
337.38	26.531
337.75	25.455
338.11	26.325
338.47	25.227
338.84	25.127
339.20	25.779
339.56	23.476
339.93	24.877
340.29	24.074
340.65	24.736
341.02	25.539
341.38	24.576
341.74	24.697
342.11	25.583
342.47	22.955
342.83	24.879
343.20	24.693
343.56	24.860
343.92	24.660
344.28	24.062
344.65	23.876
345.01	23.479
345.37	24.806
345.73	23.227
346.10	24.571
346.46	23.101
346.82	25.169
347.19	24.217
347.55	25.645
347.91	24.443
348.27	23.293
348.63	23.458
349.00	23.788
349.36	23.866
349.72	24.033
350.08	23.848
350.45	23.042
350.81	23.002
351.17	23.308
351.53	23.578
351.89	23.842
352.26	22.910
352.62	24.179
352.98	23.588
353.34	23.600
353.70	23.806
354.07	23.100
354.43	22.172
354.79	24.009
355.15	23.179
355.51	23.319
355.87	22.513
356.24	23.574
356.60	22.395
356.96	23.128
357.32	22.677
357.68	23.060
358.04	22.904
358.40	22.761
358.77	23.246
359.13	22.747
359.49	21.561
359.85	21.827
360.21	22.740
360.57	21.752
360.93	22.567
361.29	23.298
361.66	23.027
362.02	24.008
362.38	23.050
362.74	22.835
363.10	22.971
363.46	23.061
363.82	21.946
364.18	22.730
364.54	22.337
364.90	23.077
365.26	22.207
365.62	23.000
365.98	22.600
366.35	22.886
366.71	23.129
367.07	21.651
367.43	22.653
367.79	22.230
368.15	22.609
368.51	22.395
368.87	21.555
369.23	21.933
369.59	22.678
369.95	22.921
370.31	22.282
370.67	22.490
371.03	22.438
371.39	21.625
371.75	21.802
372.11	22.087
372.47	22.004
372.83	22.709
373.19	22.148
373.55	20.935
373.91	21.745
374.27	22.057
374.63	21.651
374.99	21.817
375.35	21.948
375.71	20.774
376.07	21.885
376.42	22.292
376.78	21.628
377.14	22.271
377.50	22.138
377.86	22.722
378.22	21.617
378.58	22.592
378.94	21.890
379.30	20.855
379.66	21.458
380.02	21.754
380.38	22.177
380.74	22.930
381.09	20.906
381.45	21.364
381.81	21.956
382.17	22.150
382.53	21.520
382.89	20.767
383.25	22.450
383.61	20.833
383.97	20.966
384.32	21.830
384.68	21.172
385.04	21.747
385.40	20.625
385.76	21.864
386.12	21.065
386.48	21.235
386.83	21.871
387.19	22.016
387.55	21.244
387.91	21.461
388.27	21.767
388.62	21.420
388.98	20.417
389.34	21.391
389.70	21.906
390.06	21.196
390.42	21.687
390.77	22.637
391.13	21.244
391.49	21.618
391.85	21.697
392.20	21.412
392.56	22.150
392.92	22.137
393.28	22.167
393.64	20.894
393.99	21.964
394.35	21.554
394.71	21.377
395.07	20.419
395.42	21.188
395.78	22.243
396.14	21.866
396.50	21.021
396.85	21.169
397.21	22.012
397.57	21.378
397.92	21.879
398.28	20.424
398.64	20.652
399.00	20.314
399.35	21.414
399.71	20.870
400.07	21.561
400.42	20.547
400.78	21.238
401.14	21.514
401.49	22.229
401.85	21.337
402.21	21.263
402.57	22.359
402.92	20.686
403.28	20.902
403.63	20.286
403.99	21.378
404.35	20.694
404.70	21.473
405.06	20.870
405.42	20.550
405.77	21.429
406.13	20.529
406.49	21.002
406.84	20.997
407.20	20.906
407.55	20.594
407.91	21.119
408.27	21.143
408.62	20.942
408.98	21.358
409.34	20.762
409.69	21.075
410.05	21.454
410.40	22.506
410.76	21.481
411.11	22.268
411.47	21.683
411.83	21.340
412.18	21.807
412.54	21.873
412.89	20.838
413.25	21.727
413.60	21.424
413.96	21.329
414.31	21.020
414.67	21.109
415.03	20.615
415.38	21.185
415.74	21.319
416.09	21.592
416.45	21.039
416.80	20.747
417.16	21.009
417.51	21.108
417.87	21.091
418.22	21.317
418.58	21.128
418.93	22.002
419.29	21.085
419.64	21.008
420.00	21.721
420.35	20.831
420.71	20.908
421.06	21.334
421.42	21.904
421.77	20.840
422.12	21.142
422.48	21.505
422.83	22.015
423.19	21.485
423.54	21.958
423.90	21.645
424.25	22.293
424.61	21.068
424.96	21.472
425.31	21.550
425.67	21.041
426.02	21.749
426.38	21.757
426.73	20.759
427.09	21.684
427.44	21.191
427.79	21.559
428.15	20.548
428.50	22.079
428.85	21.240
429.21	21.968
429.56	21.076
429.92	21.327
430.27	20.964
430.62	21.788
430.98	21.397
431.33	20.968
431.68	21.169
432.04	21.940
432.39	20.889
432.74	21.518
433.10	21.633
433.45	21.628
433.80	22.103
434.16	21.488
434.51	21.994
434.86	21.716
435.22	22.051
435.57	21.462
435.92	21.814
436.28	21.331
436.63	21.955
436.98	21.310
437.34	21.702
437.69	21.684
438.04	21.047
438.39	21.712
438.75	21.472
439.10	21.829
439.45	21.688
439.81	20.621
440.16	20.858
440.51	22.408
440.86	21.456
441.22	21.919
441.57	21.174
441.92	22.017
442.27	22.424
442.63	21.411
442.98	21.665
443.33	22.041
443.68	21.407
444.03	21.590
444.39	22.238
444.74	22.052
445.09	20.983
445.44	22.023
445.79	22.510
446.15	21.326
446.50	21.344
446.85	21.644
447.20	21.518
447.55	21.653
447.91	22.042
448.26	21.089
448.61	21.307
448.96	22.371
449.31	21.474
449.66	21.678
450.02	21.466
450.37	21.470
450.72	21.421
451.07	22.551
451.42	22.068
451.77	20.289
452.12	21.219
452.47	20.796
452.83	23.142
453.18	21.191
453.53	21.022
453.88	22.253
454.23	21.525
454.58	22.171
454.93	21.420
455.28	21.975
455.63	22.115
455.98	21.732
456.34	22.203
456.69	22.105
457.04	22.045
457.39	22.007
457.74	22.315
458.09	22.021
458.44	22.845
458.79	21.351
459.14	21.395
459.49	22.241
459.84	22.141
460.19	20.988
460.54	21.635
460.89	22.340
461.24	22.931
461.59	21.804
461.94	21.848
462.29	22.620
462.64	22.209
462.99	22.411
463.34	21.350
463.69	21.864
464.04	22.401
464.39	21.917
464.74	21.608
465.09	20.646
465.44	21.030
465.79	21.153
466.14	21.782
466.49	22.158
466.84	21.488
467.19	21.965
467.54	21.093
467.89	21.897
468.24	22.105
468.59	20.787
468.94	21.445
469.29	20.996
469.64	21.233
469.99	21.797
470.34	20.916
470.68	21.394
471.03	22.135
471.38	22.171
471.73	20.871
472.08	22.398
472.43	21.674
472.78	22.229
473.13	21.555
473.48	22.054
473.83	21.997
474.17	21.219
474.52	22.249
474.87	22.924
475.22	22.254
475.57	22.170
475.92	21.802
476.27	22.098
476.61	21.859
476.96	21.950
477.31	21.584
477.66	22.298
478.01	22.115
478.36	21.486
478.70	21.478
479.05	22.342
479.40	21.964
479.75	22.286
480.10	21.838
480.45	22.060
480.79	21.950
481.14	21.921
481.49	22.126
481.84	22.324
482.19	22.065
482.53	22.256
482.88	22.995
483.23	22.099
483.58	22.009
483.92	21.543
484.27	21.973
484.62	21.493
484.97	22.162
485.31	21.225
485.66	20.659
486.01	20.425
486.36	21.078
486.70	22.013
487.05	22.742
487.40	23.055
487.75	22.748
488.09	22.992
488.44	22.226
488.79	22.833
489.13	22.375
489.48	21.864
489.83	21.730
490.17	21.345
490.52	22.085
490.87	22.377
491.22	21.534
491.56	22.782
491.91	22.285
492.26	22.761
492.60	21.207
492.95	21.896
493.30	22.411
493.64	22.076
493.99	21.667
494.34	21.603
494.68	21.799
495.03	22.203
495.37	22.104
495.72	22.222
496.07	22.612
496.41	21.193
496.76	21.977
497.11	21.868
497.45	22.098
497.80	22.257
498.14	22.222
498.49	22.381
498.84	21.892
499.18	22.042
499.53	22.377
499.87	22.505
500.22	21.817
500.56	22.042
500.91	22.654
501.26	23.045
501.60	21.388
501.95	22.319
502.29	22.027
502.64	22.344
502.98	21.700
503.33	22.073
503.67	21.936
504.02	22.329
504.36	22.073
504.71	22.462
505.06	22.601
505.40	22.121
505.75	22.769
506.09	22.468
506.44	22.377
506.78	21.972
507.13	22.591
507.47	22.312
507.82	22.443
508.16	21.750
508.51	22.316
508.85	22.390
509.19	22.312
509.54	22.238
509.88	21.710
510.23	21.952
510.57	23.200
510.92	22.593
511.26	22.222
511.61	21.439
511.95	21.425
512.30	23.191
512.64	21.889
512.98	22.511
513.33	22.732
513.67	22.642
514.02	22.024
514.36	22.813
514.70	22.969
515.05	22.315
515.39	22.257
515.74	22.800
516.08	22.821
516.42	22.554
516.77	23.028
517.11	22.331
517.46	23.012
517.80	23.303
518.14	23.341
518.49	23.319
518.83	22.139
519.17	22.240
519.52	22.694
519.86	22.386
520.20	22.577
520.55	22.508
520.89	22.523
521.23	22.781
521.58	23.616
521.92	22.606
522.26	22.451
522.61	22.627
522.95	22.491
523.29	22.816
523.64	23.150
523.98	23.160
524.32	23.438
524.66	22.937
525.01	22.990
525.35	22.631
525.69	21.868
526.04	23.249
526.38	22.931
526.72	22.895
527.06	22.581
527.41	21.749
527.75	22.981
528.09	22.904
528.43	22.795
528.78	22.775
529.12	22.534
529.46	22.766
529.80	23.227
530.15	22.667
530.49	22.598
530.83	23.436
531.17	21.924
531.51	22.563
531.86	23.498
532.20	24.512
532.54	22.382
532.88	22.727
533.22	22.392
533.57	23.081
533.91	23.906
534.25	22.781
534.59	23.218
534.93	22.581
535.27	23.606
535.62	22.968
535.96	23.010
536.30	23.090
536.64	24.144
536.98	23.678
537.32	23.457
537.66	23.456
538.01	22.175
538.35	22.777
538.69	22.897
539.03	23.544
539.37	22.497
539.71	23.063
540.05	23.501
540.39	23.472
540.73	22.647
541.07	21.888
541.42	22.327
541.76	21.234
542.10	23.100
542.44	22.107
542.78	22.871
543.12	23.540
543.46	23.016
543.80	22.122
544.14	23.459
544.48	23.109
544.82	22.442
545.16	23.375
545.50	23.427
545.84	23.086
546.18	22.778
546.52	22.803
546.86	22.264
547.20	24.364
547.54	22.784
547.88	23.327
548.22	22.632
548.56	22.177
548.90	22.806
549.24	22.736
549.58	22.650
549.92	23.151
550.26	23.236
550.60	23.229
550.94	23.286
551.28	22.442
551.62	23.854
551.96	22.460
552.30	23.136
552.64	22.962
552.98	22.770
553.32	23.215
553.66	22.444
554.00	23.581
554.34	22.651
554.68	22.724
555.02	24.639
555.36	23.866
555.69	21.781
556.03	23.014
556.37	23.467
556.71	22.638
557.05	23.003
557.39	22.694
557.73	23.118
558.07	23.046
558.41	23.256
558.75	22.786
559.08	22.825
559.42	23.868
559.76	23.134
560.10	22.974
560.44	22.230
560.78	23.562
561.12	23.091
561.45	23.297
561.79	23.626
562.13	23.352
562.47	22.503
562.81	24.177
563.15	22.601
563.48	23.679
563.82	22.612
564.16	22.168
564.50	23.719
564.84	22.478
565.17	22.471
565.51	22.382
565.85	22.268
566.19	22.984
566.52	22.996
566.86	23.316
567.20	22.784
567.54	22.570
567.88	23.344
568.21	22.628
568.55	22.638
568.89	23.423
569.23	22.053
569.56	22.313
569.90	22.773
570.24	22.462
570.57	21.905
570.91	22.474
571.25	22.303
571.59	22.293
571.92	22.575
572.26	21.810
572.60	22.441
572.93	22.293
573.27	22.282
573.61	21.943
573.95	21.971
574.28	22.004
574.62	21.965
574.96	21.835
575.29	21.811
575.63	22.338
575.97	22.084
576.30	21.836
576.64	21.832
576.98	21.822
577.31	21.967
577.65	22.121
577.98	22.007
578.32	21.272
578.66	21.353
578.99	21.913
579.33	22.076
579.67	22.053
580.00	22.185
580.34	22.011
580.67	22.352
581.01	21.636
581.35	21.917
581.68	21.650
582.02	21.515
582.35	22.032
582.69	22.135
583.02	22.743
583.36	21.955
583.70	22.109
584.03	22.246
584.37	22.241
584.70	22.421
585.04	21.460
585.37	21.697
585.71	22.050
586.04	21.334
586.38	21.565
586.72	21.985
587.05	22.077
587.39	22.164
587.72	22.225
588.06	22.292
588.39	22.280
588.73	22.011
589.06	22.009
589.40	22.803
589.73	22.333
590.07	22.546
590.40	22.448
590.73	22.481
591.07	22.897
591.40	21.928
591.74	21.781
592.07	23.102
592.41	22.043
592.74	21.725
593.08	22.389
593.41	22.106
593.75	21.724
594.08	22.751
594.41	22.372
594.75	21.754
595.08	21.770
595.42	22.175
595.75	22.473
596.09	22.433
596.42	22.644
596.75	22.385
597.09	23.677
597.42	22.964
597.75	22.070
598.09	22.103
598.42	22.316
598.76	21.972
599.09	21.823
599.42	21.287
599.76	21.954
600.09	22.256
600.42	21.622
600.76	21.863
601.09	22.038
601.42	22.073
601.76	21.966
602.09	22.337
602.42	21.919
602.76	22.214
603.09	22.724
603.42	22.471
603.76	21.705
604.09	22.889
604.42	22.312
604.76	21.880
605.09	21.699
605.42	21.691
605.75	22.192
606.09	22.284
606.42	21.671
606.75	21.702
607.09	22.005
607.42	22.813
607.75	22.782
608.08	21.902
608.42	22.128
608.75	22.305
609.08	21.732
609.41	21.879
609.75	22.098
610.08	22.735
610.41	22.430
610.74	22.059
611.07	21.536
611.41	22.601
611.74	22.263
612.07	22.721
612.40	22.243
612.73	23.081
613.07	22.494
613.40	22.570
613.73	21.858
614.06	21.982
614.39	22.157
614.72	21.446
615.06	21.319
615.39	22.136
615.72	22.512
616.05	21.904
616.38	22.452
616.71	22.936
617.05	22.045
617.38	23.060
617.71	22.732
618.04	22.126
618.37	22.350
618.70	22.794
619.03	22.103
619.36	22.935
619.69	22.998
620.03	21.657
620.36	22.454
620.69	22.640
621.02	22.769
621.35	23.222
621.68	24.512
622.01	22.206
622.34	23.082
622.67	22.818
623.00	21.660
623.33	23.026
623.66	22.827
623.99	22.778
624.32	23.002
624.65	21.429
624.99	22.822
625.32	22.665
625.65	23.061
625.98	22.508
626.31	22.041
626.64	22.491
626.97	21.980
627.30	21.944
627.63	22.056
627.96	23.273
628.29	22.490
628.62	22.082
628.95	23.225
629.28	21.665
629.61	22.475
629.94	22.762
630.26	23.136
630.59	23.402
630.92	21.991
631.25	24.061
631.58	23.164
631.91	21.931
632.24	24.207
632.57	22.865
632.90	22.066
633.23	23.265
633.56	23.061
633.89	23.347
634.22	21.933
634.55	23.904
634.88	23.052
635.20	23.681
635.53	23.390
635.86	23.944
636.19	23.860
636.52	22.785
636.85	22.778
637.18	24.324
637.51	22.581
637.83	22.370
638.16	23.963
638.49	23.122
638.82	22.773
639.15	22.566
639.48	23.326
639.81	23.557
640.13	23.086
640.46	22.788
640.79	22.917
641.12	24.845
641.45	23.463
641.77	25.289
642.10	22.966
642.43	24.468
642.76	23.035
643.09	23.014
643.41	23.389
643.74	23.724
644.07	23.448
644.40	23.762
644.73	23.512
645.05	21.880
645.38	24.604
645.71	24.340
646.04	25.538
646.36	21.460
646.69	24.080
647.02	26.606
647.35	23.206
647.67	22.383
648.00	26.115
648.33	26.276
648.66	23.252
648.98	21.905
649.31	23.004
649.64	21.912
649.96	24.005
650.29	21.697
650.62	22.065
650.94	21.471
651.27	20.060
651.60	20.468
651.92	22.492
652.25	22.142
652.58	22.283
652.90	22.820
653.23	24.789
653.56	21.683
653.88	24.157
654.21	21.972
654.54	23.410
654.86	22.521
655.19	21.957
655.52	22.187
655.84	20.358
656.17	24.175
656.49	34.445
656.82	38.873
657.15	30.979
657.47	23.671
657.80	17.820
658.13	14.265
658.45	18.730
658.78	23.305
659.10	22.295
659.43	21.724
659.75	21.646
660.08	21.457
660.41	20.926
660.73	20.525
661.06	21.292
661.38	21.850
661.71	22.931
662.03	20.988
662.36	23.971
662.68	24.203
663.01	23.540
663.33	25.142
663.66	23.626
663.98	22.885
664.31	21.764
664.63	18.690
664.96	23.230
665.28	21.053
665.61	24.301
665.93	23.571
666.26	23.835
666.58	22.509
666.91	23.178
667.23	20.000
667.56	26.430
667.88	22.000
668.21	22.070
668.53	20.463
668.86	23.183
669.18	23.014
669.50	24.056
669.83	21.400
670.15	23.031
670.48	23.611
670.80	22.753
671.13	21.361
671.45	23.031
671.77	26.930
672.10	19.833
672.42	21.683
672.75	21.659
673.07	22.090
673.39	23.267
673.72	23.490
674.04	20.690
674.37	22.182
674.69	23.810
675.01	21.333
675.34	22.710
675.66	20.974
675.98	22.575
676.31	21.875
676.63	23.004
676.95	23.563
677.28	24.194
677.60	19.882
677.92	23.033
678.25	22.486
678.57	24.021
678.89	24.573
679.22	21.429
679.54	22.051
679.86	19.492
680.18	19.569
680.51	22.013
680.83	22.422
681.15	20.172
681.48	24.180
681.80	21.762
682.12	22.552
682.44	22.037
682.77	23.227
683.09	23.295
683.41	25.388
683.73	21.632
684.06	21.402
684.38	21.288
684.70	22.801
685.02	22.547
685.34	21.298
685.67	22.240
685.99	20.706
686.31	21.657
686.63	21.485
686.96	21.924
687.28	22.313
687.60	21.717
687.92	21.061
688.24	23.873
688.56	19.483
688.89	22.323
689.21	23.092
689.53	20.784
689.85	20.316
690.17	18.889
690.49	22.311
690.82	22.574
691.14	20.648
691.46	23.136
691.78	24.494
692.10	23.303
692.42	19.643
692.74	21.779
693.06	17.778
693.39	22.201
693.71	20.301
694.03	21.375
694.35	20.571
694.67	24.641
694.99	21.489
695.31	21.854
695.63	22.078
695.95	24.638
696.27	20.440
696.59	23.451
696.91	20.946
697.23	23.736
697.56	20.978
697.88	19.886
698.20	22.411
698.52	24.432
698.84	21.622
699.16	24.082
699.48	20.293
699.80	21.702
700.12	24.017
700.44	21.889
700.76	19.952
701.08	24.455
701.40	18.653
701.72	21.393
702.04	22.727
702.36	20.157
702.68	19.804
703.00	22.494
703.32	22.414
703.64	23.716
703.96	19.809
704.28	21.130
704.60	22.278
704.91	21.684
705.23	21.918
705.55	22.006
705.87	19.394
706.19	23.006
706.51	19.880
706.83	21.902
707.15	21.693
707.47	17.757
707.79	18.559
708.11	16.737
708.43	18.710
708.74	16.071
709.06	23.666
709.38	23.474
709.70	22.333
710.02	21.705
710.34	21.277
710.66	18.436
710.98	22.404
711.29	21.978
711.61	21.469
711.93	21.652
712.25	22.703
712.57	23.009
712.89	21.765
713.20	20.414
713.52	23.410
713.84	19.220
714.16	17.895
714.48	20.361
714.80	21.818
715.11	21.785
715.43	19.363
715.75	22.368
716.07	18.232
716.39	20.219
716.70	20.181
717.02	22.951
717.34	19.512
717.66	16.443
717.97	16.438
718.29	19.244
718.61	20.066
718.93	17.476
719.24	20.497
719.56	15.951
719.88	16.216
720.20	21.290
720.51	21.429
720.83	18.125
721.15	20.066
721.46	15.068
721.78	17.333
722.10	18.447
722.42	21.812
722.73	20.968
723.05	20.351
723.37	19.097
723.68	23.656
724.00	22.022
724.32	18.662
724.63	19.930
724.95	21.277
725.27	14.286
725.58	19.788
725.90	23.103
726.22	20.063
726.53	22.078
726.85	22.013
727.16	21.752
727.48	23.242
727.80	19.205
728.11	16.254
728.43	22.222
728.74	17.726
729.06	19.205
729.38	20.779
729.69	18.456
730.01	16.071
730.32	16.667
730.64	17.296
730.96	14.907
731.27	19.832
731.59	18.132
731.90	20.000
732.22	19.010
732.53	17.127
732.85	18.286
733.16	17.889
733.48	17.683
733.80	20.056
734.11	17.094
734.43	17.838
734.74	21.013
735.06	15.829
735.37	22.162
735.69	18.378
736.00	20.904
736.32	17.790
736.63	17.778
736.95	19.253
737.26	17.879
737.58	16.667
737.89	19.706
738.21	18.960
738.52	15.082
738.83	24.232
739.15	18.794
739.46	21.429
739.78	20.859
740.09	17.479
740.41	24.198
740.72	16.667
741.04	19.741
741.35	21.404
741.66	20.392
741.98	19.672
742.29	18.410
742.61	19.737
742.92	18.846
743.23	20.578
743.55	20.155
743.86	18.400
744.18	13.223
744.49	20.253
744.80	18.930
745.12	18.565
745.43	18.293
745.74	14.224
746.06	17.373
746.37	24.051
746.68	21.545
747.00	14.583
747.31	22.318
747.62	24.231
747.94	17.004
748.25	14.859
748.56	20.000
748.88	15.385
749.19	18.534
749.50	17.316
749.82	19.679
750.13	18.505
750.44	16.333
750.75	19.077
751.07	22.462
751.38	20.505
751.69	19.169
752.01	17.152
752.32	16.340
752.63	18.367
752.94	15.571
753.26	17.100
753.57	15.926
753.88	19.101
754.19	18.650
754.51	18.971
754.82	17.363
755.13	20.656
755.44	18.771
755.75	15.461
756.07	22.985
756.38	21.384
756.69	19.880
757.00	12.742
757.31	16.393
757.63	14.578
757.94	15.962
758.25	19.187
758.56	19.608
758.87	19.773
759.18	16.800
759.50	22.096
759.81	18.487
760.12	18.059
760.43	16.927
760.74	18.473
761.05	18.000
761.36	15.663
761.67	16.751
761.99	19.730
762.30	19.512
762.61	17.822
762.92	16.418
763.23	18.352
763.54	18.345
763.85	17.182
764.16	15.825
764.47	21.127
764.78	19.169
765.10	16.716
765.41	19.487
765.72	14.021
766.03	20.621
766.34	17.555
766.65	13.589
766.96	17.131
767.27	18.433
767.58	12.438
767.89	20.192
768.20	12.676
768.51	16.667
768.82	16.064
769.13	15.152
769.44	12.308
769.75	19.495
770.06	15.000
770.37	18.898
770.68	13.191
770.99	10.526
771.30	25.185
771.61	18.631
771.92	13.333
772.23	20.243
772.54	13.426
772.85	19.355
773.16	17.619
773.47	13.757
773.78	9.189
774.09	11.932
774.39	18.000
774.70	16.393
775.01	12.805
775.32	7.059
775.63	14.110
775.94	5.732
776.25	12.903
776.56	20.513
776.87	19.048
777.18	6.897
777.48	14.685
777.79	10.135
778.10	14.706
778.41	14.583
778.72	17.241
779.03	14.815
779.34	13.939
779.65	15.544
779.95	16.111
780.26	15.909
780.57	15.484
780.88	13.768
781.19	17.419
781.50	18.824
781.80	16.667
782.11	15.344
782.42	9.596
782.73	13.772
783.04	15.642
783.34	5.455
783.65	7.190
783.96	17.391
784.27	12.500
784.57	15.232
784.88	18.571
785.19	11.811
785.50	14.961
785.81	12.782
786.11	14.615
786.42	10.072
786.73	12.230
787.04	14.286
787.34	8.197
787.65	7.200
787.96	19.403
788.26	20.280
788.57	20.979
788.88	23.026
789.19	17.647
789.49	11.644
789.80	11.348
790.11	9.449
790.41	16.406
790.72	11.017
791.03	5.825
791.33	8.696
791.64	14.035
791.95	8.929
792.25	7.619
792.56	12.500
792.87	5.208
793.17	11.607
793.48	11.458
793.79	6.024
794.09	6.422
794.40	5.505
794.70	20.408
795.01	13.636
795.32	6.849
795.62	10.563
795.93	6.061
796.23	11.475
796.54	4.464
796.85	14.894
797.15	3.261
797.46	4.110
797.76	3.750
798.07	14.130
798.37	1.031
798.68	-7.792
798.99	6.897
799.29	-1.124
799.60	7.447
799.90	8.434
800.21	0.000
800.51	2.985
800.82	5.882
801.12	-16.438
801.43	-11.765
801.73	-11.864
802.04	-1.515
802.34	0.000
802.65	-10.169
802.95	7.463
803.26	1.695
803.56	-2.740
803.87	-2.857
804.17	-8.219
804.48	-3.509
804.78	0.000
805.09	-8.621
805.39	1.351
805.70	4.225
806.00	7.317
806.30	14.458
806.61	-9.589
806.91	12.500
807.22	4.444
807.52	5.747
807.83	16.667
808.13	6.024
808.43	1.124
808.74	0.000
809.04	1.471
809.35	0.000
809.65	5.714
809.95	2.740
810.26	-19.298
810.56	-5.172
810.86	5.882
811.17	-5.263
811.47	-18.033
811.77	-6.667
812.08	1.695
812.38	10.000
812.69	1.724
812.99	5.660
813.29	-48.718
813.59	10.000
813.90	15.789
814.20	-12.727
814.50	4.225
814.81	-10.256
815.11	-6.557
815.41	-11.940
815.72	17.241
816.02	3.571
816.32	6.667
816.62	-20.455
816.93	-11.111
817.23	24.074
817.53	-2.128
817.84	11.905
818.14	-8.824
818.44	-10.204
818.74	-15.556
819.04	-23.077
819.35	-22.857
819.65	-15.385
819.95	-15.094
820.25	4.444
820.56	-7.143
820.86	-6.250
821.16	-2.564
821.46	-34.884
821.76	-28.000
822.07	1.786
822.37	-4.348
822.67	-23.404
822.97	-32.432
823.27	12.500
823.57	8.163
823.88	13.333
824.18	-10.000
824.48	-46.667
824.78	-44.000
825.08	-9.091
825.38	-20.000
825.69	-10.638
825.99	-2.778
826.29	-57.143
826.59	-33.333
826.89	-11.628
827.19	-8.000
827.49	-8.824
827.79	22.917
828.09	-27.027
828.39	-23.333
828.70	-21.951
829.00	2.326
829.30	-39.286
829.60	-20.588
829.90	-10.870
830.20	-22.857
830.50	-58.621
830.80	-38.889
831.10	-50.000
831.40	-29.412
831.70	-33.333
832.00	-25.806
832.30	-123.529
832.60	-54.167
832.90	-138.462
833.20	-26.316
833.50	-30.000
833.80	-68.421
834.10	-95.238
834.40	-36.111
834.70	-12.500
835.00	-28.571
835.30	-23.529
835.60	-23.333
835.90	-16.000
836.20	-109.091
836.50	-32.000
836.80	-57.576
837.10	-59.259
837.40	-59.259
837.70	-56.250
838.00	-28.571
838.30	-65.217
838.60	-31.034
838.90	-128.571
839.19	-56.522
839.49	-200.000
839.79	-39.130
840.09	-118.750
840.39	-35.000
840.69	-29.032
840.99	-71.429
841.29	-93.333
841.59	-89.474
841.88	-2.564
842.18	-46.154
842.48	-230.000
842.78	-75.000
843.08	-10.000
843.38	0.000
843.68	-88.889
843.97	2.941
844.27	-12.500
844.57	-73.684
844.87	-170.000
845.17	-106.667
845.47	-14.286
845.76	-71.429
846.06	-166.667
846.36	-111.765
846.66	3.846
846.96	-100.000
847.25	-70.588
847.55	-8.696
847.85	-15.000
848.15	-17.647
848.44	-54.545
848.74	-23.810
849.04	-58.333
849.34	-87.500
849.63	-30.435
849.93	1100.000
850.23	-60.000
850.53	23.077
850.82	-154.545
851.12	0.000
851.42	-90.909
851.71	-46.154
852.01	-35.000
852.31	-53.846
852.61	-31.579
852.90	-108.333
853.20	-27.778
853.50	-311.111
853.79	-52.381
854.09	-40.909
854.39	-183.333
854.68	-19.355
854.98	-38.462
855.28	-27.778
855.57	-28.571
855.87	-44.000
856.17	-45.455
856.46	-85.185
856.76	-72.222
857.05	-56.522
857.35	-50.000
857.65	-76.923
857.94	-14.286
858.24	-3.704
858.53	-4.348
858.83	0.000
859.13	-52.941
859.42	-35.294
859.72	-50.000
860.01	-60.000
860.31	-188.889
860.60	-120.000
860.90	-126.667
861.20	-72.222
861.49	-53.846
861.79	10.000
862.08	-130.769
862.38	-21.875
862.67	-29.412
862.97	-87.500
863.26	-244.444
863.56	-90.000
863.85	-81.818
864.15	-22.222
864.44	-300.000
864.74	-50.000
865.03	-87.500
865.33	-140.000
865.62	-3.226
865.92	-22.727
866.21	4.348
866.51	-35.714
866.80	-380.000
867.10	-108.333
867.39	-208.333
867.69	2100.000
867.98	-185.714
868.27	-41.176
868.57	-2500.000
868.86	-180.000
869.16	-47.619
869.45	-8.333
869.75	-154.545
870.04	-171.429
870.33	-58.333
870.63	-228.571
870.92	-300.000
871.22	-237.500
871.51	-127.273
871.80	-633.333
872.10	-750.000
>>>>>End Processed Spectral Data<<<<<
