SpectraSuite Data File
++++++++++++++++++++++++++++++++++++
Date: Thu May 14 15:51:57 PDT 2015
User: schluterlab
Dark Spectrum Present: Yes
Reference Spectrum Present: Yes
Number of Sampled Component Spectra: 1
Spectrometers: USB2E3373
Integration Time (usec): 3000 (USB2E3373)
Spectra Averaged: 3 (USB2E3373)
Boxcar Smoothing: 0 (USB2E3373)
Correct for Electrical Dark: No (USB2E3373)
Strobe/Lamp Enabled: No (USB2E3373)
Correct for Detector Non-linearity: No (USB2E3373)
Correct for Stray Light: No (USB2E3373)
Number of Pixels in Processed Spectrum: 2048
>>>>>Begin Processed Spectral Data<<<<<
178.53	0.000
178.91	542.857
179.29	-4100.000
179.67	-4600.000
180.04	400.000
180.42	450.000
180.80	820.000
181.18	-4300.000
181.56	-3600.000
181.94	1050.000
182.31	-900.000
182.69	1100.000
183.07	-1700.000
183.45	1100.000
183.83	-650.000
184.20	-1366.667
184.58	4300.000
184.96	-1075.000
185.34	-477.778
185.72	-820.000
186.09	522.222
186.47	2000.000
186.85	1080.000
187.23	-477.778
187.61	-4400.000
187.98	780.000
188.36	975.000
188.74	-1250.000
189.12	-1100.000
189.49	-206.250
189.87	-512.500
190.25	-366.667
190.63	-580.000
191.00	-477.778
191.38	0.000
191.76	-1225.000
192.14	-600.000
192.51	1850.000
192.89	-583.333
193.27	0.000
193.65	-457.143
194.02	-4900.000
194.40	-585.714
194.78	600.000
195.15	0.000
195.53	-336.364
195.91	0.000
196.29	-925.000
196.66	-300.000
197.04	-4900.000
197.42	-614.286
197.79	-2100.000
198.17	-500.000
198.55	-600.000
198.92	-322.222
199.30	-462.500
199.68	-200.000
200.05	-200.000
200.43	-2250.000
200.81	614.286
201.18	0.000
201.56	444.444
201.94	0.000
202.31	1466.667
202.69	-511.111
203.07	3300.000
203.44	-444.444
203.82	-1000.000
204.19	-325.000
204.57	-783.333
204.95	-512.500
205.32	-5100.000
205.70	900.000
206.08	-666.667
206.45	-683.333
206.83	880.000
207.20	-550.000
207.58	-780.000
207.96	-716.667
208.33	-633.333
208.71	350.000
209.08	-483.333
209.46	0.000
209.84	750.000
210.21	1100.000
210.59	1850.000
210.96	1400.000
211.34	-750.000
211.71	-437.500
212.09	-3700.000
212.46	0.000
212.84	2400.000
213.22	-800.000
213.59	-950.000
213.97	-440.000
214.34	-1566.667
214.72	666.667
215.09	-1075.000
215.47	0.000
215.84	542.857
216.22	2550.000
216.59	-880.000
216.97	-780.000
217.34	-1025.000
217.72	-462.500
218.09	-1250.000
218.47	-1200.000
218.84	0.000
219.22	600.000
219.59	-158.824
219.97	-165.000
220.34	2700.000
220.72	-444.444
221.09	-253.846
221.47	-1400.000
221.84	-330.000
222.22	-657.143
222.59	0.000
222.97	-412.500
223.34	-840.000
223.72	-3800.000
224.09	-850.000
224.46	-1175.000
224.84	-760.000
225.21	-671.429
225.59	-1000.000
225.96	-1025.000
226.34	-119.231
226.71	750.000
227.08	-1900.000
227.46	-220.000
227.83	-1075.000
228.21	-168.421
228.58	462.500
228.95	2150.000
229.33	-216.667
229.70	-390.000
230.08	-105.263
230.45	360.000
230.82	-1300.000
231.20	-221.429
231.57	-275.000
231.95	-345.455
232.32	-327.273
232.69	-120.000
233.07	-925.000
233.44	-217.647
233.81	-400.000
234.19	-166.667
234.56	-127.273
234.93	-79.310
235.31	-147.368
235.68	-127.778
236.05	-205.000
236.43	-73.077
236.80	-84.000
237.17	-81.481
237.55	-90.909
237.92	-320.000
238.29	-80.645
238.67	-59.091
239.04	-72.222
239.41	-45.238
239.79	-43.478
240.16	-37.037
240.53	-47.826
240.91	-39.216
241.28	-22.951
241.65	-1.493
242.02	-12.162
242.40	-36.923
242.77	-12.000
243.14	-13.415
243.51	-15.789
243.89	-6.410
244.26	-6.931
244.63	4.902
245.00	2.804
245.38	6.140
245.75	8.850
246.12	15.079
246.49	11.628
246.87	20.714
247.24	16.556
247.61	18.421
247.98	16.779
248.36	15.432
248.73	15.951
249.10	15.301
249.47	24.378
249.84	28.272
250.22	20.207
250.59	20.556
250.96	25.000
251.33	19.898
251.70	24.359
252.08	29.583
252.45	22.951
252.82	26.446
253.19	21.484
253.56	25.856
253.94	27.308
254.31	31.439
254.68	30.070
255.05	30.619
255.42	27.551
255.79	26.537
256.16	24.834
256.54	29.470
256.91	33.443
257.28	31.148
257.65	30.892
258.02	27.139
258.39	27.920
258.76	34.251
259.14	35.920
259.51	34.870
259.88	30.595
260.25	30.000
260.62	30.411
260.99	33.607
261.36	29.759
261.73	32.361
262.10	37.363
262.47	35.389
262.85	34.343
263.22	31.948
263.59	30.000
263.96	34.783
264.33	33.248
264.70	31.111
265.07	34.129
265.44	34.921
265.81	33.102
266.18	33.333
266.55	33.705
266.92	32.802
267.29	34.573
267.66	35.255
268.03	35.371
268.40	32.359
268.77	31.891
269.14	35.022
269.51	31.798
269.88	35.041
270.25	33.803
270.62	35.443
270.99	35.960
271.36	30.297
271.73	35.167
272.10	31.864
272.47	33.267
272.84	34.337
273.21	34.669
273.58	34.073
273.95	31.346
274.32	30.418
274.69	30.754
275.06	35.714
275.43	32.532
275.80	32.981
276.17	34.444
276.54	31.343
276.91	33.453
277.28	31.284
277.65	32.675
278.02	34.007
278.39	31.703
278.76	30.931
279.13	32.270
279.50	33.505
279.87	31.843
280.23	30.282
280.60	32.542
280.97	32.895
281.34	34.975
281.71	34.687
282.08	33.389
282.45	32.242
282.82	31.397
283.19	30.210
283.56	32.131
283.92	33.333
284.29	34.597
284.66	33.990
285.03	31.891
285.40	33.849
285.77	33.746
286.14	32.061
286.51	32.420
286.87	32.701
287.24	32.229
287.61	32.586
287.98	30.363
288.35	32.249
288.72	32.544
289.08	30.893
289.45	29.586
289.82	30.873
290.19	30.029
290.56	31.549
290.93	30.100
291.29	30.854
291.66	28.926
292.03	27.680
292.40	30.748
292.77	26.685
293.13	28.552
293.50	28.121
293.87	30.067
294.24	30.000
294.60	27.181
294.97	24.698
295.34	28.297
295.71	26.482
296.08	27.261
296.44	26.225
296.81	27.527
297.18	27.522
297.55	24.646
297.91	25.860
298.28	26.422
298.65	26.754
299.02	26.446
299.38	25.057
299.75	25.117
300.12	24.884
300.48	25.000
300.85	26.547
301.22	25.727
301.59	24.772
301.95	25.537
302.32	25.556
302.69	23.877
303.05	24.592
303.42	25.499
303.79	25.938
304.15	24.711
304.52	25.264
304.89	25.236
305.25	24.017
305.62	25.183
305.99	24.021
306.35	24.597
306.72	26.474
307.09	24.162
307.45	25.880
307.82	25.227
308.19	25.126
308.55	25.169
308.92	26.485
309.29	25.192
309.65	24.269
310.02	25.446
310.38	25.295
310.75	26.019
311.12	26.846
311.48	25.513
311.85	23.932
312.22	27.230
312.58	25.634
312.95	26.482
313.31	26.378
313.68	25.733
314.05	26.920
314.41	28.597
314.78	27.702
315.14	27.949
315.51	28.532
315.87	28.803
316.24	27.854
316.61	29.307
316.97	27.964
317.34	28.131
317.70	29.782
318.07	30.952
318.43	30.357
318.80	31.773
319.16	32.361
319.53	31.191
319.89	31.551
320.26	31.851
320.62	32.535
320.99	32.502
321.35	33.179
321.72	34.605
322.08	34.445
322.45	35.863
322.81	36.011
323.18	35.487
323.54	36.466
323.91	37.989
324.27	37.177
324.64	39.631
325.00	38.723
325.37	40.377
325.73	42.066
326.10	42.092
326.46	43.241
326.83	45.717
327.19	44.646
327.56	45.692
327.92	44.532
328.29	44.839
328.65	46.064
329.01	45.601
329.38	46.504
329.74	48.887
330.11	48.887
330.47	47.515
330.84	48.407
331.20	49.417
331.56	48.527
331.93	49.707
332.29	50.424
332.66	50.083
333.02	50.251
333.38	53.188
333.75	50.589
334.11	52.127
334.48	51.650
334.84	53.101
335.20	50.294
335.57	52.951
335.93	51.818
336.29	53.661
336.66	51.556
337.02	52.258
337.38	53.741
337.75	52.645
338.11	54.247
338.47	52.854
338.84	53.130
339.20	53.580
339.56	53.542
339.93	53.859
340.29	52.899
340.65	52.393
341.02	54.908
341.38	53.759
341.74	53.834
342.11	54.626
342.47	54.170
342.83	55.717
343.20	56.255
343.56	56.295
343.92	55.725
344.28	54.531
344.65	56.667
345.01	56.396
345.37	55.910
345.73	54.482
346.10	53.978
346.46	56.329
346.82	55.805
347.19	55.462
347.55	55.766
347.91	56.464
348.27	56.677
348.63	56.664
349.00	56.823
349.36	57.844
349.72	57.515
350.08	57.132
350.45	58.251
350.81	57.843
351.17	57.218
351.53	59.363
351.89	58.238
352.26	57.761
352.62	58.731
352.98	59.160
353.34	57.879
353.70	59.784
354.07	60.283
354.43	59.833
354.79	59.312
355.15	58.352
355.51	60.746
355.87	59.910
356.24	61.901
356.60	58.241
356.96	61.305
357.32	60.297
357.68	60.469
358.04	61.078
358.40	61.343
358.77	60.819
359.13	60.857
359.49	62.379
359.85	63.017
360.21	61.549
360.57	62.024
360.93	62.482
361.29	63.368
361.66	62.491
362.02	64.370
362.38	64.863
362.74	62.709
363.10	64.924
363.46	64.474
363.82	63.707
364.18	65.306
364.54	64.246
364.90	65.017
365.26	66.276
365.62	66.933
365.98	66.372
366.35	64.832
366.71	67.211
367.07	66.576
367.43	66.448
367.79	67.817
368.15	67.425
368.51	68.403
368.87	65.774
369.23	66.933
369.59	70.082
369.95	68.763
370.31	68.805
370.67	69.395
371.03	69.460
371.39	68.032
371.75	69.464
372.11	68.902
372.47	68.720
372.83	68.848
373.19	68.846
373.55	68.970
373.91	69.393
374.27	69.082
374.63	72.124
374.99	71.154
375.35	71.494
375.71	71.935
376.07	70.368
376.42	71.788
376.78	71.162
377.14	69.682
377.50	72.233
377.86	72.291
378.22	72.036
378.58	72.711
378.94	71.479
379.30	72.994
379.66	73.075
380.02	72.937
380.38	74.251
380.74	73.634
381.09	73.055
381.45	73.125
381.81	74.473
382.17	72.684
382.53	74.503
382.89	73.025
383.25	75.850
383.61	75.347
383.97	75.147
384.32	76.316
384.68	73.318
385.04	75.940
385.40	76.783
385.76	75.498
386.12	74.746
386.48	75.706
386.83	76.460
387.19	75.956
387.55	75.528
387.91	75.514
388.27	76.328
388.62	75.487
388.98	74.281
389.34	77.254
389.70	77.687
390.06	76.258
390.42	76.024
390.77	77.062
391.13	76.291
391.49	76.087
391.85	76.667
392.20	76.987
392.56	76.905
392.92	75.954
393.28	77.888
393.64	75.363
393.99	79.140
394.35	78.096
394.71	77.246
395.07	76.527
395.42	76.927
395.78	78.306
396.14	76.946
396.50	77.078
396.85	76.744
397.21	76.213
397.57	76.678
397.92	75.888
398.28	76.317
398.64	76.030
399.00	76.545
399.35	77.435
399.71	76.902
400.07	76.642
400.42	76.717
400.78	78.299
401.14	76.437
401.49	76.634
401.85	78.023
402.21	77.404
402.57	78.521
402.92	77.009
403.28	77.342
403.63	76.432
403.99	76.544
404.35	75.725
404.70	75.864
405.06	75.870
405.42	77.576
405.77	77.644
406.13	77.688
406.49	78.266
406.84	77.064
407.20	77.362
407.55	76.257
407.91	76.870
408.27	75.324
408.62	76.614
408.98	77.597
409.34	76.657
409.69	77.009
410.05	76.553
410.40	77.552
410.76	76.332
411.11	76.622
411.47	77.887
411.83	76.896
412.18	76.807
412.54	75.697
412.89	76.368
413.25	75.790
413.60	75.531
413.96	76.573
414.31	75.467
414.67	75.909
415.03	75.692
415.38	77.617
415.74	74.527
416.09	76.002
416.45	75.204
416.80	75.520
417.16	75.479
417.51	76.152
417.87	75.107
418.22	75.449
418.58	75.589
418.93	75.611
419.29	75.832
419.64	74.850
420.00	75.430
420.35	75.519
420.71	74.957
421.06	75.101
421.42	76.491
421.77	74.529
422.12	74.789
422.48	76.344
422.83	76.616
423.19	74.907
423.54	75.553
423.90	74.103
424.25	76.213
424.61	75.718
424.96	75.892
425.31	74.735
425.67	75.094
426.02	75.982
426.38	75.660
426.73	75.000
427.09	75.433
427.44	73.730
427.79	74.903
428.15	75.571
428.50	76.011
428.85	73.995
429.21	76.117
429.56	74.383
429.92	74.742
430.27	74.217
430.62	75.476
430.98	74.274
431.33	73.998
431.68	74.330
432.04	75.013
432.39	74.933
432.74	73.916
433.10	74.256
433.45	73.746
433.80	73.981
434.16	75.310
434.51	76.053
434.86	76.167
435.22	75.452
435.57	75.767
435.92	73.178
436.28	74.118
436.63	75.096
436.98	73.430
437.34	75.761
437.69	74.408
438.04	74.617
438.39	74.555
438.75	75.042
439.10	74.207
439.45	73.449
439.81	74.689
440.16	73.727
440.51	73.579
440.86	72.151
441.22	72.669
441.57	74.581
441.92	74.394
442.27	75.000
442.63	73.373
442.98	73.372
443.33	73.961
443.68	73.885
444.03	74.506
444.39	74.434
444.74	73.864
445.09	71.668
445.44	73.920
445.79	74.904
446.15	73.484
446.50	71.731
446.85	73.541
447.20	73.549
447.55	73.692
447.91	73.194
448.26	73.784
448.61	72.635
448.96	75.161
449.31	72.534
449.66	72.059
450.02	72.521
450.37	73.415
450.72	74.220
451.07	73.462
451.42	71.982
451.77	72.763
452.12	74.831
452.47	73.143
452.83	73.874
453.18	73.380
453.53	72.947
453.88	72.170
454.23	72.768
454.58	74.463
454.93	71.784
455.28	72.908
455.63	72.825
455.98	73.240
456.34	72.909
456.69	73.663
457.04	73.995
457.39	71.286
457.74	74.105
458.09	72.103
458.44	71.121
458.79	71.738
459.14	73.047
459.49	73.118
459.84	72.875
460.19	71.849
460.54	72.572
460.89	72.949
461.24	72.356
461.59	71.168
461.94	70.850
462.29	73.572
462.64	71.817
462.99	71.563
463.34	72.291
463.69	69.637
464.04	72.929
464.39	71.805
464.74	70.182
465.09	72.780
465.44	71.835
465.79	70.227
466.14	70.089
466.49	71.316
466.84	72.066
467.19	70.520
467.54	69.683
467.89	69.368
468.24	72.078
468.59	70.122
468.94	72.145
469.29	72.046
469.64	70.820
469.99	71.638
470.34	70.421
470.68	69.788
471.03	70.858
471.38	70.307
471.73	72.107
472.08	70.685
472.43	70.921
472.78	71.222
473.13	70.038
473.48	70.393
473.83	71.909
474.17	69.402
474.52	71.497
474.87	69.491
475.22	70.704
475.57	69.522
475.92	69.686
476.27	69.595
476.61	69.730
476.96	68.874
477.31	69.109
477.66	70.829
478.01	69.192
478.36	68.495
478.70	69.163
479.05	71.421
479.40	69.743
479.75	69.212
480.10	70.156
480.45	68.778
480.79	69.569
481.14	69.807
481.49	69.923
481.84	69.539
482.19	69.849
482.53	70.092
482.88	68.985
483.23	69.364
483.58	69.039
483.92	67.465
484.27	68.501
484.62	66.790
484.97	67.652
485.31	66.279
485.66	62.517
486.01	62.585
486.36	64.595
486.70	67.951
487.05	68.899
487.40	67.030
487.75	66.132
488.09	65.511
488.44	62.978
488.79	64.587
489.13	64.446
489.48	65.243
489.83	65.070
490.17	65.816
490.52	65.928
490.87	66.794
491.22	68.458
491.56	68.217
491.91	67.117
492.26	66.465
492.60	66.506
492.95	65.467
493.30	67.100
493.64	66.886
493.99	66.711
494.34	66.638
494.68	66.510
495.03	67.797
495.37	66.977
495.72	67.029
496.07	66.827
496.41	65.894
496.76	66.597
497.11	66.879
497.45	67.372
497.80	65.304
498.14	67.075
498.49	66.268
498.84	65.814
499.18	66.217
499.53	65.516
499.87	67.033
500.22	65.761
500.56	66.262
500.91	66.957
501.26	67.364
501.60	65.621
501.95	64.307
502.29	65.029
502.64	64.582
502.98	63.934
503.33	64.968
503.67	63.890
504.02	64.229
504.36	64.879
504.71	64.079
505.06	64.120
505.40	64.854
505.75	64.800
506.09	64.503
506.44	65.274
506.78	64.771
507.13	64.684
507.47	64.946
507.82	63.684
508.16	64.771
508.51	63.854
508.85	64.856
509.19	64.614
509.54	66.378
509.88	64.497
510.23	65.032
510.57	66.071
510.92	65.119
511.26	63.059
511.61	63.592
511.95	63.836
512.30	63.959
512.64	62.669
512.98	64.382
513.33	64.163
513.67	65.783
514.02	64.333
514.36	65.115
514.70	64.427
515.05	65.537
515.39	65.302
515.74	65.058
516.08	64.025
516.42	65.097
516.77	64.196
517.11	63.950
517.46	64.475
517.80	64.725
518.14	65.832
518.49	65.564
518.83	63.332
519.17	64.243
519.52	63.679
519.86	64.467
520.20	64.750
520.55	65.005
520.89	64.302
521.23	64.098
521.58	65.932
521.92	64.476
522.26	62.944
522.61	64.988
522.95	64.591
523.29	63.506
523.64	64.854
523.98	64.176
524.32	65.903
524.66	65.168
525.01	64.723
525.35	63.354
525.69	64.037
526.04	62.170
526.38	65.172
526.72	64.360
527.06	64.164
527.41	64.373
527.75	63.480
528.09	63.223
528.43	63.114
528.78	64.104
529.12	63.991
529.46	62.170
529.80	63.787
530.15	63.188
530.49	62.693
530.83	62.751
531.17	62.186
531.51	64.862
531.86	62.921
532.20	64.329
532.54	61.819
532.88	63.333
533.22	63.288
533.57	63.243
533.91	61.336
534.25	61.108
534.59	62.069
534.93	61.573
535.27	61.915
535.62	62.365
535.96	61.360
536.30	61.575
536.64	62.462
536.98	61.931
537.32	60.679
537.66	62.445
538.01	60.060
538.35	60.962
538.69	62.740
539.03	62.109
539.37	60.483
539.71	60.661
540.05	60.492
540.39	60.575
540.73	60.534
541.07	61.557
541.42	59.303
541.76	58.837
542.10	60.253
542.44	60.231
542.78	60.949
543.12	59.237
543.46	59.646
543.80	59.712
544.14	60.024
544.48	59.870
544.82	59.964
545.16	60.048
545.50	58.478
545.84	58.665
546.18	60.123
546.52	59.936
546.86	58.742
547.20	59.160
547.54	58.177
547.88	59.614
548.22	57.836
548.56	58.865
548.90	59.343
549.24	58.480
549.58	59.369
549.92	58.291
550.26	59.288
550.60	58.902
550.94	59.508
551.28	56.568
551.62	59.367
551.96	58.123
552.30	59.273
552.64	57.436
552.98	57.517
553.32	58.842
553.66	57.814
554.00	57.377
554.34	57.593
554.68	57.069
555.02	57.884
555.36	58.317
555.69	57.655
556.03	57.755
556.37	58.010
556.71	56.880
557.05	57.636
557.39	57.930
557.73	58.058
558.07	58.212
558.41	57.608
558.75	58.959
559.08	58.803
559.42	58.093
559.76	58.005
560.10	54.990
560.44	57.916
560.78	56.937
561.12	56.958
561.45	56.509
561.79	55.861
562.13	58.595
562.47	55.425
562.81	56.835
563.15	56.187
563.48	56.557
563.82	55.925
564.16	55.603
564.50	53.874
564.84	55.339
565.17	55.000
565.51	53.510
565.85	54.810
566.19	54.666
566.52	55.237
566.86	55.291
567.20	53.616
567.54	54.434
567.88	54.077
568.21	53.360
568.55	53.573
568.89	52.928
569.23	53.190
569.56	51.700
569.90	52.316
570.24	51.939
570.57	50.257
570.91	49.939
571.25	49.667
571.59	50.292
571.92	49.440
572.26	49.206
572.60	49.113
572.93	48.901
573.27	48.722
573.61	48.703
573.95	48.774
574.28	48.143
574.62	48.136
574.96	47.772
575.29	47.367
575.63	47.840
575.97	47.473
576.30	47.792
576.64	46.838
576.98	47.699
577.31	47.635
577.65	47.544
577.98	47.233
578.32	47.104
578.66	47.041
578.99	46.836
579.33	46.487
579.67	46.215
580.00	46.415
580.34	46.531
580.67	46.580
581.01	46.408
581.35	46.133
581.68	45.892
582.02	46.254
582.35	46.860
582.69	46.271
583.02	46.421
583.36	45.882
583.70	45.149
584.03	44.852
584.37	44.927
584.70	45.159
585.04	45.641
585.37	45.250
585.71	45.523
586.04	45.354
586.38	45.009
586.72	45.425
587.05	45.510
587.39	45.300
587.72	46.340
588.06	44.971
588.39	45.830
588.73	44.788
589.06	46.078
589.40	46.189
589.73	45.019
590.07	45.822
590.40	46.450
590.73	46.306
591.07	46.463
591.40	45.062
591.74	46.184
592.07	47.259
592.41	47.003
592.74	45.971
593.08	46.720
593.41	46.661
593.75	45.948
594.08	45.895
594.41	45.513
594.75	44.603
595.08	45.424
595.42	45.097
595.75	44.785
596.09	45.442
596.42	45.503
596.75	45.426
597.09	46.263
597.42	45.809
597.75	45.708
598.09	45.000
598.42	45.758
598.76	44.249
599.09	45.425
599.42	44.418
599.76	44.371
600.09	44.745
600.42	43.810
600.76	44.980
601.09	43.777
601.42	43.598
601.76	43.586
602.09	43.924
602.42	44.493
602.76	44.686
603.09	44.163
603.42	44.762
603.76	43.763
604.09	45.671
604.42	44.220
604.76	43.455
605.09	44.077
605.42	44.976
605.75	44.846
606.09	44.308
606.42	43.853
606.75	44.040
607.09	43.587
607.42	43.314
607.75	44.119
608.08	44.081
608.42	43.773
608.75	43.905
609.08	44.312
609.41	43.141
609.75	44.688
610.08	44.635
610.41	44.647
610.74	43.571
611.07	45.515
611.41	44.529
611.74	44.804
612.07	44.741
612.40	44.297
612.73	44.254
613.07	44.401
613.40	45.236
613.73	43.765
614.06	43.572
614.39	44.266
614.72	44.930
615.06	44.177
615.39	43.451
615.72	43.934
616.05	44.051
616.38	44.652
616.71	44.619
617.05	43.717
617.38	44.141
617.71	44.600
618.04	43.983
618.37	45.082
618.70	45.136
619.03	45.221
619.36	45.253
619.69	44.843
620.03	44.444
620.36	45.460
620.69	44.911
621.02	45.932
621.35	46.081
621.68	45.409
622.01	45.694
622.34	44.491
622.67	45.223
623.00	43.590
623.33	46.184
623.66	45.914
623.99	45.030
624.32	46.849
624.65	45.367
624.99	45.904
625.32	45.918
625.65	44.707
625.98	43.458
626.31	45.996
626.64	44.469
626.97	45.461
627.30	46.090
627.63	45.011
627.96	46.471
628.29	46.537
628.62	45.928
628.95	47.152
629.28	45.370
629.61	47.306
629.94	45.272
630.26	45.593
630.59	46.718
630.92	46.320
631.25	47.406
631.58	47.552
631.91	47.798
632.24	49.952
632.57	45.446
632.90	48.245
633.23	48.571
633.56	47.449
633.89	47.521
634.22	48.753
634.55	49.687
634.88	49.351
635.20	47.255
635.53	49.379
635.86	45.829
636.19	47.932
636.52	47.046
636.85	45.863
637.18	48.649
637.51	47.312
637.83	47.619
638.16	48.733
638.49	47.887
638.82	48.140
639.15	46.277
639.48	48.037
639.81	45.727
640.13	48.410
640.46	46.182
640.79	47.426
641.12	46.460
641.45	47.428
641.77	50.834
642.10	47.638
642.43	48.670
642.76	47.561
643.09	47.808
643.41	49.860
643.74	48.966
644.07	48.828
644.40	47.666
644.73	50.218
645.05	46.990
645.38	49.353
645.71	48.387
646.04	49.928
646.36	46.277
646.69	48.620
647.02	50.000
647.35	47.786
647.67	50.242
648.00	48.408
648.33	49.249
648.66	46.362
648.98	43.673
649.31	48.173
649.64	46.348
649.96	46.286
650.29	43.811
650.62	44.554
650.94	46.246
651.27	44.910
651.60	47.515
651.92	46.201
652.25	45.152
652.58	44.154
652.90	44.041
653.23	45.211
653.56	44.508
653.88	45.787
654.21	48.169
654.54	45.087
654.86	46.459
655.19	42.911
655.52	45.411
655.84	42.376
656.17	47.417
656.49	63.679
656.82	66.955
657.15	50.849
657.47	37.172
657.80	27.235
658.13	20.626
658.45	27.086
658.78	32.155
659.10	30.468
659.43	29.773
659.75	29.793
660.08	29.692
660.41	32.506
660.73	35.576
661.06	41.557
661.38	42.743
661.71	43.793
662.03	46.737
662.36	48.301
662.68	46.341
663.01	45.487
663.33	47.448
663.66	48.352
663.98	46.538
664.31	46.341
664.63	44.509
664.96	45.009
665.28	42.831
665.61	43.531
665.93	43.214
666.26	45.699
666.58	45.941
666.91	45.047
667.23	44.571
667.56	44.773
667.88	47.000
668.21	43.750
668.53	41.699
668.86	45.580
669.18	44.603
669.50	46.123
669.83	44.000
670.15	43.307
670.48	45.437
670.80	44.933
671.13	42.533
671.45	45.276
671.77	45.009
672.10	43.500
672.42	43.366
672.75	40.860
673.07	41.493
673.39	41.448
673.72	44.631
674.04	44.310
674.37	43.828
674.69	44.268
675.01	42.857
675.34	42.176
675.66	41.011
675.98	45.336
676.31	45.117
676.63	45.247
676.95	43.295
677.28	43.145
677.60	42.323
677.92	43.570
678.25	44.607
678.57	44.662
678.89	43.003
679.22	42.160
679.54	41.197
679.86	40.508
680.18	41.625
680.51	41.667
680.83	42.226
681.15	42.931
681.48	43.178
681.80	40.933
682.12	44.056
682.44	40.401
682.77	40.603
683.09	40.720
683.41	42.829
683.73	42.694
684.06	40.775
684.38	39.535
684.70	41.652
685.02	41.136
685.34	39.268
685.67	38.959
685.99	40.491
686.31	37.791
686.63	40.126
686.96	40.221
687.28	38.599
687.60	37.542
687.92	37.621
688.24	37.730
688.56	37.069
688.89	40.835
689.21	42.661
689.53	37.647
689.85	40.631
690.17	37.778
690.49	40.637
690.82	40.990
691.14	39.271
691.46	39.388
691.78	39.411
692.10	40.367
692.42	36.429
692.74	37.568
693.06	34.815
693.39	40.228
693.71	38.722
694.03	38.662
694.35	37.333
694.67	39.630
694.99	37.660
695.31	42.163
695.63	38.312
695.95	40.166
696.27	42.857
696.59	40.044
696.91	39.189
697.23	42.857
697.56	37.067
697.88	37.311
698.20	39.548
698.52	38.068
698.84	40.748
699.16	37.755
699.48	36.611
699.80	38.085
700.12	38.646
700.44	41.705
700.76	38.955
701.08	40.194
701.40	39.378
701.72	39.801
702.04	39.840
702.36	38.482
702.68	37.653
703.00	34.963
703.32	40.640
703.64	37.653
703.96	39.141
704.28	36.855
704.60	38.734
704.91	37.755
705.23	39.726
705.55	37.604
705.87	37.273
706.19	42.638
706.51	35.843
706.83	39.193
707.15	39.947
707.47	36.215
707.79	37.555
708.11	32.627
708.43	37.634
708.74	34.375
709.06	33.875
709.38	36.385
709.70	35.484
710.02	36.176
710.34	39.362
710.66	32.682
710.98	37.158
711.29	34.066
711.61	38.136
711.93	37.037
712.25	35.946
712.57	36.873
712.89	41.176
713.20	32.249
713.52	35.838
713.84	35.655
714.16	36.316
714.48	34.278
714.80	35.325
715.11	35.958
715.43	30.239
715.75	33.421
716.07	35.635
716.39	33.060
716.70	35.241
717.02	35.410
717.34	32.056
717.66	35.570
717.97	33.219
718.29	35.395
718.61	35.526
718.93	33.333
719.24	33.230
719.56	30.982
719.88	32.132
720.20	31.613
720.51	36.646
720.83	34.375
721.15	34.539
721.46	29.452
721.78	36.000
722.10	31.392
722.42	31.879
722.73	30.000
723.05	31.579
723.37	29.861
723.68	35.484
724.00	35.018
724.32	30.634
724.63	32.168
724.95	34.397
725.27	29.268
725.58	33.922
725.90	37.586
726.22	27.900
726.53	34.091
726.85	34.591
727.16	29.909
727.48	31.804
727.80	31.788
728.11	32.155
728.43	30.303
728.74	31.104
729.06	35.099
729.38	32.792
729.69	30.201
730.01	27.679
730.32	28.485
730.64	33.333
730.96	28.261
731.27	32.123
731.59	33.791
731.90	27.792
732.22	30.729
732.53	30.663
732.85	31.143
733.16	35.484
733.48	29.878
733.80	24.513
734.11	29.345
734.43	30.541
734.74	33.924
735.06	25.879
735.37	32.703
735.69	28.108
736.00	30.791
736.32	29.919
736.63	26.667
736.95	30.747
737.26	30.909
737.58	27.273
737.89	27.647
738.21	22.018
738.52	24.918
738.83	27.986
739.15	31.560
739.46	30.272
739.78	26.380
740.09	26.648
740.41	31.195
740.72	27.333
741.04	26.861
741.35	30.877
741.66	27.843
741.98	28.279
742.29	26.778
742.61	28.947
742.92	28.077
743.23	31.408
743.55	28.295
743.86	28.800
744.18	24.380
744.49	29.536
744.80	30.864
745.12	31.224
745.43	28.455
745.74	24.569
746.06	28.814
746.37	31.224
746.68	28.862
747.00	27.917
747.31	27.039
747.62	29.615
747.94	26.316
748.25	30.120
748.56	26.939
748.88	29.915
749.19	32.328
749.50	30.303
749.82	34.538
750.13	35.587
750.44	26.667
750.75	26.769
751.07	31.692
751.38	28.076
751.69	33.546
752.01	25.890
752.32	29.412
752.63	27.891
752.94	28.720
753.26	23.792
753.57	25.556
753.88	25.468
754.19	27.653
754.51	27.653
754.82	31.833
755.13	29.508
755.44	24.573
755.75	28.618
756.07	28.358
756.38	23.899
756.69	29.518
757.00	29.917
757.31	26.776
757.63	24.552
757.94	29.108
758.25	29.571
758.56	27.669
758.87	26.818
759.18	25.333
759.50	30.595
759.81	29.412
760.12	30.189
760.43	26.042
760.74	31.281
761.05	28.500
761.36	26.747
761.67	26.650
761.99	25.676
762.30	27.439
762.61	25.083
762.92	26.493
763.23	29.963
763.54	28.058
763.85	31.271
764.16	21.886
764.47	28.873
764.78	28.435
765.10	26.979
765.41	28.205
765.72	27.513
766.03	26.271
766.34	21.630
766.65	23.693
766.96	23.108
767.27	23.502
767.58	19.403
767.89	30.769
768.20	27.700
768.51	23.611
768.82	22.892
769.13	24.242
769.44	20.769
769.75	25.271
770.06	21.923
770.37	27.559
770.68	20.851
770.99	25.101
771.30	28.148
771.61	25.475
771.92	24.444
772.23	25.506
772.54	22.685
772.85	23.963
773.16	20.952
773.47	24.339
773.78	14.595
774.09	19.886
774.39	27.000
774.70	26.230
775.01	19.512
775.32	12.941
775.63	16.564
775.94	8.917
776.25	19.355
776.56	19.872
776.87	16.327
777.18	15.172
777.48	18.182
777.79	16.216
778.10	14.706
778.41	9.028
778.72	16.552
779.03	16.667
779.34	20.606
779.65	18.653
779.95	22.778
780.26	18.182
780.57	13.548
780.88	20.290
781.19	15.484
781.50	20.588
781.80	22.581
782.11	17.460
782.42	6.566
782.73	8.383
783.04	16.201
783.34	19.394
783.65	7.190
783.96	16.770
784.27	13.095
784.57	19.205
784.88	17.143
785.19	11.024
785.50	17.323
785.81	9.774
786.11	7.692
786.42	5.755
786.73	10.072
787.04	13.534
787.34	6.557
787.65	8.800
787.96	2.985
788.26	13.287
788.57	12.587
788.88	13.158
789.19	16.340
789.49	9.589
789.80	13.475
790.11	7.087
790.41	3.125
790.72	0.000
791.03	0.971
791.33	7.826
791.64	10.526
791.95	0.000
792.25	8.571
792.56	1.786
792.87	1.042
793.17	12.500
793.48	-5.208
793.79	-16.867
794.09	4.587
794.40	10.092
794.70	10.884
795.01	11.688
795.32	4.110
795.62	10.563
795.93	2.273
796.23	4.918
796.54	-9.821
796.85	-8.511
797.15	-11.957
797.46	-17.808
797.76	-6.250
798.07	-5.435
798.37	-6.186
798.68	-12.987
798.99	1.149
799.29	-5.618
799.60	0.000
799.90	-9.639
800.21	-13.846
800.51	-28.358
800.82	-13.235
801.12	-31.507
801.43	-23.529
801.73	-33.898
802.04	-27.273
802.34	-30.000
802.65	-23.729
802.95	-11.940
803.26	-13.559
803.56	-16.438
803.87	-24.286
804.17	-12.329
804.48	-29.825
804.78	-18.056
805.09	-29.310
805.39	-16.216
805.70	-23.944
806.00	-17.073
806.30	-4.819
806.61	-20.548
806.91	-5.769
807.22	-13.333
807.52	-17.241
807.83	-4.167
808.13	-10.843
808.43	-16.854
808.74	-12.500
809.04	-22.059
809.35	-16.000
809.65	-15.714
809.95	-12.329
810.26	-36.842
810.56	-18.966
810.86	-13.235
811.17	-35.088
811.47	-37.705
811.77	-51.111
812.08	-27.119
812.38	-18.333
812.69	-29.310
812.99	-49.057
813.29	-69.231
813.59	-14.000
813.90	-21.053
814.20	-30.909
814.50	0.000
814.81	-15.385
815.11	-34.426
815.41	-16.418
815.72	-12.069
816.02	-26.786
816.32	-48.889
816.62	-22.727
816.93	-62.222
817.23	-22.222
817.53	-51.064
817.84	-23.810
818.14	-88.235
818.44	-34.694
818.74	-53.333
819.04	-79.487
819.35	-105.714
819.65	-142.308
819.95	-39.623
820.25	-46.667
820.56	-71.429
820.86	-59.375
821.16	-64.103
821.46	-41.860
821.76	-36.000
822.07	-35.714
822.37	-50.000
822.67	-57.447
822.97	-94.595
823.27	-67.500
823.57	-18.367
823.88	-64.444
824.18	-47.500
824.48	-86.667
824.78	-128.000
825.08	-84.848
825.38	-33.333
825.69	-23.404
825.99	-47.222
826.29	-105.714
826.59	-53.846
826.89	-60.465
827.19	-56.000
827.49	-64.706
827.79	-47.917
828.09	-105.405
828.39	-136.667
828.70	-70.732
829.00	-51.163
829.30	-85.714
829.60	-55.882
829.90	-36.957
830.20	-91.429
830.50	-89.655
830.80	-155.556
831.10	-123.077
831.40	-61.765
831.70	-123.810
832.00	-45.161
832.30	-276.471
832.60	-141.667
832.90	-284.615
833.20	-147.368
833.50	-155.000
833.80	-184.211
834.10	-142.857
834.40	-77.778
834.70	-40.625
835.00	-91.429
835.30	-61.765
835.60	-110.000
835.90	-104.000
836.20	-181.818
836.50	-128.000
836.80	-96.970
837.10	-114.815
837.40	-122.222
837.70	-287.500
838.00	-89.286
838.30	-152.174
838.60	-89.655
838.90	-278.571
839.19	-191.304
839.49	-333.333
839.79	-104.348
840.09	-187.500
840.39	-145.000
840.69	-54.839
840.99	-96.429
841.29	-246.667
841.59	-173.684
841.88	-74.359
842.18	-119.231
842.48	-400.000
842.78	-180.000
843.08	-86.667
843.38	-90.323
843.68	-205.556
843.97	-82.353
844.27	-212.500
844.57	-178.947
844.87	-300.000
845.17	-233.333
845.47	-85.714
845.76	-166.667
846.06	-455.556
846.36	-211.765
846.66	-126.923
846.96	-253.333
847.25	-182.353
847.55	-139.130
847.85	-180.000
848.15	-170.588
848.44	-272.727
848.74	-195.238
849.04	-179.167
849.34	-243.750
849.63	-117.391
849.93	1950.000
850.23	-186.667
850.53	-96.154
850.82	-336.364
851.12	-127.273
851.42	-436.364
851.71	-207.692
852.01	-200.000
852.31	-192.308
852.61	-168.421
852.90	-300.000
853.20	-166.667
853.50	-455.556
853.79	-204.762
854.09	-163.636
854.39	-333.333
854.68	-106.452
854.98	-115.385
855.28	-166.667
855.57	-103.571
855.87	-124.000
856.17	-150.000
856.46	-100.000
856.76	-194.444
857.05	-160.870
857.35	-145.833
857.65	-261.538
857.94	-171.429
858.24	-85.185
858.53	-117.391
858.83	-147.059
859.13	-205.882
859.42	-164.706
859.72	-221.429
860.01	-150.000
860.31	-433.333
860.60	-350.000
860.90	-266.667
861.20	-161.111
861.49	-238.462
861.79	-96.667
862.08	-315.385
862.38	-56.250
862.67	-152.941
862.97	-231.250
863.26	-466.667
863.56	-300.000
863.85	-354.545
864.15	-138.889
864.44	-1133.333
864.74	-278.571
865.03	-225.000
865.33	-420.000
865.62	-119.355
865.92	-81.818
866.21	-139.130
866.51	-257.143
866.80	-840.000
867.10	-275.000
867.39	-333.333
867.69	4900.000
867.98	-414.286
868.27	-176.471
868.57	-4900.000
868.86	-360.000
869.16	-138.095
869.45	-162.500
869.75	-272.727
870.04	-500.000
870.33	-308.333
870.63	-657.143
870.92	-975.000
871.22	-612.500
871.51	-409.091
871.80	-1366.667
872.10	-2100.000
>>>>>End Processed Spectral Data<<<<<
