SpectraSuite Data File
++++++++++++++++++++++++++++++++++++
Date: Thu May 14 15:52:26 PDT 2015
User: schluterlab
Dark Spectrum Present: Yes
Reference Spectrum Present: Yes
Number of Sampled Component Spectra: 1
Spectrometers: USB2E3373
Integration Time (usec): 3000 (USB2E3373)
Spectra Averaged: 3 (USB2E3373)
Boxcar Smoothing: 0 (USB2E3373)
Correct for Electrical Dark: No (USB2E3373)
Strobe/Lamp Enabled: No (USB2E3373)
Correct for Detector Non-linearity: No (USB2E3373)
Correct for Stray Light: No (USB2E3373)
Number of Pixels in Processed Spectrum: 2048
>>>>>Begin Processed Spectral Data<<<<<
178.53	0.000
178.91	557.143
179.29	-4500.000
179.67	-3600.000
180.04	407.143
180.42	360.000
180.80	880.000
181.18	-3800.000
181.56	-2900.000
181.94	975.000
182.31	-900.000
182.69	1166.667
183.07	-2100.000
183.45	1000.000
183.83	-600.000
184.20	-1333.333
184.58	4400.000
184.96	-875.000
185.34	-500.000
185.72	-660.000
186.09	611.111
186.47	2050.000
186.85	1000.000
187.23	-500.000
187.61	-3900.000
187.98	780.000
188.36	1125.000
188.74	-1200.000
189.12	-1033.333
189.49	-225.000
189.87	-475.000
190.25	-355.556
190.63	-780.000
191.00	-500.000
191.38	0.000
191.76	-1000.000
192.14	-566.667
192.51	1550.000
192.89	-416.667
193.27	0.000
193.65	-528.571
194.02	-4900.000
194.40	-642.857
194.78	628.571
195.15	0.000
195.53	-272.727
195.91	0.000
196.29	-600.000
196.66	-246.154
197.04	-4100.000
197.42	-557.143
197.79	-2000.000
198.17	-525.000
198.55	-500.000
198.92	-411.111
199.30	-537.500
199.68	-309.091
200.05	-207.143
200.43	-2050.000
200.81	828.571
201.18	0.000
201.56	555.556
201.94	0.000
202.31	1733.333
202.69	-488.889
203.07	3600.000
203.44	-344.444
203.82	-1000.000
204.19	-275.000
204.57	-533.333
204.95	-487.500
205.32	-3800.000
205.70	1000.000
206.08	-750.000
206.45	-600.000
206.83	1100.000
207.20	-633.333
207.58	-1000.000
207.96	-850.000
208.33	-516.667
208.71	416.667
209.08	-533.333
209.46	0.000
209.84	816.667
210.21	2050.000
210.59	1850.000
210.96	1333.333
211.34	-1125.000
211.71	-575.000
212.09	-4500.000
212.46	0.000
212.84	2350.000
213.22	-960.000
213.59	-975.000
213.97	-380.000
214.34	-1400.000
214.72	650.000
215.09	-1000.000
215.47	0.000
215.84	528.571
216.22	2250.000
216.59	-940.000
216.97	-780.000
217.34	-725.000
217.72	-537.500
218.09	-925.000
218.47	-1200.000
218.84	0.000
219.22	760.000
219.59	-188.235
219.97	-145.000
220.34	2150.000
220.72	-433.333
221.09	-223.077
221.47	-1166.667
221.84	-400.000
222.22	-700.000
222.59	0.000
222.97	-462.500
223.34	-920.000
223.72	-4700.000
224.09	-1000.000
224.46	-975.000
224.84	-600.000
225.21	-642.857
225.59	-1125.000
225.96	-1000.000
226.34	-126.923
226.71	783.333
227.08	-1900.000
227.46	-233.333
227.83	-1075.000
228.21	-173.684
228.58	487.500
228.95	2250.000
229.33	-233.333
229.70	-340.000
230.08	-100.000
230.45	430.000
230.82	-1366.667
231.20	-264.286
231.57	-291.667
231.95	-336.364
232.32	-363.636
232.69	-180.000
233.07	-875.000
233.44	-264.706
233.81	-370.000
234.19	-238.889
234.56	-181.818
234.93	-96.552
235.31	-205.263
235.68	-227.778
236.05	-180.000
236.43	-103.846
236.80	-140.000
237.17	-151.852
237.55	-133.333
237.92	-450.000
238.29	-132.258
238.67	-75.000
239.04	-102.778
239.41	-76.190
239.79	-67.391
240.16	-68.519
240.53	-86.957
240.91	-92.157
241.28	-67.213
241.65	-38.806
242.02	-41.892
242.40	-70.769
242.77	-45.333
243.14	-45.122
243.51	-60.526
243.89	-52.564
244.26	-26.733
244.63	-28.431
245.00	-32.710
245.38	-28.070
245.75	-33.628
246.12	-26.984
246.49	-31.783
246.87	-19.286
247.24	-19.205
247.61	-21.711
247.98	-25.503
248.36	-16.049
248.73	-17.791
249.10	-13.661
249.47	-9.453
249.84	-12.042
250.22	-18.135
250.59	-15.000
250.96	-7.273
251.33	-16.837
251.70	-11.538
252.08	-14.583
252.45	-9.426
252.82	-12.810
253.19	-16.016
253.56	-11.407
253.94	-14.231
254.31	-7.576
254.68	-5.245
255.05	-7.818
255.42	-11.565
255.79	-12.945
256.16	-9.272
256.54	-9.934
256.91	-10.820
257.28	-11.803
257.65	-8.599
258.02	-10.619
258.39	-5.983
258.76	-2.752
259.14	-4.885
259.51	-6.052
259.88	-7.932
260.25	-4.444
260.62	-5.205
260.99	-2.186
261.36	-6.166
261.73	-5.040
262.10	-6.593
262.47	-6.971
262.85	0.758
263.22	-7.273
263.59	-7.895
263.96	-4.859
264.33	-3.836
264.70	-3.951
265.07	-1.671
265.44	-0.227
265.81	-4.167
266.18	-4.308
266.55	-4.018
266.92	-6.834
267.29	-3.282
267.66	-3.326
268.03	-1.528
268.40	-3.758
268.77	-9.112
269.14	-9.031
269.51	-5.482
269.88	-2.664
270.25	-2.616
270.62	-2.321
270.99	-1.212
271.36	0.396
271.73	-4.126
272.10	-1.202
272.47	-3.808
272.84	-2.410
273.21	-2.605
273.58	-3.629
273.95	-4.615
274.32	-2.852
274.69	-3.288
275.06	-2.381
275.43	-5.360
275.80	-2.116
276.17	-3.889
276.54	-1.306
276.91	-2.504
277.28	-4.159
277.65	-3.950
278.02	-4.044
278.39	-3.623
278.76	-2.636
279.13	-2.482
279.50	-1.203
279.87	-2.147
280.23	-4.577
280.60	-0.508
280.97	-0.493
281.34	-3.565
281.71	-0.338
282.08	-1.827
282.45	-2.128
282.82	-1.570
283.19	-3.069
283.56	-3.115
283.92	0.300
284.29	-0.158
284.66	-1.970
285.03	-3.205
285.40	-1.855
285.77	-3.096
286.14	0.153
286.51	-0.913
286.87	-3.002
287.24	-0.301
287.61	-2.392
287.98	-2.870
288.35	-2.515
288.72	-1.775
289.08	-2.050
289.45	-1.627
289.82	-2.711
290.19	-2.011
290.56	-0.563
290.93	-1.569
291.29	-1.102
291.66	0.000
292.03	-1.493
292.40	0.408
292.77	-1.078
293.13	-1.218
293.50	-1.183
293.87	-1.342
294.24	-1.600
294.60	-1.643
294.97	-2.953
295.34	-0.512
295.71	-2.018
296.08	-1.938
296.44	-1.838
296.81	-2.071
297.18	-1.494
297.55	-1.297
297.91	-1.186
298.28	-1.896
298.65	-0.832
299.02	-1.417
299.38	-1.259
299.75	-2.103
300.12	-1.736
300.48	-1.498
300.85	-1.350
301.22	-0.895
301.59	-1.826
301.95	-0.678
302.32	-0.444
302.69	-0.548
303.05	-0.326
303.42	-0.111
303.79	0.521
304.15	0.105
304.52	-2.431
304.89	-1.571
305.25	0.828
305.62	-1.358
305.99	0.619
306.35	-1.008
306.72	-1.138
307.09	-1.218
307.45	-0.311
307.82	-1.009
308.19	-0.404
308.55	-0.096
308.92	-0.876
309.29	0.766
309.65	-0.487
310.02	-0.396
310.38	-0.591
310.75	0.680
311.12	0.767
311.48	-0.782
311.85	-1.045
312.22	-0.380
312.58	0.563
312.95	-0.287
313.31	-0.271
313.68	1.099
314.05	1.445
314.41	1.275
314.78	0.182
315.14	1.089
315.51	1.016
315.87	1.080
316.24	1.553
316.61	1.421
316.97	0.724
317.34	1.764
317.70	1.485
318.07	2.028
318.43	2.381
318.80	3.428
319.16	1.459
319.53	2.314
319.89	1.928
320.26	2.758
320.62	1.773
320.99	2.031
321.35	1.848
321.72	3.442
322.08	2.074
322.45	2.529
322.81	2.076
323.18	1.947
323.54	2.241
323.91	3.648
324.27	3.356
324.64	3.359
325.00	2.985
325.37	3.440
325.73	3.884
326.10	5.191
326.46	4.072
326.83	5.204
327.19	4.252
327.56	5.534
327.92	3.855
328.29	4.758
328.65	4.104
329.01	4.738
329.38	4.718
329.74	5.051
330.11	5.565
330.47	3.707
330.84	5.168
331.20	4.750
331.56	4.766
331.93	5.105
332.29	5.508
332.66	5.316
333.02	4.774
333.38	4.866
333.75	5.219
334.11	4.837
334.48	5.611
334.84	6.117
335.20	3.694
335.57	6.324
335.93	5.620
336.29	4.160
336.66	4.542
337.02	5.268
337.38	4.592
337.75	4.959
338.11	5.299
338.47	6.617
338.84	5.330
339.20	3.875
339.56	4.448
339.93	5.419
340.29	6.441
340.65	5.434
341.02	5.746
341.38	5.740
341.74	4.278
342.11	5.310
342.47	5.083
342.83	5.475
343.20	4.824
343.56	4.972
343.92	5.364
344.28	5.391
344.65	6.124
345.01	5.460
345.37	5.832
345.73	4.832
346.10	4.836
346.46	5.380
346.82	6.816
347.19	5.882
347.55	5.463
347.91	5.572
348.27	5.766
348.63	5.560
349.00	5.891
349.36	5.725
349.72	4.464
350.08	5.944
350.45	4.791
350.81	5.656
351.17	6.165
351.53	5.459
351.89	5.619
352.26	5.448
352.62	5.896
352.98	5.573
353.34	5.377
353.70	4.700
354.07	6.408
354.43	4.860
354.79	4.936
355.15	6.623
355.51	6.506
355.87	5.610
356.24	5.703
356.60	5.322
356.96	6.153
357.32	5.428
357.68	5.344
358.04	5.838
358.40	5.970
358.77	5.921
359.13	5.982
359.49	3.792
359.85	5.801
360.21	6.456
360.57	5.312
360.93	5.783
361.29	6.456
361.66	5.648
362.02	5.915
362.38	5.973
362.74	5.936
363.10	6.121
363.46	5.679
363.82	4.972
364.18	5.841
364.54	6.432
364.90	6.823
365.26	6.000
365.62	6.867
365.98	6.875
366.35	6.174
366.71	6.531
367.07	6.495
367.43	6.500
367.79	6.702
368.15	7.157
368.51	6.698
368.87	6.793
369.23	6.800
369.59	6.626
369.95	6.694
370.31	7.225
370.67	6.327
371.03	7.271
371.39	5.977
371.75	6.465
372.11	6.911
372.47	6.567
372.83	7.199
373.19	7.405
373.55	6.640
373.91	6.476
374.27	7.309
374.63	8.051
374.99	6.764
375.35	7.468
375.71	7.677
376.07	7.682
376.42	7.368
376.78	8.017
377.14	7.299
377.50	7.717
377.86	8.251
378.22	7.844
378.58	7.551
378.94	8.216
379.30	8.084
379.66	8.701
380.02	7.213
380.38	8.410
380.74	8.901
381.09	8.072
381.45	8.636
381.81	8.724
382.17	8.195
382.53	8.363
382.89	8.578
383.25	8.792
383.61	8.507
383.97	8.304
384.32	8.852
384.68	7.599
385.04	8.849
385.40	8.662
385.76	9.320
386.12	8.737
386.48	8.471
386.83	9.058
387.19	8.343
387.55	8.157
387.91	8.390
388.27	9.527
388.62	8.591
388.98	9.363
389.34	9.075
389.70	9.646
390.06	9.414
390.42	9.398
390.77	10.235
391.13	9.566
391.49	9.541
391.85	9.212
392.20	8.719
392.56	9.333
392.92	10.033
393.28	9.950
393.64	9.777
393.99	9.704
394.35	9.871
394.71	10.419
395.07	8.683
395.42	10.051
395.78	10.420
396.14	10.101
396.50	10.273
396.85	9.541
397.21	10.296
397.57	10.483
397.92	10.195
398.28	9.777
398.64	9.897
399.00	9.738
399.35	10.942
399.71	10.326
400.07	10.444
400.42	10.186
400.78	9.491
401.14	10.245
401.49	10.688
401.85	10.174
402.21	10.834
402.57	10.211
402.92	10.284
403.28	9.660
403.63	9.189
403.99	10.570
404.35	10.460
404.70	10.652
405.06	10.109
405.42	10.187
405.77	11.123
406.13	10.427
406.49	10.417
406.84	10.748
407.20	10.565
407.55	9.933
407.91	10.559
408.27	11.013
408.62	10.704
408.98	11.143
409.34	9.736
409.69	10.816
410.05	11.372
410.40	10.673
410.76	10.881
411.11	11.105
411.47	11.302
411.83	10.876
412.18	10.542
412.54	10.729
412.89	10.710
413.25	10.666
413.60	10.454
413.96	11.247
414.31	11.105
414.67	11.210
415.03	11.077
415.38	10.151
415.74	10.629
416.09	11.166
416.45	11.396
416.80	10.894
417.16	10.345
417.51	10.959
417.87	11.036
418.22	10.479
418.58	10.781
418.93	12.224
419.29	10.543
419.64	11.164
420.00	10.861
420.35	11.960
420.71	11.028
421.06	10.983
421.42	11.411
421.77	11.201
422.12	11.364
422.48	10.855
422.83	11.829
423.19	11.724
423.54	11.228
423.90	11.817
424.25	12.160
424.61	10.850
424.96	11.422
425.31	12.102
425.67	10.789
426.02	10.902
426.38	11.711
426.73	11.551
427.09	11.707
427.44	11.087
427.79	10.724
428.15	10.559
428.50	11.461
428.85	10.333
429.21	12.021
429.56	11.500
429.92	11.057
430.27	12.096
430.62	11.236
430.98	11.805
431.33	11.193
431.68	11.590
432.04	11.376
432.39	11.676
432.74	11.187
433.10	10.763
433.45	10.981
433.80	11.320
434.16	11.674
434.51	12.076
434.86	11.726
435.22	11.690
435.57	11.675
435.92	11.519
436.28	11.490
436.63	11.742
436.98	11.379
437.34	11.556
437.69	11.337
438.04	10.894
438.39	10.971
438.75	10.736
439.10	12.209
439.45	11.012
439.81	10.847
440.16	10.402
440.51	10.814
440.86	11.228
441.22	11.254
441.57	10.797
441.92	11.542
442.27	11.162
442.63	11.624
442.98	11.580
443.33	11.678
443.68	11.695
444.03	12.041
444.39	12.159
444.74	11.690
445.09	11.505
445.44	11.591
445.79	11.782
446.15	12.127
446.50	10.853
446.85	11.722
447.20	11.750
447.55	11.663
447.91	11.466
448.26	11.364
448.61	11.211
448.96	11.695
449.31	10.657
449.66	11.057
450.02	11.234
450.37	11.082
450.72	10.926
451.07	11.446
451.42	11.092
451.77	10.784
452.12	11.682
452.47	10.636
452.83	11.712
453.18	10.683
453.53	10.109
453.88	11.099
454.23	11.130
454.58	10.389
454.93	10.801
455.28	10.716
455.63	11.029
455.98	11.061
456.34	10.836
456.69	10.641
457.04	10.520
457.39	11.530
457.74	11.353
458.09	11.093
458.44	11.907
458.79	10.366
459.14	10.960
459.49	11.715
459.84	11.490
460.19	10.494
460.54	11.130
460.89	10.588
461.24	10.805
461.59	10.791
461.94	10.553
462.29	11.198
462.64	10.561
462.99	10.734
463.34	10.642
463.69	10.961
464.04	10.506
464.39	11.155
464.74	10.376
465.09	11.073
465.44	10.247
465.79	11.264
466.14	10.370
466.49	10.895
466.84	10.028
467.19	10.983
467.54	9.459
467.89	10.172
468.24	10.471
468.59	9.728
468.94	9.790
469.29	9.658
469.64	9.282
469.99	8.987
470.34	9.715
470.68	9.296
471.03	10.216
471.38	9.745
471.73	9.623
472.08	8.883
472.43	10.415
472.78	9.824
473.13	8.913
473.48	9.668
473.83	10.273
474.17	9.320
474.52	9.441
474.87	10.078
475.22	9.521
475.57	9.761
475.92	9.905
476.27	9.798
476.61	8.982
476.96	9.854
477.31	10.248
477.66	10.231
478.01	9.202
478.36	9.870
478.70	9.606
479.05	9.663
479.40	10.267
479.75	10.327
480.10	9.569
480.45	10.164
480.79	9.524
481.14	9.697
481.49	8.996
481.84	10.357
482.19	9.849
482.53	10.275
482.88	9.792
483.23	9.738
483.58	9.258
483.92	9.220
484.27	9.568
484.62	9.447
484.97	9.837
485.31	9.996
485.66	10.154
486.01	10.249
486.36	10.455
486.70	11.015
487.05	11.252
487.40	10.912
487.75	10.916
488.09	10.651
488.44	9.741
488.79	9.713
489.13	8.979
489.48	8.893
489.83	8.934
490.17	8.910
490.52	8.826
490.87	9.052
491.22	8.969
491.56	8.874
491.91	9.333
492.26	9.087
492.60	8.614
492.95	8.776
493.30	8.651
493.64	8.454
493.99	9.298
494.34	9.016
494.68	8.266
495.03	8.458
495.37	9.055
495.72	8.934
496.07	8.808
496.41	8.065
496.76	8.924
497.11	8.238
497.45	8.848
497.80	8.707
498.14	7.891
498.49	8.318
498.84	7.404
499.18	8.097
499.53	8.924
499.87	8.703
500.22	7.614
500.56	7.962
500.91	8.146
501.26	8.500
501.60	7.998
501.95	8.554
502.29	8.161
502.64	8.439
502.98	8.283
503.33	8.035
503.67	7.676
504.02	8.450
504.36	8.490
504.71	7.855
505.06	8.276
505.40	7.495
505.75	8.060
506.09	8.425
506.44	7.753
506.78	8.028
507.13	8.207
507.47	7.579
507.82	7.528
508.16	7.314
508.51	7.407
508.85	7.227
509.19	7.674
509.54	7.589
509.88	6.897
510.23	7.528
510.57	7.927
510.92	7.209
511.26	6.878
511.61	7.001
511.95	7.565
512.30	7.878
512.64	6.997
512.98	7.004
513.33	7.611
513.67	7.241
514.02	7.511
514.36	7.110
514.70	6.458
515.05	6.569
515.39	6.562
515.74	6.946
516.08	7.184
516.42	7.378
516.77	6.835
517.11	7.272
517.46	6.946
517.80	7.590
518.14	6.910
518.49	6.182
518.83	6.493
519.17	5.762
519.52	6.918
519.86	7.128
520.20	6.922
520.55	5.805
520.89	6.250
521.23	6.365
521.58	6.328
521.92	6.346
522.26	6.071
522.61	6.250
522.95	5.133
523.29	5.575
523.64	6.054
523.98	5.990
524.32	6.361
524.66	6.261
525.01	5.606
525.35	5.572
525.69	5.452
526.04	6.544
526.38	6.264
526.72	5.940
527.06	6.334
527.41	6.356
527.75	5.463
528.09	6.375
528.43	5.861
528.78	5.780
529.12	6.135
529.46	5.902
529.80	6.121
530.15	5.275
530.49	5.219
530.83	5.962
531.17	5.675
531.51	5.174
531.86	6.190
532.20	6.098
532.54	5.266
532.88	6.061
533.22	6.070
533.57	5.943
533.91	6.453
534.25	6.670
534.59	6.264
534.93	5.603
535.27	5.915
535.62	6.254
535.96	5.811
536.30	5.875
536.64	6.186
536.98	6.581
537.32	6.111
537.66	5.427
538.01	5.257
538.35	4.689
538.69	4.868
539.03	5.825
539.37	5.006
539.71	5.285
540.05	5.875
540.39	4.645
540.73	4.614
541.07	5.334
541.42	5.552
541.76	4.330
542.10	4.885
542.44	5.116
542.78	5.109
543.12	5.662
543.46	4.884
543.80	4.556
544.14	5.386
544.48	5.615
544.82	6.523
545.16	5.486
545.50	4.614
545.84	4.776
546.18	6.049
546.52	5.096
546.86	4.277
547.20	4.962
547.54	4.245
547.88	4.822
548.22	4.795
548.56	4.798
548.90	4.478
549.24	5.532
549.58	4.921
549.92	5.102
550.26	5.890
550.60	4.850
550.94	4.851
551.28	3.432
551.62	4.043
551.96	4.854
552.30	5.099
552.64	5.227
552.98	4.616
553.32	4.373
553.66	4.051
554.00	4.098
554.34	4.183
554.68	5.487
555.02	4.139
555.36	5.260
555.69	4.036
556.03	4.161
556.37	4.881
556.71	5.136
557.05	4.345
557.39	4.512
557.73	4.624
558.07	3.907
558.41	4.053
558.75	4.192
559.08	2.992
559.42	3.704
559.76	4.613
560.10	4.086
560.44	4.617
560.78	4.813
561.12	4.803
561.45	5.231
561.79	4.274
562.13	4.806
562.47	3.699
562.81	4.114
563.15	4.419
563.48	4.599
563.82	3.809
564.16	3.574
564.50	4.112
564.84	4.543
565.17	4.412
565.51	4.143
565.85	3.979
566.19	4.666
566.52	4.213
566.86	4.697
567.20	4.568
567.54	4.727
567.88	5.046
568.21	4.891
568.55	4.844
568.89	5.719
569.23	5.703
569.56	5.275
569.90	5.488
570.24	5.261
570.57	5.548
570.91	5.052
571.25	5.756
571.59	5.622
571.92	5.330
572.26	5.770
572.60	5.405
572.93	5.678
573.27	5.310
573.61	5.691
573.95	5.851
574.28	5.840
574.62	5.275
574.96	5.779
575.29	5.618
575.63	5.867
575.97	6.036
576.30	5.823
576.64	5.393
576.98	6.014
577.31	5.826
577.65	5.489
577.98	5.723
578.32	5.902
578.66	5.974
578.99	5.775
579.33	5.647
579.67	5.666
580.00	5.979
580.34	5.716
580.67	5.229
581.01	5.236
581.35	5.455
581.68	5.750
582.02	5.993
582.35	5.968
582.69	5.919
583.02	5.775
583.36	5.566
583.70	5.544
584.03	5.616
584.37	5.628
584.70	5.330
585.04	5.348
585.37	5.568
585.71	5.674
586.04	5.372
586.38	5.362
586.72	4.964
587.05	5.091
587.39	5.186
587.72	5.646
588.06	5.416
588.39	5.576
588.73	5.370
589.06	4.994
589.40	4.948
589.73	4.949
590.07	4.609
590.40	5.172
590.73	5.161
591.07	5.287
591.40	4.355
591.74	4.849
592.07	4.953
592.41	4.890
592.74	5.041
593.08	5.159
593.41	5.045
593.75	5.115
594.08	5.150
594.41	5.192
594.75	4.517
595.08	4.643
595.42	4.870
595.75	4.650
596.09	4.914
596.42	4.479
596.75	4.902
597.09	5.091
597.42	5.046
597.75	4.586
598.09	4.484
598.42	4.825
598.76	4.280
599.09	4.842
599.42	4.861
599.76	4.490
600.09	5.105
600.42	5.005
600.76	4.822
601.09	4.447
601.42	4.737
601.76	4.345
602.09	5.004
602.42	4.507
602.76	4.539
603.09	4.736
603.42	4.408
603.76	4.405
604.09	5.039
604.42	4.624
604.76	3.805
605.09	4.228
605.42	4.585
605.75	4.269
606.09	4.218
606.42	4.305
606.75	4.085
607.09	4.224
607.42	4.316
607.75	4.259
608.08	3.749
608.42	3.990
608.75	4.146
609.08	3.735
609.41	4.014
609.75	3.884
610.08	4.046
610.41	3.483
610.74	4.622
611.07	4.041
611.41	4.439
611.74	3.741
612.07	3.834
612.40	3.992
612.73	3.570
613.07	3.619
613.40	3.609
613.73	4.141
614.06	3.631
614.39	3.110
614.72	3.833
615.06	3.561
615.39	3.673
615.72	3.697
616.05	3.594
616.38	3.330
616.71	4.336
617.05	2.929
617.38	4.173
617.71	4.050
618.04	3.292
618.37	3.825
618.70	3.676
619.03	2.927
619.36	2.898
619.69	2.627
620.03	3.327
620.36	2.577
620.69	2.899
621.02	3.609
621.35	2.540
621.68	3.037
622.01	3.416
622.34	2.580
622.67	3.093
623.00	1.754
623.33	3.318
623.66	3.178
623.99	2.502
624.32	4.094
624.65	2.831
624.99	3.121
625.32	3.070
625.65	2.765
625.98	2.644
626.31	2.764
626.64	3.004
626.97	1.650
627.30	1.291
627.63	1.650
627.96	2.703
628.29	1.946
628.62	1.343
628.95	1.490
629.28	1.020
629.61	2.441
629.94	0.669
630.26	1.525
630.59	1.900
630.92	1.732
631.25	2.057
631.58	1.318
631.91	1.218
632.24	1.633
632.57	1.613
632.90	1.304
633.23	1.224
633.56	1.122
633.89	0.310
634.22	1.247
634.55	1.148
634.88	0.866
635.20	1.184
635.53	1.356
635.86	1.517
636.19	3.181
636.52	2.215
636.85	1.124
637.18	1.143
637.51	1.183
637.83	1.107
638.16	0.461
638.49	0.235
638.82	0.451
639.15	-1.145
639.48	1.386
639.81	0.693
640.13	0.942
640.46	0.364
640.79	-1.103
641.12	1.118
641.45	-0.627
641.77	0.513
642.10	-0.787
642.43	0.665
642.76	-0.542
643.09	-1.233
643.41	-1.120
643.74	-0.966
644.07	0.414
644.40	-1.132
644.73	-1.887
645.05	-0.734
645.38	0.576
645.71	-0.440
646.04	0.430
646.36	-1.898
646.69	-1.994
647.02	-0.306
647.35	0.153
647.67	-1.610
648.00	-1.911
648.33	-1.051
648.66	-0.571
648.98	-0.680
649.31	-0.406
649.64	1.461
649.96	0.398
650.29	-0.695
650.62	0.566
650.94	-0.601
651.27	-2.395
651.60	-0.877
651.92	-1.976
652.25	-0.434
652.58	0.413
652.90	-2.907
653.23	-0.141
653.56	-0.285
653.88	0.702
654.21	-0.704
654.54	-0.434
654.86	-0.142
655.19	-0.878
655.52	2.554
655.84	4.864
656.17	6.031
656.49	8.633
656.82	9.375
657.15	7.452
657.47	5.648
657.80	4.088
658.13	3.113
658.45	3.939
658.78	4.552
659.10	4.005
659.43	3.860
659.75	2.797
660.08	2.185
660.41	1.572
660.73	-0.456
661.06	-1.175
661.38	-1.435
661.71	-1.724
662.03	-1.235
662.36	-0.179
662.68	-1.689
663.01	-1.947
663.33	-3.025
663.66	-0.549
663.98	-1.923
664.31	-2.439
664.63	-4.817
664.96	-0.726
665.28	-3.085
665.61	-0.524
665.93	-3.393
666.26	-2.151
666.58	-4.428
666.91	-2.243
667.23	-3.429
667.56	-2.564
667.88	-2.200
668.21	-3.906
668.53	-5.985
668.86	-4.322
669.18	-4.073
669.50	-3.181
669.83	-4.200
670.15	-2.362
670.48	-3.373
670.80	-4.398
671.13	-4.348
671.45	-4.724
671.77	-2.260
672.10	-1.667
672.42	-3.236
672.75	-3.226
673.07	-0.299
673.39	-2.928
673.72	-1.007
674.04	-1.379
674.37	-3.757
674.69	0.353
675.01	-2.476
675.34	-4.389
675.66	-4.494
675.98	-0.373
676.31	-2.344
676.63	-1.521
676.95	-1.724
677.28	-4.435
677.60	-1.969
677.92	-2.303
678.25	-1.280
678.57	-1.779
678.89	-0.512
679.22	-2.787
679.54	-3.419
679.86	-2.034
680.18	-2.488
680.51	0.472
680.83	-0.491
681.15	-2.931
681.48	-1.900
681.80	-0.864
682.12	-3.147
682.44	-1.002
682.77	-3.369
683.09	-2.273
683.41	-1.357
683.73	-2.657
684.06	-3.875
684.38	-5.546
684.70	-3.950
685.02	-3.098
685.34	-3.661
685.67	-1.893
685.99	-2.454
686.31	-2.180
686.63	-2.212
686.96	-1.577
687.28	-1.954
687.60	-2.357
687.92	-1.447
688.24	-2.003
688.56	-1.034
688.89	-2.359
689.21	-2.153
689.53	-3.333
689.85	-4.931
690.17	-4.259
690.49	-3.187
690.82	-3.168
691.14	-6.275
691.46	-2.486
691.78	-0.921
692.10	-3.119
692.42	-1.964
692.74	-3.267
693.06	-4.444
693.39	-3.226
693.71	-4.135
694.03	-1.301
694.35	-3.048
694.67	-2.875
694.99	-5.106
695.31	-4.636
695.63	-3.680
695.95	-3.106
696.27	-5.055
696.59	-4.204
696.91	-3.153
697.23	-1.978
697.56	-5.092
697.88	-4.924
698.20	-3.390
698.52	0.568
698.84	-2.911
699.16	-1.633
699.48	-2.510
699.80	-4.681
700.12	-3.057
700.44	-3.687
700.76	-6.176
701.08	-4.600
701.40	-5.959
701.72	-2.736
702.04	-8.021
702.36	-8.377
702.68	-5.868
703.00	-6.357
703.32	-6.404
703.64	-4.401
703.96	-4.773
704.28	-6.880
704.60	-2.532
704.91	-4.082
705.23	-3.836
705.55	-8.357
705.87	-10.000
706.19	-7.055
706.51	-8.434
706.83	-7.781
707.15	-9.524
707.47	-6.776
707.79	-3.493
708.11	-6.568
708.43	-4.516
708.74	-5.804
709.06	-4.640
709.38	-1.174
709.70	-0.496
710.02	-5.426
710.34	-5.851
710.66	-11.173
710.98	-8.743
711.29	-8.242
711.61	-7.345
711.93	-7.123
712.25	-4.324
712.57	-4.425
712.89	-6.765
713.20	-8.876
713.52	-3.468
713.84	-6.128
714.16	-6.579
714.48	-6.959
714.80	-4.675
715.11	-7.349
715.43	-5.836
715.75	-5.000
716.07	-5.249
716.39	-5.738
716.70	-11.446
717.02	-8.525
717.34	-13.240
717.66	-6.711
717.97	-12.329
718.29	-8.591
718.61	-8.882
718.93	-6.796
719.24	-6.211
719.56	-4.601
719.88	-9.009
720.20	-9.032
720.51	-6.211
720.83	-7.187
721.15	-12.171
721.46	-13.014
721.78	-7.667
722.10	-10.356
722.42	-12.081
722.73	-10.645
723.05	-7.719
723.37	-6.597
723.68	-8.244
724.00	-9.025
724.32	-10.563
724.63	-6.993
724.95	-6.028
725.27	-10.105
725.58	-10.247
725.90	-8.966
726.22	-7.837
726.53	-8.442
726.85	-7.233
727.16	-8.459
727.48	-7.034
727.80	-4.636
728.11	-8.834
728.43	-8.081
728.74	-10.033
729.06	-9.272
729.38	-11.364
729.69	-11.074
730.01	-7.143
730.32	-9.091
730.64	-6.289
730.96	-9.317
731.27	-1.955
731.59	-5.220
731.90	-6.494
732.22	-5.729
732.53	-8.564
732.85	-7.143
733.16	-6.452
733.48	-8.537
733.80	-6.128
734.11	-7.692
734.43	-5.405
734.74	-3.797
735.06	-6.030
735.37	-4.865
735.69	-7.027
736.00	-4.802
736.32	-6.199
736.63	-6.389
736.95	-6.609
737.26	-9.697
737.58	-8.485
737.89	-6.765
738.21	-9.174
738.52	-11.475
738.83	-4.778
739.15	-11.348
739.46	-11.565
739.78	-10.123
740.09	-8.596
740.41	-3.499
740.72	-11.333
741.04	-5.502
741.35	-4.912
741.66	-12.941
741.98	-9.016
742.29	-10.042
742.61	-10.965
742.92	-7.692
743.23	-10.469
743.55	-12.403
743.86	-11.600
744.18	-17.355
744.49	-19.409
744.80	-9.877
745.12	-11.814
745.43	-9.350
745.74	-12.069
746.06	-8.475
746.37	-7.173
746.68	-6.504
747.00	-12.917
747.31	-12.017
747.62	-8.462
747.94	-12.955
748.25	-15.663
748.56	-16.735
748.88	-16.667
749.19	-10.776
749.50	-14.286
749.82	-12.048
750.13	-7.473
750.44	-9.000
750.75	-7.077
751.07	-8.615
751.38	-8.833
751.69	-11.502
752.01	-10.032
752.32	-6.536
752.63	-8.844
752.94	-5.536
753.26	-9.294
753.57	-12.222
753.88	-10.861
754.19	-6.752
754.51	-8.039
754.82	-9.003
755.13	-7.541
755.44	-8.874
755.75	-10.526
756.07	-4.776
756.38	-8.491
756.69	-6.024
757.00	-10.249
757.31	-5.464
757.63	-6.138
757.94	-4.225
758.25	-4.063
758.56	-5.229
758.87	-1.591
759.18	-7.733
759.50	-5.099
759.81	-7.563
760.12	-9.164
760.43	-5.990
760.74	-5.911
761.05	-6.000
761.36	-8.675
761.67	-4.822
761.99	-6.486
762.30	-9.451
762.61	-10.561
762.92	-10.075
763.23	-10.112
763.54	-11.871
763.85	-8.935
764.16	-5.051
764.47	-8.099
764.78	-9.265
765.10	-7.625
765.41	-4.359
765.72	-7.937
766.03	-5.367
766.34	-10.345
766.65	-9.756
766.96	-10.359
767.27	-13.364
767.58	-18.905
767.89	-11.538
768.20	-12.207
768.51	-13.426
768.82	-8.032
769.13	-10.985
769.44	-13.846
769.75	-5.054
770.06	-9.231
770.37	-8.661
770.68	-15.319
770.99	-14.575
771.30	-2.222
771.61	-10.266
771.92	-9.630
772.23	-8.907
772.54	-15.741
772.85	-11.060
773.16	-8.571
773.47	-15.344
773.78	-23.784
774.09	-20.455
774.39	-10.000
774.70	-15.301
775.01	-26.220
775.32	-19.412
775.63	-15.337
775.94	-30.573
776.25	-16.129
776.56	-8.333
776.87	-16.327
777.18	-23.448
777.48	-23.776
777.79	-28.378
778.10	-33.824
778.41	-24.306
778.72	-24.828
779.03	-22.840
779.34	-18.182
779.65	-11.917
779.95	-12.222
780.26	-23.295
780.57	-21.935
780.88	-23.913
781.19	-14.839
781.50	-18.824
781.80	-13.978
782.11	-15.873
782.42	-14.646
782.73	-25.749
783.04	-16.760
783.34	-21.212
783.65	-25.490
783.96	-18.634
784.27	-22.024
784.57	-25.166
784.88	-22.857
785.19	-26.772
785.50	-33.858
785.81	-28.571
786.11	-25.385
786.42	-30.935
786.73	-27.338
787.04	-26.316
787.34	-22.951
787.65	-26.400
787.96	-24.627
788.26	-18.881
788.57	-18.881
788.88	-23.026
789.19	-18.301
789.49	-23.973
789.80	-26.950
790.11	-22.835
790.41	-25.781
790.72	-28.814
791.03	-38.835
791.33	-26.087
791.64	-26.316
791.95	-32.143
792.25	-34.286
792.56	-28.571
792.87	-38.542
793.17	-30.357
793.48	-39.583
793.79	-59.036
794.09	-35.780
794.40	-38.532
794.70	-14.966
795.01	-22.727
795.32	-21.918
795.62	-20.423
795.93	-30.303
796.23	-20.492
796.54	-39.286
796.85	-41.489
797.15	-45.652
797.46	-67.123
797.76	-50.000
798.07	-25.000
798.37	-45.361
798.68	-54.545
798.99	-41.379
799.29	-42.697
799.60	-31.915
799.90	-45.783
800.21	-63.077
800.51	-52.239
800.82	-50.000
801.12	-71.233
801.43	-66.176
801.73	-83.051
802.04	-59.091
802.34	-86.667
802.65	-64.407
802.95	-58.209
803.26	-66.102
803.56	-49.315
803.87	-57.143
804.17	-42.466
804.48	-92.982
804.78	-43.056
805.09	-89.655
805.39	-52.703
805.70	-74.648
806.00	-41.463
806.30	-39.759
806.61	-65.753
806.91	-29.808
807.22	-41.111
807.52	-43.678
807.83	-48.611
808.13	-33.735
808.43	-32.584
808.74	-42.500
809.04	-64.706
809.35	-44.000
809.65	-55.714
809.95	-43.836
810.26	-71.930
810.56	-58.621
810.86	-47.059
811.17	-75.439
811.47	-63.934
811.77	-91.111
812.08	-52.542
812.38	-48.333
812.69	-55.172
812.99	-96.226
813.29	-123.077
813.59	-68.000
813.90	-52.632
814.20	-70.909
814.50	-42.254
814.81	-30.769
815.11	-50.820
815.41	-58.209
815.72	-53.448
816.02	-58.929
816.32	-75.556
816.62	-84.091
816.93	-97.778
817.23	-53.704
817.53	-82.979
817.84	-83.333
818.14	-126.471
818.44	-100.000
818.74	-86.667
819.04	-112.821
819.35	-134.286
819.65	-184.615
819.95	-64.151
820.25	-88.889
820.56	-107.143
820.86	-156.250
821.16	-112.821
821.46	-93.023
821.76	-98.000
822.07	-66.071
822.37	-86.957
822.67	-87.234
822.97	-145.946
823.27	-117.500
823.57	-75.510
823.88	-66.667
824.18	-77.500
824.48	-150.000
824.78	-184.000
825.08	-130.303
825.38	-64.444
825.69	-70.213
825.99	-83.333
826.29	-134.286
826.59	-89.744
826.89	-76.744
827.19	-76.000
827.49	-120.588
827.79	-68.750
828.09	-91.892
828.39	-140.000
828.70	-75.610
829.00	-72.093
829.30	-142.857
829.60	-97.059
829.90	-86.957
830.20	-94.286
830.50	-137.931
830.80	-222.222
831.10	-150.000
831.40	-135.294
831.70	-171.429
832.00	-103.226
832.30	-276.471
832.60	-162.500
832.90	-376.923
833.20	-236.842
833.50	-220.000
833.80	-236.842
834.10	-233.333
834.40	-100.000
834.70	-109.375
835.00	-131.429
835.30	-88.235
835.60	-126.667
835.90	-160.000
836.20	-222.727
836.50	-136.000
836.80	-115.152
837.10	-144.444
837.40	-114.815
837.70	-275.000
838.00	-125.000
838.30	-182.609
838.60	-120.690
838.90	-300.000
839.19	-213.043
839.49	-408.333
839.79	-165.217
840.09	-337.500
840.39	-215.000
840.69	-129.032
840.99	-185.714
841.29	-286.667
841.59	-210.526
841.88	-76.923
842.18	-173.077
842.48	-450.000
842.78	-210.000
843.08	-120.000
843.38	-116.129
843.68	-272.222
843.97	-120.588
844.27	-250.000
844.57	-189.474
844.87	-480.000
845.17	-266.667
845.47	-138.095
845.76	-171.429
846.06	-355.556
846.36	-241.176
846.66	-180.769
846.96	-326.667
847.25	-270.588
847.55	-169.565
847.85	-185.000
848.15	-164.706
848.44	-363.636
848.74	-185.714
849.04	-183.333
849.34	-218.750
849.63	-143.478
849.93	2500.000
850.23	-260.000
850.53	-130.769
850.82	-381.818
851.12	-140.909
851.42	-409.091
851.71	-215.385
852.01	-235.000
852.31	-253.846
852.61	-163.158
852.90	-350.000
853.20	-227.778
853.50	-588.889
853.79	-195.238
854.09	-200.000
854.39	-408.333
854.68	-100.000
854.98	-123.077
855.28	-188.889
855.57	-135.714
855.87	-148.000
856.17	-172.727
856.46	-151.852
856.76	-255.556
857.05	-178.261
857.35	-191.667
857.65	-307.692
857.94	-176.190
858.24	-122.222
858.53	-165.217
858.83	-241.176
859.13	-252.941
859.42	-164.706
859.72	-285.714
860.01	-170.000
860.31	-544.444
860.60	-360.000
860.90	-233.333
861.20	-222.222
861.49	-307.692
861.79	-80.000
862.08	-253.846
862.38	-81.250
862.67	-170.588
862.97	-268.750
863.26	-400.000
863.56	-290.000
863.85	-409.091
864.15	-205.556
864.44	-1466.667
864.74	-300.000
865.03	-243.750
865.33	-470.000
865.62	-135.484
865.92	-145.455
866.21	-130.435
866.51	-328.571
866.80	-1060.000
867.10	-350.000
867.39	-358.333
867.69	4900.000
867.98	-714.286
868.27	-200.000
868.57	-4500.000
868.86	-450.000
869.16	-204.762
869.45	-170.833
869.75	-300.000
870.04	-628.571
870.33	-300.000
870.63	-685.714
870.92	-800.000
871.22	-587.500
871.51	-436.364
871.80	-1600.000
872.10	-1950.000
>>>>>End Processed Spectral Data<<<<<
