SpectraSuite Data File
++++++++++++++++++++++++++++++++++++
Date: Thu May 14 16:30:08 PDT 2015
User: schluterlab
Dark Spectrum Present: Yes
Reference Spectrum Present: Yes
Number of Sampled Component Spectra: 1
Spectrometers: USB2E3373
Integration Time (usec): 3000 (USB2E3373)
Spectra Averaged: 3 (USB2E3373)
Boxcar Smoothing: 0 (USB2E3373)
Correct for Electrical Dark: No (USB2E3373)
Strobe/Lamp Enabled: No (USB2E3373)
Correct for Detector Non-linearity: No (USB2E3373)
Correct for Stray Light: No (USB2E3373)
Number of Pixels in Processed Spectrum: 2048
>>>>>Begin Processed Spectral Data<<<<<
178.53	0.000
178.91	28.571
179.29	-600.000
179.67	-100.000
180.04	100.000
180.42	-90.000
180.80	-0.000
181.18	100.000
181.56	500.000
181.94	50.000
182.31	100.000
182.69	33.333
183.07	-250.000
183.45	125.000
183.83	-16.667
184.20	33.333
184.58	300.000
184.96	-125.000
185.34	-11.111
185.72	40.000
186.09	155.556
186.47	400.000
186.85	160.000
187.23	-44.444
187.61	-1400.000
187.98	60.000
188.36	250.000
188.74	-125.000
189.12	366.667
189.49	31.250
189.87	-75.000
190.25	111.111
190.63	200.000
191.00	-33.333
191.38	0.000
191.76	-75.000
192.14	-116.667
192.51	500.000
192.89	-16.667
193.27	0.000
193.65	14.286
194.02	0.000
194.40	42.857
194.78	71.429
195.15	0.000
195.53	81.818
195.91	0.000
196.29	225.000
196.66	38.462
197.04	-700.000
197.42	-57.143
197.79	-150.000
198.17	-62.500
198.55	-42.857
198.92	11.111
199.30	0.000
199.68	63.636
200.05	85.714
200.43	150.000
200.81	157.143
201.18	0.000
201.56	55.556
201.94	0.000
202.31	500.000
202.69	-55.556
203.07	-0.000
203.44	-44.444
203.82	-200.000
204.19	-16.667
204.57	-166.667
204.95	37.500
205.32	-500.000
205.70	-50.000
206.08	-116.667
206.45	100.000
206.83	160.000
207.20	-50.000
207.58	20.000
207.96	-66.667
208.33	133.333
208.71	91.667
209.08	66.667
209.46	0.000
209.84	116.667
210.21	-500.000
210.59	150.000
210.96	66.667
211.34	-100.000
211.71	-87.500
212.09	-200.000
212.46	0.000
212.84	650.000
213.22	-180.000
213.59	50.000
213.97	10.000
214.34	0.000
214.72	-16.667
215.09	-350.000
215.47	0.000
215.84	-42.857
216.22	700.000
216.59	-40.000
216.97	-80.000
217.34	-150.000
217.72	50.000
218.09	-350.000
218.47	-125.000
218.84	0.000
219.22	-20.000
219.59	5.882
219.97	30.000
220.34	400.000
220.72	-100.000
221.09	69.231
221.47	-33.333
221.84	30.000
222.22	-100.000
222.59	0.000
222.97	50.000
223.34	-220.000
223.72	-300.000
224.09	-250.000
224.46	-150.000
224.84	20.000
225.21	-85.714
225.59	-200.000
225.96	-100.000
226.34	23.077
226.71	150.000
227.08	-250.000
227.46	40.000
227.83	-125.000
228.21	15.789
228.58	-0.000
228.95	300.000
229.33	33.333
229.70	20.000
230.08	84.211
230.45	20.000
230.82	233.333
231.20	-14.286
231.57	33.333
231.95	0.000
232.32	-9.091
232.69	105.000
233.07	275.000
233.44	35.294
233.81	-60.000
234.19	94.444
234.56	50.000
234.93	31.034
235.31	63.158
235.68	66.667
236.05	-15.000
236.43	46.154
236.80	80.000
237.17	44.444
237.55	30.303
237.92	-60.000
238.29	51.613
238.67	22.727
239.04	50.000
239.41	30.952
239.79	34.783
240.16	33.333
240.53	41.304
240.91	27.451
241.28	37.705
241.65	41.791
242.02	39.189
242.40	43.077
242.77	32.000
243.14	37.805
243.51	36.842
243.89	37.179
244.26	46.535
244.63	45.098
245.00	49.533
245.38	44.737
245.75	38.938
246.12	39.683
246.49	39.535
246.87	45.000
247.24	41.060
247.61	47.368
247.98	41.611
248.36	48.148
248.73	40.491
249.10	46.995
249.47	41.294
249.84	42.932
250.22	43.005
250.59	45.556
250.96	44.091
251.33	46.429
251.70	45.299
252.08	42.083
252.45	43.852
252.82	44.628
253.19	44.922
253.56	47.529
253.94	43.462
254.31	44.318
254.68	44.406
255.05	49.186
255.42	43.197
255.79	41.424
256.16	45.033
256.54	42.053
256.91	46.230
257.28	43.934
257.65	42.994
258.02	40.413
258.39	40.456
258.76	49.541
259.14	45.690
259.51	44.380
259.88	41.926
260.25	44.167
260.62	45.753
260.99	45.628
261.36	43.432
261.73	45.093
262.10	46.154
262.47	45.576
262.85	46.717
263.22	43.896
263.59	43.421
263.96	45.524
264.33	45.780
264.70	46.173
265.07	48.210
265.44	43.991
265.81	44.444
266.18	43.991
266.55	45.536
266.92	45.330
267.29	43.982
267.66	45.898
268.03	44.105
268.40	45.720
268.77	44.875
269.14	41.630
269.51	49.342
269.88	46.516
270.25	45.875
270.62	46.624
270.99	46.465
271.36	43.366
271.73	45.187
272.10	45.892
272.47	44.489
272.84	42.570
273.21	43.086
273.58	47.379
273.95	41.923
274.32	44.106
274.69	42.747
275.06	43.773
275.43	40.481
275.80	41.975
276.17	43.333
276.54	41.791
276.91	43.113
277.28	42.857
277.65	43.627
278.02	41.360
278.39	43.116
278.76	43.234
279.13	44.326
279.50	43.643
279.87	40.608
280.23	39.965
280.60	42.712
280.97	40.132
281.34	42.105
281.71	42.301
282.08	40.199
282.45	40.917
282.82	39.403
283.19	42.003
283.56	41.803
283.92	42.643
284.29	43.760
284.66	39.573
285.03	40.705
285.40	40.031
285.77	43.189
286.14	42.137
286.51	41.248
286.87	39.810
287.24	40.813
287.61	39.761
287.98	40.332
288.35	37.426
288.72	39.201
289.08	40.849
289.45	37.574
289.82	40.060
290.19	37.931
290.56	37.606
290.93	38.944
291.29	37.879
291.66	36.226
292.03	36.092
292.40	37.823
292.77	35.445
293.13	35.724
293.50	36.137
293.87	35.436
294.24	35.733
294.60	36.410
294.97	35.034
295.34	34.315
295.71	32.787
296.08	32.817
296.44	34.069
296.81	33.252
297.18	31.009
297.55	32.665
297.91	32.622
298.28	31.991
298.65	34.245
299.02	31.759
299.38	31.693
299.75	30.607
300.12	32.639
300.48	32.834
300.85	30.484
301.22	30.984
301.59	31.621
301.95	32.316
302.32	31.444
302.69	30.559
303.05	31.556
303.42	31.596
303.79	31.250
304.15	31.441
304.52	29.070
304.89	30.576
305.25	29.710
305.62	30.303
305.99	31.237
306.35	29.839
306.72	32.265
307.09	29.645
307.45	30.021
307.82	30.373
308.19	28.961
308.55	29.797
308.92	28.919
309.29	29.310
309.65	29.240
310.02	28.713
310.38	29.429
310.75	29.126
311.12	29.626
311.48	30.205
311.85	28.870
312.22	29.317
312.58	28.638
312.95	29.254
313.31	28.546
313.68	29.487
314.05	28.997
314.41	29.326
314.78	29.519
315.14	28.221
315.51	28.809
315.87	29.523
316.24	28.037
316.61	28.330
316.97	28.597
317.34	28.924
317.70	28.297
318.07	28.748
318.43	28.912
318.80	29.097
319.16	28.584
319.53	27.763
319.89	26.468
320.26	28.292
320.62	26.862
320.99	27.424
321.35	28.189
321.72	28.837
322.08	27.592
322.45	29.449
322.81	28.971
323.18	29.469
323.54	28.793
323.91	30.249
324.27	28.485
324.64	28.631
325.00	28.690
325.37	29.402
325.73	28.182
326.10	28.386
326.46	28.176
326.83	29.384
327.19	28.661
327.56	29.407
327.92	27.852
328.29	27.581
328.65	27.638
329.01	27.834
329.38	28.391
329.74	28.767
330.11	28.425
330.47	28.559
330.84	28.941
331.20	27.667
331.56	28.423
331.93	27.615
332.29	28.729
332.66	28.073
333.02	27.889
333.38	27.852
333.75	27.020
334.11	27.773
334.48	27.723
334.84	27.867
335.20	27.288
335.57	27.572
335.93	29.091
336.29	26.040
336.66	27.754
337.02	28.261
337.38	26.531
337.75	27.686
338.11	27.334
338.47	27.543
338.84	26.396
339.20	27.380
339.56	26.606
339.93	26.765
340.29	26.570
340.65	27.899
341.02	27.135
341.38	27.486
341.74	27.441
342.11	27.675
342.47	26.450
342.83	26.892
343.20	26.574
343.56	26.624
343.92	27.622
344.28	25.703
344.65	26.434
345.01	27.535
345.37	26.827
345.73	26.500
346.10	26.833
346.46	25.554
346.82	26.442
347.19	26.967
347.55	26.783
347.91	26.226
348.27	27.162
348.63	26.123
349.00	26.398
349.36	25.799
349.72	26.563
350.08	26.597
350.45	25.019
350.81	25.641
351.17	25.564
351.53	24.640
351.89	26.955
352.26	26.194
352.62	26.493
352.98	24.733
353.34	24.571
353.70	24.961
354.07	25.708
354.43	25.588
354.79	25.355
355.15	23.767
355.51	25.658
355.87	25.804
356.24	25.627
356.60	25.203
356.96	25.945
357.32	24.238
357.68	24.597
358.04	23.802
358.40	25.373
358.77	25.585
359.13	24.446
359.49	24.312
359.85	25.671
360.21	25.108
360.57	24.551
360.93	24.824
361.29	25.263
361.66	23.751
362.02	24.843
362.38	25.018
362.74	24.092
363.10	24.759
363.46	24.654
363.82	24.645
364.18	24.490
364.54	23.582
364.90	24.080
365.26	24.621
365.62	23.933
365.98	23.690
366.35	23.826
366.71	25.238
367.07	24.560
367.43	24.228
367.79	24.685
368.15	25.351
368.51	24.290
368.87	24.559
369.23	23.800
369.59	24.795
369.95	24.003
370.31	25.523
370.67	24.553
371.03	23.476
371.39	22.968
371.75	23.796
372.11	23.984
372.47	23.629
372.83	23.626
373.19	23.549
373.55	22.764
373.91	23.381
374.27	23.286
374.63	24.493
374.99	23.873
375.35	24.481
375.71	24.452
376.07	23.434
376.42	24.181
376.78	23.804
377.14	23.206
377.50	23.529
377.86	24.384
378.22	24.012
378.58	22.533
378.94	23.122
379.30	23.960
379.66	24.103
380.02	23.081
380.38	23.157
380.74	23.493
381.09	22.822
381.45	23.920
381.81	23.419
382.17	23.337
382.53	22.865
382.89	23.589
383.25	23.798
383.61	22.975
383.97	23.439
384.32	23.385
384.68	22.738
385.04	23.482
385.40	23.925
385.76	23.681
386.12	22.621
386.48	23.412
386.83	23.302
387.19	23.059
387.55	22.242
387.91	22.203
388.27	23.499
388.62	23.024
388.98	21.884
389.34	22.982
389.70	22.719
390.06	21.966
390.42	22.590
390.77	23.359
391.13	22.887
391.49	23.188
391.85	22.545
392.20	22.420
392.56	21.914
392.92	23.337
393.28	22.499
393.64	21.899
393.99	23.359
394.35	23.598
394.71	23.533
395.07	22.395
395.42	23.015
395.78	22.669
396.14	22.757
396.50	22.328
396.85	22.540
397.21	22.899
397.57	22.850
397.92	24.112
398.28	22.053
398.64	22.140
399.00	21.937
399.35	22.461
399.71	22.391
400.07	22.572
400.42	22.526
400.78	21.933
401.14	22.994
401.49	22.115
401.85	22.674
402.21	22.074
402.57	22.946
402.92	22.459
403.28	22.131
403.63	21.718
403.99	20.962
404.35	21.660
404.70	21.700
405.06	21.739
405.42	22.307
405.77	22.737
406.13	21.880
406.49	22.523
406.84	22.161
407.20	22.806
407.55	21.926
407.91	21.245
408.27	22.379
408.62	22.339
408.98	21.822
409.34	20.821
409.69	22.806
410.05	22.333
410.40	22.506
410.76	21.425
411.11	22.501
411.47	22.174
411.83	22.046
412.18	22.108
412.54	22.525
412.89	22.235
413.25	21.445
413.60	20.908
413.96	22.261
414.31	21.756
414.67	22.004
415.03	20.985
415.38	22.509
415.74	22.053
416.09	21.900
416.45	22.041
416.80	21.359
417.16	21.328
417.51	21.793
417.87	21.337
418.22	21.677
418.58	21.499
418.93	22.584
419.29	22.195
419.64	22.389
420.00	21.958
420.35	21.561
420.71	21.884
421.06	21.794
421.42	22.018
421.77	21.648
422.12	21.512
422.48	21.352
422.83	21.413
423.19	22.069
423.54	22.511
423.90	22.474
424.25	21.600
424.61	21.757
424.96	21.527
425.31	22.665
425.67	21.846
426.02	21.693
426.38	21.412
426.73	21.652
427.09	22.549
427.44	22.611
427.79	21.227
428.15	21.176
428.50	21.292
428.85	22.101
429.21	22.021
429.56	21.273
429.92	21.179
430.27	22.024
430.62	21.544
430.98	21.249
431.33	21.310
431.68	21.456
432.04	22.143
432.39	22.067
432.74	21.062
433.10	22.174
433.45	21.906
433.80	21.620
434.16	21.488
434.51	21.377
434.86	21.878
435.22	21.945
435.57	22.524
435.92	21.870
436.28	21.104
436.63	21.464
436.98	21.363
437.34	21.421
437.69	21.354
438.04	21.946
438.39	22.573
438.75	20.863
439.10	22.357
439.45	22.023
439.81	21.582
440.16	21.019
440.51	21.628
440.86	21.290
441.22	21.758
441.57	21.960
441.92	21.775
442.27	22.424
442.63	21.957
442.98	21.718
443.33	21.831
443.68	21.853
444.03	22.766
444.39	22.423
444.74	22.307
445.09	21.186
445.44	22.181
445.79	22.270
446.15	22.148
446.50	21.964
446.85	22.179
447.20	21.954
447.55	22.019
447.91	22.461
448.26	20.930
448.61	21.413
448.96	22.425
449.31	21.421
449.66	21.841
450.02	21.466
450.37	21.897
450.72	21.690
451.07	22.096
451.42	21.606
451.77	20.901
452.12	22.065
452.47	21.866
452.83	21.959
453.18	21.950
453.53	21.941
453.88	22.032
454.23	21.977
454.58	21.300
454.93	20.692
455.28	22.095
455.63	21.546
455.98	21.508
456.34	21.437
456.69	21.399
457.04	21.336
457.39	22.228
457.74	22.148
458.09	20.538
458.44	21.875
458.79	21.403
459.14	22.286
459.49	21.562
459.84	21.721
460.19	21.377
460.54	21.749
460.89	20.911
461.24	21.207
461.59	22.800
461.94	20.593
462.29	22.060
462.64	21.304
462.99	22.034
463.34	22.323
463.69	21.336
464.04	22.068
464.39	21.805
464.74	21.380
465.09	21.626
465.44	21.727
465.79	21.417
466.14	21.261
466.49	21.421
466.84	21.543
467.19	22.601
467.54	21.563
467.89	20.230
468.24	21.440
468.59	20.151
468.94	20.513
469.29	20.816
469.64	21.233
469.99	20.841
470.34	20.916
470.68	21.531
471.03	21.284
471.38	21.190
471.73	21.001
472.08	20.305
472.43	21.674
472.78	21.096
473.13	19.785
473.48	21.148
473.83	20.836
474.17	21.747
474.52	20.686
474.87	21.429
475.22	20.789
475.57	20.042
475.92	21.105
476.27	21.406
476.61	20.924
476.96	20.594
477.31	20.792
477.66	21.144
478.01	20.996
478.36	20.937
478.70	20.985
479.05	21.472
479.40	21.273
479.75	21.710
480.10	20.748
480.45	20.875
480.79	21.088
481.14	20.818
481.49	21.172
481.84	21.062
482.19	21.032
482.53	21.906
482.88	21.666
483.23	20.053
483.58	20.611
483.92	19.681
484.27	21.084
484.62	20.132
484.97	21.384
485.31	20.943
485.66	20.227
486.01	20.554
486.36	20.833
486.70	22.046
487.05	22.861
487.40	22.939
487.75	22.799
488.09	22.880
488.44	22.133
488.79	22.024
489.13	21.542
489.48	21.204
489.83	20.282
490.17	20.049
490.52	19.622
490.87	21.151
491.22	20.494
491.56	20.904
491.91	19.712
492.26	20.814
492.60	19.676
492.95	20.053
493.30	19.408
493.64	20.061
493.99	20.614
494.34	19.817
494.68	20.214
495.03	20.749
495.37	20.328
495.72	20.000
496.07	20.684
496.41	20.378
496.76	20.309
497.11	20.552
497.45	20.414
497.80	20.524
498.14	19.955
498.49	20.864
498.84	20.110
499.18	19.523
499.53	20.135
499.87	19.473
500.22	18.833
500.56	19.748
500.91	19.542
501.26	20.136
501.60	19.311
501.95	20.625
502.29	20.097
502.64	20.988
502.98	19.802
503.33	20.086
503.67	19.799
504.02	19.746
504.36	20.152
504.71	20.211
505.06	19.782
505.40	19.881
505.75	19.991
506.09	19.936
506.44	19.916
506.78	19.954
507.13	19.640
507.47	20.369
507.82	19.697
508.16	19.742
508.51	19.503
508.85	20.170
509.19	19.848
509.54	18.780
509.88	19.087
510.23	19.767
510.57	19.913
510.92	19.594
511.26	19.673
511.61	19.169
511.95	19.375
512.30	19.153
512.64	19.090
512.98	19.160
513.33	19.607
513.67	18.766
514.02	19.366
514.36	20.102
514.70	18.698
515.05	19.760
515.39	19.948
515.74	19.194
516.08	19.070
516.42	19.466
516.77	18.559
517.11	18.463
517.46	19.247
517.80	19.241
518.14	20.185
518.49	19.577
518.83	18.946
519.17	18.148
519.52	19.654
519.86	19.641
520.20	19.649
520.55	19.168
520.89	19.088
521.23	18.314
521.58	19.209
521.92	19.377
522.26	18.213
522.61	18.576
522.95	18.281
523.29	18.448
523.64	18.442
523.98	18.996
524.32	19.484
524.66	19.010
525.01	18.290
525.35	18.150
525.69	19.200
526.04	18.485
526.38	18.391
526.72	19.204
527.06	18.768
527.41	18.601
527.75	19.240
528.09	18.772
528.43	18.887
528.78	18.382
529.12	18.291
529.46	18.999
529.80	19.050
530.15	19.188
530.49	18.980
530.83	19.067
531.17	18.399
531.51	17.930
531.86	18.810
532.20	19.634
532.54	18.671
532.88	18.727
533.22	18.975
533.57	18.869
533.91	19.192
534.25	18.994
534.59	18.391
534.93	19.185
535.27	19.211
535.62	19.784
535.96	19.059
536.30	18.919
536.64	19.760
536.98	19.496
537.32	20.370
537.66	19.276
538.01	18.671
538.35	18.392
538.69	19.471
539.03	20.110
539.37	19.258
539.71	19.880
540.05	19.844
540.39	18.826
540.73	18.579
541.07	19.313
541.42	19.492
541.76	18.624
542.10	19.964
542.44	18.697
542.78	19.161
543.12	19.964
543.46	18.437
543.80	18.585
544.14	18.731
544.48	19.563
544.82	19.449
545.16	19.082
545.50	19.113
545.84	18.861
546.18	19.815
546.52	19.363
546.86	19.623
547.20	19.020
547.54	18.851
547.88	18.264
548.22	18.772
548.56	18.841
548.90	19.104
549.24	20.608
549.58	18.927
549.92	18.941
550.26	19.353
550.60	19.464
550.94	19.599
551.28	18.416
551.62	19.879
551.96	19.288
552.30	19.439
552.64	19.353
552.98	19.588
553.32	19.936
553.66	19.100
554.00	19.987
554.34	19.627
554.68	18.141
555.02	19.711
555.36	19.461
555.69	18.770
556.03	19.105
556.37	20.025
556.71	19.658
557.05	19.169
557.39	19.376
557.73	19.089
558.07	19.007
558.41	19.468
558.75	19.473
559.08	19.276
559.42	18.381
559.76	19.064
560.10	18.486
560.44	18.338
560.78	19.875
561.12	19.458
561.45	19.769
561.79	19.292
562.13	19.593
562.47	18.557
562.81	20.000
563.15	20.391
563.48	19.577
563.82	20.193
564.16	19.867
564.50	20.322
564.84	20.236
565.17	20.000
565.51	19.620
565.85	20.368
566.19	19.297
566.52	19.953
566.86	19.864
567.20	19.576
567.54	20.074
567.88	19.674
568.21	20.504
568.55	20.815
568.89	20.654
569.23	20.744
569.56	20.399
569.90	21.098
570.24	21.585
570.57	21.681
570.91	20.759
571.25	21.319
571.59	21.208
571.92	21.322
572.26	21.572
572.60	21.704
572.93	22.238
573.27	21.860
573.61	21.678
573.95	22.020
574.28	22.004
574.62	21.919
574.96	21.857
575.29	21.679
575.63	22.222
575.97	22.491
576.30	21.934
576.64	21.713
576.98	21.800
577.31	22.011
577.65	22.080
577.98	21.837
578.32	21.787
578.66	22.277
578.99	22.220
579.33	22.566
579.67	22.484
580.00	21.825
580.34	22.884
580.67	22.242
581.01	22.241
581.35	21.722
581.68	21.757
582.02	22.036
582.35	22.509
582.69	22.802
583.02	22.856
583.36	22.695
583.70	22.858
584.03	23.086
584.37	22.562
584.70	22.249
585.04	22.065
585.37	21.896
585.71	21.834
586.04	22.017
586.38	22.168
586.72	22.111
587.05	22.333
587.39	22.064
587.72	22.297
588.06	22.244
588.39	22.206
588.73	21.931
589.06	22.094
589.40	22.188
589.73	21.947
590.07	22.613
590.40	21.974
590.73	21.845
591.07	22.003
591.40	21.656
591.74	21.264
592.07	22.046
592.41	20.702
592.74	20.944
593.08	21.401
593.41	22.047
593.75	21.667
594.08	21.993
594.41	21.603
594.75	22.052
595.08	21.467
595.42	21.916
595.75	22.247
596.09	22.467
596.42	22.429
596.75	21.961
597.09	22.222
597.42	21.097
597.75	20.698
598.09	21.349
598.42	21.673
598.76	21.093
599.09	21.146
599.42	21.019
599.76	21.096
600.09	21.755
600.42	21.188
600.76	21.863
601.09	20.810
601.42	21.559
601.76	21.793
602.09	21.980
602.42	21.483
602.76	21.402
603.09	21.476
603.42	22.110
603.76	21.494
604.09	22.498
604.42	22.128
604.76	21.689
605.09	21.061
605.42	21.411
605.75	21.846
606.09	21.314
606.42	20.941
606.75	20.652
607.09	20.853
607.42	21.734
607.75	21.532
608.08	21.192
608.42	21.040
608.75	21.434
609.08	21.265
609.41	21.923
609.75	21.027
610.08	21.020
610.41	20.561
610.74	21.261
611.07	21.226
611.41	22.197
611.74	21.570
612.07	21.318
612.40	21.008
612.73	21.565
613.07	21.467
613.40	20.741
613.73	20.318
614.06	20.903
614.39	19.971
614.72	21.009
615.06	21.078
615.39	20.928
615.72	20.995
616.05	21.030
616.38	21.695
616.71	20.533
617.05	21.299
617.38	21.134
617.71	21.382
618.04	20.615
618.37	20.601
618.70	20.984
619.03	21.147
619.36	20.099
619.69	20.500
620.03	19.272
620.36	19.509
620.69	20.234
621.02	20.407
621.35	20.537
621.68	21.547
622.01	19.359
622.34	19.944
622.67	20.206
623.00	18.489
623.33	20.571
623.66	19.909
623.99	20.606
624.32	20.468
624.65	19.176
624.99	20.286
625.32	20.836
625.65	19.420
625.98	19.932
626.31	19.277
626.64	19.341
626.97	19.205
627.30	19.818
627.63	18.380
627.96	21.246
628.29	19.300
628.62	19.060
628.95	19.544
629.28	17.587
629.61	19.444
629.94	16.904
630.26	18.390
630.59	18.221
630.92	18.961
631.25	19.410
631.58	18.362
631.91	19.025
632.24	19.885
632.57	19.450
632.90	17.954
633.23	19.184
633.56	17.041
633.89	17.562
634.22	17.775
634.55	18.580
634.88	18.939
635.20	19.053
635.53	18.079
635.86	17.226
636.19	18.558
636.52	18.354
636.85	17.978
637.18	18.503
637.51	18.280
637.83	18.162
638.16	17.857
638.49	17.606
638.82	17.813
639.15	17.068
639.48	17.898
639.81	17.783
640.13	18.257
640.46	16.606
640.79	16.176
641.12	17.267
641.45	16.813
641.77	20.154
642.10	17.192
642.43	18.218
642.76	17.886
643.09	16.849
643.41	16.106
643.74	18.207
644.07	17.793
644.40	15.842
644.73	17.417
645.05	17.915
645.38	18.273
645.71	17.595
646.04	18.508
646.36	16.204
646.69	16.564
647.02	16.667
647.35	17.405
647.67	17.713
648.00	17.197
648.33	16.667
648.66	17.118
648.98	15.918
649.31	17.321
649.64	20.053
649.96	18.302
650.29	16.412
650.62	16.266
650.94	16.366
651.27	15.269
651.60	15.351
651.92	18.237
652.25	17.221
652.58	16.369
652.90	15.116
653.23	18.028
653.56	16.690
653.88	19.663
654.21	19.155
654.54	16.618
654.86	18.272
655.19	15.182
655.52	18.915
655.84	20.112
656.17	24.557
656.49	35.744
656.82	41.334
657.15	33.424
657.47	26.401
657.80	20.051
658.13	16.046
658.45	21.388
658.78	26.099
659.10	25.340
659.43	24.835
659.75	23.835
660.08	22.073
660.41	20.182
660.73	18.700
661.06	16.446
661.38	17.225
661.71	16.207
662.03	14.462
662.36	17.889
662.68	16.135
663.01	17.345
663.33	17.202
663.66	18.681
663.98	15.000
664.31	16.135
664.63	14.258
664.96	17.604
665.28	15.608
665.61	17.832
665.93	15.536
666.26	17.025
666.58	15.498
666.91	17.196
667.23	17.714
667.56	14.793
667.88	15.800
668.21	14.062
668.53	15.637
668.86	15.521
669.18	14.257
669.50	16.501
669.83	14.000
670.15	15.945
670.48	17.063
670.80	15.105
671.13	13.989
671.45	14.173
671.77	16.008
672.10	14.000
672.42	16.667
672.75	15.668
673.07	17.463
673.39	18.644
673.72	18.289
674.04	18.448
674.37	16.279
674.69	17.637
675.01	17.143
675.34	16.794
675.66	16.854
675.98	16.791
676.31	15.234
676.63	16.920
676.95	16.858
677.28	15.524
677.60	14.370
677.92	16.507
678.25	17.185
678.57	16.726
678.89	16.382
679.22	16.202
679.54	15.726
679.86	14.068
680.18	17.247
680.51	16.667
680.83	20.131
681.15	16.552
681.48	15.371
681.80	19.171
682.12	15.385
682.44	16.027
682.77	16.667
683.09	16.288
683.41	18.023
683.73	17.268
684.06	14.022
684.38	16.458
684.70	17.953
685.02	16.867
685.34	15.308
685.67	16.877
685.99	16.564
686.31	17.151
686.63	16.114
686.96	18.612
687.28	18.241
687.60	17.677
687.92	15.434
688.24	19.366
688.56	16.379
688.89	14.882
689.21	17.417
689.53	15.294
689.85	13.609
690.17	16.667
690.49	16.733
690.82	16.832
691.14	16.194
691.46	16.826
691.78	17.311
692.10	15.596
692.42	15.179
692.74	14.882
693.06	13.519
693.39	17.268
693.71	15.977
694.03	16.171
694.35	16.762
694.67	17.454
694.99	14.043
695.31	13.907
695.63	16.017
695.95	13.665
696.27	13.846
696.59	18.584
696.91	16.892
697.23	15.385
697.56	13.238
697.88	16.098
698.20	17.702
698.52	19.129
698.84	15.385
699.16	15.918
699.48	16.109
699.80	17.234
700.12	16.376
700.44	14.286
700.76	16.152
701.08	15.496
701.40	13.472
701.72	15.423
702.04	16.578
702.36	10.733
702.68	13.447
703.00	15.648
703.32	13.793
703.64	17.848
703.96	14.320
704.28	17.690
704.60	17.975
704.91	15.561
705.23	15.616
705.55	12.535
705.87	15.758
706.19	15.644
706.51	13.554
706.83	12.968
707.15	13.492
707.47	14.486
707.79	13.537
708.11	16.737
708.43	16.129
708.74	12.946
709.06	12.529
709.38	18.310
709.70	18.610
710.02	14.212
710.34	17.021
710.66	15.922
710.98	15.847
711.29	14.011
711.61	17.514
711.93	15.100
712.25	14.324
712.57	17.994
712.89	15.588
713.20	10.947
713.52	16.474
713.84	16.435
714.16	16.579
714.48	19.072
714.80	17.922
715.11	16.010
715.43	16.976
715.75	16.053
716.07	16.851
716.39	17.486
716.70	14.458
717.02	16.066
717.34	13.589
717.66	16.443
717.97	14.041
718.29	14.089
718.61	11.513
718.93	16.181
719.24	16.149
719.56	14.417
719.88	15.616
720.20	17.742
720.51	15.528
720.83	16.250
721.15	8.882
721.46	12.671
721.78	13.333
722.10	11.974
722.42	15.772
722.73	14.194
723.05	14.737
723.37	14.583
723.68	16.487
724.00	17.329
724.32	15.141
724.63	18.531
724.95	14.894
725.27	18.118
725.58	13.781
725.90	17.931
726.22	14.420
726.53	16.234
726.85	14.780
727.16	16.616
727.48	16.208
727.80	16.225
728.11	10.601
728.43	17.172
728.74	13.043
729.06	16.556
729.38	14.286
729.69	17.450
730.01	18.750
730.32	14.242
730.64	14.151
730.96	14.907
731.27	17.039
731.59	16.484
731.90	16.623
732.22	17.187
732.53	13.260
732.85	15.714
733.16	17.889
733.48	14.939
733.80	16.435
734.11	13.960
734.43	16.486
734.74	19.747
735.06	16.332
735.37	17.297
735.69	16.757
736.00	17.797
736.32	15.903
736.63	20.000
736.95	14.080
737.26	19.091
737.58	14.545
737.89	19.412
738.21	13.150
738.52	13.443
738.83	19.795
739.15	12.411
739.46	19.048
739.78	14.724
740.09	17.192
740.41	16.618
740.72	14.667
741.04	16.181
741.35	15.088
741.66	14.510
741.98	18.443
742.29	10.879
742.61	10.526
742.92	18.462
743.23	17.329
743.55	15.116
743.86	18.800
744.18	11.983
744.49	14.346
744.80	21.399
745.12	20.253
745.43	18.699
745.74	12.500
746.06	11.017
746.37	16.034
746.68	17.886
747.00	16.667
747.31	13.305
747.62	19.231
747.94	14.170
748.25	10.442
748.56	11.837
748.88	12.393
749.19	15.517
749.50	13.853
749.82	13.253
750.13	12.456
750.44	13.000
750.75	16.000
751.07	18.154
751.38	18.612
751.69	15.974
752.01	12.945
752.32	15.686
752.63	19.048
752.94	14.533
753.26	17.844
753.57	12.593
753.88	17.603
754.19	14.469
754.51	14.469
754.82	16.399
755.13	18.033
755.44	14.676
755.75	15.132
756.07	17.313
756.38	17.925
756.69	17.470
757.00	14.681
757.31	16.120
757.63	15.090
757.94	14.319
758.25	17.607
758.56	18.083
758.87	18.409
759.18	16.267
759.50	18.130
759.81	17.647
760.12	13.477
760.43	16.146
760.74	16.010
761.05	15.750
761.36	14.458
761.67	17.513
761.99	16.486
762.30	15.244
762.61	14.851
762.92	15.672
763.23	14.232
763.54	16.906
763.85	12.027
764.16	17.508
764.47	15.141
764.78	17.891
765.10	18.768
765.41	16.410
765.72	12.698
766.03	16.384
766.34	14.107
766.65	10.453
766.96	18.327
767.27	14.286
767.58	9.453
767.89	18.750
768.20	17.840
768.51	15.278
768.82	17.269
769.13	18.182
769.44	16.538
769.75	16.606
770.06	17.308
770.37	17.717
770.68	11.489
770.99	8.502
771.30	21.481
771.61	16.350
771.92	15.556
772.23	19.028
772.54	9.722
772.85	21.659
773.16	14.286
773.47	16.402
773.78	17.297
774.09	20.455
774.39	20.500
774.70	15.301
775.01	10.976
775.32	14.706
775.63	14.110
775.94	8.280
776.25	15.484
776.56	18.590
776.87	14.966
777.18	17.931
777.48	12.587
777.79	12.838
778.10	8.824
778.41	16.667
778.72	14.483
779.03	20.370
779.34	15.758
779.65	14.508
779.95	20.000
780.26	18.750
780.57	21.290
780.88	12.319
781.19	18.065
781.50	19.412
781.80	20.430
782.11	17.460
782.42	9.596
782.73	11.377
783.04	15.642
783.34	7.273
783.65	12.418
783.96	14.286
784.27	12.500
784.57	19.868
784.88	12.857
785.19	11.024
785.50	11.024
785.81	3.759
786.11	16.154
786.42	7.914
786.73	13.669
787.04	21.053
787.34	16.393
787.65	11.200
787.96	14.925
788.26	20.979
788.57	29.371
788.88	15.789
789.19	16.993
789.49	15.753
789.80	21.986
790.11	11.811
790.41	11.719
790.72	16.949
791.03	11.650
791.33	11.304
791.64	21.930
791.95	16.071
792.25	17.143
792.56	13.393
792.87	10.417
793.17	16.071
793.48	6.250
793.79	6.024
794.09	12.844
794.40	8.257
794.70	15.646
795.01	13.636
795.32	14.384
795.62	16.901
795.93	12.121
796.23	15.574
796.54	6.250
796.85	11.702
797.15	14.130
797.46	16.438
797.76	17.500
798.07	14.130
798.37	8.247
798.68	15.584
798.99	12.644
799.29	14.607
799.60	18.085
799.90	0.000
800.21	6.154
800.51	0.000
800.82	4.412
801.12	9.589
801.43	5.882
801.73	5.085
802.04	1.515
802.34	1.667
802.65	11.864
802.95	13.433
803.26	11.864
803.56	4.110
803.87	17.143
804.17	10.959
804.48	-12.281
804.78	12.500
805.09	8.621
805.39	16.216
805.70	-4.225
806.00	14.634
806.30	3.614
806.61	2.740
806.91	19.231
807.22	26.667
807.52	4.598
807.83	31.944
808.13	15.663
808.43	12.360
808.74	8.750
809.04	2.941
809.35	14.667
809.65	15.714
809.95	4.110
810.26	-26.316
810.56	1.724
810.86	10.294
811.17	5.263
811.47	16.393
811.77	20.000
812.08	15.254
812.38	21.667
812.69	15.517
812.99	1.887
813.29	-33.333
813.59	12.000
813.90	7.018
814.20	14.545
814.50	26.761
814.81	20.513
815.11	24.590
815.41	26.866
815.72	27.586
816.02	1.786
816.32	28.889
816.62	31.818
816.93	-15.556
817.23	29.630
817.53	6.383
817.84	33.333
818.14	32.353
818.44	22.449
818.74	11.111
819.04	5.128
819.35	-25.714
819.65	-61.538
819.95	-7.547
820.25	15.556
820.56	21.429
820.86	0.000
821.16	12.821
821.46	0.000
821.76	0.000
822.07	17.857
822.37	4.348
822.67	21.277
822.97	-16.216
823.27	-5.000
823.57	8.163
823.88	40.000
824.18	22.500
824.48	-13.333
824.78	16.000
825.08	30.303
825.38	4.444
825.69	2.128
825.99	27.778
826.29	-5.714
826.59	5.128
826.89	-11.628
827.19	-2.000
827.49	14.706
827.79	14.583
828.09	-5.405
828.39	-26.667
828.70	9.756
829.00	13.953
829.30	10.714
829.60	8.824
829.90	21.739
830.20	25.714
830.50	0.000
830.80	-22.222
831.10	-15.385
831.40	8.824
831.70	-4.762
832.00	54.839
832.30	-23.529
832.60	12.500
832.90	0.000
833.20	-31.579
833.50	-45.000
833.80	-5.263
834.10	-47.619
834.40	11.111
834.70	15.625
835.00	-2.857
835.30	23.529
835.60	20.000
835.90	-4.000
836.20	-40.909
836.50	4.000
836.80	-15.152
837.10	-11.111
837.40	29.630
837.70	-25.000
838.00	17.857
838.30	-4.348
838.60	34.483
838.90	7.143
839.19	-60.870
839.49	-100.000
839.79	39.130
840.09	-25.000
840.39	-30.000
840.69	12.903
840.99	-10.714
841.29	-6.667
841.59	-36.842
841.88	38.462
842.18	11.538
842.48	-30.000
842.78	-25.000
843.08	13.333
843.38	32.258
843.68	5.556
843.97	17.647
844.27	12.500
844.57	15.789
844.87	-60.000
845.17	-40.000
845.47	38.095
845.76	-9.524
846.06	-11.111
846.36	35.294
846.66	3.846
846.96	0.000
847.25	-52.941
847.55	4.348
847.85	-25.000
848.15	-11.765
848.44	18.182
848.74	47.619
849.04	-25.000
849.34	-31.250
849.63	-4.348
849.93	950.000
850.23	13.333
850.53	42.308
850.82	-54.545
851.12	-18.182
851.42	-36.364
851.71	38.462
852.01	-25.000
852.31	-53.846
852.61	5.263
852.90	-16.667
853.20	-5.556
853.50	-166.667
853.79	-47.619
854.09	-27.273
854.39	-108.333
854.68	25.806
854.98	-7.692
855.28	16.667
855.57	32.143
855.87	32.000
856.17	-18.182
856.46	37.037
856.76	-50.000
857.05	-26.087
857.35	-4.167
857.65	38.462
857.94	4.762
858.24	22.222
858.53	13.043
858.83	23.529
859.13	11.765
859.42	35.294
859.72	14.286
860.01	-50.000
860.31	66.667
860.60	80.000
860.90	26.667
861.20	22.222
861.49	7.692
861.79	26.667
862.08	-92.308
862.38	28.125
862.67	23.529
862.97	-25.000
863.26	-44.444
863.56	80.000
863.85	63.636
864.15	-27.778
864.44	-300.000
864.74	7.143
865.03	18.750
865.33	-20.000
865.62	3.226
865.92	9.091
866.21	34.783
866.51	-42.857
866.80	40.000
867.10	8.333
867.39	-16.667
867.69	100.000
867.98	85.714
868.27	11.765
868.57	-1400.000
868.86	-120.000
869.16	-23.810
869.45	20.833
869.75	127.273
870.04	128.571
870.33	-33.333
870.63	-257.143
870.92	150.000
871.22	-150.000
871.51	-45.455
871.80	-400.000
872.10	-350.000
>>>>>End Processed Spectral Data<<<<<
