SpectraSuite Data File
++++++++++++++++++++++++++++++++++++
Date: Thu May 14 16:26:23 PDT 2015
User: schluterlab
Dark Spectrum Present: Yes
Reference Spectrum Present: Yes
Number of Sampled Component Spectra: 1
Spectrometers: USB2E3373
Integration Time (usec): 3000 (USB2E3373)
Spectra Averaged: 3 (USB2E3373)
Boxcar Smoothing: 0 (USB2E3373)
Correct for Electrical Dark: No (USB2E3373)
Strobe/Lamp Enabled: No (USB2E3373)
Correct for Detector Non-linearity: No (USB2E3373)
Correct for Stray Light: No (USB2E3373)
Number of Pixels in Processed Spectrum: 2048
>>>>>Begin Processed Spectral Data<<<<<
178.53	0.000
178.91	28.571
179.29	-1200.000
179.67	-100.000
180.04	214.286
180.42	10.000
180.80	120.000
181.18	100.000
181.56	1400.000
181.94	75.000
182.31	-100.000
182.69	66.667
183.07	300.000
183.45	25.000
183.83	-33.333
184.20	133.333
184.58	-700.000
184.96	-75.000
185.34	-22.222
185.72	40.000
186.09	177.778
186.47	200.000
186.85	140.000
187.23	-66.667
187.61	-500.000
187.98	20.000
188.36	50.000
188.74	125.000
189.12	100.000
189.49	-25.000
189.87	12.500
190.25	-22.222
190.63	60.000
191.00	-55.556
191.38	0.000
191.76	-175.000
192.14	-100.000
192.51	200.000
192.89	200.000
193.27	0.000
193.65	14.286
194.02	-1000.000
194.40	14.286
194.78	28.571
195.15	0.000
195.53	-27.273
195.91	0.000
196.29	0.000
196.66	-7.692
197.04	-400.000
197.42	57.143
197.79	-300.000
198.17	-37.500
198.55	-57.143
198.92	33.333
199.30	-50.000
199.68	-27.273
200.05	50.000
200.43	-450.000
200.81	228.571
201.18	0.000
201.56	177.778
201.94	0.000
202.31	566.667
202.69	-55.556
203.07	800.000
203.44	-33.333
203.82	50.000
204.19	-16.667
204.57	-116.667
204.95	-87.500
205.32	-100.000
205.70	75.000
206.08	-116.667
206.45	16.667
206.83	220.000
207.20	66.667
207.58	-100.000
207.96	-50.000
208.33	83.333
208.71	8.333
209.08	233.333
209.46	0.000
209.84	166.667
210.21	50.000
210.59	100.000
210.96	-0.000
211.34	-150.000
211.71	-175.000
212.09	-1100.000
212.46	0.000
212.84	600.000
213.22	-40.000
213.59	-75.000
213.97	140.000
214.34	0.000
214.72	83.333
215.09	25.000
215.47	0.000
215.84	-42.857
216.22	300.000
216.59	120.000
216.97	-80.000
217.34	200.000
217.72	25.000
218.09	-225.000
218.47	-100.000
218.84	0.000
219.22	-60.000
219.59	-5.882
219.97	-5.000
220.34	750.000
220.72	-33.333
221.09	38.462
221.47	33.333
221.84	0.000
222.22	-42.857
222.59	0.000
222.97	12.500
223.34	-80.000
223.72	-500.000
224.09	25.000
224.46	-100.000
224.84	100.000
225.21	-171.429
225.59	-275.000
225.96	-175.000
226.34	19.231
226.71	200.000
227.08	-250.000
227.46	40.000
227.83	-225.000
228.21	26.316
228.58	62.500
228.95	350.000
229.33	0.000
229.70	-70.000
230.08	52.632
230.45	40.000
230.82	33.333
231.20	14.286
231.57	8.333
231.95	-54.545
232.32	0.000
232.69	25.000
233.07	-100.000
233.44	-17.647
233.81	20.000
234.19	38.889
234.56	9.091
234.93	44.828
235.31	15.789
235.68	-38.889
236.05	-55.000
236.43	53.846
236.80	56.000
237.17	29.630
237.55	30.303
237.92	-60.000
238.29	0.000
238.67	2.273
239.04	16.667
239.41	-23.810
239.79	6.522
240.16	1.852
240.53	2.174
240.91	-1.961
241.28	6.557
241.65	0.000
242.02	4.054
242.40	-10.769
242.77	-12.000
243.14	-7.317
243.51	-11.842
243.89	-15.385
244.26	18.812
244.63	6.863
245.00	0.935
245.38	0.877
245.75	-11.504
246.12	-1.587
246.49	-0.775
246.87	9.286
247.24	8.609
247.61	3.289
247.98	-4.698
248.36	-0.617
248.73	-11.656
249.10	0.000
249.47	5.473
249.84	3.665
250.22	3.109
250.59	-2.778
250.96	6.818
251.33	-2.551
251.70	2.991
252.08	3.333
252.45	2.049
252.82	-5.372
253.19	-5.078
253.56	-0.380
253.94	-1.154
254.31	2.652
254.68	0.350
255.05	0.977
255.42	0.000
255.79	1.942
256.16	-1.987
256.54	-4.305
256.91	-1.311
257.28	-1.967
257.65	-1.911
258.02	-5.015
258.39	2.564
258.76	2.752
259.14	2.011
259.51	0.865
259.88	0.000
260.25	-0.833
260.62	-1.096
260.99	1.093
261.36	3.217
261.73	-2.387
262.10	-2.473
262.47	1.609
262.85	4.798
263.22	-1.818
263.59	-3.158
263.96	2.302
264.33	0.000
264.70	1.235
265.07	0.239
265.44	4.308
265.81	0.926
266.18	2.494
266.55	1.116
266.92	0.228
267.29	2.188
267.66	2.439
268.03	0.873
268.40	3.758
268.77	-2.506
269.14	-1.982
269.51	1.096
269.88	3.074
270.25	2.213
270.62	1.899
270.99	2.828
271.36	2.970
271.73	0.786
272.10	2.004
272.47	1.002
272.84	2.209
273.21	0.802
273.58	0.605
273.95	-0.962
274.32	0.570
274.69	0.774
275.06	0.916
275.43	-1.664
275.80	1.764
276.17	-1.852
276.54	1.119
276.91	0.000
277.28	1.447
277.65	1.257
278.02	3.125
278.39	0.000
278.76	0.703
279.13	2.305
279.50	3.265
279.87	2.326
280.23	-0.352
280.60	2.542
280.97	2.796
281.34	1.358
281.71	3.215
282.08	1.827
282.45	0.982
282.82	0.471
283.19	-0.323
283.56	0.656
283.92	2.102
284.29	1.738
284.66	0.821
285.03	0.160
285.40	2.473
285.77	-0.155
286.14	2.443
286.51	0.609
286.87	1.106
287.24	2.711
287.61	1.794
287.98	0.151
288.35	1.479
288.72	-0.148
289.08	1.757
289.45	1.183
289.82	1.054
290.19	0.718
290.56	0.704
290.93	1.569
291.29	1.515
291.66	0.275
292.03	1.764
292.40	2.993
292.77	1.617
293.13	1.624
293.50	-0.263
293.87	1.611
294.24	2.800
294.60	2.023
294.97	1.342
295.34	3.457
295.71	1.639
296.08	1.421
296.44	0.735
296.81	2.314
297.18	1.245
297.55	0.354
297.91	2.372
298.28	-0.237
298.65	2.854
299.02	1.653
299.38	2.403
299.75	2.336
300.12	1.620
300.48	2.189
300.85	2.362
301.22	2.349
301.59	0.913
301.95	1.695
302.32	2.333
302.69	1.972
303.05	2.829
303.42	1.220
303.79	2.500
304.15	2.944
304.52	1.797
304.89	2.723
305.25	2.899
305.62	2.717
305.99	3.299
306.35	3.125
306.72	3.309
307.09	2.335
307.45	2.899
307.82	3.633
308.19	3.229
308.55	3.857
308.92	4.284
309.29	3.927
309.65	3.314
310.02	2.772
310.38	3.839
310.75	4.757
311.12	4.602
311.48	3.715
311.85	5.223
312.22	4.554
312.58	5.164
312.95	5.067
313.31	5.059
313.68	5.952
314.05	7.227
314.41	7.195
314.78	5.995
315.14	5.989
315.51	7.479
315.87	8.461
316.24	8.128
316.61	8.970
316.97	7.692
317.34	8.201
317.70	9.170
318.07	8.554
318.43	10.289
318.80	11.455
319.16	10.129
319.53	8.740
319.89	10.429
320.26	11.210
320.62	10.195
320.99	10.988
321.35	11.368
321.72	13.395
322.08	13.075
322.45	13.550
322.81	13.087
323.18	12.212
323.54	13.448
323.91	14.324
324.27	15.060
324.64	15.953
325.00	15.423
325.37	16.708
325.73	16.281
326.10	17.518
326.46	17.590
326.83	17.934
327.19	17.874
327.56	18.340
327.92	18.332
328.29	19.516
328.65	19.347
329.01	20.812
329.38	20.977
329.74	20.719
330.11	21.575
330.47	21.230
330.84	21.447
331.20	20.167
331.56	21.750
331.93	21.674
332.29	22.288
332.66	22.841
333.02	21.943
333.38	22.232
333.75	21.296
334.11	22.185
334.48	22.195
334.84	22.940
335.20	22.586
335.57	23.019
335.93	23.636
336.29	20.715
336.66	22.708
337.02	22.408
337.38	22.194
337.75	23.223
338.11	23.297
338.47	22.084
338.84	22.504
339.20	20.388
339.56	22.817
339.93	21.839
340.29	22.625
340.65	22.222
341.02	22.985
341.38	24.091
341.74	21.953
342.11	22.767
342.47	23.352
342.83	22.866
343.20	22.486
343.56	22.935
343.92	23.539
344.28	22.266
344.65	23.256
345.01	22.387
345.37	22.084
345.73	21.044
346.10	22.465
346.46	23.339
346.82	22.697
347.19	23.224
347.55	22.458
347.91	22.585
348.27	22.382
348.63	23.458
349.00	21.477
349.36	23.048
349.72	21.503
350.08	22.883
350.45	22.662
350.81	22.398
351.17	23.534
351.53	23.275
351.89	22.475
352.26	22.313
352.62	23.507
352.98	22.519
353.34	21.957
353.70	22.034
354.07	23.174
354.43	23.235
354.79	22.289
355.15	22.001
355.51	23.026
355.87	22.588
356.24	21.673
356.60	22.616
356.96	22.906
357.32	22.528
357.68	22.694
358.04	21.557
358.40	22.910
358.77	22.880
359.13	22.452
359.49	22.602
359.85	22.190
360.21	22.669
360.57	20.675
360.93	22.426
361.29	23.158
361.66	23.027
362.02	23.034
362.38	22.277
362.74	23.603
363.10	21.939
363.46	22.507
363.82	23.011
364.18	23.364
364.54	22.960
364.90	22.742
365.26	23.517
365.62	24.000
365.98	23.349
366.35	23.020
366.71	22.857
367.07	23.275
367.43	23.900
367.79	23.159
368.15	24.816
368.51	24.222
368.87	22.012
369.23	22.400
369.59	23.087
369.95	22.245
370.31	23.295
370.67	23.040
371.03	22.922
371.39	22.633
371.75	22.834
372.11	23.442
372.47	23.494
372.83	22.644
373.19	23.549
373.55	23.916
373.91	22.699
374.27	23.545
374.63	22.936
374.99	22.414
375.35	23.182
375.71	22.645
376.07	23.241
376.42	22.733
376.78	23.493
377.14	23.581
377.50	23.213
377.86	23.153
378.22	23.413
378.58	23.424
378.94	22.946
379.30	22.613
379.66	23.692
380.02	23.254
380.38	23.906
380.74	22.873
381.09	23.461
381.45	23.523
381.81	24.415
382.17	23.812
382.53	23.216
382.89	23.138
383.25	23.095
383.61	23.437
383.97	23.734
384.32	23.923
384.68	22.680
385.04	23.597
385.40	23.630
385.76	24.209
386.12	22.681
386.48	23.176
386.83	23.600
387.19	22.480
387.55	22.887
387.91	22.603
388.27	23.326
388.62	22.050
388.98	22.279
389.34	22.510
389.70	22.777
390.06	22.676
390.42	23.012
390.77	22.998
391.13	22.594
391.49	23.188
391.85	22.182
392.20	21.945
392.56	22.682
392.92	22.901
393.28	22.554
393.64	22.514
393.99	23.417
394.35	23.657
394.71	22.455
395.07	21.677
395.42	22.559
395.78	23.827
396.14	22.341
396.50	21.437
396.85	23.196
397.21	22.130
397.57	22.438
397.92	22.509
398.28	21.130
398.64	22.368
399.00	21.832
399.35	22.408
399.71	21.848
400.07	21.449
400.42	21.944
400.78	22.049
401.14	22.026
401.49	22.513
401.85	22.209
402.21	21.900
402.57	22.711
402.92	21.336
403.28	20.667
403.63	21.301
403.99	21.793
404.35	21.092
404.70	21.190
405.06	21.467
405.42	21.370
405.77	21.810
406.13	21.556
406.49	20.833
406.84	22.105
407.20	21.241
407.55	20.775
407.91	20.805
408.27	20.377
408.62	21.582
408.98	21.474
409.34	19.941
409.69	20.334
410.05	21.043
410.40	21.114
410.76	21.032
411.11	20.923
411.47	20.823
411.83	20.694
412.18	21.867
412.54	22.347
412.89	21.246
413.25	21.614
413.60	21.310
413.96	21.270
414.31	20.963
414.67	20.871
415.03	20.923
415.38	20.429
415.74	20.831
416.09	21.345
416.45	20.288
416.80	21.114
417.16	21.009
417.51	21.233
417.87	21.521
418.22	22.216
418.58	21.004
418.93	21.478
419.29	22.195
419.64	20.948
420.00	21.662
420.35	21.336
420.71	21.022
421.06	21.679
421.42	21.502
421.77	21.809
422.12	22.304
422.48	20.891
422.83	21.851
423.19	21.114
423.54	22.069
423.90	21.977
424.25	21.867
424.61	21.470
424.96	22.021
425.31	21.815
425.67	21.310
426.02	21.915
426.38	22.675
426.73	21.484
427.09	22.145
427.44	21.518
427.79	21.559
428.15	21.632
428.50	21.461
428.85	21.470
429.21	22.766
429.56	21.372
429.92	22.310
430.27	22.024
430.62	22.667
430.98	21.938
431.33	22.287
431.68	22.414
432.04	22.397
432.39	22.496
432.74	22.317
433.10	22.769
433.45	22.074
433.80	21.674
434.16	22.882
434.51	23.073
434.86	23.670
435.22	23.167
435.57	23.939
435.92	23.372
436.28	24.118
436.63	23.758
436.98	23.188
437.34	23.450
437.69	22.895
438.04	23.109
438.39	23.262
438.75	23.464
439.10	24.577
439.45	23.924
439.81	22.938
440.16	23.861
440.51	24.136
440.86	23.068
441.22	24.544
441.57	23.166
441.92	24.394
442.27	24.394
442.63	24.044
442.98	25.400
443.33	23.882
443.68	24.727
444.03	25.400
444.39	24.272
444.74	25.574
445.09	24.886
445.44	25.184
445.79	25.431
446.15	25.231
446.50	24.238
446.85	25.778
447.20	25.048
447.55	25.575
447.91	24.607
448.26	25.581
448.61	25.717
448.96	25.483
449.31	24.867
449.66	24.946
450.02	24.578
450.37	25.093
450.72	25.888
451.07	25.683
451.42	26.285
451.77	24.903
452.12	26.185
452.47	25.371
452.83	26.070
453.18	25.219
453.53	24.641
453.88	25.124
454.23	25.763
454.58	25.653
454.93	25.243
455.28	26.309
455.63	25.583
455.98	25.140
456.34	24.794
456.69	25.044
457.04	25.532
457.39	24.889
457.74	26.174
458.09	25.700
458.44	26.401
458.79	24.910
459.14	25.590
459.49	26.316
459.84	26.285
460.19	25.541
460.54	26.405
460.89	25.728
461.24	25.172
461.59	26.397
461.94	24.586
462.29	26.484
462.64	25.528
462.99	25.800
463.34	26.866
463.69	25.322
464.04	25.681
464.39	25.841
464.74	25.314
465.09	26.009
465.44	25.536
465.79	25.912
466.14	25.899
466.49	24.947
466.84	26.061
467.19	25.665
467.54	25.558
467.89	25.747
468.24	25.762
468.59	24.609
468.94	25.000
469.29	25.255
469.64	24.539
469.99	25.558
470.34	25.804
470.68	26.999
471.03	26.195
471.38	25.180
471.73	25.228
472.08	26.015
472.43	25.768
472.78	26.385
473.13	25.221
473.48	26.344
473.83	25.653
474.17	24.560
474.52	25.075
474.87	24.806
475.22	25.915
475.57	24.714
475.92	25.684
476.27	25.293
476.61	24.974
476.96	25.182
477.31	25.495
477.66	26.390
478.01	25.013
478.36	24.875
478.70	25.271
479.05	25.716
479.40	26.160
479.75	25.985
480.10	24.964
480.45	25.342
480.79	25.805
481.14	24.954
481.49	24.898
481.84	25.631
482.19	25.462
482.53	25.186
482.88	25.786
483.23	25.478
483.58	24.803
483.92	25.798
484.27	25.529
484.62	24.257
484.97	25.078
485.31	24.252
485.66	24.359
486.01	23.361
486.36	23.894
486.70	24.759
487.05	25.000
487.40	24.750
487.75	24.580
488.09	24.429
488.44	24.106
488.79	25.295
489.13	24.511
489.48	24.466
489.83	24.105
490.17	24.180
490.52	24.097
490.87	25.085
491.22	24.350
491.56	24.744
491.91	23.986
492.26	25.011
492.60	23.830
492.95	24.221
493.30	24.160
493.64	24.047
493.99	24.430
494.34	24.172
494.68	24.111
495.03	24.846
495.37	25.433
495.72	24.172
496.07	23.839
496.41	23.338
496.76	24.604
497.11	23.652
497.45	23.738
497.80	24.656
498.14	24.082
498.49	24.219
498.84	24.132
499.18	24.426
499.53	24.350
499.87	24.835
500.22	23.865
500.56	23.302
500.91	24.211
501.26	24.727
501.60	23.288
501.95	23.578
502.29	23.914
502.64	24.355
502.98	23.253
503.33	23.844
503.67	23.114
504.02	23.818
504.36	23.816
504.71	22.554
505.06	23.511
505.40	23.492
505.75	24.226
506.09	24.125
506.44	23.584
506.78	23.486
507.13	23.559
507.47	23.591
507.82	24.006
508.16	23.709
508.51	23.301
508.85	22.910
509.19	22.975
509.54	23.103
509.88	22.924
510.23	24.235
510.57	23.538
510.92	23.125
511.26	23.232
511.61	21.729
511.95	23.231
512.30	23.141
512.64	23.488
512.98	23.712
513.33	22.732
513.67	23.049
514.02	23.352
514.36	22.916
514.70	22.448
515.05	22.263
515.39	23.202
515.74	23.701
516.08	22.610
516.42	23.077
516.77	23.344
517.11	22.280
517.46	22.641
517.80	23.677
518.14	23.449
518.49	22.939
518.83	22.938
519.17	22.348
519.52	22.379
519.86	23.020
520.20	23.110
520.55	22.946
520.89	22.748
521.23	22.111
521.58	22.599
521.92	22.493
522.26	22.509
522.61	22.512
522.95	22.261
523.29	21.494
523.64	21.917
523.98	21.962
524.32	22.407
524.66	22.482
525.01	21.461
525.35	21.827
525.69	21.578
526.04	21.240
526.38	22.126
526.72	21.453
527.06	21.994
527.41	20.875
527.75	22.090
528.09	22.019
528.43	22.262
528.78	20.925
529.12	21.158
529.46	20.686
529.80	21.682
530.15	20.986
530.49	21.352
530.83	21.547
531.17	21.386
531.51	20.277
531.86	21.755
532.20	22.195
532.54	20.467
532.88	20.303
533.22	21.037
533.57	20.716
533.91	21.044
534.25	21.255
534.59	20.172
534.93	20.091
535.27	20.676
535.62	21.205
535.96	20.279
536.30	20.035
536.64	20.781
536.98	21.033
537.32	21.173
537.66	20.337
538.01	19.758
538.35	20.524
538.69	19.471
539.03	21.214
539.37	20.436
539.71	20.180
540.05	20.144
540.39	19.804
540.73	19.915
541.07	20.233
541.42	19.728
541.76	19.870
542.10	19.361
542.44	19.184
542.78	19.404
543.12	20.083
543.46	19.109
543.80	18.106
544.14	19.150
544.48	19.149
544.82	19.808
545.16	18.664
545.50	19.173
545.84	19.290
546.18	20.123
546.52	18.854
546.86	19.308
547.20	19.720
547.54	19.101
547.88	19.108
548.22	19.591
548.56	18.783
548.90	18.746
549.24	18.906
549.58	18.423
549.92	18.240
550.26	20.518
550.60	19.847
550.94	19.082
551.28	18.812
551.62	18.666
551.96	19.417
552.30	19.312
552.64	18.855
552.98	18.777
553.32	19.228
553.66	18.521
554.00	18.979
554.34	18.018
554.68	18.012
555.02	19.054
555.36	19.001
555.69	18.001
556.03	18.159
556.37	19.212
556.71	18.072
557.05	19.105
557.39	17.651
557.73	18.428
558.07	18.212
558.41	18.538
558.75	19.608
559.08	19.137
559.42	18.656
559.76	18.928
560.10	18.419
560.44	18.668
560.78	18.375
561.12	17.672
561.45	18.370
561.79	17.949
562.13	18.484
562.47	17.571
562.81	18.608
563.15	18.687
563.48	16.905
563.82	17.836
564.16	17.929
564.50	17.282
564.84	17.227
565.17	18.000
565.51	17.146
565.85	18.468
566.19	17.339
566.52	17.496
566.86	17.035
567.20	16.857
567.54	16.038
567.88	17.329
568.21	17.095
568.55	16.451
568.89	16.704
569.23	17.026
569.56	15.866
569.90	15.895
570.24	16.425
570.57	15.940
570.91	15.738
571.25	15.997
571.59	16.226
571.92	15.832
572.26	15.881
572.60	15.725
572.93	15.836
573.27	15.847
573.61	15.299
573.95	15.538
574.28	15.253
574.62	15.143
574.96	14.667
575.29	14.651
575.63	15.385
575.97	15.162
576.30	15.248
576.64	15.032
576.98	15.103
577.31	14.980
577.65	14.961
577.98	14.928
578.32	14.782
578.66	14.380
578.99	14.991
579.33	15.251
579.67	15.073
580.00	14.745
580.34	15.227
580.67	14.938
581.01	15.037
581.35	15.235
581.68	14.942
582.02	14.707
582.35	14.864
582.69	14.882
583.02	14.708
583.36	15.239
583.70	15.224
584.03	14.903
584.37	14.885
584.70	14.841
585.04	14.950
585.37	14.605
585.71	14.973
586.04	14.663
586.38	14.926
586.72	14.365
587.05	14.505
587.39	14.859
587.72	14.665
588.06	15.087
588.39	15.011
588.73	14.868
589.06	14.588
589.40	15.120
589.73	14.942
590.07	14.854
590.40	15.348
590.73	15.341
591.07	15.264
591.40	15.008
591.74	14.944
592.07	14.616
592.41	14.235
592.74	15.051
593.08	15.159
593.41	14.786
593.75	14.454
594.08	15.056
594.41	14.679
594.75	14.812
595.08	14.738
595.42	14.481
595.75	14.304
596.09	14.876
596.42	14.690
596.75	15.477
597.09	14.869
597.42	14.740
597.75	14.347
598.09	14.444
598.42	14.877
598.76	14.100
599.09	14.311
599.42	13.946
599.76	13.701
600.09	14.548
600.42	14.014
600.76	14.069
601.09	14.139
601.42	13.732
601.76	14.310
602.09	14.189
602.42	13.959
602.76	14.391
603.09	13.950
603.42	14.379
603.76	14.200
604.09	14.585
604.42	14.385
604.76	13.661
605.09	14.120
605.42	14.195
605.75	14.077
606.09	14.334
606.42	13.864
606.75	14.130
607.09	13.249
607.42	14.258
607.75	14.224
608.08	14.325
608.42	13.624
608.75	14.262
609.08	13.837
609.41	13.983
609.75	13.839
610.08	14.204
610.41	13.891
610.74	13.697
611.07	13.854
611.41	14.350
611.74	13.995
612.07	14.353
612.40	13.736
612.73	14.328
613.07	13.888
613.40	14.389
613.73	13.481
614.06	13.788
614.39	13.751
614.72	13.197
615.06	12.993
615.39	12.615
615.72	13.507
616.05	14.522
616.38	13.724
616.71	13.793
617.05	13.419
617.38	14.714
617.71	13.607
618.04	13.869
618.37	14.426
618.70	14.932
619.03	13.620
619.36	13.132
619.69	13.645
620.03	13.497
620.36	13.313
620.69	13.572
621.02	14.239
621.35	13.861
621.68	14.027
622.01	13.950
622.34	13.459
622.67	14.158
623.00	12.348
623.33	13.935
623.66	13.813
623.99	12.508
624.32	13.905
624.65	13.192
624.99	13.459
625.32	14.370
625.65	13.958
625.98	13.424
626.31	12.899
626.64	13.407
626.97	13.203
627.30	12.301
627.63	13.128
627.96	13.288
628.29	14.475
628.62	13.434
628.95	13.322
629.28	13.424
629.61	13.552
629.94	12.469
630.26	12.881
630.59	12.781
630.92	12.208
631.25	13.775
631.58	13.653
631.91	11.715
632.24	12.680
632.57	13.852
632.90	13.139
633.23	13.673
633.56	13.469
633.89	12.810
634.22	13.617
634.55	13.048
634.88	12.554
635.20	13.994
635.53	13.672
635.86	13.218
636.19	14.422
636.52	14.346
636.85	12.972
637.18	13.721
637.51	13.333
637.83	13.178
638.16	13.018
638.49	14.202
638.82	13.416
639.15	13.631
639.48	14.088
639.81	13.626
640.13	14.723
640.46	13.091
640.79	12.500
641.12	13.416
641.45	13.425
641.77	15.276
642.10	12.992
642.43	13.830
642.76	13.821
643.09	12.466
643.41	13.585
643.74	13.517
644.07	14.621
644.40	11.457
644.73	13.062
645.05	12.775
645.38	12.374
645.71	13.636
646.04	13.917
646.36	12.263
646.69	12.883
647.02	12.844
647.35	13.740
647.67	13.527
648.00	14.172
648.33	12.763
648.66	13.409
648.98	12.925
649.31	11.231
649.64	11.952
649.96	12.599
650.29	12.239
650.62	13.296
650.94	11.111
651.27	11.976
651.60	13.304
651.92	12.766
652.25	12.301
652.58	12.655
652.90	10.029
653.23	13.239
653.56	11.127
653.88	13.062
654.21	13.662
654.54	12.283
654.86	12.181
655.19	11.292
655.52	12.211
655.84	10.319
656.17	12.291
656.49	17.443
656.82	19.420
657.15	15.269
657.47	11.873
657.80	8.473
658.13	6.709
658.45	8.888
658.78	10.901
659.10	10.843
659.43	10.652
659.75	10.863
660.08	10.084
660.41	10.422
660.73	10.718
661.06	11.601
661.38	13.397
661.71	13.793
662.03	13.933
662.36	13.953
662.68	11.632
663.01	12.212
663.33	13.989
663.66	13.736
663.98	13.077
664.31	14.071
664.63	10.983
664.96	12.886
665.28	9.619
665.61	11.888
665.93	12.321
666.26	12.545
666.58	11.439
666.91	12.150
667.23	10.476
667.56	13.807
667.88	13.400
668.21	11.133
668.53	10.425
668.86	12.181
669.18	10.183
669.50	11.332
669.83	10.400
670.15	12.008
670.48	12.103
670.80	10.707
671.13	11.342
671.45	11.417
671.77	10.734
672.10	10.833
672.42	11.812
672.75	13.057
673.07	11.343
673.39	8.166
673.72	11.074
674.04	12.414
674.37	10.376
674.69	12.346
675.01	11.238
675.34	8.779
675.66	11.049
675.98	11.007
676.31	13.477
676.63	14.639
676.95	11.686
677.28	9.073
677.60	8.465
677.92	10.173
678.25	12.980
678.57	12.811
678.89	13.311
679.22	9.059
679.54	10.427
679.86	10.000
680.18	10.448
680.51	10.377
680.83	10.802
681.15	10.000
681.48	11.572
681.80	12.435
682.12	9.965
682.44	12.688
682.77	10.461
683.09	11.174
683.41	11.822
683.73	10.436
684.06	10.517
684.38	10.376
684.70	9.695
685.02	11.360
685.34	10.316
685.67	9.621
685.99	9.049
686.31	8.140
686.63	11.374
686.96	10.410
687.28	9.283
687.60	9.091
687.92	8.682
688.24	10.851
688.56	11.207
688.89	11.615
689.21	10.763
689.53	9.020
689.85	9.270
690.17	9.074
690.49	10.558
690.82	11.287
691.14	7.287
691.46	10.516
691.78	12.707
692.10	8.624
692.42	10.000
692.74	9.800
693.06	5.556
693.39	12.524
693.71	9.023
694.03	10.223
694.35	10.286
694.67	10.472
694.99	11.489
695.31	10.375
695.63	8.225
695.95	12.422
696.27	10.330
696.59	12.389
696.91	9.234
697.23	10.989
697.56	7.739
697.88	8.902
698.20	8.286
698.52	13.068
698.84	11.642
699.16	11.020
699.48	9.205
699.80	10.851
700.12	10.044
700.44	8.065
700.76	7.838
701.08	12.833
701.40	10.881
701.72	11.692
702.04	11.230
702.36	8.639
702.68	9.535
703.00	7.824
703.32	7.635
703.64	11.247
703.96	10.501
704.28	9.582
704.60	11.139
704.91	10.459
705.23	10.137
705.55	9.749
705.87	6.667
706.19	11.350
706.51	6.024
706.83	6.052
707.15	11.111
707.47	8.879
707.79	6.987
708.11	8.898
708.43	7.957
708.74	6.696
709.06	9.281
709.38	11.972
709.70	12.903
710.02	10.594
710.34	9.043
710.66	7.821
710.98	8.743
711.29	5.220
711.61	8.475
711.93	7.407
712.25	11.351
712.57	11.209
712.89	9.706
713.20	11.538
713.52	9.827
713.84	11.978
714.16	11.053
714.48	7.474
714.80	14.805
715.11	7.612
715.43	6.897
715.75	10.789
716.07	7.182
716.39	10.656
716.70	8.133
717.02	7.213
717.34	6.969
717.66	9.396
717.97	8.219
718.29	8.935
718.61	7.237
718.93	7.767
719.24	7.764
719.56	7.975
719.88	7.508
720.20	6.774
720.51	7.143
720.83	11.563
721.15	9.539
721.46	6.164
721.78	7.667
722.10	11.974
722.42	6.376
722.73	7.097
723.05	9.123
723.37	7.986
723.68	13.262
724.00	7.581
724.32	10.211
724.63	9.790
724.95	9.929
725.27	12.892
725.58	9.541
725.90	10.345
726.22	8.777
726.53	7.468
726.85	8.176
727.16	11.480
727.48	11.621
727.80	9.272
728.11	4.240
728.43	9.764
728.74	9.699
729.06	8.940
729.38	8.766
729.69	6.040
730.01	9.524
730.32	4.242
730.64	6.604
730.96	5.280
731.27	10.894
731.59	8.791
731.90	7.532
732.22	9.635
732.53	6.354
732.85	7.429
733.16	8.504
733.48	8.232
733.80	9.192
734.11	8.262
734.43	9.459
734.74	10.380
735.06	6.533
735.37	7.297
735.69	9.459
736.00	7.627
736.32	11.051
736.63	7.500
736.95	7.471
737.26	11.212
737.58	5.758
737.89	11.176
738.21	5.810
738.52	7.869
738.83	7.850
739.15	5.674
739.46	8.503
739.78	11.656
740.09	7.450
740.41	9.329
740.72	5.000
741.04	9.385
741.35	11.228
741.66	10.196
741.98	11.066
742.29	6.276
742.61	9.649
742.92	9.615
743.23	10.469
743.55	9.690
743.86	6.800
744.18	3.719
744.49	6.751
744.80	8.642
745.12	5.907
745.43	9.756
745.74	6.466
746.06	8.051
746.37	8.439
746.68	13.821
747.00	5.000
747.31	8.155
747.62	10.000
747.94	4.858
748.25	6.024
748.56	4.898
748.88	6.410
749.19	8.621
749.50	3.030
749.82	9.237
750.13	9.609
750.44	5.000
750.75	7.077
751.07	8.000
751.38	6.309
751.69	7.668
752.01	5.178
752.32	8.170
752.63	9.184
752.94	5.882
753.26	1.859
753.57	9.259
753.88	4.869
754.19	8.360
754.51	9.325
754.82	5.788
755.13	12.131
755.44	7.509
755.75	4.276
756.07	8.657
756.38	5.660
756.69	6.024
757.00	5.817
757.31	6.011
757.63	4.348
757.94	5.869
758.25	7.901
758.56	5.882
758.87	8.182
759.18	6.133
759.50	11.048
759.81	5.602
760.12	6.469
760.43	10.417
760.74	7.143
761.05	6.250
761.36	4.578
761.67	8.376
761.99	7.838
762.30	6.098
762.61	5.941
762.92	7.090
763.23	6.742
763.54	5.755
763.85	9.622
764.16	9.091
764.47	7.394
764.78	6.709
765.10	9.677
765.41	8.718
765.72	7.143
766.03	7.345
766.34	5.643
766.65	4.530
766.96	4.382
767.27	7.373
767.58	4.975
767.89	10.577
768.20	3.286
768.51	8.796
768.82	6.426
769.13	6.439
769.44	2.692
769.75	9.025
770.06	7.692
770.37	13.386
770.68	4.255
770.99	3.644
771.30	10.000
771.61	3.802
771.92	4.444
772.23	4.858
772.54	3.704
772.85	13.364
773.16	6.667
773.47	8.466
773.78	4.324
774.09	3.409
774.39	11.000
774.70	8.743
775.01	6.098
775.32	2.941
775.63	9.202
775.94	-7.006
776.25	12.258
776.56	12.821
776.87	10.884
777.18	6.897
777.48	6.294
777.79	8.784
778.10	-2.206
778.41	4.861
778.72	6.207
779.03	4.938
779.34	7.879
779.65	5.699
779.95	7.778
780.26	2.273
780.57	10.968
780.88	12.319
781.19	9.677
781.50	12.353
781.80	13.978
782.11	4.762
782.42	6.061
782.73	4.790
783.04	6.704
783.34	6.061
783.65	2.614
783.96	6.832
784.27	4.167
784.57	8.609
784.88	5.714
785.19	0.000
785.50	7.874
785.81	2.256
786.11	9.231
786.42	2.878
786.73	7.914
787.04	9.023
787.34	2.459
787.65	5.600
787.96	5.970
788.26	11.888
788.57	11.189
788.88	3.947
789.19	6.536
789.49	6.164
789.80	3.546
790.11	5.512
790.41	12.500
790.72	7.627
791.03	-8.738
791.33	6.957
791.64	13.158
791.95	0.000
792.25	1.905
792.56	15.179
792.87	-6.250
793.17	8.036
793.48	0.000
793.79	-1.205
794.09	0.000
794.40	-5.505
794.70	8.163
795.01	3.247
795.32	6.849
795.62	7.042
795.93	1.515
796.23	9.836
796.54	2.679
796.85	4.255
797.15	-1.087
797.46	-2.740
797.76	-7.500
798.07	3.261
798.37	-8.247
798.68	0.000
798.99	12.644
799.29	3.371
799.60	7.447
799.90	4.819
800.21	-3.077
800.51	-4.478
800.82	-14.706
801.12	-5.479
801.43	-2.941
801.73	-13.559
802.04	1.515
802.34	-3.333
802.65	0.000
802.95	2.985
803.26	-3.390
803.56	5.479
803.87	4.286
804.17	9.589
804.48	-21.053
804.78	6.944
805.09	-17.241
805.39	27.027
805.70	-11.268
806.00	10.976
806.30	-3.614
806.61	5.479
806.91	8.654
807.22	12.222
807.52	-3.448
807.83	8.333
808.13	2.410
808.43	10.112
808.74	5.000
809.04	-20.588
809.35	10.667
809.65	-1.429
809.95	0.000
810.26	-21.053
810.56	6.897
810.86	13.235
811.17	3.509
811.47	-11.475
811.77	-28.889
812.08	-13.559
812.38	1.667
812.69	3.448
812.99	0.000
813.29	-12.821
813.59	2.000
813.90	-1.754
814.20	-5.455
814.50	28.169
814.81	8.974
815.11	11.475
815.41	5.970
815.72	10.345
816.02	7.143
816.32	31.111
816.62	13.636
816.93	6.667
817.23	3.704
817.53	4.255
817.84	28.571
818.14	-14.706
818.44	6.122
818.74	4.444
819.04	-17.949
819.35	-25.714
819.65	-50.000
819.95	7.547
820.25	0.000
820.56	4.762
820.86	-25.000
821.16	-15.385
821.46	-6.977
821.76	-8.000
822.07	12.500
822.37	-15.217
822.67	4.255
822.97	-8.108
823.27	7.500
823.57	10.204
823.88	26.667
824.18	7.500
824.48	-20.000
824.78	8.000
825.08	12.121
825.38	4.444
825.69	27.660
825.99	25.000
826.29	-8.571
826.59	-2.564
826.89	-20.930
827.19	-8.000
827.49	23.529
827.79	-4.167
828.09	-21.622
828.39	6.667
828.70	-2.439
829.00	-6.977
829.30	-25.000
829.60	11.765
829.90	4.348
830.20	-54.286
830.50	-10.345
830.80	-88.889
831.10	0.000
831.40	-11.765
831.70	-4.762
832.00	-12.903
832.30	-47.059
832.60	-29.167
832.90	-61.538
833.20	15.789
833.50	-35.000
833.80	-52.632
834.10	-90.476
834.40	30.556
834.70	31.250
835.00	-22.857
835.30	-11.765
835.60	-16.667
835.90	8.000
836.20	-54.545
836.50	-24.000
836.80	-3.030
837.10	-18.519
837.40	-29.630
837.70	-106.250
838.00	7.143
838.30	-21.739
838.60	10.345
838.90	-14.286
839.19	-60.870
839.49	-16.667
839.79	0.000
840.09	-75.000
840.39	15.000
840.69	0.000
840.99	-57.143
841.29	-20.000
841.59	21.053
841.88	7.692
842.18	0.000
842.48	-30.000
842.78	-40.000
843.08	-10.000
843.38	16.129
843.68	-33.333
843.97	8.824
844.27	-12.500
844.57	-31.579
844.87	-70.000
845.17	-26.667
845.47	4.762
845.76	-19.048
846.06	-166.667
846.36	-17.647
846.66	-3.846
846.96	0.000
847.25	41.176
847.55	4.348
847.85	-40.000
848.15	11.765
848.44	-45.455
848.74	4.762
849.04	-8.333
849.34	-25.000
849.63	0.000
849.93	350.000
850.23	46.667
850.53	26.923
850.82	-54.545
851.12	13.636
851.42	-63.636
851.71	100.000
852.01	-35.000
852.31	0.000
852.61	15.789
852.90	16.667
853.20	-27.778
853.50	-88.889
853.79	-38.095
854.09	-31.818
854.39	-108.333
854.68	9.677
854.98	-15.385
855.28	-5.556
855.57	7.143
855.87	-16.000
856.17	-9.091
856.46	33.333
856.76	5.556
857.05	-8.696
857.35	-4.167
857.65	-38.462
857.94	-19.048
858.24	14.815
858.53	13.043
858.83	0.000
859.13	-41.176
859.42	17.647
859.72	-28.571
860.01	-20.000
860.31	-22.222
860.60	50.000
860.90	13.333
861.20	-11.111
861.49	38.462
861.79	-26.667
862.08	-84.615
862.38	46.875
862.67	-23.529
862.97	-12.500
863.26	-88.889
863.56	0.000
863.85	-36.364
864.15	33.333
864.44	-66.667
864.74	92.857
865.03	12.500
865.33	-60.000
865.62	-6.452
865.92	22.727
866.21	0.000
866.51	0.000
866.80	-40.000
867.10	25.000
867.39	-91.667
867.69	700.000
867.98	42.857
868.27	52.941
868.57	-400.000
868.86	0.000
869.16	19.048
869.45	4.167
869.75	72.727
870.04	-42.857
870.33	8.333
870.63	-14.286
870.92	0.000
871.22	-150.000
871.51	-27.273
871.80	-633.333
872.10	0.000
>>>>>End Processed Spectral Data<<<<<
