SpectraSuite Data File
++++++++++++++++++++++++++++++++++++
Date: Thu May 14 16:24:33 PDT 2015
User: schluterlab
Dark Spectrum Present: Yes
Reference Spectrum Present: Yes
Number of Sampled Component Spectra: 1
Spectrometers: USB2E3373
Integration Time (usec): 3000 (USB2E3373)
Spectra Averaged: 3 (USB2E3373)
Boxcar Smoothing: 0 (USB2E3373)
Correct for Electrical Dark: No (USB2E3373)
Strobe/Lamp Enabled: No (USB2E3373)
Correct for Detector Non-linearity: No (USB2E3373)
Correct for Stray Light: No (USB2E3373)
Number of Pixels in Processed Spectrum: 2048
>>>>>Begin Processed Spectral Data<<<<<
178.53	0.000
178.91	128.571
179.29	-600.000
179.67	-500.000
180.04	142.857
180.42	90.000
180.80	120.000
181.18	-800.000
181.56	100.000
181.94	200.000
182.31	-150.000
182.69	100.000
183.07	100.000
183.45	-25.000
183.83	-50.000
184.20	-266.667
184.58	-100.000
184.96	0.000
185.34	-33.333
185.72	80.000
186.09	111.111
186.47	350.000
186.85	220.000
187.23	-55.556
187.61	-1000.000
187.98	40.000
188.36	325.000
188.74	-175.000
189.12	33.333
189.49	43.750
189.87	-112.500
190.25	11.111
190.63	-120.000
191.00	-111.111
191.38	0.000
191.76	-275.000
192.14	-133.333
192.51	350.000
192.89	50.000
193.27	0.000
193.65	-28.571
194.02	-1300.000
194.40	14.286
194.78	142.857
195.15	0.000
195.53	18.182
195.91	0.000
196.29	-25.000
196.66	7.692
197.04	-1400.000
197.42	0.000
197.79	-50.000
198.17	-37.500
198.55	-114.286
198.92	-11.111
199.30	-37.500
199.68	-81.818
200.05	-7.143
200.43	-300.000
200.81	171.429
201.18	0.000
201.56	144.444
201.94	0.000
202.31	200.000
202.69	-11.111
203.07	300.000
203.44	-33.333
203.82	-175.000
204.19	-16.667
204.57	-150.000
204.95	-137.500
205.32	-1600.000
205.70	75.000
206.08	116.667
206.45	-33.333
206.83	360.000
207.20	-83.333
207.58	-100.000
207.96	-116.667
208.33	100.000
208.71	-0.000
209.08	66.667
209.46	0.000
209.84	216.667
210.21	150.000
210.59	-150.000
210.96	466.667
211.34	125.000
211.71	-87.500
212.09	-700.000
212.46	0.000
212.84	850.000
213.22	-140.000
213.59	-200.000
213.97	30.000
214.34	-200.000
214.72	150.000
215.09	-200.000
215.47	0.000
215.84	-42.857
216.22	500.000
216.59	0.000
216.97	0.000
217.34	-100.000
217.72	-12.500
218.09	-175.000
218.47	-250.000
218.84	0.000
219.22	100.000
219.59	29.412
219.97	10.000
220.34	350.000
220.72	-44.444
221.09	15.385
221.47	-100.000
221.84	30.000
222.22	-57.143
222.59	0.000
222.97	12.500
223.34	-300.000
223.72	-700.000
224.09	-125.000
224.46	-200.000
224.84	140.000
225.21	-100.000
225.59	-350.000
225.96	-325.000
226.34	-15.385
226.71	166.667
227.08	-150.000
227.46	-33.333
227.83	100.000
228.21	52.632
228.58	62.500
228.95	400.000
229.33	75.000
229.70	-20.000
230.08	78.947
230.45	130.000
230.82	-166.667
231.20	21.429
231.57	75.000
231.95	-18.182
232.32	0.000
232.69	25.000
233.07	-225.000
233.44	-11.765
233.81	0.000
234.19	50.000
234.56	22.727
234.93	48.276
235.31	52.632
235.68	-16.667
236.05	-15.000
236.43	26.923
236.80	60.000
237.17	51.852
237.55	36.364
237.92	60.000
238.29	9.677
238.67	25.000
239.04	58.333
239.41	14.286
239.79	34.783
240.16	24.074
240.53	30.435
240.91	9.804
241.28	13.115
241.65	38.806
242.02	40.541
242.40	21.538
242.77	21.333
243.14	29.268
243.51	25.000
243.89	15.385
244.26	29.703
244.63	31.373
245.00	28.037
245.38	32.456
245.75	27.434
246.12	33.333
246.49	26.357
246.87	35.000
247.24	31.126
247.61	30.263
247.98	34.228
248.36	29.630
248.73	31.288
249.10	27.869
249.47	33.333
249.84	39.267
250.22	29.016
250.59	33.889
250.96	35.909
251.33	33.163
251.70	32.906
252.08	31.667
252.45	31.557
252.82	32.231
253.19	30.859
253.56	31.179
253.94	23.846
254.31	33.712
254.68	35.664
255.05	36.156
255.42	32.653
255.79	28.479
256.16	33.113
256.54	29.801
256.91	34.426
257.28	33.443
257.65	33.439
258.02	31.268
258.39	31.624
258.76	34.557
259.14	37.644
259.51	33.429
259.88	32.861
260.25	35.278
260.62	36.164
260.99	33.333
261.36	31.903
261.73	34.748
262.10	33.242
262.47	36.729
262.85	36.616
263.22	32.727
263.59	34.737
263.96	31.714
264.33	32.737
264.70	33.827
265.07	35.322
265.44	34.694
265.81	31.713
266.18	34.014
266.55	35.268
266.92	33.713
267.29	33.260
267.66	31.264
268.03	33.188
268.40	31.315
268.77	34.169
269.14	33.921
269.51	31.579
269.88	34.836
270.25	34.004
270.62	34.177
270.99	35.556
271.36	31.089
271.73	32.417
272.10	32.465
272.47	35.872
272.84	30.522
273.21	28.657
273.58	32.863
273.95	32.308
274.32	34.791
274.69	29.981
275.06	32.784
275.43	29.205
275.80	31.393
276.17	31.481
276.54	30.784
276.91	30.054
277.28	31.465
277.65	31.239
278.02	31.066
278.39	31.341
278.76	33.040
279.13	32.092
279.50	32.131
279.87	30.769
280.23	31.162
280.60	32.203
280.97	32.401
281.34	32.598
281.71	31.303
282.08	31.063
282.45	30.769
282.82	29.827
283.19	28.756
283.56	29.180
283.92	31.231
284.29	30.016
284.66	31.527
285.03	27.244
285.40	32.457
285.77	29.721
286.14	30.382
286.51	31.202
286.87	27.962
287.24	29.970
287.61	30.045
287.98	28.399
288.35	30.178
288.72	28.846
289.08	31.918
289.45	27.959
289.82	28.916
290.19	26.293
290.56	29.859
290.93	26.534
291.29	27.273
291.66	27.410
292.03	27.137
292.40	27.891
292.77	27.628
293.13	25.710
293.50	25.887
293.87	26.443
294.24	27.600
294.60	26.043
294.97	25.638
295.34	27.657
295.71	24.338
296.08	24.935
296.44	25.245
296.81	24.848
297.18	24.035
297.55	24.410
297.91	23.843
298.28	25.474
298.65	23.068
299.02	23.731
299.38	23.799
299.75	25.000
300.12	22.801
300.48	23.272
300.85	23.960
301.22	23.602
301.59	22.603
301.95	21.695
302.32	23.333
302.69	22.673
303.05	22.742
303.42	22.616
303.79	21.250
304.15	22.713
304.52	22.093
304.89	21.990
305.25	21.429
305.62	22.884
305.99	22.990
306.35	22.278
306.72	23.268
307.09	23.350
307.45	21.739
307.82	21.695
308.19	21.493
308.55	21.986
308.92	22.103
309.29	20.881
309.65	22.417
310.02	20.594
310.38	21.161
310.75	21.748
311.12	20.805
311.48	22.092
311.85	21.937
312.22	21.157
312.58	21.690
312.95	21.224
313.31	22.493
313.68	22.070
314.05	21.500
314.41	22.313
314.78	21.617
315.14	21.234
315.51	21.330
315.87	20.792
316.24	21.553
316.61	22.558
316.97	20.271
317.34	21.252
317.70	21.048
318.07	21.605
318.43	21.344
318.80	21.405
319.16	19.742
319.53	20.480
319.89	20.771
320.26	22.242
320.62	20.124
320.99	20.499
321.35	20.425
321.72	22.140
322.08	20.198
322.45	20.958
322.81	20.668
323.18	20.885
323.54	21.466
323.91	21.263
324.27	20.568
324.64	21.914
325.00	21.061
325.37	21.458
325.73	20.744
326.10	21.573
326.46	21.743
326.83	21.457
327.19	21.654
327.56	21.581
327.92	20.928
328.29	20.726
328.65	20.519
329.01	20.305
329.38	21.483
329.74	21.147
330.11	21.404
330.47	21.146
330.84	20.844
331.20	22.083
331.56	22.010
331.93	21.088
332.29	20.678
332.66	20.764
333.02	20.017
333.38	20.805
333.75	20.034
334.11	21.351
334.48	20.792
334.84	21.580
335.20	20.319
335.57	20.573
335.93	19.835
336.29	19.967
336.66	20.353
337.02	20.569
337.38	19.898
337.75	19.835
338.11	19.596
338.47	20.347
338.84	20.305
339.20	20.303
339.56	19.687
339.93	20.115
340.29	19.404
340.65	21.492
341.02	19.952
341.38	20.453
341.74	19.855
342.11	20.113
342.47	20.095
342.83	20.129
343.20	20.360
343.56	19.166
343.92	19.616
344.28	20.312
344.65	20.310
345.01	19.735
345.37	20.062
345.73	19.408
346.10	19.189
346.46	19.699
346.82	20.225
347.19	19.251
347.55	20.486
347.91	19.985
348.27	19.954
348.63	19.878
349.00	17.599
349.36	19.257
349.72	18.229
350.08	19.762
350.45	18.555
350.81	19.457
351.17	19.398
351.53	20.318
351.89	19.514
352.26	19.328
352.62	18.358
352.98	19.313
353.34	17.924
353.70	19.337
354.07	18.480
354.43	18.907
354.79	18.998
355.15	19.500
355.51	19.518
355.87	18.474
356.24	18.403
356.60	18.477
356.96	18.606
357.32	18.885
357.68	19.034
358.04	18.114
358.40	19.552
358.77	19.152
359.13	18.833
359.49	17.770
359.85	18.347
360.21	18.938
360.57	17.947
360.93	17.772
361.29	19.860
361.66	17.813
362.02	18.093
362.38	17.779
362.74	17.947
363.10	18.432
363.46	18.283
363.82	18.324
364.18	17.664
364.54	19.986
364.90	18.997
365.26	17.931
365.62	18.267
365.98	18.993
366.35	18.926
366.71	19.320
367.07	18.200
367.43	17.991
367.79	18.779
368.15	18.997
368.51	17.930
368.87	18.485
369.23	18.000
369.59	18.101
369.95	18.391
370.31	17.353
370.67	18.569
371.03	18.421
371.39	17.931
371.75	18.363
372.11	18.293
372.47	17.874
372.83	18.586
373.19	18.212
373.55	18.293
373.91	17.587
374.27	17.723
374.63	17.185
374.99	17.905
375.35	17.208
375.71	18.000
376.07	17.753
376.42	16.940
376.78	18.334
377.14	17.592
377.50	16.762
377.86	18.658
378.22	17.246
378.58	18.193
378.94	18.016
379.30	17.926
379.66	17.872
380.02	17.773
380.38	17.569
380.74	18.704
381.09	16.899
381.45	18.011
381.81	18.326
382.17	18.468
382.53	17.953
382.89	17.946
383.25	17.702
383.61	16.898
383.97	17.668
384.32	16.926
384.68	17.691
385.04	18.103
385.40	18.091
385.76	17.937
386.12	17.175
386.48	17.235
386.83	18.534
387.19	17.671
387.55	17.312
387.91	16.381
388.27	17.841
388.62	17.068
388.98	16.356
389.34	17.207
389.70	17.432
390.06	18.117
390.42	17.048
390.77	18.122
391.13	16.843
391.49	17.995
391.85	17.333
392.20	16.785
392.56	18.074
392.92	17.448
393.28	17.523
393.64	17.095
393.99	17.432
394.35	17.932
394.71	18.263
395.07	16.886
395.42	17.362
395.78	17.428
396.14	17.350
396.50	17.043
396.85	17.174
397.21	17.337
397.57	17.432
397.92	17.468
398.28	16.024
398.64	17.277
399.00	17.225
399.35	17.330
399.71	16.576
400.07	17.238
400.42	17.986
400.78	16.725
401.14	17.530
401.49	17.055
401.85	17.267
402.21	17.729
402.57	17.430
402.92	17.317
403.28	16.276
403.63	17.064
403.99	16.568
404.35	17.112
404.70	17.564
405.06	18.261
405.42	16.979
405.77	17.612
406.13	16.532
406.49	17.117
406.84	17.341
407.20	17.160
407.55	16.596
407.91	17.599
408.27	17.373
408.62	16.812
408.98	17.005
409.34	16.129
409.69	17.491
410.05	17.526
410.40	17.459
410.76	17.835
411.11	17.884
411.47	17.199
411.83	17.460
412.18	17.831
412.54	16.598
412.89	17.113
413.25	17.438
413.60	17.002
413.96	17.483
414.31	17.564
414.67	18.068
415.03	16.369
415.38	17.528
415.74	16.799
416.09	18.260
416.45	17.470
416.80	17.931
417.16	17.178
417.51	17.870
417.87	16.186
418.22	16.108
418.58	16.791
418.93	18.102
419.29	16.276
419.64	16.927
420.00	16.736
420.35	16.564
420.71	17.059
421.06	16.676
421.42	17.718
421.77	16.640
422.12	17.442
422.48	16.846
422.83	18.072
423.19	17.560
423.54	16.427
423.90	17.118
424.25	17.493
424.61	16.590
424.96	17.298
425.31	17.463
425.67	17.177
426.02	16.436
426.38	16.935
426.73	16.797
427.09	18.108
427.44	16.221
427.79	17.523
428.15	17.066
428.50	16.685
428.85	16.648
429.21	17.660
429.56	17.275
429.92	16.658
430.27	16.627
430.62	16.512
430.98	17.068
431.33	17.498
431.68	16.619
432.04	16.861
432.39	17.140
432.74	17.694
433.10	17.307
433.45	16.388
433.80	16.899
434.16	17.614
434.51	17.112
434.86	17.372
435.22	17.109
435.57	17.158
435.92	17.028
436.28	16.951
436.63	17.258
436.98	16.371
437.34	17.136
437.69	16.676
438.04	16.658
438.39	17.461
438.75	17.211
439.10	17.653
439.45	16.657
439.81	17.119
440.16	16.944
440.51	17.447
440.86	16.231
441.22	16.559
441.57	17.034
441.92	16.780
442.27	17.323
442.63	17.089
442.98	17.876
443.33	16.991
443.68	17.542
444.03	18.203
444.39	17.568
444.74	17.917
445.09	17.081
445.44	16.965
445.79	17.481
446.15	17.575
446.50	17.313
446.85	17.607
447.20	17.215
447.55	16.998
447.91	17.277
448.26	17.072
448.61	17.003
448.96	17.650
449.31	17.656
449.66	16.340
450.02	17.880
450.37	16.462
450.72	17.169
451.07	16.856
451.42	16.349
451.77	16.620
452.12	17.833
452.47	16.934
452.83	18.243
453.18	16.404
453.53	16.715
453.88	16.952
454.23	17.458
454.58	17.470
454.93	16.687
455.28	16.857
455.63	16.941
455.98	17.318
456.34	17.020
456.69	16.520
457.04	17.317
457.39	17.018
457.74	17.394
458.09	16.365
458.44	17.511
458.79	16.606
459.14	16.728
459.49	17.204
459.84	18.258
460.19	16.602
460.54	17.660
460.89	17.417
461.24	17.184
461.59	17.377
461.94	16.372
462.29	17.413
462.64	16.777
462.99	16.196
463.34	17.456
463.69	16.764
464.04	17.676
464.39	16.872
464.74	17.161
465.09	17.301
465.44	17.060
465.79	17.663
466.14	18.134
466.49	17.158
466.84	17.521
467.19	16.705
467.54	16.157
467.89	17.241
468.24	17.618
468.59	16.387
468.94	16.608
469.29	16.317
469.64	17.483
469.99	16.507
470.34	16.646
470.68	16.336
471.03	16.241
471.38	16.481
471.73	15.995
472.08	16.878
472.43	17.459
472.78	17.443
473.13	16.877
473.48	16.918
473.83	17.063
474.17	16.413
474.52	15.875
474.87	17.110
475.22	16.507
475.57	17.082
475.92	16.028
476.27	16.986
476.61	16.667
476.96	16.423
477.31	17.772
477.66	17.261
478.01	16.624
478.36	16.600
478.70	17.044
479.05	16.360
479.40	16.782
479.75	16.955
480.10	17.101
480.45	16.454
480.79	17.234
481.14	16.222
481.49	16.356
481.84	17.145
482.19	16.645
482.53	17.490
482.88	17.590
483.23	16.719
483.58	17.074
483.92	16.933
484.27	16.850
484.62	16.543
484.97	16.991
485.31	16.227
485.66	17.013
486.01	16.399
486.36	17.098
486.70	17.469
487.05	17.452
487.40	17.599
487.75	18.117
488.09	17.470
488.44	16.584
488.79	17.707
489.13	17.343
489.48	16.816
489.83	16.539
490.17	16.606
490.52	16.461
490.87	16.751
491.22	16.594
491.56	17.235
491.91	17.401
492.26	17.265
492.60	17.184
492.95	16.498
493.30	17.257
493.64	16.294
493.99	16.316
494.34	16.071
494.68	16.317
495.03	16.916
495.37	16.733
495.72	15.964
496.07	16.608
496.41	16.946
496.76	16.597
497.11	16.263
497.45	16.012
497.80	16.704
498.14	16.553
498.49	17.096
498.84	16.819
499.18	16.689
499.53	17.848
499.87	16.615
500.22	16.028
500.56	16.194
500.91	16.384
501.26	17.000
501.60	16.792
501.95	17.108
502.29	16.455
502.64	17.009
502.98	16.393
503.33	16.717
503.67	15.962
504.02	16.287
504.36	17.248
504.71	16.077
505.06	15.825
505.40	15.996
505.75	16.485
506.09	17.035
506.44	16.713
506.78	17.202
507.13	16.874
507.47	17.006
507.82	16.714
508.16	16.205
508.51	16.362
508.85	16.391
509.19	17.054
509.54	16.907
509.88	16.999
510.23	17.339
510.57	16.868
510.92	16.497
511.26	16.162
511.61	15.983
511.95	17.082
512.30	17.085
512.64	15.842
512.98	16.258
513.33	16.633
513.67	16.318
514.02	17.016
514.36	16.624
514.70	16.979
515.05	16.840
515.39	16.430
515.74	16.278
516.08	16.429
516.42	16.797
516.77	16.877
517.11	16.245
517.46	16.384
517.80	16.889
518.14	17.029
518.49	16.594
518.83	15.966
519.17	16.047
519.52	16.143
519.86	16.473
520.20	16.613
520.55	16.375
520.89	16.610
521.23	15.913
521.58	16.836
521.92	16.997
522.26	16.838
522.61	16.898
522.95	16.840
523.29	16.839
523.64	16.984
523.98	16.771
524.32	17.364
524.66	16.847
525.01	15.798
525.35	15.796
525.69	16.415
526.04	15.327
526.38	15.747
526.72	17.705
527.06	16.774
527.41	16.268
527.75	17.340
528.09	17.001
528.43	15.335
528.78	15.434
529.12	16.628
529.46	16.639
529.80	17.277
530.15	16.232
530.49	16.489
530.83	16.411
531.17	16.010
531.51	17.088
531.86	17.067
532.20	16.951
532.54	16.996
532.88	16.364
533.22	16.205
533.57	16.849
533.91	17.003
534.25	16.620
534.59	16.609
534.93	16.129
535.27	16.676
535.62	16.487
535.96	17.722
536.30	16.392
536.64	16.637
536.98	16.913
537.32	16.914
537.66	16.906
538.01	16.556
538.35	17.540
538.69	16.647
539.03	17.106
539.37	16.961
539.71	16.577
540.05	16.247
540.39	16.504
540.73	16.758
541.07	16.493
541.42	16.302
541.76	16.548
542.10	17.189
542.44	16.322
542.78	17.397
543.12	16.210
543.46	16.850
543.80	16.247
544.14	16.756
544.48	17.258
544.82	16.816
545.16	15.981
545.50	17.316
545.84	16.534
546.18	17.346
546.52	15.414
546.86	16.981
547.20	16.412
547.54	15.605
547.88	16.335
548.22	15.789
548.56	16.559
548.90	16.836
549.24	17.143
549.58	16.845
549.92	16.518
550.26	16.570
550.60	16.273
550.94	17.335
551.28	15.644
551.62	17.925
551.96	17.087
552.30	16.699
552.64	16.864
552.98	17.155
553.32	16.270
553.66	16.334
554.00	17.024
554.34	16.216
554.68	16.527
555.02	17.346
555.36	16.897
555.69	15.951
556.03	16.583
556.37	16.270
556.71	16.614
557.05	16.741
557.39	16.058
557.73	16.513
558.07	15.563
558.41	16.611
558.75	16.295
559.08	16.841
559.42	16.392
559.76	16.893
560.10	16.678
560.44	17.084
560.78	17.188
561.12	17.734
561.45	16.423
561.79	15.568
562.13	17.067
562.47	16.153
562.81	16.013
563.15	16.477
563.48	17.154
563.82	16.868
564.16	15.869
564.50	16.567
564.84	16.519
565.17	16.412
565.51	16.571
565.85	15.974
566.19	16.014
566.52	16.501
566.86	16.808
567.20	16.204
567.54	16.463
567.88	17.278
568.21	16.354
568.55	16.787
568.89	16.568
569.23	17.153
569.56	17.194
569.90	16.679
570.24	16.965
570.57	16.742
570.91	16.779
571.25	17.096
571.59	17.089
571.92	16.791
572.26	16.755
572.60	16.899
572.93	17.256
573.27	16.774
573.61	17.125
573.95	17.577
574.28	16.959
574.62	17.349
574.96	16.895
575.29	16.854
575.63	17.002
575.97	17.174
576.30	17.098
576.64	17.180
576.98	17.039
577.31	17.324
577.65	17.313
577.98	17.282
578.32	17.044
578.66	17.094
578.99	17.039
579.33	16.763
579.67	17.090
580.00	16.745
580.34	17.234
580.67	16.659
581.01	16.962
581.35	17.086
581.68	16.983
582.02	17.199
582.35	17.461
582.69	17.106
583.02	17.006
583.36	17.252
583.70	17.428
584.03	17.447
584.37	17.230
584.70	16.993
585.04	16.996
585.37	17.101
585.71	17.152
586.04	16.821
586.38	16.945
586.72	16.671
587.05	16.679
587.39	17.203
587.72	16.866
588.06	17.843
588.39	17.127
588.73	17.011
589.06	17.353
589.40	17.148
589.73	17.320
590.07	17.507
590.40	17.647
590.73	16.614
591.07	17.647
591.40	17.068
591.74	17.091
592.07	17.580
592.41	16.640
592.74	17.288
593.08	17.006
593.41	17.323
593.75	17.069
594.08	17.389
594.41	17.115
594.75	16.971
595.08	16.992
595.42	17.143
595.75	16.887
596.09	16.910
596.42	16.553
596.75	17.213
597.09	17.293
597.42	16.448
597.75	16.543
598.09	17.262
598.42	17.853
598.76	16.737
599.09	16.554
599.42	16.192
599.76	16.408
600.09	16.783
600.42	16.316
600.76	16.314
601.09	17.159
601.42	16.341
601.76	16.828
602.09	17.048
602.42	16.394
602.76	17.085
603.09	16.557
603.42	16.799
603.76	16.244
604.09	17.495
604.42	17.284
604.76	16.248
605.09	16.195
605.42	16.427
605.75	16.731
606.09	16.387
606.42	16.344
606.75	15.967
607.09	16.436
607.42	16.647
607.75	16.803
608.08	16.259
608.42	16.526
608.75	16.459
609.08	16.299
609.41	17.292
609.75	16.696
610.08	16.667
610.41	16.653
610.74	16.261
611.07	16.519
611.41	16.368
611.74	17.367
612.07	16.830
612.40	16.207
612.73	16.968
613.07	16.675
613.40	16.410
613.73	16.418
614.06	16.340
614.39	16.569
614.72	16.351
615.06	16.266
615.39	16.095
615.72	16.540
616.05	16.756
616.38	16.599
616.71	16.510
617.05	16.187
617.38	16.426
617.71	16.145
618.04	16.730
618.37	16.557
618.70	16.233
619.03	15.651
619.36	16.400
619.69	16.015
620.03	16.761
620.36	16.871
620.69	16.286
621.02	16.535
621.35	17.344
621.68	16.052
622.01	16.441
622.34	15.900
622.67	16.151
623.00	15.520
623.33	15.727
623.66	17.704
623.99	16.853
624.32	17.219
624.65	15.380
624.99	16.450
625.32	17.048
625.65	16.925
625.98	15.525
626.31	16.513
626.64	16.190
626.97	16.504
627.30	14.730
627.63	16.429
627.96	16.291
628.29	16.420
628.62	15.701
628.95	15.162
629.28	15.378
629.61	16.667
629.94	15.732
630.26	16.610
630.59	14.767
630.92	14.719
631.25	16.816
631.58	16.290
631.91	15.464
632.24	15.274
632.57	15.370
632.90	16.550
633.23	15.306
633.56	15.408
633.89	14.463
634.22	17.360
634.55	15.658
634.88	15.043
635.20	16.792
635.53	16.384
635.86	15.385
636.19	17.073
636.52	16.034
636.85	16.139
637.18	14.969
637.51	15.699
637.83	15.725
638.16	14.977
638.49	16.197
638.82	15.220
639.15	14.548
639.48	16.282
639.81	14.781
640.13	15.548
640.46	13.697
640.79	14.951
641.12	15.528
641.45	14.680
641.77	17.458
642.10	14.829
642.43	15.824
642.76	16.531
643.09	15.205
643.41	13.305
643.74	14.759
644.07	14.621
644.40	15.700
644.73	14.514
645.05	14.978
645.38	15.971
645.71	13.343
646.04	15.638
646.36	14.891
646.69	15.491
647.02	16.972
647.35	16.031
647.67	16.103
648.00	12.739
648.33	15.616
648.66	15.692
648.98	16.871
649.31	15.968
649.64	16.999
649.96	15.252
650.29	13.352
650.62	15.134
650.94	14.865
651.27	14.072
651.60	14.327
651.92	15.502
652.25	16.498
652.58	15.956
652.90	15.407
653.23	16.338
653.56	14.693
653.88	15.590
654.21	16.056
654.54	16.040
654.86	17.564
655.19	14.555
655.52	16.760
655.84	16.497
656.17	19.578
656.49	28.325
656.82	31.238
657.15	24.690
657.47	18.641
657.80	13.944
658.13	10.779
658.45	14.463
658.78	17.562
659.10	17.002
659.43	16.607
659.75	17.187
660.08	15.406
660.41	16.543
660.73	14.709
661.06	12.922
661.38	15.630
661.71	14.310
662.03	16.226
662.36	18.247
662.68	14.071
663.01	14.867
663.33	15.501
663.66	15.751
663.98	15.769
664.31	16.510
664.63	13.487
664.96	14.338
665.28	11.615
665.61	16.608
665.93	12.679
666.26	15.771
666.58	13.653
666.91	16.449
667.23	14.667
667.56	15.976
667.88	15.000
668.21	14.648
668.53	13.514
668.86	13.556
669.18	14.257
669.50	15.308
669.83	14.400
670.15	13.780
670.48	17.262
670.80	15.296
671.13	14.745
671.45	16.142
671.77	16.761
672.10	13.167
672.42	15.534
672.75	12.750
673.07	14.925
673.39	14.946
673.72	15.604
674.04	17.586
674.37	14.311
674.69	18.166
675.01	13.524
675.34	15.076
675.66	15.169
675.98	15.299
676.31	14.453
676.63	16.920
676.95	16.092
677.28	14.516
677.60	11.024
677.92	14.779
678.25	16.453
678.57	14.057
678.89	17.065
679.22	13.763
679.54	14.530
679.86	12.881
680.18	14.760
680.51	16.038
680.83	17.512
681.15	13.966
681.48	17.617
681.80	14.680
682.12	15.734
682.44	15.359
682.77	14.894
683.09	15.341
683.41	13.760
683.73	15.939
684.06	15.314
684.38	14.848
684.70	14.901
685.02	14.286
685.34	14.809
685.67	14.038
685.99	14.417
686.31	13.372
686.63	14.692
686.96	14.826
687.28	15.961
687.60	13.468
687.92	14.309
688.24	16.027
688.56	14.310
688.89	15.789
689.21	16.634
689.53	12.745
689.85	14.596
690.17	14.259
690.49	16.733
690.82	14.257
691.14	14.170
691.46	15.870
691.78	15.838
692.10	15.596
692.42	14.464
692.74	15.064
693.06	12.593
693.39	15.180
693.71	13.346
694.03	15.985
694.35	13.333
694.67	14.784
694.99	14.255
695.31	12.804
695.63	16.667
695.95	15.114
696.27	13.626
696.59	15.929
696.91	15.315
697.23	16.923
697.56	13.442
697.88	14.583
698.20	13.371
698.52	14.773
698.84	15.593
699.16	16.531
699.48	15.063
699.80	15.957
700.12	15.284
700.44	12.442
700.76	14.489
701.08	13.801
701.40	16.321
701.72	15.423
702.04	16.845
702.36	9.948
702.68	15.892
703.00	12.225
703.32	12.808
703.64	15.159
703.96	15.990
704.28	12.285
704.60	13.924
704.91	18.622
705.23	12.329
705.55	13.370
705.87	14.242
706.19	14.110
706.51	10.542
706.83	15.274
707.15	14.021
707.47	15.187
707.79	13.537
708.11	13.559
708.43	10.968
708.74	14.063
709.06	16.009
709.38	14.085
709.70	15.633
710.02	13.178
710.34	16.489
710.66	14.804
710.98	15.847
711.29	13.187
711.61	14.689
711.93	13.105
712.25	14.324
712.57	14.454
712.89	17.647
713.20	12.130
713.52	13.873
713.84	13.928
714.16	16.579
714.48	15.206
714.80	15.065
715.11	13.911
715.43	13.793
715.75	14.211
716.07	13.812
716.39	15.301
716.70	11.747
717.02	14.426
717.34	12.195
717.66	13.087
717.97	9.932
718.29	12.371
718.61	16.447
718.93	16.505
719.24	15.839
719.56	13.190
719.88	13.814
720.20	15.161
720.51	13.665
720.83	11.875
721.15	15.789
721.46	13.014
721.78	10.333
722.10	12.621
722.42	12.081
722.73	14.516
723.05	15.088
723.37	16.319
723.68	14.337
724.00	14.440
724.32	13.732
724.63	16.434
724.95	17.021
725.27	11.150
725.58	10.247
725.90	17.586
726.22	14.420
726.53	12.987
726.85	13.522
727.16	15.106
727.48	17.431
727.80	15.232
728.11	10.601
728.43	16.162
728.74	14.716
729.06	11.589
729.38	14.935
729.69	15.101
730.01	16.071
730.32	14.242
730.64	16.352
730.96	11.801
731.27	15.642
731.59	17.308
731.90	10.909
732.22	13.021
732.53	14.917
732.85	12.857
733.16	18.768
733.48	12.500
733.80	13.649
734.11	13.105
734.43	15.405
734.74	18.228
735.06	14.573
735.37	13.784
735.69	13.784
736.00	12.429
736.32	14.555
736.63	15.000
736.95	17.816
737.26	13.939
737.58	14.242
737.89	15.294
738.21	11.621
738.52	12.131
738.83	16.382
739.15	10.993
739.46	16.327
739.78	17.178
740.09	13.181
740.41	13.994
740.72	16.000
741.04	14.239
741.35	15.088
741.66	14.118
741.98	17.623
742.29	15.481
742.61	11.842
742.92	12.692
743.23	16.606
743.55	15.116
743.86	17.200
744.18	10.331
744.49	7.173
744.80	14.403
745.12	14.346
745.43	19.106
745.74	13.362
746.06	17.797
746.37	15.190
746.68	15.854
747.00	14.167
747.31	13.734
747.62	16.154
747.94	12.146
748.25	10.843
748.56	12.653
748.88	16.239
749.19	17.672
749.50	14.719
749.82	14.056
750.13	17.082
750.44	10.333
750.75	13.846
751.07	14.462
751.38	15.142
751.69	14.696
752.01	13.916
752.32	13.399
752.63	11.565
752.94	15.571
753.26	13.011
753.57	11.481
753.88	13.109
754.19	18.006
754.51	11.897
754.82	12.540
755.13	18.361
755.44	15.017
755.75	15.132
756.07	16.716
756.38	11.635
756.69	17.771
757.00	11.357
757.31	13.661
757.63	12.020
757.94	13.615
758.25	15.801
758.56	13.943
758.87	15.227
759.18	12.800
759.50	18.130
759.81	17.087
760.12	15.903
760.43	13.802
760.74	18.227
761.05	14.500
761.36	13.494
761.67	12.437
761.99	14.054
762.30	15.854
762.61	12.541
762.92	14.925
763.23	18.352
763.54	15.468
763.85	14.089
764.16	15.825
764.47	14.085
764.78	14.377
765.10	15.543
765.41	15.897
765.72	14.286
766.03	14.689
766.34	8.777
766.65	10.105
766.96	10.359
767.27	15.207
767.58	13.930
767.89	18.269
768.20	14.085
768.51	12.037
768.82	14.458
769.13	14.773
769.44	10.769
769.75	13.718
770.06	14.615
770.37	18.504
770.68	6.809
770.99	12.551
771.30	18.519
771.61	14.829
771.92	16.296
772.23	15.789
772.54	11.111
772.85	19.355
773.16	15.714
773.47	12.698
773.78	11.351
774.09	14.773
774.39	19.000
774.70	12.568
775.01	13.415
775.32	11.176
775.63	12.883
775.94	4.459
776.25	10.968
776.56	17.949
776.87	15.646
777.18	16.552
777.48	13.986
777.79	14.189
778.10	10.294
778.41	15.278
778.72	13.793
779.03	11.111
779.34	9.091
779.65	15.544
779.95	12.222
780.26	17.045
780.57	15.484
780.88	18.841
781.19	20.645
781.50	18.235
781.80	13.978
782.11	10.053
782.42	14.141
782.73	10.180
783.04	16.760
783.34	10.909
783.65	5.882
783.96	14.907
784.27	11.310
784.57	14.570
784.88	15.000
785.19	10.236
785.50	18.110
785.81	20.301
786.11	10.769
786.42	7.914
786.73	7.194
787.04	13.534
787.34	7.377
787.65	8.800
787.96	14.179
788.26	17.483
788.57	23.077
788.88	13.158
789.19	20.915
789.49	8.904
789.80	17.730
790.11	11.811
790.41	8.594
790.72	11.017
791.03	4.854
791.33	15.652
791.64	14.035
791.95	11.607
792.25	10.476
792.56	19.643
792.87	6.250
793.17	16.071
793.48	13.542
793.79	-7.229
794.09	0.917
794.40	15.596
794.70	16.327
795.01	8.442
795.32	12.329
795.62	10.563
795.93	11.364
796.23	22.131
796.54	15.179
796.85	2.128
797.15	-9.783
797.46	1.370
797.76	5.000
798.07	16.304
798.37	4.124
798.68	7.792
798.99	10.345
799.29	20.225
799.60	12.766
799.90	12.048
800.21	6.154
800.51	0.000
800.82	-8.824
801.12	-8.219
801.43	0.000
801.73	5.085
802.04	15.152
802.34	-18.333
802.65	1.695
802.95	20.896
803.26	-5.085
803.56	9.589
803.87	-1.429
804.17	23.288
804.48	-5.263
804.78	12.500
805.09	-12.069
805.39	8.108
805.70	7.042
806.00	12.195
806.30	8.434
806.61	-2.740
806.91	21.154
807.22	16.667
807.52	-4.598
807.83	23.611
808.13	19.277
808.43	14.607
808.74	12.500
809.04	7.353
809.35	6.667
809.65	8.571
809.95	8.219
810.26	22.807
810.56	15.517
810.86	7.353
811.17	19.298
811.47	-14.754
811.77	-11.111
812.08	1.695
812.38	15.000
812.69	15.517
812.99	0.000
813.29	-20.513
813.59	12.000
813.90	19.298
814.20	14.545
814.50	26.761
814.81	15.385
815.11	11.475
815.41	19.403
815.72	41.379
816.02	12.500
816.32	6.667
816.62	-9.091
816.93	-13.333
817.23	18.519
817.53	10.638
817.84	19.048
818.14	-8.824
818.44	14.286
818.74	17.778
819.04	-33.333
819.35	5.714
819.65	-15.385
819.95	-3.774
820.25	11.111
820.56	19.048
820.86	21.875
821.16	2.564
821.46	6.977
821.76	-8.000
822.07	21.429
822.37	-2.174
822.67	10.638
822.97	-21.622
823.27	10.000
823.57	28.571
823.88	22.222
824.18	17.500
824.48	3.333
824.78	-4.000
825.08	-9.091
825.38	20.000
825.69	12.766
825.99	30.556
826.29	-42.857
826.59	-5.128
826.89	-9.302
827.19	-8.000
827.49	0.000
827.79	12.500
828.09	-8.108
828.39	-30.000
828.70	-17.073
829.00	9.302
829.30	-46.429
829.60	11.765
829.90	8.696
830.20	20.000
830.50	-27.586
830.80	5.556
831.10	0.000
831.40	-23.529
831.70	0.000
832.00	6.452
832.30	-82.353
832.60	-20.833
832.90	-130.769
833.20	-10.526
833.50	-70.000
833.80	5.263
834.10	-33.333
834.40	-2.778
834.70	34.375
835.00	-5.714
835.30	8.824
835.60	-20.000
835.90	-8.000
836.20	-40.909
836.50	16.000
836.80	-9.091
837.10	18.519
837.40	-11.111
837.70	-68.750
838.00	14.286
838.30	-47.826
838.60	31.034
838.90	21.429
839.19	-65.217
839.49	-125.000
839.79	0.000
840.09	-43.750
840.39	0.000
840.69	-25.806
840.99	-28.571
841.29	-20.000
841.59	26.316
841.88	43.590
842.18	-38.462
842.48	-100.000
842.78	5.000
843.08	46.667
843.38	45.161
843.68	-22.222
843.97	2.941
844.27	-43.750
844.57	-36.842
844.87	-30.000
845.17	-6.667
845.47	38.095
845.76	-52.381
846.06	-77.778
846.36	-47.059
846.66	11.538
846.96	-40.000
847.25	17.647
847.55	39.130
847.85	0.000
848.15	0.000
848.44	-118.182
848.74	0.000
849.04	-16.667
849.34	-56.250
849.63	26.087
849.93	850.000
850.23	-26.667
850.53	46.154
850.82	9.091
851.12	4.545
851.42	-27.273
851.71	0.000
852.01	-5.000
852.31	-15.385
852.61	-63.158
852.90	16.667
853.20	-5.556
853.50	-122.222
853.79	-52.381
854.09	-27.273
854.39	-83.333
854.68	-9.677
854.98	7.692
855.28	-11.111
855.57	-28.571
855.87	8.000
856.17	-27.273
856.46	3.704
856.76	-66.667
857.05	-30.435
857.35	-16.667
857.65	-53.846
857.94	-28.571
858.24	22.222
858.53	26.087
858.83	47.059
859.13	-11.765
859.42	35.294
859.72	21.429
860.01	0.000
860.31	11.111
860.60	-10.000
860.90	-53.333
861.20	-5.556
861.49	7.692
861.79	-20.000
862.08	-84.615
862.38	12.500
862.67	11.765
862.97	-6.250
863.26	-100.000
863.56	60.000
863.85	-72.727
864.15	-5.556
864.44	-400.000
864.74	-21.429
865.03	0.000
865.33	-90.000
865.62	12.903
865.92	9.091
866.21	-21.739
866.51	-35.714
866.80	-260.000
867.10	-33.333
867.39	-8.333
867.69	1500.000
867.98	-14.286
868.27	-11.765
868.57	-1900.000
868.86	-110.000
869.16	-38.095
869.45	12.500
869.75	72.727
870.04	28.571
870.33	0.000
870.63	-157.143
870.92	25.000
871.22	-375.000
871.51	9.091
871.80	-666.667
872.10	-500.000
>>>>>End Processed Spectral Data<<<<<
