SpectraSuite Data File
++++++++++++++++++++++++++++++++++++
Date: Thu May 14 16:26:30 PDT 2015
User: schluterlab
Dark Spectrum Present: Yes
Reference Spectrum Present: Yes
Number of Sampled Component Spectra: 1
Spectrometers: USB2E3373
Integration Time (usec): 3000 (USB2E3373)
Spectra Averaged: 3 (USB2E3373)
Boxcar Smoothing: 0 (USB2E3373)
Correct for Electrical Dark: No (USB2E3373)
Strobe/Lamp Enabled: No (USB2E3373)
Correct for Detector Non-linearity: No (USB2E3373)
Correct for Stray Light: No (USB2E3373)
Number of Pixels in Processed Spectrum: 2048
>>>>>Begin Processed Spectral Data<<<<<
178.53	0.000
178.91	42.857
179.29	-1700.000
179.67	-1700.000
180.04	85.714
180.42	-0.000
180.80	80.000
181.18	-100.000
181.56	400.000
181.94	175.000
182.31	0.000
182.69	66.667
183.07	-150.000
183.45	175.000
183.83	-100.000
184.20	233.333
184.58	500.000
184.96	-300.000
185.34	88.889
185.72	160.000
186.09	33.333
186.47	-350.000
186.85	220.000
187.23	-200.000
187.61	-800.000
187.98	40.000
188.36	-0.000
188.74	50.000
189.12	0.000
189.49	18.750
189.87	-87.500
190.25	-44.444
190.63	80.000
191.00	44.444
191.38	0.000
191.76	-275.000
192.14	-183.333
192.51	350.000
192.89	-33.333
193.27	0.000
193.65	-14.286
194.02	-700.000
194.40	-100.000
194.78	85.714
195.15	0.000
195.53	36.364
195.91	0.000
196.29	-50.000
196.66	0.000
197.04	-100.000
197.42	-14.286
197.79	0.000
198.17	-12.500
198.55	-14.286
198.92	77.778
199.30	-87.500
199.68	54.545
200.05	-21.429
200.43	-300.000
200.81	171.429
201.18	0.000
201.56	22.222
201.94	0.000
202.31	-0.000
202.69	-100.000
203.07	100.000
203.44	22.222
203.82	25.000
204.19	-50.000
204.57	-33.333
204.95	12.500
205.32	-600.000
205.70	75.000
206.08	0.000
206.45	83.333
206.83	200.000
207.20	50.000
207.58	-200.000
207.96	-100.000
208.33	116.667
208.71	83.333
209.08	50.000
209.46	0.000
209.84	133.333
210.21	250.000
210.59	100.000
210.96	200.000
211.34	0.000
211.71	-50.000
212.09	-1200.000
212.46	0.000
212.84	150.000
213.22	-80.000
213.59	-50.000
213.97	0.000
214.34	0.000
214.72	16.667
215.09	-200.000
215.47	0.000
215.84	-0.000
216.22	150.000
216.59	-120.000
216.97	-60.000
217.34	-100.000
217.72	37.500
218.09	-100.000
218.47	-25.000
218.84	0.000
219.22	20.000
219.59	29.412
219.97	0.000
220.34	200.000
220.72	-88.889
221.09	53.846
221.47	-366.667
221.84	70.000
222.22	-114.286
222.59	0.000
222.97	50.000
223.34	-220.000
223.72	-800.000
224.09	-275.000
224.46	-275.000
224.84	220.000
225.21	-57.143
225.59	-175.000
225.96	-175.000
226.34	-3.846
226.71	116.667
227.08	-350.000
227.46	86.667
227.83	50.000
228.21	36.842
228.58	-12.500
228.95	200.000
229.33	8.333
229.70	20.000
230.08	15.789
230.45	20.000
230.82	33.333
231.20	-28.571
231.57	41.667
231.95	-72.727
232.32	9.091
232.69	0.000
233.07	-25.000
233.44	23.529
233.81	-30.000
234.19	27.778
234.56	0.000
234.93	34.483
235.31	-5.263
235.68	27.778
236.05	-20.000
236.43	38.462
236.80	84.000
237.17	18.519
237.55	33.333
237.92	-50.000
238.29	-16.129
238.67	13.636
239.04	8.333
239.41	21.429
239.79	10.870
240.16	7.407
240.53	17.391
240.91	11.765
241.28	14.754
241.65	13.433
242.02	21.622
242.40	15.385
242.77	13.333
243.14	9.756
243.51	-5.263
243.89	-3.846
244.26	13.861
244.63	13.725
245.00	14.953
245.38	5.263
245.75	-4.425
246.12	16.667
246.49	6.202
246.87	12.143
247.24	11.921
247.61	13.158
247.98	11.409
248.36	14.198
248.73	1.840
249.10	10.383
249.47	11.443
249.84	17.277
250.22	13.472
250.59	11.111
250.96	11.818
251.33	10.204
251.70	10.256
252.08	11.667
252.45	13.525
252.82	9.504
253.19	9.766
253.56	9.125
253.94	11.923
254.31	13.636
254.68	14.336
255.05	10.749
255.42	13.946
255.79	13.269
256.16	10.596
256.54	10.265
256.91	13.115
257.28	9.508
257.65	10.510
258.02	7.375
258.39	9.402
258.76	13.761
259.14	13.793
259.51	9.510
259.88	11.048
260.25	11.389
260.62	13.973
260.99	15.027
261.36	14.209
261.73	10.080
262.10	9.890
262.47	10.188
262.85	16.667
263.22	10.649
263.59	8.158
263.96	13.555
264.33	11.253
264.70	11.111
265.07	14.558
265.44	12.925
265.81	11.574
266.18	10.431
266.55	12.723
266.92	11.617
267.29	15.536
267.66	12.639
268.03	12.009
268.40	9.812
268.77	9.567
269.14	9.912
269.51	10.088
269.88	13.115
270.25	15.895
270.62	13.080
270.99	13.131
271.36	11.881
271.73	14.342
272.10	11.222
272.47	12.625
272.84	11.847
273.21	12.224
273.58	11.895
273.95	10.962
274.32	11.787
274.69	11.412
275.06	11.172
275.43	9.982
275.80	13.757
276.17	10.185
276.54	12.313
276.91	10.912
277.28	13.382
277.65	13.645
278.02	11.949
278.39	11.775
278.76	11.775
279.13	11.879
279.50	12.543
279.87	13.238
280.23	9.507
280.60	12.373
280.97	13.487
281.34	12.903
281.71	13.875
282.08	11.296
282.45	11.948
282.82	9.890
283.19	11.147
283.56	11.475
283.92	13.363
284.29	12.480
284.66	13.136
285.03	9.135
285.40	11.747
285.77	11.300
286.14	11.756
286.51	12.329
286.87	12.796
287.24	10.693
287.61	11.360
287.98	11.480
288.35	11.391
288.72	11.391
289.08	12.006
289.45	10.059
289.82	10.542
290.19	10.920
290.56	10.986
290.93	13.124
291.29	11.019
291.66	9.642
292.03	10.448
292.40	11.020
292.77	10.108
293.13	12.179
293.50	9.987
293.87	9.396
294.24	11.067
294.60	9.608
294.97	8.456
295.34	10.499
295.71	9.584
296.08	8.786
296.44	8.701
296.81	9.866
297.18	9.091
297.55	9.670
297.91	8.304
298.28	8.886
298.65	9.512
299.02	9.209
299.38	9.840
299.75	8.995
300.12	8.333
300.48	10.023
300.85	9.111
301.22	9.732
301.59	8.562
301.95	8.814
302.32	8.778
302.69	8.981
303.05	10.120
303.42	9.091
303.79	9.688
304.15	8.623
304.52	9.302
304.89	10.262
305.25	9.006
305.62	9.300
305.99	10.309
306.35	8.266
306.72	8.893
307.09	9.239
307.45	8.903
307.82	8.375
308.19	8.981
308.55	9.643
308.92	9.056
309.29	10.345
309.65	7.992
310.02	9.604
310.38	9.055
310.75	9.029
311.12	11.122
311.48	9.482
311.85	10.161
312.22	9.867
312.58	8.732
312.95	9.273
313.31	10.117
313.68	11.172
314.05	10.388
314.41	11.293
314.78	11.807
315.14	12.160
315.51	12.373
315.87	11.701
316.24	10.685
316.61	12.078
316.97	11.131
317.34	11.905
317.70	11.790
318.07	12.169
318.43	12.840
318.80	13.378
319.16	12.704
319.53	12.596
319.89	12.358
320.26	13.256
320.62	13.387
320.99	14.035
321.35	15.065
321.72	14.884
322.08	14.968
322.45	15.176
322.81	15.072
323.18	16.195
323.54	16.810
323.91	16.815
324.27	16.179
324.64	18.304
325.00	17.081
325.37	17.117
325.73	19.256
326.10	18.816
326.46	18.404
326.83	20.256
327.19	18.031
327.56	20.553
327.92	19.670
328.29	19.355
328.65	20.938
329.01	20.474
329.38	21.735
329.74	23.202
330.11	22.432
330.47	22.409
330.84	21.447
331.20	22.583
331.56	23.050
331.93	22.594
332.29	23.136
332.66	24.336
333.02	22.864
333.38	23.154
333.75	22.811
334.11	22.269
334.48	24.835
334.84	22.940
335.20	23.762
335.57	23.609
335.93	23.471
336.29	23.544
336.66	24.979
337.02	24.666
337.38	24.575
337.75	23.636
338.11	24.558
338.47	24.566
338.84	25.888
339.20	23.757
339.56	24.382
339.93	23.153
340.29	23.510
340.65	24.331
341.02	24.421
341.38	25.061
341.74	24.778
342.11	25.181
342.47	25.417
342.83	25.362
343.20	25.593
343.56	24.940
343.92	25.140
344.28	25.312
344.65	26.512
345.01	25.741
345.37	26.128
345.73	25.175
346.10	25.819
346.46	26.028
346.82	25.693
347.19	25.668
347.55	26.480
347.91	25.632
348.27	26.404
348.63	26.352
349.00	26.995
349.36	26.840
349.72	25.893
350.08	26.895
350.45	26.616
350.81	27.149
351.17	26.316
351.53	27.672
351.89	27.790
352.26	27.090
352.62	27.910
352.98	27.252
353.34	26.662
353.70	26.579
354.07	27.645
354.43	27.563
354.79	27.375
355.15	27.447
355.51	28.143
355.87	27.375
356.24	28.061
356.60	27.347
356.96	28.614
357.32	27.658
357.68	27.599
358.04	27.994
358.40	28.507
358.77	29.459
359.13	28.213
359.49	27.732
359.85	28.064
360.21	28.479
360.57	27.566
360.93	29.690
361.29	29.965
361.66	29.689
362.02	29.715
362.38	28.602
362.74	29.330
363.10	28.955
363.46	30.194
363.82	29.048
364.18	30.471
364.54	29.322
364.90	30.569
365.26	29.793
365.62	30.667
365.98	30.565
366.35	30.805
366.71	30.816
367.07	30.853
367.43	32.108
367.79	30.723
368.15	30.569
368.51	30.853
368.87	31.221
369.23	30.867
369.59	30.669
369.95	31.170
370.31	32.275
370.67	31.018
371.03	32.271
371.39	31.565
371.75	32.531
372.11	31.233
372.47	31.550
372.83	32.330
373.19	30.754
373.55	31.640
373.91	31.629
374.27	31.436
374.63	32.815
374.99	31.499
375.35	33.117
375.71	32.194
376.07	32.795
376.42	31.864
376.78	33.313
377.14	31.815
377.50	33.144
377.86	33.436
378.22	32.874
378.58	34.245
378.94	33.568
379.30	32.982
379.66	32.804
380.02	33.526
380.38	33.525
380.74	32.676
381.09	33.740
381.45	33.068
381.81	34.719
382.17	33.729
382.53	33.977
382.89	34.086
383.25	34.642
383.61	34.144
383.97	34.335
384.32	33.911
384.68	34.339
385.04	34.760
385.40	35.887
385.76	35.698
386.12	34.710
386.48	34.941
386.83	35.638
387.19	34.820
387.55	34.742
387.91	35.103
388.27	35.681
388.62	34.536
388.98	35.025
389.34	35.474
389.70	36.607
390.06	34.813
390.42	34.940
390.77	35.581
391.13	35.681
391.49	37.017
391.85	36.485
392.20	35.884
392.56	35.794
392.92	35.224
393.28	35.931
393.64	35.810
393.99	35.967
394.35	36.040
394.71	36.108
395.07	35.269
395.42	35.066
395.78	36.502
396.14	36.720
396.50	34.976
396.85	35.659
397.21	36.568
397.57	35.571
397.92	36.426
398.28	35.090
398.64	34.325
399.00	35.026
399.35	36.073
399.71	35.815
400.07	37.451
400.42	35.914
400.78	36.169
401.14	36.653
401.49	36.555
401.85	35.407
402.21	35.168
402.57	37.089
402.92	36.170
403.28	35.948
403.63	37.232
403.99	35.392
404.35	35.134
404.70	35.411
405.06	35.815
405.42	36.593
405.77	35.605
406.13	35.224
406.49	34.966
406.84	35.125
407.20	36.836
407.55	35.736
407.91	35.764
408.27	35.689
408.62	36.591
408.98	36.854
409.34	36.129
409.69	36.712
410.05	36.108
410.40	36.427
410.76	35.951
411.11	36.879
411.47	36.548
411.83	36.214
412.18	36.084
412.54	35.566
412.89	35.797
413.25	35.666
413.60	35.554
413.96	35.606
414.31	35.184
414.67	34.764
415.03	35.385
415.38	36.003
415.74	35.797
416.09	35.780
416.45	34.753
416.80	36.353
417.16	34.547
417.51	35.679
417.87	35.071
418.22	35.150
418.58	35.192
418.93	35.565
419.29	35.943
419.64	35.714
420.00	36.024
420.35	35.710
420.71	35.497
421.06	34.215
421.42	34.748
421.77	34.464
422.12	34.831
422.48	35.535
422.83	35.652
423.19	35.862
423.54	35.509
423.90	34.346
424.25	35.733
424.61	35.649
424.96	35.255
425.31	35.563
425.67	35.373
426.02	35.916
426.38	34.041
426.73	35.100
427.09	35.006
427.44	35.281
427.79	34.660
428.15	35.046
428.50	33.652
428.85	34.328
429.21	34.521
429.56	34.798
429.92	34.742
430.27	34.554
430.62	34.294
430.98	34.284
431.33	33.675
431.68	33.190
432.04	35.399
432.39	34.869
432.74	34.418
433.10	34.559
433.45	34.783
433.80	34.120
434.16	34.194
434.51	34.635
434.86	35.233
435.22	34.325
435.57	34.316
435.92	34.836
436.28	34.812
436.63	34.571
436.98	34.461
437.34	34.667
437.69	34.342
438.04	34.056
438.39	32.625
438.75	33.315
439.10	34.302
439.45	33.371
439.81	32.712
440.16	33.405
440.51	33.779
440.86	33.519
441.22	34.137
441.57	35.115
441.92	33.560
442.27	33.737
442.63	32.986
442.98	33.671
443.33	33.614
443.68	33.350
444.03	33.584
444.39	34.027
444.74	33.078
445.09	32.387
445.44	33.562
445.79	33.046
446.15	33.916
446.50	33.230
446.85	32.928
447.20	33.897
447.55	33.159
447.91	32.094
448.26	33.034
448.61	33.050
448.96	33.798
449.31	32.344
449.66	32.734
450.02	32.120
450.37	33.298
450.72	32.831
451.07	32.688
451.42	31.774
451.77	32.740
452.12	33.521
452.47	32.442
452.83	33.446
453.18	31.699
453.53	32.108
453.88	32.082
454.23	32.486
454.58	34.068
454.93	32.282
455.28	32.330
455.63	31.950
455.98	31.844
456.34	31.508
456.69	31.981
457.04	32.033
457.39	31.375
457.74	32.942
458.09	30.917
458.44	31.681
458.79	30.583
459.14	31.201
459.49	31.466
459.84	31.427
460.19	30.705
460.54	31.516
460.89	30.916
461.24	30.575
461.59	30.769
461.94	30.462
462.29	31.131
462.64	31.020
462.99	31.450
463.34	31.473
463.69	29.953
464.04	31.073
464.39	30.830
464.74	30.559
465.09	30.161
465.44	30.901
465.79	29.878
466.14	29.234
466.49	29.526
466.84	30.744
467.19	29.942
467.54	29.201
467.89	28.218
468.24	29.917
468.59	29.357
468.94	29.138
469.29	28.974
469.64	28.926
469.99	29.509
470.34	29.394
470.68	29.665
471.03	29.928
471.38	29.693
471.73	28.804
472.08	29.442
472.43	29.862
472.78	28.967
473.13	28.192
473.48	28.157
473.83	29.541
474.17	29.777
474.52	29.104
474.87	28.571
475.22	28.958
475.57	28.349
475.92	28.571
476.27	28.168
476.61	27.830
476.96	27.842
477.31	28.564
477.66	28.594
478.01	28.216
478.36	27.468
478.70	27.980
479.05	27.607
479.40	27.690
479.75	28.050
480.10	26.859
480.45	27.165
480.79	26.939
481.14	27.022
481.49	26.988
481.84	27.415
482.19	26.409
482.53	26.585
482.88	27.514
483.23	26.234
483.58	26.201
483.92	26.152
484.27	25.953
484.62	25.990
484.97	25.933
485.31	25.836
485.66	24.332
486.01	23.601
486.36	23.726
486.70	24.647
487.05	24.980
487.40	24.983
487.75	25.369
488.09	25.387
488.44	24.538
488.79	25.295
489.13	24.801
489.48	25.359
489.83	25.513
490.17	25.030
490.52	24.959
490.87	24.873
491.22	24.957
491.56	25.384
491.91	24.945
492.26	25.444
492.60	25.317
492.95	25.362
493.30	24.832
493.64	24.836
493.99	25.000
494.34	24.172
494.68	24.497
495.03	24.229
495.37	25.122
495.72	24.354
496.07	24.540
496.41	23.938
496.76	24.687
497.11	24.331
497.45	24.212
497.80	25.011
498.14	23.764
498.49	24.586
498.84	24.269
499.18	24.112
499.53	23.722
499.87	23.780
500.22	23.108
500.56	22.717
500.91	23.890
501.26	23.591
501.60	23.155
501.95	24.056
502.29	22.861
502.64	23.612
502.98	22.821
503.33	22.203
503.67	22.460
504.02	23.380
504.36	22.922
504.71	22.692
505.06	22.510
505.40	23.355
505.75	22.723
506.09	22.238
506.44	22.841
506.78	22.936
507.13	22.361
507.47	23.117
507.82	22.680
508.16	22.419
508.51	21.660
508.85	22.674
509.19	22.596
509.54	22.526
509.88	22.632
510.23	22.778
510.57	22.523
510.92	22.351
511.26	22.222
511.61	21.294
511.95	21.962
512.30	22.403
512.64	21.439
512.98	22.111
513.33	21.220
513.67	21.163
514.02	22.330
514.36	21.381
514.70	21.875
515.05	22.054
515.39	21.522
515.74	22.163
516.08	21.712
516.42	22.606
516.77	21.819
517.11	21.248
517.46	21.527
517.80	22.181
518.14	22.144
518.49	21.692
518.83	21.714
519.17	21.271
519.52	21.069
519.86	21.119
520.20	21.778
520.55	20.920
520.89	20.721
521.23	21.608
521.58	22.373
521.92	21.586
522.26	19.759
522.61	20.486
522.95	21.280
523.29	21.322
523.64	20.908
523.98	20.936
524.32	21.662
524.66	21.628
525.01	20.668
525.35	20.965
525.69	20.128
526.04	20.723
526.38	21.839
526.72	21.050
527.06	20.938
527.41	20.758
527.75	21.081
528.09	20.779
528.43	20.545
528.78	19.942
529.12	20.642
529.46	19.786
529.80	20.938
530.15	20.638
530.49	20.403
530.83	20.307
531.17	20.311
531.51	21.300
531.86	21.094
532.20	20.610
532.54	19.390
532.88	20.061
533.22	20.389
533.57	19.388
533.91	20.090
534.25	19.842
534.59	20.460
534.93	19.072
535.27	19.155
535.62	19.670
535.96	19.117
536.30	19.683
536.64	20.541
536.98	20.357
537.32	20.741
537.66	19.900
538.01	19.094
538.35	18.331
538.69	18.750
539.03	19.804
539.37	18.905
539.71	19.520
540.05	19.604
540.39	18.826
540.73	18.883
541.07	19.375
541.42	18.606
541.76	17.912
542.10	19.783
542.44	18.088
542.78	19.221
543.12	19.368
543.46	18.803
543.80	19.185
544.14	18.552
544.48	18.144
544.82	19.509
545.16	18.605
545.50	18.454
545.84	18.126
546.18	20.062
546.52	18.599
546.86	18.994
547.20	19.020
547.54	18.165
547.88	17.963
548.22	18.187
548.56	18.256
548.90	17.313
549.24	18.723
549.58	18.297
549.92	17.730
550.26	18.382
550.60	18.315
550.94	18.176
551.28	17.624
551.62	19.205
551.96	17.476
552.30	18.164
552.64	18.046
552.98	17.342
553.32	19.164
553.66	18.199
554.00	17.907
554.34	18.726
554.68	17.301
555.02	18.068
555.36	19.001
555.69	16.848
556.03	17.465
556.37	18.210
556.71	17.819
557.05	17.508
557.39	17.651
557.73	17.834
558.07	17.417
558.41	18.272
558.75	17.782
559.08	18.024
559.42	17.147
559.76	17.164
560.10	17.749
560.44	17.414
560.78	17.813
561.12	16.687
561.45	17.640
561.79	17.155
562.13	17.375
562.47	16.769
562.81	16.962
563.15	16.982
563.48	17.526
563.82	17.231
564.16	16.778
564.50	16.687
564.84	17.345
565.17	17.824
565.51	16.456
565.85	17.874
566.19	16.475
566.52	16.618
566.86	17.091
567.20	16.313
567.54	16.091
567.88	16.361
568.21	17.342
568.55	15.923
568.89	15.797
569.23	16.139
569.56	15.475
569.90	15.217
570.24	15.143
570.57	14.561
570.91	14.666
571.25	14.984
571.59	15.001
571.92	14.925
572.26	14.770
572.60	14.879
572.93	14.695
573.27	14.414
573.61	14.558
573.95	14.470
574.28	14.389
574.62	13.734
574.96	13.476
575.29	14.166
575.63	14.230
575.97	14.563
576.30	14.212
576.64	13.744
576.98	14.032
577.31	14.148
577.65	14.259
577.98	13.742
578.32	13.697
578.66	13.475
578.99	13.926
579.33	14.006
579.67	14.098
580.00	13.913
580.34	14.005
580.67	14.011
581.01	13.998
581.35	13.735
581.68	13.611
582.02	13.664
582.35	13.515
582.69	13.667
583.02	13.941
583.36	13.843
583.70	13.656
584.03	13.799
584.37	13.848
584.70	13.667
585.04	13.578
585.37	13.389
585.71	13.635
586.04	13.298
586.38	13.626
586.72	13.537
587.05	13.661
587.39	13.837
587.72	13.756
588.06	13.515
588.39	13.916
588.73	13.836
589.06	13.826
589.40	13.798
589.73	14.075
590.07	13.893
590.40	14.841
590.73	13.963
591.07	14.669
591.40	13.919
591.74	14.388
592.07	13.845
592.41	13.841
592.74	13.667
593.08	13.790
593.41	14.027
593.75	13.764
594.08	13.814
594.41	13.846
594.75	13.982
595.08	13.795
595.42	13.961
595.75	14.078
596.09	14.232
596.42	13.830
596.75	13.856
597.09	14.949
597.42	14.144
597.75	14.151
598.09	13.849
598.42	14.998
598.76	13.565
599.09	13.208
599.42	13.141
599.76	13.437
600.09	13.714
600.42	13.714
600.76	13.573
601.09	13.209
601.42	13.526
601.76	13.897
602.09	13.831
602.42	13.704
602.76	13.247
603.09	13.767
603.42	13.584
603.76	13.249
604.09	14.053
604.42	13.688
604.76	13.280
605.09	13.921
605.42	13.876
605.75	13.692
606.09	13.624
606.42	13.353
606.75	13.793
607.09	13.134
607.42	14.027
607.75	14.224
608.08	13.654
608.42	13.220
608.75	14.096
609.08	13.328
609.41	13.233
609.75	13.527
610.08	13.588
610.41	12.872
610.74	13.655
611.07	13.943
611.41	13.946
611.74	14.134
612.07	13.698
612.40	14.259
612.73	13.741
613.07	13.447
613.40	13.378
613.73	14.444
614.06	13.543
614.39	13.703
614.72	14.605
615.06	13.041
615.39	13.581
615.72	13.555
616.05	14.230
616.38	13.219
616.71	13.845
617.05	13.525
617.38	14.714
617.71	14.903
618.04	14.085
618.37	14.536
618.70	14.367
619.03	13.501
619.36	14.673
619.69	14.222
620.03	14.564
620.36	14.663
620.69	13.942
621.02	14.436
621.35	15.312
621.68	16.052
622.01	15.445
622.34	13.459
622.67	14.570
623.00	14.035
623.33	14.665
623.66	14.591
623.99	14.088
624.32	15.270
624.65	13.964
624.99	15.410
625.32	14.762
625.65	14.498
625.98	15.119
626.31	14.033
626.64	15.238
626.97	13.578
627.30	14.123
627.63	13.653
627.96	14.790
628.29	15.331
628.62	15.029
628.95	14.110
629.28	15.803
629.61	14.646
629.94	13.724
630.26	14.407
630.59	14.076
630.92	13.939
631.25	15.385
631.58	15.348
631.91	14.995
632.24	16.138
632.57	16.034
632.90	16.249
633.23	16.429
633.56	15.714
633.89	15.289
634.22	15.281
634.55	15.971
634.88	15.152
635.20	17.653
635.53	14.802
635.86	16.793
636.19	17.285
636.52	15.506
636.85	16.956
637.18	14.969
637.51	14.839
637.83	16.501
638.16	16.820
638.49	15.023
638.82	15.558
639.15	14.433
639.48	16.859
639.81	15.242
640.13	16.490
640.46	16.121
640.79	15.441
641.12	16.646
641.45	15.558
641.77	16.945
642.10	15.354
642.43	17.154
642.76	16.396
643.09	15.753
643.41	16.387
643.74	17.241
644.07	17.517
644.40	18.246
644.73	16.546
645.05	16.006
645.38	16.403
645.71	16.129
646.04	18.077
646.36	17.080
646.69	17.791
647.02	18.349
647.35	17.557
647.67	16.264
648.00	15.605
648.33	15.766
648.66	15.835
648.98	14.694
649.31	15.156
649.64	16.335
649.96	16.446
650.29	13.908
650.62	15.559
650.94	14.715
651.27	14.222
651.60	14.912
651.92	15.502
652.25	16.498
652.58	16.781
652.90	15.262
653.23	15.493
653.56	16.120
653.88	16.854
654.21	14.366
654.54	15.029
654.86	16.147
655.19	15.056
655.52	13.887
655.84	11.075
656.17	12.512
656.49	17.749
656.82	19.615
657.15	15.643
657.47	11.789
657.80	8.830
658.13	6.776
658.45	9.515
658.78	11.428
659.10	11.077
659.43	11.370
659.75	10.701
660.08	11.541
660.41	12.572
660.73	12.999
661.06	15.419
661.38	16.587
661.71	15.000
662.03	17.813
662.36	17.710
662.68	16.886
663.01	16.106
663.33	18.336
663.66	19.048
663.98	18.654
664.31	16.510
664.63	16.956
664.96	15.971
665.28	14.519
665.61	17.483
665.93	14.464
666.26	17.025
666.58	14.391
666.91	16.075
667.23	15.048
667.56	16.174
667.88	15.800
668.21	14.258
668.53	15.058
668.86	18.075
669.18	14.460
669.50	16.501
669.83	14.000
670.15	15.551
670.48	16.270
670.80	15.296
671.13	16.446
671.45	15.748
671.77	18.267
672.10	13.667
672.42	14.887
672.75	12.289
673.07	14.478
673.39	15.254
673.72	14.430
674.04	15.862
674.37	14.311
674.69	15.168
675.01	13.905
675.34	14.122
675.66	15.543
675.98	16.418
676.31	16.602
676.63	17.490
676.95	18.391
677.28	15.323
677.60	14.173
677.92	17.850
678.25	16.453
678.57	14.947
678.89	14.505
679.22	15.505
679.54	17.949
679.86	13.390
680.18	11.774
680.51	14.465
680.83	15.057
681.15	15.345
681.48	15.199
681.80	15.889
682.12	13.287
682.44	15.860
682.77	13.830
683.09	17.614
683.41	17.442
683.73	15.750
684.06	11.808
684.38	13.953
684.70	16.338
685.02	15.318
685.34	12.646
685.67	12.934
685.99	13.650
686.31	12.645
686.63	15.008
686.96	15.931
687.28	14.332
687.60	14.815
687.92	13.826
688.24	14.524
688.56	14.310
688.89	13.067
689.21	17.808
689.53	11.961
689.85	12.623
690.17	13.519
690.49	14.940
690.82	14.851
691.14	13.563
691.46	15.488
691.78	15.838
692.10	12.844
692.42	13.750
692.74	14.701
693.06	12.222
693.39	14.611
693.71	13.534
694.03	15.242
694.35	16.571
694.67	12.936
694.99	15.957
695.31	14.790
695.63	14.502
695.95	13.872
696.27	12.747
696.59	16.593
696.91	13.514
697.23	16.044
697.56	13.238
697.88	11.174
698.20	12.994
698.52	15.530
698.84	14.761
699.16	15.102
699.48	12.343
699.80	15.319
700.12	13.537
700.44	15.438
700.76	15.439
701.08	16.465
701.40	15.026
701.72	16.667
702.04	16.310
702.36	11.780
702.68	14.181
703.00	14.425
703.32	15.271
703.64	13.936
703.96	16.229
704.28	17.690
704.60	17.722
704.91	16.582
705.23	15.068
705.55	17.270
705.87	17.879
706.19	17.178
706.51	14.458
706.83	12.968
707.15	15.079
707.47	14.019
707.79	11.790
708.11	11.229
708.43	13.118
708.74	12.277
709.06	13.689
709.38	16.432
709.70	19.603
710.02	16.537
710.34	15.160
710.66	9.777
710.98	14.481
711.29	12.363
711.61	13.842
711.93	17.949
712.25	13.514
712.57	15.339
712.89	17.647
713.20	13.314
713.52	15.318
713.84	14.763
714.16	15.526
714.48	13.918
714.80	15.065
715.11	14.173
715.43	12.997
715.75	14.474
716.07	13.536
716.39	14.754
716.70	12.349
717.02	17.705
717.34	11.498
717.66	15.772
717.97	15.068
718.29	11.684
718.61	12.829
718.93	11.974
719.24	16.149
719.56	15.644
719.88	15.315
720.20	14.516
720.51	10.870
720.83	16.250
721.15	12.171
721.46	11.644
721.78	11.000
722.10	10.680
722.42	13.087
722.73	12.903
723.05	12.982
723.37	15.625
723.68	18.280
724.00	14.079
724.32	12.676
724.63	13.986
724.95	15.957
725.27	15.331
725.58	12.014
725.90	14.828
726.22	12.226
726.53	14.610
726.85	16.667
727.16	16.616
727.48	15.596
727.80	14.238
728.11	13.781
728.43	13.468
728.74	12.040
729.06	16.225
729.38	13.312
729.69	13.087
730.01	14.881
730.32	11.515
730.64	13.522
730.96	5.901
731.27	13.128
731.59	11.813
731.90	11.688
732.22	11.198
732.53	8.840
732.85	12.857
733.16	13.783
733.48	10.366
733.80	12.535
734.11	9.687
734.43	13.514
734.74	16.962
735.06	11.055
735.37	13.243
735.69	12.973
736.00	15.537
736.32	14.016
736.63	14.167
736.95	12.356
737.26	13.030
737.58	11.212
737.89	13.529
738.21	12.232
738.52	11.148
738.83	12.287
739.15	14.894
739.46	15.306
739.78	15.337
740.09	11.748
740.41	14.577
740.72	14.667
741.04	15.534
741.35	14.386
741.66	17.647
741.98	15.574
742.29	16.318
742.61	13.158
742.92	14.231
743.23	16.968
743.55	15.504
743.86	12.800
744.18	14.050
744.49	9.705
744.80	15.638
745.12	18.143
745.43	15.041
745.74	10.776
746.06	12.288
746.37	16.034
746.68	20.732
747.00	13.333
747.31	16.309
747.62	16.538
747.94	15.385
748.25	16.867
748.56	14.286
748.88	11.538
749.19	13.793
749.50	11.255
749.82	16.064
750.13	12.456
750.44	9.000
750.75	12.923
751.07	13.846
751.38	15.457
751.69	10.224
752.01	8.738
752.32	9.804
752.63	11.905
752.94	12.457
753.26	11.152
753.57	10.000
753.88	9.363
754.19	15.434
754.51	14.469
754.82	12.540
755.13	18.361
755.44	12.969
755.75	13.487
756.07	15.821
756.38	13.208
756.69	14.759
757.00	10.526
757.31	12.022
757.63	11.253
757.94	11.972
758.25	10.609
758.56	8.715
758.87	10.909
759.18	14.933
759.50	11.331
759.81	13.445
760.12	12.668
760.43	12.240
760.74	12.562
761.05	9.750
761.36	11.325
761.67	11.929
761.99	12.703
762.30	11.890
762.61	11.221
762.92	13.806
763.23	13.858
763.54	14.748
763.85	10.653
764.16	11.448
764.47	12.324
764.78	11.502
765.10	13.490
765.41	12.821
765.72	7.672
766.03	12.147
766.34	9.091
766.65	11.847
766.96	14.343
767.27	11.521
767.58	15.423
767.89	15.385
768.20	8.920
768.51	16.204
768.82	12.048
769.13	11.364
769.44	7.308
769.75	12.996
770.06	8.846
770.37	16.142
770.68	7.660
770.99	6.478
771.30	13.704
771.61	12.167
771.92	11.111
772.23	14.980
772.54	8.796
772.85	15.668
773.16	16.190
773.47	4.762
773.78	9.189
774.09	11.364
774.39	19.000
774.70	14.208
775.01	14.634
775.32	7.059
775.63	14.724
775.94	6.369
776.25	20.000
776.56	16.667
776.87	14.286
777.18	15.172
777.48	11.888
777.79	12.162
778.10	12.500
778.41	20.833
778.72	14.483
779.03	14.815
779.34	14.545
779.65	11.917
779.95	16.111
780.26	14.773
780.57	15.484
780.88	13.768
781.19	16.129
781.50	14.118
781.80	19.355
782.11	15.344
782.42	9.091
782.73	11.976
783.04	10.056
783.34	8.485
783.65	15.686
783.96	6.211
784.27	6.548
784.57	13.245
784.88	17.143
785.19	14.173
785.50	19.685
785.81	11.278
786.11	12.308
786.42	9.353
786.73	14.388
787.04	18.045
787.34	11.475
787.65	10.400
787.96	13.433
788.26	18.182
788.57	18.182
788.88	5.263
789.19	14.379
789.49	10.959
789.80	12.766
790.11	17.323
790.41	14.062
790.72	10.169
791.03	2.913
791.33	16.522
791.64	11.404
791.95	8.036
792.25	11.429
792.56	16.964
792.87	9.375
793.17	15.179
793.48	7.292
793.79	3.614
794.09	13.761
794.40	12.844
794.70	11.565
795.01	7.143
795.32	6.164
795.62	11.972
795.93	11.364
796.23	4.098
796.54	0.000
796.85	4.255
797.15	9.783
797.46	8.219
797.76	11.250
798.07	11.957
798.37	9.278
798.68	7.792
798.99	13.793
799.29	14.607
799.60	9.574
799.90	10.843
800.21	9.231
800.51	13.433
800.82	8.824
801.12	-10.959
801.43	2.941
801.73	5.085
802.04	12.121
802.34	3.333
802.65	32.203
802.95	4.478
803.26	15.254
803.56	15.068
803.87	20.000
804.17	19.178
804.48	1.754
804.78	6.944
805.09	6.897
805.39	4.054
805.70	11.268
806.00	8.537
806.30	10.843
806.61	-1.370
806.91	10.577
807.22	16.667
807.52	9.195
807.83	26.389
808.13	10.843
808.43	11.236
808.74	7.500
809.04	1.471
809.35	-1.333
809.65	-2.857
809.95	10.959
810.26	-1.754
810.56	1.724
810.86	17.647
811.17	0.000
811.47	1.639
811.77	-13.333
812.08	5.085
812.38	25.000
812.69	13.793
812.99	5.660
813.29	7.692
813.59	16.000
813.90	21.053
814.20	30.909
814.50	29.577
814.81	19.231
815.11	21.311
815.41	11.940
815.72	15.517
816.02	14.286
816.32	13.333
816.62	0.000
816.93	6.667
817.23	27.778
817.53	8.511
817.84	11.905
818.14	2.941
818.44	14.286
818.74	-6.667
819.04	-17.949
819.35	-8.571
819.65	-15.385
819.95	15.094
820.25	11.111
820.56	2.381
820.86	-6.250
821.16	17.949
821.46	-25.581
821.76	-12.000
822.07	23.214
822.37	-2.174
822.67	-10.638
822.97	-24.324
823.27	-7.500
823.57	6.122
823.88	37.778
824.18	12.500
824.48	40.000
824.78	8.000
825.08	-9.091
825.38	28.889
825.69	6.383
825.99	19.444
826.29	-20.000
826.59	-30.769
826.89	-6.977
827.19	0.000
827.49	8.824
827.79	18.750
828.09	-27.027
828.39	-6.667
828.70	2.439
829.00	-2.326
829.30	7.143
829.60	20.588
829.90	23.913
830.20	8.571
830.50	20.690
830.80	-5.556
831.10	-23.077
831.40	0.000
831.70	33.333
832.00	0.000
832.30	-76.471
832.60	0.000
832.90	15.385
833.20	-10.526
833.50	-20.000
833.80	-10.526
834.10	-47.619
834.40	25.000
834.70	18.750
835.00	-2.857
835.30	0.000
835.60	-16.667
835.90	8.000
836.20	-9.091
836.50	20.000
836.80	-9.091
837.10	0.000
837.40	7.407
837.70	6.250
838.00	17.857
838.30	8.696
838.60	3.448
838.90	-14.286
839.19	-47.826
839.49	-116.667
839.79	21.739
840.09	-68.750
840.39	-10.000
840.69	3.226
840.99	-14.286
841.29	0.000
841.59	0.000
841.88	35.897
842.18	15.385
842.48	-40.000
842.78	-35.000
843.08	10.000
843.38	32.258
843.68	-77.778
843.97	20.588
844.27	-25.000
844.57	-5.263
844.87	-30.000
845.17	-13.333
845.47	14.286
845.76	-4.762
846.06	-44.444
846.36	-76.471
846.66	3.846
846.96	33.333
847.25	-11.765
847.55	8.696
847.85	25.000
848.15	11.765
848.44	-63.636
848.74	19.048
849.04	0.000
849.34	18.750
849.63	56.522
849.93	350.000
850.23	26.667
850.53	26.923
850.82	-45.455
851.12	40.909
851.42	72.727
851.71	69.231
852.01	-20.000
852.31	-7.692
852.61	-42.105
852.90	-50.000
853.20	5.556
853.50	-133.333
853.79	-52.381
854.09	45.455
854.39	-100.000
854.68	32.258
854.98	-11.538
855.28	44.444
855.57	3.571
855.87	8.000
856.17	-18.182
856.46	0.000
856.76	27.778
857.05	-8.696
857.35	0.000
857.65	-7.692
857.94	23.810
858.24	55.556
858.53	4.348
858.83	35.294
859.13	-17.647
859.42	0.000
859.72	50.000
860.01	10.000
860.31	-66.667
860.60	0.000
860.90	-13.333
861.20	5.556
861.49	-38.462
861.79	13.333
862.08	-23.077
862.38	9.375
862.67	11.765
862.97	0.000
863.26	-11.111
863.56	-10.000
863.85	-36.364
864.15	0.000
864.44	300.000
864.74	28.571
865.03	-31.250
865.33	-20.000
865.62	19.355
865.92	54.545
866.21	26.087
866.51	0.000
866.80	-280.000
867.10	16.667
867.39	8.333
867.69	1100.000
867.98	-114.286
868.27	11.765
868.57	-600.000
868.86	-40.000
869.16	42.857
869.45	41.667
869.75	9.091
870.04	-71.429
870.33	-8.333
870.63	-200.000
870.92	0.000
871.22	-125.000
871.51	-9.091
871.80	-266.667
872.10	-500.000
>>>>>End Processed Spectral Data<<<<<
