SpectraSuite Data File
++++++++++++++++++++++++++++++++++++
Date: Thu May 14 16:24:53 PDT 2015
User: schluterlab
Dark Spectrum Present: Yes
Reference Spectrum Present: Yes
Number of Sampled Component Spectra: 1
Spectrometers: USB2E3373
Integration Time (usec): 3000 (USB2E3373)
Spectra Averaged: 3 (USB2E3373)
Boxcar Smoothing: 0 (USB2E3373)
Correct for Electrical Dark: No (USB2E3373)
Strobe/Lamp Enabled: No (USB2E3373)
Correct for Detector Non-linearity: No (USB2E3373)
Correct for Stray Light: No (USB2E3373)
Number of Pixels in Processed Spectrum: 2048
>>>>>Begin Processed Spectral Data<<<<<
178.53	0.000
178.91	57.143
179.29	-1400.000
179.67	-1200.000
180.04	121.429
180.42	-40.000
180.80	100.000
181.18	-800.000
181.56	600.000
181.94	200.000
182.31	-200.000
182.69	233.333
183.07	-400.000
183.45	200.000
183.83	-16.667
184.20	-333.333
184.58	100.000
184.96	-100.000
185.34	88.889
185.72	80.000
186.09	66.667
186.47	200.000
186.85	380.000
187.23	-11.111
187.61	-600.000
187.98	280.000
188.36	225.000
188.74	-75.000
189.12	-33.333
189.49	18.750
189.87	-62.500
190.25	88.889
190.63	-20.000
191.00	-88.889
191.38	0.000
191.76	-150.000
192.14	-50.000
192.51	300.000
192.89	50.000
193.27	0.000
193.65	-28.571
194.02	-1400.000
194.40	-57.143
194.78	71.429
195.15	0.000
195.53	-9.091
195.91	0.000
196.29	100.000
196.66	38.462
197.04	-400.000
197.42	-128.571
197.79	-250.000
198.17	-50.000
198.55	28.571
198.92	-22.222
199.30	-112.500
199.68	45.455
200.05	28.571
200.43	-550.000
200.81	257.143
201.18	0.000
201.56	255.556
201.94	0.000
202.31	366.667
202.69	-77.778
203.07	300.000
203.44	44.444
203.82	-175.000
204.19	33.333
204.57	-50.000
204.95	-100.000
205.32	-1000.000
205.70	75.000
206.08	0.000
206.45	-33.333
206.83	260.000
207.20	-133.333
207.58	-200.000
207.96	-116.667
208.33	16.667
208.71	41.667
209.08	33.333
209.46	0.000
209.84	216.667
210.21	100.000
210.59	150.000
210.96	166.667
211.34	100.000
211.71	-62.500
212.09	-900.000
212.46	0.000
212.84	950.000
213.22	-40.000
213.59	-300.000
213.97	40.000
214.34	-200.000
214.72	183.333
215.09	-250.000
215.47	0.000
215.84	14.286
216.22	250.000
216.59	-20.000
216.97	-60.000
217.34	50.000
217.72	-12.500
218.09	-50.000
218.47	-175.000
218.84	0.000
219.22	-0.000
219.59	29.412
219.97	-45.000
220.34	450.000
220.72	33.333
221.09	130.769
221.47	100.000
221.84	-60.000
222.22	-100.000
222.59	0.000
222.97	-50.000
223.34	-180.000
223.72	-400.000
224.09	-225.000
224.46	-225.000
224.84	120.000
225.21	-114.286
225.59	-50.000
225.96	-250.000
226.34	15.385
226.71	83.333
227.08	-550.000
227.46	-6.667
227.83	-25.000
228.21	26.316
228.58	187.500
228.95	550.000
229.33	-16.667
229.70	-60.000
230.08	52.632
230.45	40.000
230.82	100.000
231.20	35.714
231.57	25.000
231.95	-54.545
232.32	-18.182
232.69	-40.000
233.07	-175.000
233.44	-5.882
233.81	-20.000
234.19	55.556
234.56	27.273
234.93	17.241
235.31	21.053
235.68	16.667
236.05	-5.000
236.43	23.077
236.80	16.000
237.17	11.111
237.55	-27.273
237.92	-10.000
238.29	-19.355
238.67	-4.545
239.04	33.333
239.41	-16.667
239.79	10.870
240.16	12.963
240.53	10.870
240.91	11.765
241.28	11.475
241.65	14.925
242.02	16.216
242.40	4.615
242.77	5.333
243.14	9.756
243.51	13.158
243.89	3.846
244.26	21.782
244.63	11.765
245.00	10.280
245.38	19.298
245.75	0.885
246.12	17.460
246.49	10.853
246.87	18.571
247.24	9.934
247.61	10.526
247.98	11.409
248.36	12.963
248.73	11.656
249.10	8.743
249.47	16.915
249.84	20.942
250.22	13.990
250.59	12.778
250.96	19.545
251.33	11.224
251.70	15.812
252.08	14.583
252.45	17.213
252.82	9.917
253.19	13.281
253.56	14.829
253.94	8.077
254.31	11.742
254.68	14.336
255.05	14.007
255.42	13.265
255.79	8.414
256.16	11.589
256.54	11.258
256.91	13.115
257.28	11.148
257.65	9.554
258.02	7.670
258.39	12.251
258.76	11.927
259.14	14.368
259.51	8.357
259.88	11.331
260.25	14.444
260.62	14.247
260.99	14.208
261.36	14.209
261.73	10.875
262.10	10.989
262.47	9.651
262.85	16.667
263.22	9.091
263.59	7.105
263.96	11.509
264.33	8.951
264.70	13.827
265.07	14.081
265.44	14.512
265.81	10.417
266.18	11.791
266.55	13.170
266.92	9.567
267.29	13.129
267.66	10.865
268.03	11.790
268.40	12.944
268.77	9.795
269.14	8.150
269.51	11.184
269.88	12.500
270.25	12.072
270.62	12.658
270.99	12.727
271.36	11.485
271.73	12.181
272.10	12.625
272.47	11.423
272.84	10.643
273.21	10.621
273.58	9.073
273.95	10.769
274.32	7.605
274.69	8.704
275.06	11.355
275.43	9.427
275.80	11.640
276.17	10.185
276.54	9.515
276.91	8.766
277.28	11.031
277.65	10.772
278.02	10.478
278.39	11.232
278.76	11.072
279.13	12.943
279.50	10.653
279.87	12.701
280.23	8.803
280.60	12.712
280.97	11.020
281.34	10.696
281.71	11.844
282.08	9.635
282.45	10.147
282.82	10.989
283.19	8.885
283.56	9.016
283.92	10.661
284.29	11.848
284.66	12.151
285.03	9.295
285.40	11.747
285.77	10.991
286.14	12.977
286.51	9.589
286.87	11.374
287.24	13.102
287.61	11.061
287.98	10.574
288.35	11.391
288.72	10.651
289.08	14.202
289.45	11.834
289.82	10.843
290.19	10.201
290.56	11.972
290.93	11.983
291.29	13.223
291.66	11.708
292.03	11.262
292.40	14.286
292.77	11.590
293.13	11.637
293.50	11.958
293.87	12.886
294.24	12.400
294.60	12.010
294.97	12.215
295.34	12.420
295.71	12.610
296.08	12.016
296.44	11.642
296.81	11.571
297.18	12.827
297.55	10.849
297.91	12.218
298.28	11.374
298.65	11.891
299.02	10.508
299.38	11.327
299.75	12.033
300.12	12.037
300.48	10.714
300.85	11.811
301.22	12.752
301.59	12.329
301.95	11.412
302.32	12.111
302.69	13.472
303.05	13.275
303.42	13.193
303.79	13.021
304.15	12.408
304.52	12.262
304.89	12.565
305.25	12.940
305.62	12.121
305.99	11.649
306.35	10.585
306.72	12.616
307.09	13.401
307.45	13.872
307.82	13.320
308.19	11.403
308.55	12.536
308.92	12.171
309.29	12.835
309.65	12.671
310.02	13.168
310.38	12.598
310.75	12.233
311.12	13.327
311.48	13.099
311.85	11.776
312.22	12.524
312.58	12.676
312.95	12.046
313.31	12.647
313.68	12.271
314.05	13.369
314.41	13.206
314.78	12.352
315.14	13.975
315.51	12.835
315.87	12.421
316.24	12.603
316.61	13.321
316.97	12.398
317.34	12.257
317.70	13.624
318.07	13.139
318.43	12.245
318.80	14.130
319.16	13.734
319.53	12.082
319.89	12.796
320.26	13.078
320.62	13.387
320.99	14.127
321.35	13.124
321.72	16.372
322.08	13.436
322.45	13.369
322.81	14.982
323.18	14.248
323.54	13.448
323.91	15.480
324.27	14.372
324.64	14.945
325.00	14.760
325.37	14.333
325.73	15.124
326.10	15.247
326.46	14.739
326.83	15.773
327.19	14.724
327.56	15.494
327.92	15.185
328.29	13.548
328.65	14.908
329.01	14.975
329.38	14.659
329.74	17.380
330.11	15.497
330.47	16.344
330.84	15.418
331.20	14.500
331.56	14.558
331.93	16.904
332.29	16.017
332.66	15.615
333.02	15.829
333.38	15.520
333.75	14.478
334.11	14.429
334.48	15.264
334.84	15.633
335.20	14.945
335.57	14.671
335.93	15.207
336.29	14.393
336.66	15.728
337.02	14.967
337.38	14.796
337.75	15.289
338.11	14.718
338.47	14.806
338.84	13.959
339.20	14.322
339.56	14.580
339.93	13.793
340.29	15.056
340.65	15.247
341.02	14.445
341.38	16.249
341.74	14.447
342.11	15.447
342.47	13.741
342.83	14.895
343.20	14.718
343.56	13.953
343.92	15.292
344.28	15.391
344.65	15.039
345.01	14.821
345.37	15.241
345.73	14.575
346.10	15.289
346.46	14.399
346.82	14.682
347.19	15.661
347.55	15.781
347.91	15.602
348.27	15.326
348.63	15.232
349.00	14.541
349.36	14.052
349.72	16.146
350.08	15.082
350.45	15.209
350.81	14.178
351.17	15.489
351.53	14.936
351.89	15.793
352.26	14.254
352.62	15.224
352.98	14.962
353.34	14.339
353.70	15.100
354.07	15.276
354.43	14.047
354.79	14.510
355.15	14.128
355.51	14.839
355.87	13.089
356.24	14.981
356.60	14.560
356.96	14.455
357.32	15.093
357.68	14.495
358.04	14.596
358.40	15.448
358.77	14.620
359.13	15.140
359.49	14.201
359.85	15.373
360.21	14.562
360.57	14.286
360.93	15.162
361.29	16.140
361.66	14.555
362.02	16.145
362.38	15.320
362.74	15.433
363.10	15.475
363.46	15.374
363.82	15.412
364.18	15.341
364.54	14.869
364.90	14.983
365.26	14.621
365.62	15.333
365.98	15.861
366.35	14.765
366.71	15.850
367.07	15.088
367.43	15.167
367.79	15.859
368.15	15.786
368.51	15.426
368.87	15.676
369.23	15.733
369.59	15.847
369.95	15.686
370.31	17.151
370.67	15.887
371.03	15.789
371.39	16.051
371.75	15.543
372.11	16.192
372.47	16.046
372.83	16.230
373.19	15.744
373.55	16.192
373.91	15.883
374.27	16.818
374.63	16.915
374.99	16.512
375.35	16.753
375.71	16.065
376.07	16.656
376.42	16.373
376.78	16.470
377.14	15.970
377.50	17.331
377.86	17.672
378.22	17.305
378.58	17.955
378.94	16.373
379.30	16.872
379.66	16.814
380.02	17.196
380.38	17.339
380.74	17.127
381.09	17.131
381.45	17.557
381.81	17.740
382.17	17.755
382.53	17.193
382.89	17.381
383.25	17.995
383.61	17.708
383.97	18.257
384.32	17.285
384.68	16.995
385.04	17.293
385.40	18.032
385.76	17.995
386.12	16.936
386.48	17.706
386.83	18.832
387.19	17.671
387.55	17.606
387.91	17.466
388.27	17.494
388.62	17.526
388.98	18.387
389.34	18.150
389.70	17.955
390.06	18.058
390.42	18.373
390.77	18.302
391.13	17.840
391.49	18.478
391.85	17.576
392.20	17.912
392.56	19.374
392.92	18.811
393.28	18.574
393.64	18.603
393.99	19.117
394.35	19.159
394.71	19.521
395.07	17.844
395.42	19.132
395.78	19.439
396.14	18.598
396.50	18.527
396.85	18.485
397.21	18.284
397.57	17.962
397.92	18.671
398.28	17.599
398.64	18.593
399.00	18.168
399.35	18.796
399.71	18.696
400.07	18.529
400.42	18.102
400.78	18.866
401.14	18.725
401.49	18.931
401.85	18.372
402.21	19.467
402.57	19.718
402.92	19.267
403.28	18.033
403.63	17.780
403.99	18.230
404.35	18.647
404.70	18.924
405.06	17.989
405.42	18.326
405.77	18.539
406.13	19.449
406.49	18.975
406.84	19.391
407.20	18.502
407.55	18.655
407.91	18.793
408.27	18.610
408.62	19.372
408.98	19.501
409.34	19.296
409.69	19.592
410.05	19.637
410.40	20.302
410.76	19.125
411.11	19.638
411.47	19.287
411.83	19.400
412.18	19.398
412.54	19.146
412.89	19.267
413.25	19.413
413.60	19.184
413.96	20.047
414.31	18.074
414.67	19.439
415.03	19.815
415.38	19.168
415.74	19.304
416.09	19.432
416.45	19.537
416.80	19.584
417.16	19.349
417.51	18.929
417.87	19.497
418.22	19.281
418.58	19.207
418.93	19.849
419.29	18.681
419.64	18.487
420.00	19.228
420.35	19.820
420.71	19.012
421.06	19.264
421.42	19.495
421.77	19.009
422.12	19.556
422.48	19.099
422.83	19.551
423.19	19.629
423.54	19.469
423.90	19.492
424.25	19.520
424.61	18.485
424.96	19.001
425.31	19.480
425.67	18.733
426.02	19.480
426.38	19.460
426.73	19.029
427.09	19.377
427.44	18.078
427.79	18.574
428.15	18.721
428.50	18.034
428.85	18.312
429.21	19.309
429.56	18.657
429.92	18.231
430.27	18.892
430.62	19.003
430.98	18.298
431.33	18.377
431.68	18.247
432.04	18.588
432.39	18.640
432.74	19.121
433.10	18.605
433.45	18.562
433.80	18.455
434.16	18.130
434.51	18.243
434.86	18.404
435.22	19.075
435.57	19.045
435.92	19.199
436.28	18.828
436.63	18.842
436.98	18.089
437.34	17.982
437.69	18.217
438.04	17.715
438.39	18.093
438.75	18.705
439.10	19.239
439.45	17.496
439.81	18.249
440.16	18.177
440.51	18.004
440.86	18.621
441.22	18.060
441.57	18.134
441.92	18.914
442.27	17.980
442.63	18.182
442.98	17.930
443.33	18.096
443.68	19.177
444.03	18.297
444.39	18.493
444.74	18.070
445.09	17.689
445.44	18.072
445.79	18.822
446.15	18.397
446.50	18.346
446.85	18.726
447.20	18.230
447.55	18.462
447.91	17.801
448.26	17.812
448.61	17.375
448.96	18.777
449.31	17.709
449.66	17.810
450.02	18.091
450.37	18.700
450.72	17.976
451.07	18.280
451.42	17.447
451.77	17.232
452.12	17.777
452.47	17.112
452.83	18.187
453.18	17.104
453.53	18.150
453.88	17.835
454.23	17.684
454.58	18.282
454.93	17.415
455.28	18.182
455.63	17.965
455.98	17.654
456.34	17.432
456.69	17.813
457.04	16.903
457.39	18.016
457.74	17.338
458.09	17.408
458.44	17.726
458.79	17.844
459.14	17.567
459.49	17.374
459.84	17.366
460.19	17.268
460.54	17.604
460.89	17.258
461.24	16.839
461.59	17.266
461.94	16.657
462.29	16.797
462.64	16.898
462.99	16.761
463.34	17.586
463.69	16.471
464.04	18.288
464.39	16.816
464.74	17.218
465.09	16.321
465.44	17.006
465.79	17.398
466.14	16.832
466.49	16.842
466.84	16.474
467.19	17.746
467.54	16.216
467.89	15.632
468.24	16.288
468.59	16.734
468.94	16.783
469.29	15.897
469.64	16.211
469.99	16.444
470.34	16.337
470.68	17.088
471.03	16.765
471.38	16.154
471.73	16.450
472.08	16.180
472.43	16.496
472.78	17.128
473.13	17.130
473.48	16.616
473.83	17.063
474.17	16.295
474.52	15.935
474.87	16.611
475.22	17.352
475.57	16.303
475.92	16.625
476.27	16.720
476.61	16.407
476.96	16.111
477.31	16.287
477.66	16.264
478.01	16.065
478.36	16.451
478.70	16.256
479.05	16.616
479.40	15.992
479.75	16.427
480.10	16.059
480.45	16.408
480.79	16.599
481.14	16.544
481.49	16.038
481.84	15.840
482.19	16.645
482.53	15.566
482.88	15.995
483.23	15.740
483.58	15.459
483.92	15.559
484.27	15.961
484.62	15.718
484.97	16.096
485.31	14.960
485.66	15.042
486.01	15.254
486.36	15.399
486.70	15.992
487.05	15.808
487.40	15.858
487.75	15.929
488.09	15.216
488.44	14.735
488.79	15.346
489.13	15.062
489.48	15.068
489.83	15.252
490.17	14.459
490.52	15.189
490.87	15.271
491.22	14.948
491.56	15.358
491.91	15.089
492.26	15.015
492.60	15.129
492.95	15.007
493.30	14.612
493.64	15.506
493.99	14.737
494.34	14.808
494.68	14.989
495.03	14.846
495.37	14.692
495.72	15.193
496.07	14.636
496.41	13.685
496.76	14.804
497.11	14.225
497.45	14.458
497.80	14.527
498.14	15.011
498.49	14.200
498.84	14.808
499.18	14.215
499.53	14.484
499.87	14.549
500.22	13.758
500.56	14.305
500.91	14.508
501.26	14.818
501.60	14.450
501.95	13.982
502.29	14.524
502.64	14.254
502.98	13.805
503.33	13.780
503.67	13.825
504.02	13.967
504.36	13.584
504.71	14.286
505.06	13.597
505.40	13.711
505.75	13.570
506.09	13.996
506.44	13.603
506.78	14.220
507.13	14.385
507.47	13.643
507.82	13.873
508.16	13.241
508.51	13.643
508.85	14.077
509.19	14.306
509.54	14.505
509.88	13.502
510.23	13.745
510.57	13.678
510.92	14.369
511.26	13.660
511.61	13.037
511.95	14.202
512.30	14.032
512.64	13.343
512.98	14.057
513.33	14.365
513.67	13.565
514.02	13.848
514.36	13.453
514.70	13.177
515.05	13.921
515.39	14.173
515.74	13.521
516.08	13.576
516.42	13.867
516.77	13.828
517.11	13.306
517.46	13.998
517.80	14.324
518.14	13.874
518.49	13.666
518.83	13.411
519.17	12.870
519.52	13.627
519.86	12.830
520.20	13.951
520.55	13.253
520.89	13.288
521.23	13.289
521.58	13.785
521.92	13.994
522.26	12.715
522.61	13.310
522.95	13.899
523.29	13.333
523.64	12.724
523.98	14.147
524.32	13.811
524.66	13.204
525.01	13.024
525.35	13.383
525.69	12.761
526.04	13.088
526.38	13.161
526.72	13.033
527.06	13.724
527.41	13.003
527.75	13.539
528.09	13.282
528.43	12.611
528.78	12.717
529.12	12.959
529.46	12.929
529.80	12.700
530.15	12.870
530.49	11.981
530.83	13.400
531.17	12.545
531.51	13.177
531.86	13.582
532.20	13.110
532.54	12.807
532.88	12.485
533.22	12.905
533.57	13.099
533.91	12.907
534.25	12.945
534.59	12.701
534.93	12.054
535.27	13.070
535.62	13.076
535.96	12.841
536.30	12.573
536.64	12.492
536.98	13.100
537.32	13.210
537.66	12.726
538.01	12.628
538.35	11.876
538.69	12.620
539.03	12.876
539.37	12.309
539.71	11.772
540.05	13.189
540.39	12.775
540.73	12.447
541.07	12.508
541.42	11.991
541.76	11.922
542.10	12.364
542.44	12.058
542.78	13.260
543.12	12.396
543.46	11.477
543.80	11.511
544.14	12.448
544.48	12.293
544.82	12.268
545.16	11.747
545.50	11.504
545.84	12.186
546.18	12.160
546.52	11.465
546.86	11.321
547.20	12.150
547.54	11.423
547.88	12.236
548.22	12.632
548.56	10.884
548.90	11.284
549.24	12.097
549.58	11.735
549.92	11.224
550.26	11.909
550.60	11.295
550.94	11.643
551.28	11.353
551.62	11.456
551.96	11.003
552.30	11.918
552.64	11.201
552.98	11.104
553.32	12.412
553.66	12.347
554.00	11.665
554.34	11.647
554.68	11.039
555.02	11.104
555.36	11.571
555.69	11.083
556.03	10.593
556.37	11.640
556.71	10.843
557.05	11.502
557.39	11.148
557.73	11.030
558.07	10.464
558.41	10.698
558.75	10.548
559.08	10.717
559.42	11.454
559.76	11.601
560.10	11.119
560.44	11.016
560.78	11.000
561.12	11.084
561.45	11.496
561.79	11.416
562.13	11.091
562.47	10.727
562.81	11.139
563.15	11.111
563.48	11.187
563.82	11.185
564.16	10.115
564.50	10.548
564.84	10.324
565.17	11.118
565.51	10.932
565.85	10.273
566.19	10.599
566.52	10.357
566.86	10.753
567.20	10.984
567.54	10.515
567.88	11.060
568.21	11.166
568.55	10.264
568.89	10.803
569.23	11.027
569.56	10.590
569.90	10.620
570.24	10.084
570.57	10.840
570.91	10.196
571.25	10.385
571.59	11.049
571.92	10.394
572.26	10.508
572.60	10.128
572.93	10.353
573.27	10.424
573.61	10.535
573.95	10.221
574.28	9.951
574.62	9.959
574.96	9.903
575.29	10.134
575.63	9.933
575.97	10.419
576.30	9.771
576.64	10.165
576.98	10.137
577.31	10.031
577.65	10.132
577.98	9.940
578.32	9.781
578.66	9.593
578.99	9.932
579.33	9.560
579.67	9.633
580.00	10.025
580.34	9.926
580.67	9.885
581.01	9.714
581.35	9.975
581.68	9.920
582.02	9.707
582.35	9.701
582.69	9.990
583.02	9.774
583.36	10.105
583.70	9.657
584.03	9.383
584.37	9.874
584.70	9.609
585.04	9.602
585.37	9.545
585.71	9.773
586.04	9.621
586.38	9.424
586.72	9.401
587.05	9.568
587.39	9.599
587.72	9.641
588.06	9.623
588.39	9.360
588.73	9.312
589.06	9.622
589.40	9.404
589.73	9.608
590.07	9.715
590.40	9.736
590.73	9.261
591.07	9.792
591.40	9.331
591.74	9.102
592.07	9.460
592.41	9.503
592.74	9.904
593.08	9.459
593.41	9.740
593.75	9.368
594.08	9.664
594.41	9.519
594.75	9.067
595.08	9.253
595.42	9.351
595.75	9.267
596.09	9.556
596.42	9.172
596.75	9.031
597.09	9.535
597.42	9.337
597.75	9.643
598.09	9.405
598.42	9.570
598.76	9.133
599.09	9.114
599.42	9.219
599.76	9.079
600.09	9.109
600.42	9.243
600.76	9.181
601.09	8.729
601.42	8.685
601.76	9.207
602.09	8.935
602.42	8.760
602.76	9.188
603.09	8.921
603.42	8.707
603.76	8.809
604.09	9.794
604.42	8.550
604.76	8.980
605.09	8.935
605.42	9.091
605.75	9.115
606.09	8.660
606.42	9.157
606.75	8.471
607.09	8.295
607.42	8.671
607.75	9.027
608.08	8.682
608.42	8.988
608.75	8.831
609.08	8.871
609.41	8.778
609.75	9.241
610.08	9.059
610.41	8.879
610.74	7.941
611.07	8.748
611.41	9.103
611.74	9.145
612.07	9.116
612.40	8.508
612.73	8.557
613.07	8.509
613.40	8.807
613.73	8.763
614.06	9.028
614.39	8.844
614.72	8.443
615.06	8.277
615.39	8.023
615.72	8.389
616.05	8.111
616.38	9.183
616.71	8.621
617.05	8.413
617.38	9.149
617.71	8.585
618.04	8.365
618.37	9.126
618.70	8.258
619.03	8.065
619.36	8.816
619.69	9.289
620.03	8.851
620.36	8.528
620.69	8.575
621.02	9.186
621.35	8.200
621.68	9.183
622.01	8.826
622.34	8.020
622.67	7.973
623.00	7.085
623.33	8.759
623.66	8.885
623.99	7.768
624.32	9.617
624.65	7.658
624.99	8.257
625.32	8.818
625.65	8.699
625.98	8.068
626.31	7.938
626.64	8.571
626.97	8.852
627.30	6.834
627.63	8.027
627.96	9.985
628.29	8.638
628.62	7.305
628.95	7.537
629.28	7.816
629.61	8.586
629.94	8.452
630.26	7.966
630.59	7.513
630.92	7.965
631.25	9.034
631.58	8.286
631.91	7.123
632.24	7.493
632.57	9.298
632.90	7.422
633.23	7.653
633.56	7.449
633.89	7.335
634.22	8.212
634.55	8.038
634.88	7.035
635.20	8.719
635.53	8.136
635.86	8.017
636.19	9.226
636.52	8.544
636.85	8.274
637.18	8.524
637.51	8.710
637.83	8.084
638.16	7.373
638.49	7.629
638.82	8.568
639.15	6.529
639.48	8.776
639.81	7.506
640.13	8.009
640.46	6.545
640.79	7.966
641.12	8.323
641.45	7.905
641.77	9.628
642.10	7.743
642.43	8.378
642.76	6.504
643.09	7.123
643.41	8.263
643.74	6.621
644.07	7.724
644.40	6.365
644.73	7.692
645.05	6.461
645.38	9.353
645.71	6.891
646.04	10.043
646.36	7.153
646.69	7.975
647.02	9.174
647.35	7.939
647.67	9.340
648.00	7.962
648.33	7.658
648.66	7.703
648.98	7.755
649.31	7.984
649.64	8.632
649.96	9.019
650.29	5.841
650.62	8.911
650.94	7.057
651.27	6.737
651.60	7.456
651.92	6.231
652.25	7.670
652.58	7.565
652.90	4.942
653.23	8.169
653.56	7.703
653.88	9.691
654.21	7.465
654.54	8.237
654.86	7.932
655.19	7.152
655.52	7.263
655.84	7.476
656.17	8.788
656.49	13.055
656.82	14.117
657.15	10.949
657.47	8.184
657.80	5.920
658.13	4.656
658.45	6.039
658.78	7.306
659.10	7.049
659.43	7.121
659.75	6.323
660.08	6.723
660.41	5.955
660.73	7.070
661.06	4.258
661.38	7.337
661.71	7.069
662.03	9.171
662.36	8.766
662.68	7.880
663.01	8.142
663.33	8.318
663.66	9.341
663.98	6.923
664.31	7.692
664.63	6.358
664.96	8.167
665.28	3.267
665.61	9.615
665.93	5.714
666.26	7.885
666.58	4.982
666.91	9.346
667.23	8.190
667.56	5.720
667.88	10.200
668.21	3.711
668.53	5.019
668.86	9.037
669.18	5.499
669.50	7.753
669.83	6.200
670.15	6.496
670.48	8.532
670.80	7.839
671.13	5.482
671.45	5.512
671.77	6.215
672.10	5.333
672.42	6.311
672.75	6.144
673.07	7.612
673.39	6.317
673.72	9.060
674.04	8.793
674.37	7.871
674.69	8.113
675.01	6.476
675.34	5.534
675.66	6.929
675.98	7.463
676.31	7.617
676.63	9.886
676.95	8.812
677.28	6.250
677.60	5.512
677.92	7.486
678.25	7.678
678.57	9.786
678.89	8.874
679.22	6.272
679.54	6.667
679.86	4.068
680.18	7.629
680.51	6.447
680.83	7.201
681.15	5.517
681.48	6.908
681.80	8.463
682.12	5.769
682.44	7.179
682.77	8.333
683.09	7.576
683.41	9.302
683.73	6.641
684.06	7.565
684.38	5.367
684.70	6.284
685.02	7.401
685.34	5.824
685.67	5.047
685.99	5.828
686.31	5.523
686.63	6.003
686.96	6.467
687.28	7.003
687.60	5.892
687.92	6.431
688.24	8.013
688.56	6.897
688.89	6.715
689.21	8.219
689.53	4.902
689.85	6.114
690.17	6.481
690.49	5.777
690.82	6.139
691.14	4.656
691.46	7.457
691.78	8.287
692.10	6.972
692.42	4.107
692.74	5.626
693.06	5.926
693.39	6.641
693.71	3.383
694.03	6.134
694.35	6.857
694.67	6.366
694.99	6.596
695.31	6.402
695.63	8.225
695.95	7.039
696.27	5.055
696.59	8.628
696.91	6.081
697.23	9.890
697.56	6.517
697.88	7.008
698.20	6.215
698.52	8.144
698.84	6.653
699.16	7.551
699.48	6.276
699.80	7.447
700.12	7.860
700.44	5.069
700.76	4.751
701.08	7.264
701.40	7.254
701.72	6.219
702.04	6.952
702.36	4.188
702.68	5.379
703.00	7.090
703.32	6.404
703.64	5.379
703.96	7.399
704.28	7.617
704.60	6.835
704.91	8.418
705.23	6.301
705.55	5.850
705.87	4.848
706.19	6.748
706.51	1.506
706.83	5.476
707.15	5.026
707.47	6.308
707.79	3.930
708.11	3.390
708.43	6.452
708.74	4.241
709.06	4.408
709.38	8.685
709.70	10.918
710.02	6.977
710.34	5.585
710.66	4.190
710.98	5.464
711.29	3.297
711.61	7.910
711.93	6.553
712.25	3.514
712.57	6.490
712.89	7.353
713.20	5.917
713.52	9.249
713.84	6.407
714.16	6.053
714.48	5.670
714.80	6.753
715.11	5.249
715.43	3.448
715.75	7.368
716.07	8.011
716.39	7.650
716.70	4.217
717.02	5.902
717.34	3.833
717.66	4.362
717.97	4.795
718.29	3.436
718.61	3.289
718.93	5.825
719.24	6.522
719.56	3.681
719.88	6.006
720.20	3.548
720.51	2.174
720.83	3.125
721.15	3.618
721.46	2.055
721.78	4.333
722.10	6.472
722.42	3.356
722.73	5.806
723.05	5.614
723.37	4.514
723.68	5.735
724.00	0.361
724.32	4.577
724.63	7.343
724.95	6.738
725.27	7.317
725.58	3.180
725.90	8.621
726.22	2.508
726.53	6.494
726.85	5.660
727.16	6.647
727.48	10.398
727.80	6.291
728.11	4.947
728.43	5.051
728.74	4.682
729.06	7.616
729.38	5.844
729.69	4.698
730.01	6.548
730.32	3.636
730.64	6.289
730.96	0.621
731.27	8.939
731.59	6.868
731.90	5.974
732.22	8.073
732.53	2.210
732.85	4.857
733.16	3.519
733.48	3.049
733.80	5.014
734.11	4.558
734.43	6.486
734.74	10.127
735.06	4.523
735.37	2.703
735.69	5.946
736.00	7.062
736.32	4.852
736.63	6.389
736.95	6.897
737.26	6.364
737.58	0.000
737.89	4.706
738.21	3.670
738.52	7.213
738.83	8.874
739.15	2.128
739.46	5.442
739.78	6.135
740.09	4.585
740.41	9.621
740.72	4.667
741.04	4.854
741.35	8.772
741.66	5.490
741.98	2.049
742.29	5.439
742.61	4.386
742.92	4.615
743.23	8.303
743.55	1.938
743.86	4.800
744.18	-1.240
744.49	2.532
744.80	6.996
745.12	4.641
745.43	6.098
745.74	3.017
746.06	7.627
746.37	4.641
746.68	5.285
747.00	5.833
747.31	1.717
747.62	8.846
747.94	3.644
748.25	0.000
748.56	4.898
748.88	0.855
749.19	9.483
749.50	1.732
749.82	5.622
750.13	7.473
750.44	-0.333
750.75	4.923
751.07	5.846
751.38	7.886
751.69	2.236
752.01	0.324
752.32	4.575
752.63	5.102
752.94	3.806
753.26	4.089
753.57	1.111
753.88	2.247
754.19	6.431
754.51	3.859
754.82	6.752
755.13	9.836
755.44	5.802
755.75	6.250
756.07	8.358
756.38	7.862
756.69	7.831
757.00	4.155
757.31	3.825
757.63	4.092
757.94	5.869
758.25	6.095
758.56	3.922
758.87	6.136
759.18	5.600
759.50	5.099
759.81	6.443
760.12	6.199
760.43	3.906
760.74	3.448
761.05	5.250
761.36	4.819
761.67	1.777
761.99	2.973
762.30	1.524
762.61	1.650
762.92	4.478
763.23	7.491
763.54	7.194
763.85	4.467
764.16	4.714
764.47	0.704
764.78	5.431
765.10	4.985
765.41	8.462
765.72	4.497
766.03	5.650
766.34	1.254
766.65	3.484
766.96	3.984
767.27	6.912
767.58	0.000
767.89	9.135
768.20	2.817
768.51	1.852
768.82	5.221
769.13	4.924
769.44	-1.923
769.75	5.415
770.06	5.769
770.37	7.087
770.68	2.128
770.99	2.024
771.30	11.111
771.61	4.183
771.92	2.963
772.23	6.478
772.54	0.926
772.85	9.677
773.16	10.000
773.47	-2.646
773.78	1.622
774.09	6.818
774.39	11.000
774.70	8.743
775.01	0.000
775.32	-1.176
775.63	6.748
775.94	-1.274
776.25	2.581
776.56	8.974
776.87	10.204
777.18	3.448
777.48	8.392
777.79	3.378
778.10	0.000
778.41	5.556
778.72	2.759
779.03	3.704
779.34	3.636
779.65	5.181
779.95	7.222
780.26	7.386
780.57	5.806
780.88	9.420
781.19	10.323
781.50	10.000
781.80	6.452
782.11	3.704
782.42	3.535
782.73	-1.198
783.04	1.676
783.34	1.818
783.65	0.654
783.96	6.211
784.27	2.381
784.57	3.311
784.88	11.429
785.19	5.512
785.50	7.874
785.81	-3.008
786.11	6.923
786.42	0.719
786.73	-3.597
787.04	0.752
787.34	5.738
787.65	-0.800
787.96	5.224
788.26	9.790
788.57	16.084
788.88	3.947
789.19	7.843
789.49	3.425
789.80	-1.418
790.11	2.362
790.41	10.938
790.72	6.780
791.03	-9.709
791.33	6.957
791.64	14.035
791.95	3.571
792.25	-3.810
792.56	7.143
792.87	-7.292
793.17	7.143
793.48	-4.167
793.79	-10.843
794.09	0.917
794.40	-6.422
794.70	5.442
795.01	-0.649
795.32	-3.425
795.62	5.634
795.93	4.545
796.23	4.098
796.54	-0.893
796.85	-11.702
797.15	-10.870
797.46	6.849
797.76	-5.000
798.07	4.348
798.37	-7.216
798.68	-6.494
798.99	1.149
799.29	-2.247
799.60	10.638
799.90	9.639
800.21	-10.769
800.51	-7.463
800.82	-2.941
801.12	-5.479
801.43	-14.706
801.73	-28.814
802.04	-4.545
802.34	-18.333
802.65	-11.864
802.95	5.970
803.26	-11.864
803.56	-2.740
803.87	7.143
804.17	5.479
804.48	-21.053
804.78	12.500
805.09	-10.345
805.39	9.459
805.70	0.000
806.00	12.195
806.30	-4.819
806.61	-4.110
806.91	7.692
807.22	2.222
807.52	-4.598
807.83	1.389
808.13	13.253
808.43	10.112
808.74	0.000
809.04	-5.882
809.35	-1.333
809.65	8.571
809.95	2.740
810.26	-10.526
810.56	-10.345
810.86	-2.941
811.17	5.263
811.47	-27.869
811.77	-20.000
812.08	-1.695
812.38	0.000
812.69	-1.724
812.99	-18.868
813.29	-51.282
813.59	10.000
813.90	-10.526
814.20	14.545
814.50	12.676
814.81	1.282
815.11	1.639
815.41	0.000
815.72	-3.448
816.02	7.143
816.32	-6.667
816.62	0.000
816.93	-13.333
817.23	14.815
817.53	2.128
817.84	0.000
818.14	-5.882
818.44	10.204
818.74	15.556
819.04	-12.821
819.35	-5.714
819.65	-42.308
819.95	-7.547
820.25	-4.444
820.56	-7.143
820.86	15.625
821.16	-30.769
821.46	-27.907
821.76	-10.000
822.07	0.000
822.37	-8.696
822.67	10.638
822.97	-5.405
823.27	0.000
823.57	26.531
823.88	22.222
824.18	10.000
824.48	-30.000
824.78	-36.000
825.08	0.000
825.38	15.556
825.69	2.128
825.99	-5.556
826.29	-37.143
826.59	0.000
826.89	-18.605
827.19	2.000
827.49	-11.765
827.79	25.000
828.09	-29.730
828.39	10.000
828.70	-4.878
829.00	4.651
829.30	-21.429
829.60	11.765
829.90	-6.522
830.20	0.000
830.50	-20.690
830.80	-22.222
831.10	-3.846
831.40	11.765
831.70	-23.810
832.00	35.484
832.30	-141.176
832.60	-12.500
832.90	-123.077
833.20	-26.316
833.50	-30.000
833.80	-15.789
834.10	-85.714
834.40	-16.667
834.70	6.250
835.00	-11.429
835.30	26.471
835.60	-26.667
835.90	-28.000
836.20	-59.091
836.50	-20.000
836.80	-12.121
837.10	-14.815
837.40	-22.222
837.70	-87.500
838.00	-3.571
838.30	-21.739
838.60	3.448
838.90	-7.143
839.19	-21.739
839.49	-108.333
839.79	-17.391
840.09	-62.500
840.39	-15.000
840.69	12.903
840.99	-10.714
841.29	-40.000
841.59	-36.842
841.88	12.821
842.18	0.000
842.48	-60.000
842.78	-5.000
843.08	53.333
843.38	9.677
843.68	-11.111
843.97	8.824
844.27	-18.750
844.57	-63.158
844.87	-80.000
845.17	-33.333
845.47	9.524
845.76	-28.571
846.06	-66.667
846.36	-17.647
846.66	19.231
846.96	-13.333
847.25	-5.882
847.55	8.696
847.85	-65.000
848.15	-41.176
848.44	-18.182
848.74	-14.286
849.04	-41.667
849.34	-50.000
849.63	-17.391
849.93	700.000
850.23	6.667
850.53	42.308
850.82	36.364
851.12	0.000
851.42	-72.727
851.71	0.000
852.01	-65.000
852.31	30.769
852.61	-52.632
852.90	-33.333
853.20	-11.111
853.50	-133.333
853.79	-38.095
854.09	-36.364
854.39	-83.333
854.68	-3.226
854.98	-11.538
855.28	-11.111
855.57	-42.857
855.87	0.000
856.17	-22.727
856.46	11.111
856.76	-38.889
857.05	-8.696
857.35	-45.833
857.65	15.385
857.94	-28.571
858.24	-29.630
858.53	-8.696
858.83	0.000
859.13	-17.647
859.42	35.294
859.72	14.286
860.01	-20.000
860.31	-166.667
860.60	-30.000
860.90	-26.667
861.20	33.333
861.49	-53.846
861.79	23.333
862.08	-23.077
862.38	15.625
862.67	5.882
862.97	-62.500
863.26	-88.889
863.56	-40.000
863.85	-45.455
864.15	27.778
864.44	-333.333
864.74	-35.714
865.03	-12.500
865.33	-100.000
865.62	3.226
865.92	4.545
866.21	-21.739
866.51	-28.571
866.80	-120.000
867.10	-8.333
867.39	-141.667
867.69	800.000
867.98	-14.286
868.27	-5.882
868.57	-1100.000
868.86	-250.000
869.16	-28.571
869.45	50.000
869.75	-36.364
870.04	-128.571
870.33	0.000
870.63	-185.714
870.92	100.000
871.22	-87.500
871.51	-118.182
871.80	-633.333
872.10	-100.000
>>>>>End Processed Spectral Data<<<<<
