SpectraSuite Data File
++++++++++++++++++++++++++++++++++++
Date: Thu May 14 16:29:05 PDT 2015
User: schluterlab
Dark Spectrum Present: Yes
Reference Spectrum Present: Yes
Number of Sampled Component Spectra: 1
Spectrometers: USB2E3373
Integration Time (usec): 3000 (USB2E3373)
Spectra Averaged: 3 (USB2E3373)
Boxcar Smoothing: 0 (USB2E3373)
Correct for Electrical Dark: No (USB2E3373)
Strobe/Lamp Enabled: No (USB2E3373)
Correct for Detector Non-linearity: No (USB2E3373)
Correct for Stray Light: No (USB2E3373)
Number of Pixels in Processed Spectrum: 2048
>>>>>Begin Processed Spectral Data<<<<<
178.53	0.000
178.91	-14.286
179.29	-700.000
179.67	-700.000
180.04	171.429
180.42	10.000
180.80	40.000
181.18	400.000
181.56	200.000
181.94	75.000
182.31	-25.000
182.69	-100.000
183.07	150.000
183.45	25.000
183.83	66.667
184.20	100.000
184.58	-300.000
184.96	100.000
185.34	-66.667
185.72	140.000
186.09	88.889
186.47	700.000
186.85	60.000
187.23	-22.222
187.61	-1400.000
187.98	-0.000
188.36	-0.000
188.74	50.000
189.12	166.667
189.49	37.500
189.87	12.500
190.25	-44.444
190.63	160.000
191.00	-66.667
191.38	0.000
191.76	0.000
192.14	-150.000
192.51	-350.000
192.89	116.667
193.27	0.000
193.65	28.571
194.02	-500.000
194.40	100.000
194.78	-57.143
195.15	0.000
195.53	27.273
195.91	0.000
196.29	-125.000
196.66	-7.692
197.04	-300.000
197.42	-114.286
197.79	500.000
198.17	12.500
198.55	-85.714
198.92	55.556
199.30	-87.500
199.68	-9.091
200.05	0.000
200.43	-150.000
200.81	128.571
201.18	0.000
201.56	155.556
201.94	0.000
202.31	233.333
202.69	33.333
203.07	-100.000
203.44	77.778
203.82	150.000
204.19	41.667
204.57	66.667
204.95	75.000
205.32	-300.000
205.70	-200.000
206.08	0.000
206.45	33.333
206.83	100.000
207.20	0.000
207.58	-20.000
207.96	-33.333
208.33	116.667
208.71	33.333
209.08	33.333
209.46	0.000
209.84	-16.667
210.21	350.000
210.59	-150.000
210.96	-66.667
211.34	200.000
211.71	100.000
212.09	200.000
212.46	0.000
212.84	750.000
213.22	-100.000
213.59	0.000
213.97	90.000
214.34	-66.667
214.72	-0.000
215.09	50.000
215.47	0.000
215.84	71.429
216.22	150.000
216.59	-60.000
216.97	0.000
217.34	-100.000
217.72	12.500
218.09	-125.000
218.47	-50.000
218.84	0.000
219.22	80.000
219.59	0.000
219.97	5.000
220.34	450.000
220.72	-66.667
221.09	92.308
221.47	33.333
221.84	20.000
222.22	-71.429
222.59	0.000
222.97	25.000
223.34	-100.000
223.72	-1000.000
224.09	75.000
224.46	-325.000
224.84	80.000
225.21	-128.571
225.59	-100.000
225.96	25.000
226.34	15.385
226.71	283.333
227.08	0.000
227.46	-6.667
227.83	25.000
228.21	0.000
228.58	62.500
228.95	400.000
229.33	25.000
229.70	20.000
230.08	110.526
230.45	20.000
230.82	-100.000
231.20	14.286
231.57	58.333
231.95	9.091
232.32	100.000
232.69	40.000
233.07	-25.000
233.44	-11.765
233.81	-30.000
234.19	11.111
234.56	22.727
234.93	31.034
235.31	52.632
235.68	-5.556
236.05	-20.000
236.43	46.154
236.80	72.000
237.17	62.963
237.55	12.121
237.92	-150.000
238.29	-12.903
238.67	29.545
239.04	27.778
239.41	7.143
239.79	23.913
240.16	7.407
240.53	19.565
240.91	7.843
241.28	14.754
241.65	32.836
242.02	27.027
242.40	16.923
242.77	6.667
243.14	8.537
243.51	18.421
243.89	8.974
244.26	14.851
244.63	27.451
245.00	21.495
245.38	22.807
245.75	6.195
246.12	26.984
246.49	17.054
246.87	26.429
247.24	21.854
247.61	22.368
247.98	15.436
248.36	16.049
248.73	12.883
249.10	12.022
249.47	25.373
249.84	19.372
250.22	11.917
250.59	17.778
250.96	20.455
251.33	18.367
251.70	20.940
252.08	19.583
252.45	18.852
252.82	17.769
253.19	10.938
253.56	19.772
253.94	16.154
254.31	16.288
254.68	19.231
255.05	20.195
255.42	19.388
255.79	14.887
256.16	17.219
256.54	16.887
256.91	16.393
257.28	16.721
257.65	17.197
258.02	15.929
258.39	16.809
258.76	20.795
259.14	21.839
259.51	17.867
259.88	15.581
260.25	19.167
260.62	21.096
260.99	19.399
261.36	18.499
261.73	19.363
262.10	14.835
262.47	17.158
262.85	20.455
263.22	17.922
263.59	14.211
263.96	18.159
264.33	14.578
264.70	20.988
265.07	21.718
265.44	21.088
265.81	16.898
266.18	19.955
266.55	17.857
266.92	17.312
267.29	21.007
267.66	19.512
268.03	19.432
268.40	17.954
268.77	17.995
269.14	14.758
269.51	21.053
269.88	18.443
270.25	18.712
270.62	22.152
270.99	21.616
271.36	18.416
271.73	19.057
272.10	19.639
272.47	17.635
272.84	19.277
273.21	16.032
273.58	18.548
273.95	16.731
274.32	18.061
274.69	17.602
275.06	18.864
275.43	15.342
275.80	18.871
276.17	18.519
276.54	19.030
276.91	17.352
277.28	17.722
277.65	17.056
278.02	19.669
278.39	19.203
278.76	14.763
279.13	16.135
279.50	19.588
279.87	17.531
280.23	15.493
280.60	17.288
280.97	19.079
281.34	15.110
281.71	18.782
282.08	17.940
282.45	15.221
282.82	16.641
283.19	15.670
283.56	17.377
283.92	19.670
284.29	17.378
284.66	18.719
285.03	16.987
285.40	19.165
285.77	16.409
286.14	16.947
286.51	17.047
286.87	16.430
287.24	17.922
287.61	16.891
287.98	15.861
288.35	15.237
288.72	18.195
289.08	16.691
289.45	16.420
289.82	15.060
290.19	14.799
290.56	17.324
290.93	16.690
291.29	16.116
291.66	14.738
292.03	15.332
292.40	17.007
292.77	16.038
293.13	16.915
293.50	13.929
293.87	14.362
294.24	15.200
294.60	13.654
294.97	14.497
295.34	15.109
295.71	12.106
296.08	14.470
296.44	14.951
296.81	14.129
297.18	13.823
297.55	12.854
297.91	14.353
298.28	13.863
298.65	13.912
299.02	13.813
299.38	13.043
299.75	13.435
300.12	13.079
300.48	12.442
300.85	14.398
301.22	12.528
301.59	13.470
301.95	13.559
302.32	15.222
302.69	14.567
303.05	12.622
303.42	13.858
303.79	13.333
304.15	13.039
304.52	12.896
304.89	14.241
305.25	12.526
305.62	12.435
305.99	13.711
306.35	13.508
306.72	12.513
307.09	13.503
307.45	13.975
307.82	12.815
308.19	13.320
308.55	14.176
308.92	13.924
309.29	13.123
309.65	13.743
310.02	13.465
310.38	13.386
310.75	15.049
311.12	15.532
311.48	13.783
311.85	13.675
312.22	14.706
312.58	14.554
312.95	14.532
313.31	14.815
313.68	15.476
314.05	15.537
314.41	16.758
314.78	15.895
315.14	16.062
315.51	16.713
315.87	16.832
316.24	17.169
316.61	16.607
316.97	17.014
317.34	16.843
317.70	18.166
318.07	16.667
318.43	18.793
318.80	17.893
319.16	17.940
319.53	16.538
319.89	18.230
320.26	19.662
320.62	18.440
320.99	19.114
321.35	19.501
321.72	20.837
322.08	20.198
322.45	21.048
322.81	21.209
323.18	21.150
323.54	20.345
323.91	20.907
324.27	21.343
324.64	21.914
325.00	21.642
325.37	21.949
325.73	23.388
326.10	24.088
326.46	22.557
326.83	24.900
327.19	22.756
327.56	24.427
327.92	22.895
328.29	22.500
328.65	22.529
329.01	24.112
329.38	24.937
329.74	26.370
330.11	24.914
330.47	24.516
330.84	25.237
331.20	25.167
331.56	26.256
331.93	25.523
332.29	26.780
332.66	25.748
333.02	24.204
333.38	24.245
333.75	25.253
334.11	26.355
334.48	26.320
334.84	26.593
335.20	24.601
335.57	26.138
335.93	26.281
336.29	24.875
336.66	25.736
337.02	26.421
337.38	26.361
337.75	25.455
338.11	26.493
338.47	24.897
338.84	26.058
339.20	24.684
339.56	26.112
339.93	25.369
340.29	25.282
340.65	25.385
341.02	25.778
341.38	25.788
341.74	25.262
342.11	27.514
342.47	25.179
342.83	26.006
343.20	26.901
343.56	25.501
343.92	26.421
344.28	25.859
344.65	26.047
345.01	26.443
345.37	25.816
345.73	25.565
346.10	26.599
346.46	26.424
346.82	26.891
347.19	26.891
347.55	27.011
347.91	26.226
348.27	25.645
348.63	26.657
349.00	26.398
349.36	27.138
349.72	26.563
350.08	26.449
350.45	26.388
350.81	26.169
351.17	26.692
351.53	26.535
351.89	28.474
352.26	25.896
352.62	27.313
352.98	27.634
353.34	26.288
353.70	26.965
354.07	26.751
354.43	26.879
354.79	26.552
355.15	26.269
355.51	27.558
355.87	27.076
356.24	26.692
356.60	26.681
356.96	29.059
357.32	26.543
357.68	27.086
358.04	26.946
358.40	28.060
358.77	27.778
359.13	27.474
359.49	27.658
359.85	28.209
360.21	27.690
360.57	27.782
360.93	28.138
361.29	27.509
361.66	28.385
362.02	28.740
362.38	28.531
362.74	28.003
363.10	29.505
363.46	29.017
363.82	28.480
364.18	28.501
364.54	29.115
364.90	29.030
365.26	29.034
365.62	28.600
365.98	29.067
366.35	28.456
366.71	29.864
367.07	29.296
367.43	29.678
367.79	29.927
368.15	31.037
368.51	30.379
368.87	29.197
369.23	30.533
369.59	30.738
369.95	29.682
370.31	30.317
370.67	30.812
371.03	30.402
371.39	29.416
371.75	30.193
372.11	30.894
372.47	30.738
372.83	30.236
373.19	30.754
373.55	30.352
373.91	30.607
374.27	31.565
374.63	31.800
374.99	30.968
375.35	31.948
375.71	30.968
376.07	31.440
376.42	32.557
376.78	32.256
377.14	30.630
377.50	32.638
377.86	32.204
378.22	32.874
378.58	31.272
378.94	32.277
379.30	31.693
379.66	31.746
380.02	32.025
380.38	32.200
380.74	32.056
381.09	32.695
381.45	33.409
381.81	33.489
382.17	32.423
382.53	33.216
382.89	33.126
383.25	33.353
383.61	33.623
383.97	32.509
384.32	34.510
384.68	32.947
385.04	33.892
385.40	33.765
385.76	34.467
386.12	33.633
386.48	34.000
386.83	33.790
387.19	33.546
387.55	33.627
387.91	33.105
388.27	33.949
388.62	33.963
388.98	33.785
389.34	33.824
389.70	34.282
390.06	33.985
390.42	33.614
390.77	34.437
391.13	33.333
391.49	34.239
391.85	34.182
392.20	34.342
392.56	34.731
392.92	34.678
393.28	34.107
393.64	33.575
393.99	35.270
394.35	34.988
394.71	35.329
395.07	34.072
395.42	33.981
395.78	35.527
396.14	34.819
396.50	34.679
396.85	35.063
397.21	34.142
397.57	34.570
397.92	35.911
398.28	34.438
398.64	33.581
399.00	34.921
399.35	34.188
399.71	33.859
400.07	35.036
400.42	34.866
400.78	34.317
401.14	35.231
401.49	34.622
401.85	35.640
402.21	35.052
402.57	35.153
402.92	35.638
403.28	33.958
403.63	35.382
403.99	34.264
404.35	34.565
404.70	35.184
405.06	33.641
405.42	34.192
405.77	34.024
406.13	35.008
406.49	34.628
406.84	34.848
407.20	34.377
407.55	34.343
407.91	33.061
408.27	32.744
408.62	34.788
408.98	34.881
409.34	34.018
409.69	34.363
410.05	35.287
410.40	35.847
410.76	34.436
411.11	34.424
411.47	35.197
411.83	34.744
412.18	35.482
412.54	34.795
412.89	35.215
413.25	35.158
413.60	34.463
413.96	36.131
414.31	34.504
414.67	34.109
415.03	34.954
415.38	35.498
415.74	34.148
416.09	35.102
416.45	33.939
416.80	34.639
417.16	34.802
417.51	34.994
417.87	35.071
418.22	34.731
418.58	34.758
418.93	34.459
419.29	35.265
419.64	33.733
420.00	34.659
420.35	34.756
420.71	33.946
421.06	34.503
421.42	35.092
421.77	34.356
422.12	34.408
422.48	34.665
422.83	35.926
423.19	34.005
423.54	36.007
423.90	35.174
424.25	35.360
424.61	35.017
424.96	35.695
425.31	35.138
425.67	35.212
426.02	34.864
426.38	35.304
426.73	35.603
427.09	35.640
427.44	34.025
427.79	35.876
428.15	36.016
428.50	34.944
428.85	35.706
429.21	35.532
429.56	35.094
429.92	35.627
430.27	35.807
430.62	35.662
430.98	35.219
431.33	35.288
431.68	34.674
432.04	35.703
432.39	35.244
432.74	35.103
433.10	35.857
433.45	35.396
433.80	35.569
434.16	35.434
434.51	37.205
434.86	36.374
435.22	36.823
435.57	36.144
435.92	37.006
436.28	36.291
436.63	36.155
436.98	35.641
437.34	36.359
437.69	35.938
438.04	34.796
438.39	35.899
438.75	35.861
439.10	35.835
439.45	35.774
439.81	36.271
440.16	36.032
440.51	35.563
440.86	35.242
441.22	35.959
441.57	36.426
441.92	36.663
442.27	36.313
442.63	35.420
442.98	36.126
443.33	36.349
443.68	36.274
444.03	37.159
444.39	36.801
444.74	36.243
445.09	35.073
445.44	35.616
445.79	35.872
446.15	36.382
446.50	36.537
446.85	36.916
447.20	36.170
447.55	35.774
447.91	36.440
448.26	35.941
448.61	36.238
448.96	37.446
449.31	36.002
449.66	35.185
450.02	36.287
450.37	36.708
450.72	36.706
451.07	37.016
451.42	35.702
451.77	34.575
452.12	37.020
452.47	35.651
452.83	36.543
453.18	35.960
453.53	35.612
453.88	35.947
454.23	35.876
454.58	36.854
454.93	36.772
455.28	36.785
455.63	36.100
455.98	36.257
456.34	35.984
456.69	36.038
457.04	35.638
457.39	35.698
457.74	35.570
458.09	36.079
458.44	36.045
458.79	35.688
459.14	36.445
459.49	36.220
459.84	36.306
460.19	35.258
460.54	36.457
460.89	36.157
461.24	36.149
461.59	36.248
461.94	34.797
462.29	36.058
462.64	34.218
462.99	35.468
463.34	34.912
463.69	34.760
464.04	36.131
464.39	34.922
464.74	34.721
465.09	34.717
465.44	34.603
465.79	34.585
466.14	34.966
466.49	34.684
466.84	35.207
467.19	35.029
467.54	34.254
467.89	33.908
468.24	34.460
468.59	34.163
468.94	34.848
469.29	34.073
469.64	34.838
469.99	34.608
470.34	32.921
470.68	34.586
471.03	33.726
471.38	33.617
471.73	33.160
472.08	34.772
472.43	33.293
472.78	34.383
473.13	33.755
473.48	34.018
473.83	34.185
474.17	33.763
474.52	33.674
474.87	33.887
475.22	35.099
475.57	33.956
475.92	33.001
476.27	34.239
476.61	32.970
476.96	33.003
477.31	33.911
477.66	34.470
478.01	32.842
478.36	33.350
478.70	32.512
479.05	32.566
479.40	33.268
479.75	32.757
480.10	32.781
480.45	32.771
480.79	33.152
481.14	32.996
481.49	32.940
481.84	32.202
482.19	32.602
482.53	32.444
482.88	33.097
483.23	32.948
483.58	31.616
483.92	32.181
484.27	32.599
484.62	32.715
484.97	31.921
485.31	31.257
485.66	31.407
486.01	31.450
486.36	31.624
486.70	32.820
487.05	32.013
487.40	31.484
487.75	31.272
488.09	30.741
488.44	30.210
488.79	30.961
489.13	30.521
489.48	30.252
489.83	30.503
490.17	30.215
490.52	30.665
490.87	31.007
491.22	31.369
491.56	30.930
491.91	30.964
492.26	30.982
492.60	30.783
492.95	30.145
493.30	29.583
493.64	30.661
493.99	29.912
494.34	29.922
494.68	29.764
495.03	30.132
495.37	30.670
495.72	30.159
496.07	29.930
496.41	29.987
496.76	29.858
497.11	30.955
497.45	30.125
497.80	30.475
498.14	29.932
498.49	29.228
498.84	29.342
499.18	29.645
499.53	30.448
499.87	29.055
500.22	28.807
500.56	29.240
500.91	29.931
501.26	29.955
501.60	28.458
501.95	29.744
502.29	29.048
502.64	28.596
502.98	29.077
503.33	28.121
503.67	28.173
504.02	28.678
504.36	28.820
504.71	28.525
505.06	28.013
505.40	28.656
505.75	28.506
506.09	28.499
506.44	28.505
506.78	28.624
507.13	28.677
507.47	29.180
507.82	27.936
508.16	27.964
508.51	28.036
508.85	28.200
509.19	28.186
509.54	27.762
509.88	28.072
510.23	28.752
510.57	27.598
510.92	27.092
511.26	27.177
511.61	26.847
511.95	26.842
512.30	27.425
512.64	26.737
512.98	26.963
513.33	27.016
513.67	27.486
514.02	27.184
514.36	27.008
514.70	27.240
515.05	27.894
515.39	27.717
515.74	27.306
516.08	27.417
516.42	28.048
516.77	27.234
517.11	26.560
517.46	28.155
517.80	26.937
518.14	28.128
518.49	26.518
518.83	26.557
519.17	25.794
519.52	26.310
519.86	27.508
520.20	26.571
520.55	25.356
520.89	26.464
521.23	26.410
521.58	26.497
521.92	26.402
522.26	25.773
522.61	26.620
522.95	25.894
523.29	26.782
523.64	25.392
523.98	25.784
524.32	26.361
524.66	25.555
525.01	25.481
525.35	26.020
525.69	25.580
526.04	24.742
526.38	24.943
526.72	25.490
527.06	25.513
527.41	24.665
527.75	26.010
528.09	26.328
528.43	25.459
528.78	24.740
529.12	25.631
529.46	24.621
529.80	25.400
530.15	26.087
530.49	24.437
530.83	25.207
531.17	25.090
531.51	24.850
531.86	24.579
532.20	25.061
532.54	24.776
532.88	25.030
533.22	24.691
533.57	24.293
533.91	25.196
534.25	25.042
534.59	24.310
534.93	24.448
535.27	25.239
535.62	24.957
535.96	24.521
536.30	24.266
536.64	25.045
536.98	24.231
537.32	24.444
537.66	25.203
538.01	23.867
538.35	23.873
538.69	24.159
539.03	23.483
539.37	23.675
539.71	23.544
540.05	24.940
540.39	23.655
540.73	24.226
541.07	25.261
541.42	23.568
541.76	22.894
542.10	23.583
542.44	23.325
542.78	23.966
543.12	23.778
543.46	23.260
543.80	23.261
544.14	22.501
544.48	23.286
544.82	23.758
545.16	23.852
545.50	22.888
545.84	23.637
546.18	23.580
546.52	22.675
546.86	22.453
547.20	23.601
547.54	22.534
547.88	23.146
548.22	22.690
548.56	23.171
548.90	22.806
549.24	22.857
549.58	23.028
549.92	22.385
550.26	23.236
550.60	23.421
550.94	24.644
551.28	22.574
551.62	22.844
551.96	22.718
552.30	23.327
552.64	23.460
552.98	23.019
553.32	22.572
553.66	22.186
554.00	22.383
554.34	22.587
554.68	21.498
555.02	21.025
555.36	23.143
555.69	21.525
556.03	22.762
556.37	23.029
556.71	21.877
557.05	22.364
557.39	22.296
557.73	21.863
558.07	21.126
558.41	22.525
558.75	21.433
559.08	22.825
559.42	21.811
559.76	22.592
560.10	22.237
560.44	21.306
560.78	23.187
561.12	22.475
561.45	22.506
561.79	22.466
562.13	22.181
562.47	20.900
562.81	21.772
563.15	22.348
563.48	21.504
563.82	21.463
564.16	20.594
564.50	20.977
564.84	21.416
565.17	21.176
565.51	21.289
565.85	21.318
566.19	21.256
566.52	21.475
566.86	21.279
567.20	21.588
567.54	21.880
567.88	21.254
568.21	21.294
568.55	21.199
568.89	21.698
569.23	21.251
569.56	21.180
569.90	21.311
570.24	21.754
570.57	21.264
570.91	21.157
571.25	21.782
571.59	21.570
571.92	21.135
572.26	21.202
572.60	20.639
572.93	20.790
573.27	20.877
573.61	20.937
573.95	20.976
574.28	20.743
574.62	20.555
574.96	20.225
575.29	20.423
575.63	20.490
575.97	20.383
576.30	20.725
576.64	20.234
576.98	20.456
577.31	20.609
577.65	20.347
577.98	20.576
578.32	20.188
578.66	20.373
578.99	19.762
579.33	20.009
579.67	20.127
580.00	20.072
580.34	19.764
580.67	20.102
581.01	19.840
581.35	20.203
581.68	20.142
582.02	20.049
582.35	20.470
582.69	20.082
583.02	20.333
583.36	20.107
583.70	19.609
584.03	19.990
584.37	19.748
584.70	19.438
585.04	19.786
585.37	19.642
585.71	20.000
586.04	20.035
586.38	20.125
586.72	19.579
587.05	19.621
587.39	19.496
587.72	20.024
588.06	19.947
588.39	19.816
588.73	19.418
589.06	19.300
589.40	19.975
589.73	19.762
590.07	19.629
590.40	20.014
590.73	19.901
591.07	19.732
591.40	20.101
591.74	19.793
592.07	19.976
592.41	19.756
592.74	19.737
593.08	20.159
593.41	20.472
593.75	19.397
594.08	20.055
594.41	19.808
594.75	19.827
595.08	19.381
595.42	19.545
595.75	19.923
596.09	19.587
596.42	18.954
596.75	19.452
597.09	19.030
597.42	19.428
597.75	19.247
598.09	20.000
598.42	18.898
598.76	19.068
599.09	19.473
599.42	18.907
599.76	19.049
600.09	19.353
600.42	19.086
600.76	19.617
601.09	18.818
601.42	19.361
601.76	18.966
602.09	18.942
602.42	18.939
602.76	19.705
603.09	19.053
603.42	19.039
603.76	18.710
604.09	18.950
604.42	19.009
604.76	18.874
605.09	19.545
605.42	19.139
605.75	18.923
606.09	18.253
606.42	18.242
606.75	17.991
607.09	18.433
607.42	19.114
607.75	18.953
608.08	18.666
608.42	18.339
608.75	19.113
609.08	18.888
609.41	18.880
609.75	18.705
610.08	18.777
610.41	18.309
610.74	18.950
611.07	18.650
611.41	18.520
611.74	19.538
612.07	19.448
612.40	18.441
612.73	17.506
613.07	18.582
613.40	19.057
613.73	17.718
614.06	19.087
614.39	18.416
614.72	18.244
615.06	18.142
615.39	18.125
615.72	18.246
616.05	18.796
616.38	18.365
616.71	18.443
617.05	18.211
617.38	19.369
617.71	18.898
618.04	17.917
618.37	18.852
618.70	18.326
619.03	17.563
619.36	17.324
619.69	17.681
620.03	17.954
620.36	17.914
620.69	17.582
621.02	19.226
621.35	19.594
621.68	19.161
622.01	17.936
622.34	18.340
622.67	17.938
623.00	16.329
623.33	19.642
623.66	18.288
623.99	17.446
624.32	18.454
624.65	17.889
624.99	18.791
625.32	18.550
625.65	19.083
625.98	17.966
626.31	17.364
626.64	17.436
626.97	17.929
627.30	17.844
627.63	18.605
627.96	18.093
628.29	17.588
628.62	17.045
628.95	17.528
629.28	18.012
629.61	17.593
629.94	16.736
630.26	16.610
630.59	17.876
630.92	15.844
631.25	18.694
631.58	17.985
631.91	16.963
632.24	18.444
632.57	18.121
632.90	17.753
633.23	16.735
633.56	17.143
633.89	16.942
634.22	19.439
634.55	18.894
634.88	16.558
635.20	18.084
635.53	17.966
635.86	18.527
636.19	19.512
636.52	17.932
636.85	17.773
637.18	17.568
637.51	17.312
637.83	17.276
638.16	17.166
638.49	17.606
638.82	18.264
639.15	16.380
639.48	18.129
639.81	18.129
640.13	16.961
640.46	16.606
640.79	16.912
641.12	18.882
641.45	17.189
641.77	18.614
642.10	17.323
642.43	18.085
642.76	17.209
643.09	18.767
643.41	16.947
643.74	18.207
644.07	18.207
644.40	15.559
644.73	16.255
645.05	18.355
645.38	17.266
645.71	16.716
646.04	19.369
646.36	18.394
646.69	16.411
647.02	16.972
647.35	19.237
647.67	16.425
648.00	16.720
648.33	17.267
648.66	18.260
648.98	17.007
649.31	16.915
649.64	18.858
649.96	16.711
650.29	15.855
650.62	17.539
650.94	17.267
651.27	15.419
651.60	16.520
651.92	15.653
652.25	16.643
652.58	17.194
652.90	16.715
653.23	17.042
653.56	15.549
653.88	17.697
654.21	17.746
654.54	16.618
654.86	17.989
655.19	15.182
655.52	18.516
655.84	17.548
656.17	21.223
656.49	29.700
656.82	31.984
657.15	24.028
657.47	17.513
657.80	12.875
658.13	9.846
658.45	12.800
658.78	15.550
659.10	14.824
659.43	14.752
659.75	14.957
660.08	14.790
660.41	15.054
660.73	14.595
661.06	14.684
661.38	15.949
661.71	15.345
662.03	14.109
662.36	18.605
662.68	18.762
663.01	15.398
663.33	16.824
663.66	18.315
663.98	15.962
664.31	17.073
664.63	13.102
664.96	19.419
665.28	15.064
665.61	19.580
665.93	14.643
666.26	18.638
666.58	13.838
666.91	17.009
667.23	17.905
667.56	17.949
667.88	18.200
668.21	16.211
668.53	13.900
668.86	16.896
669.18	15.275
669.50	16.103
669.83	16.000
670.15	15.945
670.48	17.460
670.80	15.296
671.13	15.879
671.45	15.157
671.77	16.949
672.10	15.833
672.42	16.181
672.75	17.204
673.07	15.373
673.39	14.792
673.72	16.611
674.04	16.207
674.37	15.564
674.69	16.931
675.01	13.143
675.34	13.740
675.66	14.794
675.98	17.537
676.31	16.211
676.63	18.061
676.95	18.966
677.28	15.927
677.60	15.354
677.92	15.547
678.25	16.819
678.57	16.726
678.89	16.724
679.22	15.679
679.54	16.239
679.86	14.576
680.18	14.096
680.51	16.038
680.83	17.349
681.15	14.483
681.48	16.926
681.80	15.371
682.12	13.986
682.44	16.361
682.77	14.007
683.09	15.720
683.41	18.411
683.73	16.319
684.06	13.284
684.38	13.596
684.70	15.799
685.02	16.695
685.34	13.478
685.67	16.404
685.99	15.951
686.31	15.407
686.63	16.114
686.96	14.196
687.28	18.078
687.60	14.983
687.92	16.559
688.24	17.028
688.56	13.448
688.89	13.975
689.21	15.460
689.53	16.078
689.85	16.174
690.17	14.444
690.49	15.737
690.82	15.248
691.14	12.551
691.46	14.532
691.78	17.127
692.10	15.229
692.42	15.357
692.74	15.064
693.06	11.852
693.39	15.750
693.71	13.722
694.03	16.914
694.35	15.429
694.67	15.811
694.99	13.830
695.31	14.570
695.63	14.935
695.95	14.907
696.27	14.725
696.59	16.150
696.91	14.865
697.23	16.923
697.56	15.682
697.88	15.720
698.20	16.573
698.52	17.992
698.84	14.761
699.16	14.286
699.48	14.017
699.80	16.170
700.12	17.031
700.44	11.521
700.76	17.577
701.08	16.949
701.40	19.430
701.72	13.682
702.04	14.439
702.36	12.042
702.68	18.582
703.00	14.181
703.32	14.286
703.64	15.648
703.96	15.752
704.28	16.462
704.60	16.709
704.91	17.092
705.23	14.521
705.55	12.813
705.87	15.152
706.19	17.178
706.51	11.145
706.83	15.850
707.15	14.021
707.47	15.187
707.79	17.904
708.11	12.500
708.43	13.763
708.74	11.830
709.06	16.241
709.38	15.962
709.70	18.610
710.02	15.762
710.34	15.426
710.66	13.687
710.98	16.393
711.29	16.484
711.61	13.559
711.93	15.954
712.25	13.243
712.57	14.454
712.89	17.647
713.20	15.089
713.52	15.029
713.84	13.092
714.16	13.421
714.48	13.918
714.80	17.403
715.11	13.123
715.43	14.854
715.75	15.789
716.07	14.917
716.39	16.667
716.70	14.759
717.02	16.066
717.34	10.105
717.66	12.752
717.97	11.301
718.29	10.653
718.61	12.829
718.93	12.621
719.24	14.286
719.56	19.018
719.88	15.015
720.20	15.484
720.51	15.528
720.83	12.500
721.15	13.158
721.46	11.301
721.78	14.000
722.10	9.061
722.42	12.416
722.73	12.258
723.05	13.684
723.37	15.972
723.68	18.638
724.00	15.884
724.32	14.437
724.63	13.636
724.95	14.539
725.27	10.801
725.58	12.014
725.90	16.207
726.22	11.599
726.53	15.260
726.85	15.409
727.16	16.616
727.48	15.596
727.80	15.232
728.11	13.428
728.43	13.468
728.74	14.716
729.06	13.907
729.38	12.662
729.69	13.758
730.01	16.369
730.32	12.727
730.64	15.094
730.96	11.801
731.27	16.201
731.59	17.308
731.90	14.286
732.22	13.542
732.53	10.773
732.85	13.429
733.16	15.543
733.48	10.671
733.80	13.928
734.11	12.536
734.43	14.054
734.74	17.215
735.06	14.070
735.37	14.595
735.69	15.135
736.00	16.384
736.32	15.094
736.63	15.278
736.95	15.805
737.26	13.030
737.58	11.515
737.89	17.353
738.21	12.538
738.52	14.426
738.83	14.334
739.15	14.894
739.46	14.626
739.78	15.644
740.09	10.315
740.41	14.869
740.72	13.333
741.04	15.210
741.35	18.246
741.66	12.157
741.98	19.672
742.29	17.573
742.61	14.474
742.92	16.154
743.23	15.523
743.55	15.504
743.86	13.200
744.18	10.744
744.49	10.970
744.80	18.930
745.12	13.502
745.43	16.260
745.74	13.362
746.06	11.864
746.37	15.612
746.68	16.667
747.00	14.583
747.31	12.017
747.62	18.077
747.94	14.575
748.25	13.253
748.56	10.612
748.88	11.111
749.19	13.362
749.50	10.823
749.82	14.859
750.13	14.947
750.44	12.333
750.75	14.154
751.07	16.000
751.38	14.826
751.69	15.016
752.01	12.298
752.32	13.725
752.63	13.605
752.94	15.917
753.26	11.896
753.57	9.630
753.88	14.232
754.19	13.826
754.51	12.219
754.82	16.399
755.13	18.361
755.44	15.017
755.75	13.487
756.07	14.328
756.38	15.094
756.69	16.566
757.00	9.972
757.31	12.568
757.63	12.788
757.94	13.615
758.25	16.704
758.56	13.072
758.87	13.636
759.18	12.800
759.50	16.714
759.81	14.846
760.12	14.555
760.43	12.760
760.74	14.778
761.05	14.250
761.36	14.940
761.67	12.690
761.99	15.946
762.30	10.061
762.61	16.502
762.92	14.925
763.23	14.981
763.54	12.950
763.85	12.715
764.16	15.152
764.47	13.732
764.78	15.655
765.10	13.196
765.41	15.641
765.72	12.169
766.03	16.667
766.34	14.107
766.65	13.240
766.96	13.546
767.27	14.286
767.58	12.438
767.89	16.346
768.20	16.901
768.51	17.593
768.82	11.245
769.13	15.530
769.44	8.846
769.75	14.440
770.06	15.769
770.37	17.323
770.68	11.915
770.99	8.907
771.30	18.889
771.61	15.209
771.92	12.222
772.23	20.243
772.54	13.889
772.85	19.355
773.16	16.667
773.47	10.582
773.78	7.568
774.09	16.477
774.39	15.000
774.70	8.197
775.01	8.537
775.32	11.176
775.63	12.270
775.94	3.822
776.25	18.065
776.56	13.462
776.87	17.687
777.18	15.172
777.48	11.189
777.79	11.486
778.10	7.353
778.41	11.111
778.72	15.862
779.03	17.901
779.34	18.788
779.65	14.508
779.95	15.000
780.26	10.227
780.57	9.032
780.88	21.014
781.19	15.484
781.50	16.471
781.80	12.366
782.11	12.698
782.42	9.091
782.73	13.174
783.04	18.436
783.34	13.333
783.65	7.190
783.96	8.696
784.27	17.262
784.57	19.868
784.88	16.429
785.19	14.173
785.50	18.898
785.81	15.038
786.11	18.462
786.42	10.072
786.73	9.353
787.04	19.549
787.34	14.754
787.65	19.200
787.96	14.179
788.26	20.979
788.57	19.580
788.88	7.237
789.19	22.222
789.49	15.068
789.80	12.766
790.11	4.724
790.41	8.594
790.72	19.492
791.03	5.825
791.33	12.174
791.64	19.298
791.95	9.821
792.25	9.524
792.56	7.143
792.87	9.375
793.17	17.857
793.48	6.250
793.79	-2.410
794.09	7.339
794.40	6.422
794.70	18.367
795.01	17.532
795.32	10.274
795.62	18.310
795.93	9.091
796.23	14.754
796.54	10.714
796.85	15.957
797.15	9.783
797.46	5.479
797.76	8.750
798.07	16.304
798.37	3.093
798.68	1.299
798.99	9.195
799.29	7.865
799.60	8.511
799.90	14.458
800.21	15.385
800.51	20.896
800.82	4.412
801.12	-5.479
801.43	0.000
801.73	3.390
802.04	18.182
802.34	3.333
802.65	3.390
802.95	14.925
803.26	16.949
803.56	5.479
803.87	10.000
804.17	8.219
804.48	-22.807
804.78	13.889
805.09	0.000
805.39	18.919
805.70	7.042
806.00	6.098
806.30	4.819
806.61	4.110
806.91	9.615
807.22	11.111
807.52	1.149
807.83	25.000
808.13	15.663
808.43	12.360
808.74	11.250
809.04	5.882
809.35	5.333
809.65	2.857
809.95	12.329
810.26	7.018
810.56	17.241
810.86	14.706
811.17	1.754
811.47	-1.639
811.77	-17.778
812.08	10.169
812.38	25.000
812.69	17.241
812.99	-5.660
813.29	15.385
813.59	14.000
813.90	22.807
814.20	3.636
814.50	8.451
814.81	16.667
815.11	27.869
815.41	10.448
815.72	20.690
816.02	17.857
816.32	8.889
816.62	-2.273
816.93	-2.222
817.23	25.926
817.53	25.532
817.84	4.762
818.14	14.706
818.44	8.163
818.74	-17.778
819.04	-17.949
819.35	0.000
819.65	-26.923
819.95	16.981
820.25	13.333
820.56	4.762
820.86	0.000
821.16	2.564
821.46	-4.651
821.76	-8.000
822.07	8.929
822.37	-6.522
822.67	8.511
822.97	-24.324
823.27	5.000
823.57	22.449
823.88	8.889
824.18	7.500
824.48	-13.333
824.78	-8.000
825.08	36.364
825.38	33.333
825.69	8.511
825.99	11.111
826.29	-40.000
826.59	-15.385
826.89	-9.302
827.19	-16.000
827.49	14.706
827.79	2.083
828.09	-10.811
828.39	3.333
828.70	2.439
829.00	11.628
829.30	-14.286
829.60	23.529
829.90	6.522
830.20	0.000
830.50	-6.897
830.80	-27.778
831.10	19.231
831.40	14.706
831.70	-19.048
832.00	16.129
832.30	-47.059
832.60	-16.667
832.90	-100.000
833.20	-5.263
833.50	-5.000
833.80	-68.421
834.10	-71.429
834.40	25.000
834.70	-3.125
835.00	-54.286
835.30	11.765
835.60	-13.333
835.90	24.000
836.20	-50.000
836.50	-4.000
836.80	-18.182
837.10	-3.704
837.40	18.519
837.70	-81.250
838.00	14.286
838.30	-4.348
838.60	20.690
838.90	-128.571
839.19	-60.870
839.49	-58.333
839.79	52.174
840.09	-50.000
840.39	-5.000
840.69	32.258
840.99	-21.429
841.29	6.667
841.59	-26.316
841.88	20.513
842.18	3.846
842.48	-80.000
842.78	5.000
843.08	13.333
843.38	35.484
843.68	-38.889
843.97	38.235
844.27	50.000
844.57	-21.053
844.87	-20.000
845.17	-26.667
845.47	14.286
845.76	0.000
846.06	-55.556
846.36	-11.765
846.66	23.077
846.96	-20.000
847.25	11.765
847.55	47.826
847.85	65.000
848.15	-17.647
848.44	27.273
848.74	14.286
849.04	-8.333
849.34	-12.500
849.63	-17.391
849.93	700.000
850.23	-93.333
850.53	34.615
850.82	9.091
851.12	31.818
851.42	36.364
851.71	-15.385
852.01	-20.000
852.31	23.077
852.61	-26.316
852.90	16.667
853.20	0.000
853.50	-133.333
853.79	-23.810
854.09	-13.636
854.39	-91.667
854.68	0.000
854.98	-15.385
855.28	27.778
855.57	-25.000
855.87	24.000
856.17	-36.364
856.46	-3.704
856.76	16.667
857.05	0.000
857.35	-16.667
857.65	-38.462
857.94	-9.524
858.24	-29.630
858.53	30.435
858.83	-5.882
859.13	23.529
859.42	41.176
859.72	42.857
860.01	-25.000
860.31	-22.222
860.60	50.000
860.90	-20.000
861.20	-5.556
861.49	-53.846
861.79	0.000
862.08	-46.154
862.38	40.625
862.67	29.412
862.97	-25.000
863.26	-55.556
863.56	-10.000
863.85	-27.273
864.15	-16.667
864.44	-66.667
864.74	-21.429
865.03	-25.000
865.33	-50.000
865.62	6.452
865.92	18.182
866.21	26.087
866.51	64.286
866.80	40.000
867.10	-16.667
867.39	-41.667
867.69	600.000
867.98	71.429
868.27	23.529
868.57	-1100.000
868.86	-90.000
869.16	-33.333
869.45	29.167
869.75	54.545
870.04	-42.857
870.33	58.333
870.63	-185.714
870.92	50.000
871.22	-75.000
871.51	-45.455
871.80	-200.000
872.10	-400.000
>>>>>End Processed Spectral Data<<<<<
