SpectraSuite Data File
++++++++++++++++++++++++++++++++++++
Date: Thu May 14 16:27:35 PDT 2015
User: schluterlab
Dark Spectrum Present: Yes
Reference Spectrum Present: Yes
Number of Sampled Component Spectra: 1
Spectrometers: USB2E3373
Integration Time (usec): 3000 (USB2E3373)
Spectra Averaged: 3 (USB2E3373)
Boxcar Smoothing: 0 (USB2E3373)
Correct for Electrical Dark: No (USB2E3373)
Strobe/Lamp Enabled: No (USB2E3373)
Correct for Detector Non-linearity: No (USB2E3373)
Correct for Stray Light: No (USB2E3373)
Number of Pixels in Processed Spectrum: 2048
>>>>>Begin Processed Spectral Data<<<<<
178.53	0.000
178.91	42.857
179.29	-1600.000
179.67	-300.000
180.04	71.429
180.42	40.000
180.80	160.000
181.18	-600.000
181.56	1000.000
181.94	-150.000
182.31	125.000
182.69	-66.667
183.07	150.000
183.45	125.000
183.83	-33.333
184.20	266.667
184.58	-300.000
184.96	-75.000
185.34	77.778
185.72	100.000
186.09	144.444
186.47	100.000
186.85	120.000
187.23	-33.333
187.61	-1100.000
187.98	80.000
188.36	250.000
188.74	-300.000
189.12	-33.333
189.49	50.000
189.87	-25.000
190.25	22.222
190.63	-60.000
191.00	-66.667
191.38	0.000
191.76	-50.000
192.14	-66.667
192.51	-0.000
192.89	83.333
193.27	0.000
193.65	-114.286
194.02	-800.000
194.40	14.286
194.78	14.286
195.15	0.000
195.53	81.818
195.91	0.000
196.29	150.000
196.66	-38.462
197.04	-900.000
197.42	-142.857
197.79	-250.000
198.17	25.000
198.55	57.143
198.92	0.000
199.30	25.000
199.68	18.182
200.05	7.143
200.43	-350.000
200.81	128.571
201.18	0.000
201.56	33.333
201.94	0.000
202.31	133.333
202.69	-11.111
203.07	-1200.000
203.44	-22.222
203.82	-125.000
204.19	25.000
204.57	133.333
204.95	-12.500
205.32	0.000
205.70	-200.000
206.08	-66.667
206.45	-200.000
206.83	180.000
207.20	-50.000
207.58	-160.000
207.96	100.000
208.33	50.000
208.71	25.000
209.08	66.667
209.46	0.000
209.84	183.333
210.21	-100.000
210.59	-100.000
210.96	166.667
211.34	125.000
211.71	-187.500
212.09	0.000
212.46	0.000
212.84	150.000
213.22	20.000
213.59	-175.000
213.97	60.000
214.34	0.000
214.72	83.333
215.09	150.000
215.47	0.000
215.84	-28.571
216.22	450.000
216.59	0.000
216.97	80.000
217.34	25.000
217.72	87.500
218.09	-50.000
218.47	-50.000
218.84	0.000
219.22	-20.000
219.59	76.471
219.97	20.000
220.34	-250.000
220.72	0.000
221.09	15.385
221.47	66.667
221.84	40.000
222.22	-57.143
222.59	0.000
222.97	100.000
223.34	80.000
223.72	100.000
224.09	-75.000
224.46	-25.000
224.84	160.000
225.21	-100.000
225.59	-25.000
225.96	-225.000
226.34	38.462
226.71	250.000
227.08	250.000
227.46	66.667
227.83	-150.000
228.21	84.211
228.58	25.000
228.95	250.000
229.33	0.000
229.70	70.000
230.08	52.632
230.45	80.000
230.82	-166.667
231.20	7.143
231.57	-8.333
231.95	-45.455
232.32	118.182
232.69	30.000
233.07	-75.000
233.44	-17.647
233.81	20.000
234.19	66.667
234.56	0.000
234.93	31.034
235.31	5.263
235.68	50.000
236.05	-30.000
236.43	23.077
236.80	76.000
237.17	3.704
237.55	6.061
237.92	-160.000
238.29	6.452
238.67	-6.818
239.04	30.556
239.41	19.048
239.79	-4.348
240.16	-3.704
240.53	6.522
240.91	-27.451
241.28	-4.918
241.65	5.970
242.02	6.757
242.40	-15.385
242.77	-10.667
243.14	3.659
243.51	-23.684
243.89	-8.974
244.26	1.980
244.63	0.000
245.00	0.000
245.38	4.386
245.75	-4.425
246.12	-0.794
246.49	-8.527
246.87	2.857
247.24	4.636
247.61	4.605
247.98	-0.671
248.36	-3.704
248.73	-3.681
249.10	-2.732
249.47	4.975
249.84	1.571
250.22	-3.627
250.59	-0.556
250.96	5.000
251.33	-8.673
251.70	1.709
252.08	1.667
252.45	1.230
252.82	-2.893
253.19	-3.906
253.56	0.760
253.94	-3.462
254.31	-0.379
254.68	5.594
255.05	3.257
255.42	4.082
255.79	0.647
256.16	-3.311
256.54	0.000
256.91	0.656
257.28	-0.984
257.65	-4.140
258.02	-3.540
258.39	0.000
258.76	3.364
259.14	0.575
259.51	0.865
259.88	1.416
260.25	-1.111
260.62	-0.548
260.99	2.732
261.36	2.681
261.73	-0.796
262.10	-1.099
262.47	1.609
262.85	1.515
263.22	-0.519
263.59	-3.421
263.96	-0.767
264.33	-2.558
264.70	-1.975
265.07	2.387
265.44	2.948
265.81	-1.389
266.18	1.814
266.55	-0.446
266.92	-0.456
267.29	1.969
267.66	0.000
268.03	-0.655
268.40	2.296
268.77	-0.456
269.14	-1.322
269.51	-0.877
269.88	3.074
270.25	1.610
270.62	1.266
270.99	1.010
271.36	1.188
271.73	2.358
272.10	1.202
272.47	0.200
272.84	-1.406
273.21	0.200
273.58	-0.202
273.95	0.385
274.32	-1.331
274.69	-0.193
275.06	1.832
275.43	-0.555
275.80	0.529
276.17	-2.593
276.54	0.373
276.91	-0.179
277.28	0.904
277.65	-0.359
278.02	1.103
278.39	-0.725
278.76	-1.054
279.13	-1.064
279.50	1.375
279.87	1.610
280.23	-1.761
280.60	0.000
280.97	-0.658
281.34	-1.358
281.71	2.200
282.08	0.831
282.45	0.164
282.82	0.157
283.19	-0.162
283.56	-0.656
283.92	1.802
284.29	2.528
284.66	2.463
285.03	0.321
285.40	0.618
285.77	0.619
286.14	1.221
286.51	-0.609
286.87	0.948
287.24	-0.753
287.61	0.747
287.98	-0.151
288.35	0.148
288.72	0.000
289.08	1.611
289.45	0.000
289.82	-1.355
290.19	0.862
290.56	0.845
290.93	-0.856
291.29	0.689
291.66	0.964
292.03	-0.407
292.40	2.857
292.77	0.135
293.13	1.218
293.50	-0.263
293.87	1.208
294.24	2.533
294.60	1.391
294.97	-2.416
295.34	1.536
295.71	-0.631
296.08	0.129
296.44	-0.858
296.81	0.487
297.18	0.000
297.55	0.825
297.91	-0.474
298.28	0.592
298.65	0.000
299.02	0.354
299.38	1.030
299.75	0.117
300.12	0.231
300.48	0.346
300.85	1.237
301.22	0.224
301.59	1.027
301.95	1.469
302.32	1.444
302.69	1.314
303.05	0.871
303.42	1.663
303.79	1.771
304.15	0.210
304.52	-0.423
304.89	0.733
305.25	1.139
305.62	0.418
305.99	0.619
306.35	1.008
306.72	1.861
307.09	-0.508
307.45	1.863
307.82	1.110
308.19	0.101
308.55	1.639
308.92	1.168
309.29	2.395
309.65	0.682
310.02	0.891
310.38	1.083
310.75	1.262
311.12	3.164
311.48	0.098
311.85	1.994
312.22	1.708
312.58	1.878
312.95	1.625
313.31	2.349
313.68	2.747
314.05	2.349
314.41	2.823
314.78	2.816
315.14	2.722
315.51	3.693
315.87	4.140
316.24	3.562
316.61	4.618
316.97	4.434
317.34	3.968
317.70	5.939
318.07	5.732
318.43	6.293
318.80	8.194
319.16	7.811
319.53	5.913
319.89	6.661
320.26	8.808
320.62	9.131
320.99	8.680
321.35	10.351
321.72	10.698
322.08	11.001
322.45	12.285
322.81	11.913
323.18	14.956
323.54	13.276
323.91	15.480
324.27	15.232
324.64	17.212
325.00	17.164
325.37	17.690
325.73	18.843
326.10	20.762
326.46	22.068
326.83	23.779
327.19	23.150
327.56	24.664
327.92	24.076
328.29	24.274
328.65	25.544
329.01	26.481
329.38	27.885
329.74	29.281
330.11	30.137
330.47	29.570
330.84	30.749
331.20	31.583
331.56	30.329
331.93	32.301
332.29	33.136
332.66	32.558
333.02	32.412
333.38	33.305
333.75	34.512
334.11	34.612
334.48	34.653
334.84	35.684
335.20	34.677
335.57	35.666
335.93	36.033
336.29	34.692
336.66	36.754
337.02	36.957
337.38	37.330
337.75	36.694
338.11	38.267
338.47	37.552
338.84	38.156
339.20	37.237
339.56	37.644
339.93	37.438
340.29	38.003
340.65	38.686
341.02	40.223
341.38	39.046
341.74	38.902
342.11	38.616
342.47	37.093
342.83	38.486
343.20	40.720
343.56	40.257
343.92	40.352
344.28	40.625
344.65	40.853
345.01	39.782
345.37	40.669
345.73	38.504
346.10	40.796
346.46	41.297
346.82	40.225
347.19	41.176
347.55	40.895
347.91	41.828
348.27	40.744
348.63	41.203
349.00	41.611
349.36	42.751
349.72	41.890
350.08	42.125
350.45	42.053
350.81	42.157
351.17	42.481
351.53	43.518
351.89	43.736
352.26	42.313
352.62	41.269
352.98	42.595
353.34	42.718
353.70	44.222
354.07	43.443
354.43	44.115
354.79	43.381
355.15	43.414
355.51	44.006
355.87	44.278
356.24	44.183
356.60	43.385
356.96	44.329
357.32	43.271
357.68	44.949
358.04	45.359
358.40	44.627
358.77	45.249
359.13	46.307
359.49	45.651
359.85	46.193
360.21	46.126
360.57	46.088
360.93	46.051
361.29	47.439
361.66	46.198
362.02	47.599
362.38	45.397
362.74	47.486
363.10	46.699
363.46	48.546
363.82	47.656
364.18	48.628
364.54	47.925
364.90	46.890
365.26	48.897
365.62	49.200
365.98	48.128
366.35	48.255
366.71	48.571
367.07	49.594
367.43	49.311
367.79	49.635
368.15	50.769
368.51	48.714
368.87	50.098
369.23	49.867
369.59	50.956
369.95	50.304
370.31	51.722
370.67	51.307
371.03	50.554
371.39	48.825
371.75	51.582
372.11	51.016
372.47	51.726
372.83	51.113
373.19	50.367
373.55	50.813
373.91	50.988
374.27	51.488
374.63	52.233
374.99	53.050
375.35	52.338
375.71	52.258
376.07	53.648
376.42	52.582
376.78	53.387
377.14	53.026
377.50	53.637
377.86	53.202
378.22	53.952
378.58	53.329
378.94	53.228
379.30	52.490
379.66	53.616
380.02	53.606
380.38	55.357
380.74	54.310
381.09	55.110
381.45	53.580
381.81	56.148
382.17	56.295
382.53	55.029
382.89	53.950
383.25	55.803
383.61	54.456
383.97	55.418
384.32	56.340
384.68	54.002
385.04	56.102
385.40	56.099
385.76	57.034
386.12	56.074
386.48	56.353
386.83	57.271
387.19	56.025
387.55	55.751
387.91	55.194
388.27	57.679
388.62	56.472
388.98	55.950
389.34	56.453
389.70	58.106
390.06	56.128
390.42	55.964
390.77	56.773
391.13	57.746
391.49	57.729
391.85	56.848
392.20	56.999
392.56	56.704
392.92	56.925
393.28	57.324
393.64	56.480
393.99	58.687
394.35	58.645
394.71	57.784
395.07	57.904
395.42	57.453
395.78	58.379
396.14	57.932
396.50	58.670
396.85	57.484
397.21	57.101
397.57	58.068
397.92	58.305
398.28	57.360
398.64	55.492
399.00	57.225
399.35	57.173
399.71	57.337
400.07	57.215
400.42	58.673
400.78	57.870
401.14	56.972
401.49	58.044
401.85	59.419
402.21	58.864
402.57	59.096
402.92	58.983
403.28	58.782
403.63	58.532
403.99	57.542
404.35	57.646
404.70	58.697
405.06	56.630
405.42	58.489
405.77	58.342
406.13	56.888
406.49	58.559
406.84	57.507
407.20	57.071
407.55	58.571
407.91	58.391
408.27	57.185
408.62	58.057
408.98	57.980
409.34	57.889
409.69	57.973
410.05	58.968
410.40	57.947
410.76	56.927
411.11	59.673
411.47	58.907
411.83	57.731
412.18	58.373
412.54	58.328
412.89	58.207
413.25	57.957
413.60	57.209
413.96	57.459
414.31	57.110
414.67	58.617
415.03	58.338
415.38	58.008
415.74	57.483
416.09	58.359
416.45	58.172
416.80	57.466
417.16	58.046
417.51	57.659
417.87	57.695
418.22	57.605
418.58	57.993
418.93	57.742
419.29	58.385
419.64	57.203
420.00	58.279
420.35	56.990
420.71	57.611
421.06	57.159
421.42	57.282
421.77	57.243
422.12	57.770
422.48	58.269
422.83	58.379
423.19	57.241
423.54	58.462
423.90	57.482
424.25	58.347
424.61	58.037
424.96	57.990
425.31	58.121
425.67	57.327
426.02	58.550
426.38	58.209
426.73	56.975
427.09	59.170
427.44	56.963
427.79	57.380
428.15	57.763
428.50	57.809
428.85	57.348
429.21	58.351
429.56	56.960
429.92	56.118
430.27	58.795
430.62	58.476
430.98	57.206
431.33	57.136
431.68	55.795
432.04	57.288
432.39	57.793
432.74	57.249
433.10	57.977
433.45	55.351
433.80	57.672
434.16	57.903
434.51	58.839
434.86	59.283
435.22	58.236
435.57	57.901
435.92	58.542
436.28	57.793
436.63	59.749
436.98	56.683
437.34	58.117
437.69	58.448
438.04	56.478
438.39	58.415
438.75	58.218
439.10	59.884
439.45	58.971
439.81	57.571
440.16	58.016
440.51	58.250
440.86	57.254
441.22	57.556
441.57	58.333
441.92	57.129
442.27	58.485
442.63	57.774
442.98	57.737
443.33	58.443
443.68	58.870
444.03	58.937
444.39	57.883
444.74	58.601
445.09	57.223
445.44	58.588
445.79	58.381
446.15	57.246
446.50	56.796
446.85	57.928
447.20	57.689
447.55	57.479
447.91	58.010
448.26	57.188
448.61	56.801
448.96	59.013
449.31	57.105
449.66	55.937
450.02	57.331
450.37	57.112
450.72	58.827
451.07	57.062
451.42	58.463
451.77	57.254
452.12	58.352
452.47	58.051
452.83	57.939
453.18	57.326
453.53	56.806
453.88	57.648
454.23	56.441
454.58	57.980
454.93	57.403
455.28	58.338
455.63	56.964
455.98	56.872
456.34	57.833
456.69	57.378
457.04	57.033
457.39	57.816
457.74	57.215
458.09	56.343
458.44	56.681
458.79	55.957
459.14	56.057
459.49	57.046
459.84	56.873
460.19	56.802
460.54	57.127
460.89	56.750
461.24	56.609
461.59	56.004
461.94	56.246
462.29	56.383
462.64	56.789
462.99	56.121
463.34	57.365
463.69	55.920
464.04	57.532
464.39	56.446
464.74	54.447
465.09	56.574
465.44	55.150
465.79	56.002
466.14	54.872
466.49	56.105
466.84	56.364
467.19	55.607
467.54	55.347
467.89	54.138
468.24	55.235
468.59	54.719
468.94	55.070
469.29	55.729
469.64	54.990
469.99	55.641
470.34	55.198
470.68	56.186
471.03	56.058
471.38	55.657
471.73	56.307
472.08	54.695
472.43	55.328
472.78	55.416
473.13	54.614
473.48	54.199
473.83	55.659
474.17	53.927
474.52	55.262
474.87	54.596
475.22	55.042
475.57	53.531
475.92	54.704
476.27	54.153
476.61	54.206
476.96	53.702
477.31	53.960
477.66	56.453
478.01	53.686
478.36	52.293
478.70	54.926
479.05	53.528
479.40	53.850
479.75	54.707
480.10	53.719
480.45	52.598
480.79	53.379
481.14	53.217
481.49	52.976
481.84	53.438
482.19	53.720
482.53	52.864
482.88	53.079
483.23	53.446
483.58	52.489
483.92	53.546
484.27	52.921
484.62	51.650
484.97	52.177
485.31	52.235
485.66	50.122
486.01	49.529
486.36	51.186
486.70	52.007
487.05	51.446
487.40	51.381
487.75	50.891
488.09	50.972
488.44	50.185
488.79	50.185
489.13	51.521
489.48	50.835
489.83	50.423
490.17	51.154
490.52	50.780
490.87	51.607
491.22	51.473
491.56	52.389
491.91	50.545
492.26	50.974
492.60	50.634
492.95	50.987
493.30	50.740
493.64	50.110
493.99	50.351
494.34	50.436
494.68	49.422
495.03	50.793
495.37	51.087
495.72	49.615
496.07	49.606
496.41	50.150
496.76	50.500
497.11	50.658
497.45	50.108
497.80	49.445
498.14	49.342
498.49	49.816
498.84	49.909
499.18	48.808
499.53	49.596
499.87	49.670
500.22	49.332
500.56	48.538
500.91	48.879
501.26	48.955
501.60	48.520
501.95	48.632
502.29	49.144
502.64	49.016
502.98	47.929
503.33	48.121
503.67	48.147
504.02	47.504
504.36	49.017
504.71	48.323
505.06	48.522
505.40	47.898
505.75	47.404
506.09	47.928
506.44	48.561
506.78	49.174
507.13	48.133
507.47	48.745
507.82	47.633
508.16	48.136
508.51	47.304
508.85	47.520
509.19	47.892
509.54	48.223
509.88	47.790
510.23	48.422
510.57	47.028
510.92	47.896
511.26	46.272
511.61	46.065
511.95	46.462
512.30	47.612
512.64	46.577
512.98	47.624
513.33	47.480
513.67	47.170
514.02	47.215
514.36	46.547
514.70	47.135
515.05	46.507
515.39	45.932
515.74	47.455
516.08	46.857
516.42	46.154
516.77	46.477
517.11	46.674
517.46	45.334
517.80	46.499
518.14	46.953
518.49	46.041
518.83	45.396
519.17	46.365
519.52	45.021
519.86	46.304
520.20	45.474
520.55	45.619
520.89	45.946
521.23	45.952
521.58	45.763
521.92	46.346
522.26	44.330
522.61	44.850
522.95	44.637
523.29	44.943
523.64	44.563
523.98	45.237
524.32	44.928
524.66	43.939
525.01	45.866
525.35	43.768
525.69	44.026
526.04	43.800
526.38	45.287
526.72	43.714
527.06	44.751
527.41	44.257
527.75	44.834
528.09	44.628
528.43	43.517
528.78	44.220
529.12	43.865
529.46	42.777
529.80	44.394
530.15	43.594
530.49	44.069
530.83	43.566
531.17	43.787
531.51	44.284
531.86	44.651
532.20	42.988
532.54	42.849
532.88	42.061
533.22	42.781
533.57	42.816
533.91	42.536
534.25	41.605
534.59	42.759
534.93	43.350
535.27	42.704
535.62	41.217
535.96	42.824
536.30	41.716
536.64	42.282
536.98	41.820
537.32	42.160
537.66	42.109
538.01	41.088
538.35	41.474
538.69	42.127
539.03	42.612
539.37	41.461
539.71	42.342
540.05	41.307
540.39	40.954
540.73	40.316
541.07	41.815
541.42	39.752
541.76	40.391
542.10	40.109
542.44	41.352
542.78	40.511
543.12	40.107
543.46	40.232
543.80	40.647
544.14	40.036
544.48	40.485
544.82	41.173
545.16	40.549
545.50	40.503
545.84	38.824
546.18	40.988
546.52	39.172
546.86	38.994
547.20	38.995
547.54	38.702
547.88	38.939
548.22	39.357
548.56	38.561
548.90	39.284
549.24	38.359
549.58	38.738
549.92	37.564
550.26	38.511
550.60	38.992
550.94	37.775
551.28	38.284
551.62	39.555
551.96	39.223
552.30	38.177
552.64	38.519
552.98	38.054
553.32	39.228
553.66	39.164
554.00	38.966
554.34	37.130
554.68	37.314
555.02	39.028
555.36	38.790
555.69	37.796
556.03	36.318
556.37	37.234
556.71	37.223
557.05	36.997
557.39	37.757
557.73	37.186
558.07	37.550
558.41	37.741
558.75	36.173
559.08	37.161
559.42	36.900
559.76	36.974
560.10	36.370
560.44	36.478
560.78	37.125
561.12	36.145
561.45	36.800
561.79	36.569
562.13	36.907
562.47	34.525
562.81	36.456
563.15	36.237
563.48	35.799
563.82	36.094
564.16	34.888
564.50	35.936
564.84	35.752
565.17	36.529
565.51	34.925
565.85	34.857
566.19	34.217
566.52	35.869
566.86	35.201
567.20	33.931
567.54	34.254
567.88	34.353
568.21	34.783
568.55	33.813
568.89	34.226
569.23	33.545
569.56	33.607
569.90	33.963
570.24	33.558
570.57	33.066
570.91	32.517
571.25	32.572
571.59	32.424
571.92	31.983
572.26	32.054
572.60	32.105
572.93	31.895
573.27	31.975
573.61	31.498
573.95	31.950
574.28	31.231
574.62	31.310
574.96	30.613
575.29	31.108
575.63	30.954
575.97	31.377
576.30	30.348
576.64	30.923
576.98	30.592
577.31	30.420
577.65	30.541
577.98	30.290
578.32	30.079
578.66	30.004
578.99	29.654
579.33	29.969
579.67	29.828
580.00	29.804
580.34	29.777
580.67	29.523
581.01	29.598
581.35	30.002
581.68	29.494
582.02	29.577
582.35	30.056
582.69	29.593
583.02	29.396
583.36	29.452
583.70	29.289
584.03	29.230
584.37	29.474
584.70	29.095
585.04	28.528
585.37	28.988
585.71	28.910
586.04	28.974
586.38	29.016
586.72	28.528
587.05	28.882
587.39	28.896
587.72	29.402
588.06	28.893
588.39	28.354
588.73	28.624
589.06	28.809
589.40	28.857
589.73	28.567
590.07	28.946
590.40	29.175
590.73	28.420
591.07	28.928
591.40	28.810
591.74	29.412
592.07	29.314
592.41	28.352
592.74	28.044
593.08	28.631
593.41	28.405
593.75	28.822
594.08	28.325
594.41	28.429
594.75	27.532
595.08	27.524
595.42	27.630
595.75	27.866
596.09	28.228
596.42	27.839
596.75	28.406
597.09	29.212
597.42	28.010
597.75	27.558
598.09	27.817
598.42	28.428
598.76	27.665
599.09	27.305
599.42	27.724
599.76	26.675
600.09	27.861
600.42	27.060
600.76	27.411
601.09	26.452
601.42	27.051
601.76	26.828
602.09	27.127
602.42	26.463
602.76	26.827
603.09	26.872
603.42	26.951
603.76	26.920
604.09	27.608
604.42	27.119
604.76	25.989
605.09	26.725
605.42	27.113
605.75	26.385
606.09	27.137
606.42	25.903
606.75	26.274
607.09	25.960
607.42	26.705
607.75	27.159
608.08	26.125
608.42	26.199
608.75	26.161
609.08	25.934
609.41	26.158
609.75	26.473
610.08	26.737
610.41	26.253
610.74	26.513
611.07	25.533
611.41	26.816
611.74	26.374
612.07	26.508
612.40	26.141
612.73	25.721
613.07	25.086
613.40	25.409
613.73	26.095
614.06	26.251
614.39	26.142
614.72	25.716
615.06	25.553
615.39	26.051
615.72	25.592
616.05	25.304
616.38	26.135
616.71	26.019
617.05	25.612
617.38	25.629
617.71	25.810
618.04	25.526
618.37	25.792
618.70	26.414
619.03	25.627
619.36	25.709
619.69	25.304
620.03	25.989
620.36	25.337
620.69	27.390
621.02	25.722
621.35	25.980
621.68	26.392
622.01	26.406
622.34	25.453
622.67	26.186
623.00	25.034
623.33	26.145
623.66	25.746
623.99	25.741
624.32	25.406
624.65	25.290
624.99	25.228
625.32	25.016
625.65	24.612
625.98	25.017
626.31	24.947
626.64	25.275
626.97	25.581
627.30	24.905
627.63	24.231
627.96	26.201
628.29	24.125
628.62	26.448
628.95	25.329
629.28	24.469
629.61	26.094
629.94	24.603
630.26	25.000
630.59	25.475
630.92	25.368
631.25	26.386
631.58	26.742
631.91	25.773
632.24	24.880
632.57	27.135
632.90	25.075
633.23	25.816
633.56	25.612
633.89	24.070
634.22	26.195
634.55	27.557
634.88	25.649
635.20	26.911
635.53	27.345
635.86	25.569
636.19	25.875
636.52	26.160
636.85	25.332
637.18	25.052
637.51	24.731
637.83	25.249
638.16	26.037
638.49	24.765
638.82	24.915
639.15	25.773
639.48	27.021
639.81	24.134
640.13	25.088
640.46	25.212
640.79	24.877
641.12	25.342
641.45	26.725
641.77	27.086
642.10	25.591
642.43	26.330
642.76	24.390
643.09	25.890
643.41	24.930
643.74	25.241
644.07	26.207
644.40	24.894
644.73	24.383
645.05	25.991
645.38	26.619
645.71	25.953
646.04	26.829
646.36	26.277
646.69	23.160
647.02	25.841
647.35	26.718
647.67	24.799
648.00	24.682
648.33	25.075
648.66	25.963
648.98	24.218
649.31	25.575
649.64	24.303
649.96	24.668
650.29	23.783
650.62	24.045
650.94	22.973
651.27	21.108
651.60	23.830
651.92	22.340
652.25	25.326
652.58	24.484
652.90	24.419
653.23	24.085
653.56	22.682
653.88	26.404
654.21	23.944
654.54	23.410
654.86	23.088
655.19	23.338
655.52	22.027
655.84	20.473
656.17	24.574
656.49	33.961
656.82	37.041
657.15	28.603
657.47	20.923
657.80	15.250
658.13	11.899
658.45	15.731
658.78	18.871
659.10	17.728
659.43	17.774
659.75	18.565
660.08	18.319
660.41	18.610
660.73	18.700
661.06	22.173
661.38	22.329
661.71	20.862
662.03	23.280
662.36	22.361
662.68	23.452
663.01	24.248
663.33	24.197
663.66	24.542
663.98	22.115
664.31	23.827
664.63	23.699
664.96	23.956
665.28	19.782
665.61	26.049
665.93	21.964
666.26	25.269
666.58	21.956
666.91	23.925
667.23	23.048
667.56	24.063
667.88	23.000
668.21	25.391
668.53	22.008
668.86	21.807
669.18	22.811
669.50	23.062
669.83	22.600
670.15	20.079
670.48	24.008
670.80	19.503
671.13	20.227
671.45	22.638
671.77	21.469
672.10	20.500
672.42	20.712
672.75	21.045
673.07	21.194
673.39	21.263
673.72	24.161
674.04	21.897
674.37	22.540
674.69	23.280
675.01	19.429
675.34	20.802
675.66	19.663
675.98	22.948
676.31	23.438
676.63	23.384
676.95	22.031
677.28	22.984
677.60	20.472
677.92	22.265
678.25	22.669
678.57	21.174
678.89	20.137
679.22	20.035
679.54	20.855
679.86	18.983
680.18	20.398
680.51	20.283
680.83	19.804
681.15	18.276
681.48	20.380
681.80	21.762
682.12	20.979
682.44	19.032
682.77	20.922
683.09	19.508
683.41	22.287
683.73	22.011
684.06	19.557
684.38	19.678
684.70	20.467
685.02	19.793
685.34	18.303
685.67	17.981
685.99	19.325
686.31	18.895
686.63	17.220
686.96	18.612
687.28	19.707
687.60	18.350
687.92	19.132
688.24	20.367
688.56	17.241
688.89	20.690
689.21	20.157
689.53	17.451
689.85	20.316
690.17	18.519
690.49	19.323
690.82	20.000
691.14	18.623
691.46	21.797
691.78	21.547
692.10	17.064
692.42	17.679
692.74	21.234
693.06	17.407
693.39	19.165
693.71	18.421
694.03	18.773
694.35	20.381
694.67	19.918
694.99	18.723
695.31	18.543
695.63	19.048
695.95	21.739
696.27	21.978
696.59	21.018
696.91	19.369
697.23	21.099
697.56	17.515
697.88	17.803
698.20	20.339
698.52	22.538
698.84	18.295
699.16	20.204
699.48	19.665
699.80	20.426
700.12	21.834
700.44	18.433
700.76	19.477
701.08	18.160
701.40	19.689
701.72	20.149
702.04	18.984
702.36	17.801
702.68	21.516
703.00	20.538
703.32	19.951
703.64	17.359
703.96	18.854
704.28	17.199
704.60	17.722
704.91	19.643
705.23	20.000
705.55	20.891
705.87	19.091
706.19	19.939
706.51	18.072
706.83	19.885
707.15	15.344
707.47	17.056
707.79	18.559
708.11	15.466
708.43	15.699
708.74	17.187
709.06	19.490
709.38	19.718
709.70	19.603
710.02	18.863
710.34	17.021
710.66	17.318
710.98	19.945
711.29	15.934
711.61	20.056
711.93	20.513
712.25	18.108
712.57	22.124
712.89	18.235
713.20	18.047
713.52	21.098
713.84	18.663
714.16	19.211
714.48	16.495
714.80	20.519
715.11	17.848
715.43	16.446
715.75	23.158
716.07	17.403
716.39	20.765
716.70	16.867
717.02	20.656
717.34	15.331
717.66	19.463
717.97	16.096
718.29	19.244
718.61	14.474
718.93	21.036
719.24	18.634
719.56	19.632
719.88	15.015
720.20	18.065
720.51	16.149
720.83	18.750
721.15	12.171
721.46	12.671
721.78	18.000
722.10	14.563
722.42	15.101
722.73	14.516
723.05	19.649
723.37	17.361
723.68	18.280
724.00	16.245
724.32	14.085
724.63	18.881
724.95	19.149
725.27	17.073
725.58	15.548
725.90	21.034
726.22	15.987
726.53	20.455
726.85	19.497
727.16	17.523
727.48	18.043
727.80	17.219
728.11	16.254
728.43	18.519
728.74	15.385
729.06	16.225
729.38	15.909
729.69	17.114
730.01	18.155
730.32	14.545
730.64	16.352
730.96	15.528
731.27	18.715
731.59	15.659
731.90	15.325
732.22	15.365
732.53	14.088
732.85	15.429
733.16	14.956
733.48	15.549
733.80	16.156
734.11	16.239
734.43	17.027
734.74	15.443
735.06	15.075
735.37	14.865
735.69	12.703
736.00	18.927
736.32	13.477
736.63	16.944
736.95	16.379
737.26	13.939
737.58	10.303
737.89	16.176
738.21	10.398
738.52	12.131
738.83	18.089
739.15	14.894
739.46	11.905
739.78	15.951
740.09	11.461
740.41	13.703
740.72	13.000
741.04	15.858
741.35	14.737
741.66	12.157
741.98	15.984
742.29	15.900
742.61	11.842
742.92	16.923
743.23	17.690
743.55	18.605
743.86	18.800
744.18	13.636
744.49	15.190
744.80	18.930
745.12	14.346
745.43	17.480
745.74	15.086
746.06	12.712
746.37	17.300
746.68	23.577
747.00	16.667
747.31	14.163
747.62	17.308
747.94	17.004
748.25	12.851
748.56	11.020
748.88	10.256
749.19	18.534
749.50	14.286
749.82	16.064
750.13	14.947
750.44	12.333
750.75	14.769
751.07	13.846
751.38	14.196
751.69	11.502
752.01	14.887
752.32	13.725
752.63	13.265
752.94	15.225
753.26	14.498
753.57	12.593
753.88	14.232
754.19	14.791
754.51	17.685
754.82	12.219
755.13	14.754
755.44	13.993
755.75	17.763
756.07	15.821
756.38	14.780
756.69	17.169
757.00	13.573
757.31	11.202
757.63	11.509
757.94	11.972
758.25	12.190
758.56	13.072
758.87	13.409
759.18	14.933
759.50	16.714
759.81	15.966
760.12	14.016
760.43	13.281
760.74	13.793
761.05	16.500
761.36	14.699
761.67	14.721
761.99	12.432
762.30	12.195
762.61	14.521
762.92	14.925
763.23	11.985
763.54	20.504
763.85	12.371
764.16	12.121
764.47	13.028
764.78	12.780
765.10	13.783
765.41	15.128
765.72	8.730
766.03	15.254
766.34	13.793
766.65	11.150
766.96	14.343
767.27	13.825
767.58	4.975
767.89	12.019
768.20	16.901
768.51	11.111
768.82	14.056
769.13	15.530
769.44	7.692
769.75	15.523
770.06	15.385
770.37	17.323
770.68	12.766
770.99	10.931
771.30	19.259
771.61	13.308
771.92	8.148
772.23	13.765
772.54	12.037
772.85	17.512
773.16	15.714
773.47	9.524
773.78	9.189
774.09	15.909
774.39	15.000
774.70	11.475
775.01	10.976
775.32	11.176
775.63	20.859
775.94	11.465
776.25	12.258
776.56	16.026
776.87	23.810
777.18	13.793
777.48	18.182
777.79	8.784
778.10	9.559
778.41	15.972
778.72	17.241
779.03	13.580
779.34	13.333
779.65	13.990
779.95	18.889
780.26	11.932
780.57	16.129
780.88	17.391
781.19	18.710
781.50	15.882
781.80	16.667
782.11	14.286
782.42	13.636
782.73	7.186
783.04	10.056
783.34	7.273
783.65	3.268
783.96	5.590
784.27	12.500
784.57	15.232
784.88	15.000
785.19	11.024
785.50	6.299
785.81	16.541
786.11	15.385
786.42	2.158
786.73	11.511
787.04	12.030
787.34	7.377
787.65	3.200
787.96	14.179
788.26	16.783
788.57	18.881
788.88	9.868
789.19	18.301
789.49	15.068
789.80	5.674
790.11	19.685
790.41	16.406
790.72	14.407
791.03	7.767
791.33	21.739
791.64	17.544
791.95	10.714
792.25	13.333
792.56	16.071
792.87	13.542
793.17	9.821
793.48	6.250
793.79	-8.434
794.09	0.917
794.40	11.009
794.70	10.884
795.01	14.286
795.32	7.534
795.62	9.155
795.93	4.545
796.23	18.033
796.54	7.143
796.85	13.830
797.15	-2.174
797.46	8.219
797.76	11.250
798.07	14.130
798.37	10.309
798.68	10.390
798.99	2.299
799.29	14.607
799.60	10.638
799.90	10.843
800.21	9.231
800.51	5.970
800.82	8.824
801.12	6.849
801.43	2.941
801.73	18.644
802.04	9.091
802.34	-6.667
802.65	-8.475
802.95	5.970
803.26	-10.169
803.56	12.329
803.87	34.286
804.17	21.918
804.48	-8.772
804.78	4.167
805.09	6.897
805.39	16.216
805.70	14.085
806.00	17.073
806.30	9.639
806.61	4.110
806.91	18.269
807.22	10.000
807.52	1.149
807.83	22.222
808.13	18.072
808.43	12.360
808.74	-1.250
809.04	2.941
809.35	9.333
809.65	10.000
809.95	17.808
810.26	3.509
810.56	10.345
810.86	22.059
811.17	17.544
811.47	8.197
811.77	26.667
812.08	6.780
812.38	-8.333
812.69	24.138
812.99	11.321
813.29	10.256
813.59	24.000
813.90	12.281
814.20	-7.273
814.50	18.310
814.81	8.974
815.11	6.557
815.41	10.448
815.72	22.414
816.02	3.571
816.32	17.778
816.62	9.091
816.93	-8.889
817.23	12.963
817.53	2.128
817.84	16.667
818.14	0.000
818.44	8.163
818.74	20.000
819.04	-7.692
819.35	-11.429
819.65	0.000
819.95	11.321
820.25	-2.222
820.56	7.143
820.86	3.125
821.16	-15.385
821.46	-9.302
821.76	-8.000
822.07	5.357
822.37	4.348
822.67	4.255
822.97	-8.108
823.27	12.500
823.57	38.776
823.88	28.889
824.18	22.500
824.48	3.333
824.78	-4.000
825.08	21.212
825.38	31.111
825.69	14.894
825.99	22.222
826.29	-11.429
826.59	5.128
826.89	27.907
827.19	-2.000
827.49	11.765
827.79	2.083
828.09	5.405
828.39	0.000
828.70	-4.878
829.00	4.651
829.30	-3.571
829.60	20.588
829.90	15.217
830.20	-5.714
830.50	10.345
830.80	16.667
831.10	-3.846
831.40	32.353
831.70	-28.571
832.00	22.581
832.30	-70.588
832.60	-41.667
832.90	-61.538
833.20	-10.526
833.50	-15.000
833.80	15.789
834.10	-61.905
834.40	13.889
834.70	31.250
835.00	-11.429
835.30	20.588
835.60	-20.000
835.90	12.000
836.20	-45.455
836.50	24.000
836.80	-24.242
837.10	-14.815
837.40	-18.519
837.70	-75.000
838.00	-10.714
838.30	-8.696
838.60	10.345
838.90	14.286
839.19	-47.826
839.49	-100.000
839.79	-8.696
840.09	-12.500
840.39	-5.000
840.69	22.581
840.99	-10.714
841.29	20.000
841.59	-21.053
841.88	10.256
842.18	30.769
842.48	-120.000
842.78	5.000
843.08	43.333
843.38	9.677
843.68	-16.667
843.97	5.882
844.27	-50.000
844.57	26.316
844.87	10.000
845.17	6.667
845.47	28.571
845.76	0.000
846.06	-77.778
846.36	-11.765
846.66	-11.538
846.96	-6.667
847.25	-52.941
847.55	21.739
847.85	10.000
848.15	17.647
848.44	27.273
848.74	-19.048
849.04	25.000
849.34	6.250
849.63	-13.043
849.93	550.000
850.23	20.000
850.53	34.615
850.82	-9.091
851.12	22.727
851.42	18.182
851.71	7.692
852.01	-65.000
852.31	-30.769
852.61	26.316
852.90	33.333
853.20	-11.111
853.50	-166.667
853.79	-19.048
854.09	-45.455
854.39	-100.000
854.68	19.355
854.98	0.000
855.28	-44.444
855.57	0.000
855.87	32.000
856.17	22.727
856.46	44.444
856.76	5.556
857.05	17.391
857.35	-58.333
857.65	-69.231
857.94	4.762
858.24	51.852
858.53	65.217
858.83	-29.412
859.13	23.529
859.42	17.647
859.72	14.286
860.01	15.000
860.31	-11.111
860.60	40.000
860.90	13.333
861.20	16.667
861.49	-7.692
861.79	10.000
862.08	0.000
862.38	21.875
862.67	41.176
862.97	12.500
863.26	-44.444
863.56	70.000
863.85	27.273
864.15	44.444
864.44	-200.000
864.74	-50.000
865.03	-6.250
865.33	-70.000
865.62	-12.903
865.92	40.909
866.21	30.435
866.51	57.143
866.80	-320.000
867.10	-41.667
867.39	-41.667
867.69	700.000
867.98	28.571
868.27	41.176
868.57	-700.000
868.86	-40.000
869.16	-14.286
869.45	8.333
869.75	63.636
870.04	-128.571
870.33	-16.667
870.63	-242.857
870.92	75.000
871.22	-162.500
871.51	-127.273
871.80	-366.667
872.10	-400.000
>>>>>End Processed Spectral Data<<<<<
