SpectraSuite Data File
++++++++++++++++++++++++++++++++++++
Date: Thu May 14 16:34:30 PDT 2015
User: schluterlab
Dark Spectrum Present: Yes
Reference Spectrum Present: Yes
Number of Sampled Component Spectra: 1
Spectrometers: USB2E3373
Integration Time (usec): 3000 (USB2E3373)
Spectra Averaged: 3 (USB2E3373)
Boxcar Smoothing: 0 (USB2E3373)
Correct for Electrical Dark: No (USB2E3373)
Strobe/Lamp Enabled: No (USB2E3373)
Correct for Detector Non-linearity: No (USB2E3373)
Correct for Stray Light: No (USB2E3373)
Number of Pixels in Processed Spectrum: 2048
>>>>>Begin Processed Spectral Data<<<<<
178.53	0.000
178.91	128.571
179.29	-1300.000
179.67	500.000
180.04	64.286
180.42	20.000
180.80	100.000
181.18	-400.000
181.56	600.000
181.94	75.000
182.31	200.000
182.69	133.333
183.07	0.000
183.45	225.000
183.83	16.667
184.20	233.333
184.58	200.000
184.96	-100.000
185.34	-11.111
185.72	-60.000
186.09	88.889
186.47	350.000
186.85	220.000
187.23	-88.889
187.61	-900.000
187.98	-0.000
188.36	175.000
188.74	-50.000
189.12	133.333
189.49	25.000
189.87	-162.500
190.25	-100.000
190.63	0.000
191.00	-66.667
191.38	0.000
191.76	-375.000
192.14	-66.667
192.51	250.000
192.89	-16.667
193.27	0.000
193.65	-114.286
194.02	-800.000
194.40	14.286
194.78	-14.286
195.15	0.000
195.53	45.455
195.91	0.000
196.29	-100.000
196.66	-7.692
197.04	-500.000
197.42	-57.143
197.79	50.000
198.17	-62.500
198.55	42.857
198.92	-33.333
199.30	-125.000
199.68	0.000
200.05	14.286
200.43	-150.000
200.81	42.857
201.18	0.000
201.56	155.556
201.94	0.000
202.31	366.667
202.69	-111.111
203.07	200.000
203.44	-44.444
203.82	-75.000
204.19	-33.333
204.57	-33.333
204.95	0.000
205.32	-100.000
205.70	-50.000
206.08	0.000
206.45	0.000
206.83	360.000
207.20	50.000
207.58	-240.000
207.96	-200.000
208.33	-100.000
208.71	16.667
209.08	-100.000
209.46	0.000
209.84	183.333
210.21	-0.000
210.59	200.000
210.96	-33.333
211.34	100.000
211.71	-112.500
212.09	0.000
212.46	0.000
212.84	700.000
213.22	-180.000
213.59	75.000
213.97	40.000
214.34	-133.333
214.72	150.000
215.09	25.000
215.47	0.000
215.84	57.143
216.22	900.000
216.59	-120.000
216.97	-120.000
217.34	-125.000
217.72	-62.500
218.09	-75.000
218.47	-125.000
218.84	0.000
219.22	80.000
219.59	-41.176
219.97	-15.000
220.34	700.000
220.72	-55.556
221.09	84.615
221.47	-233.333
221.84	30.000
222.22	14.286
222.59	0.000
222.97	87.500
223.34	-240.000
223.72	-400.000
224.09	-175.000
224.46	-250.000
224.84	-80.000
225.21	-42.857
225.59	-50.000
225.96	50.000
226.34	38.462
226.71	100.000
227.08	-450.000
227.46	73.333
227.83	150.000
228.21	36.842
228.58	137.500
228.95	250.000
229.33	25.000
229.70	80.000
230.08	84.211
230.45	-10.000
230.82	-66.667
231.20	-57.143
231.57	50.000
231.95	-9.091
232.32	-36.364
232.69	40.000
233.07	0.000
233.44	41.176
233.81	-80.000
234.19	94.444
234.56	0.000
234.93	6.897
235.31	15.789
235.68	38.889
236.05	-25.000
236.43	50.000
236.80	24.000
237.17	-18.519
237.55	6.061
237.92	130.000
238.29	41.935
238.67	-2.273
239.04	16.667
239.41	19.048
239.79	6.522
240.16	5.556
240.53	19.565
240.91	7.843
241.28	26.230
241.65	13.433
242.02	28.378
242.40	-4.615
242.77	13.333
243.14	18.293
243.51	13.158
243.89	16.667
244.26	26.733
244.63	24.510
245.00	28.037
245.38	19.298
245.75	13.274
246.12	21.429
246.49	17.829
246.87	17.143
247.24	22.517
247.61	19.737
247.98	19.463
248.36	14.815
248.73	23.313
249.10	20.219
249.47	24.876
249.84	27.749
250.22	19.689
250.59	20.556
250.96	25.000
251.33	19.898
251.70	19.658
252.08	22.917
252.45	24.590
252.82	19.421
253.19	17.578
253.56	17.490
253.94	18.462
254.31	23.106
254.68	24.476
255.05	22.476
255.42	21.429
255.79	18.447
256.16	18.874
256.54	18.212
256.91	23.279
257.28	17.705
257.65	18.790
258.02	19.764
258.39	20.228
258.76	20.795
259.14	26.149
259.51	20.173
259.88	22.096
260.25	18.611
260.62	22.740
260.99	22.404
261.36	22.788
261.73	19.098
262.10	19.780
262.47	19.035
262.85	23.232
263.22	21.558
263.59	20.789
263.96	20.205
264.33	19.693
264.70	21.481
265.07	23.150
265.44	23.129
265.81	19.676
266.18	23.583
266.55	21.652
266.92	17.084
267.29	23.851
267.66	21.286
268.03	21.834
268.40	21.086
268.77	19.818
269.14	17.621
269.51	21.053
269.88	20.492
270.25	21.328
270.62	20.675
270.99	24.040
271.36	20.594
271.73	19.646
272.10	24.449
272.47	22.244
272.84	20.281
273.21	21.042
273.58	21.976
273.95	22.115
274.32	20.722
274.69	20.696
275.06	20.330
275.43	18.299
275.80	21.517
276.17	19.444
276.54	20.336
276.91	21.288
277.28	20.253
277.65	21.364
278.02	20.221
278.39	21.014
278.76	20.562
279.13	19.504
279.50	21.134
279.87	19.141
280.23	17.606
280.60	20.508
280.97	20.559
281.34	18.676
281.71	22.843
282.08	20.432
282.45	18.985
282.82	20.094
283.19	17.447
283.56	19.344
283.92	21.471
284.29	20.537
284.66	18.883
285.03	18.109
285.40	19.165
285.77	20.279
286.14	21.527
286.51	19.026
286.87	21.011
287.24	18.524
287.61	18.984
287.98	18.731
288.35	16.864
288.72	18.047
289.08	19.912
289.45	17.012
289.82	18.373
290.19	19.828
290.56	19.155
290.93	17.261
291.29	18.595
291.66	17.218
292.03	17.639
292.40	18.912
292.77	16.712
293.13	18.268
293.50	17.477
293.87	16.913
294.24	19.333
294.60	17.573
294.97	15.973
295.34	17.414
295.71	16.646
296.08	16.408
296.44	15.931
296.81	16.078
297.18	17.310
297.55	16.392
297.91	16.251
298.28	15.877
298.65	15.696
299.02	14.876
299.38	15.446
299.75	16.472
300.12	14.699
300.48	14.631
300.85	15.636
301.22	16.890
301.59	15.868
301.95	14.802
302.32	15.667
302.69	14.129
303.05	15.016
303.42	15.632
303.79	16.250
304.15	15.142
304.52	15.645
304.89	14.764
305.25	15.010
305.62	15.674
305.99	16.392
306.35	15.020
306.72	15.305
307.09	14.518
307.45	16.356
307.82	14.127
308.19	15.843
308.55	15.622
308.92	15.287
309.29	15.230
309.65	14.717
310.02	15.545
310.38	14.862
310.75	16.699
311.12	16.299
311.48	15.738
311.85	17.094
312.22	16.034
312.58	17.089
312.95	15.105
313.31	16.531
313.68	16.300
314.05	16.441
314.41	17.122
314.78	15.077
315.14	16.425
315.51	17.452
315.87	17.102
316.24	17.352
316.61	17.762
316.97	16.833
317.34	17.725
317.70	17.555
318.07	18.342
318.43	17.857
318.80	18.562
319.16	17.682
319.53	16.881
319.89	18.054
320.26	19.840
320.62	18.617
320.99	19.114
321.35	19.316
321.72	20.093
322.08	18.846
322.45	20.777
322.81	20.578
323.18	20.265
323.54	21.207
323.91	21.619
324.27	20.310
324.64	23.006
325.00	21.061
325.37	22.031
325.73	23.223
326.10	22.466
326.46	22.557
326.83	24.420
327.19	24.252
327.56	24.901
327.92	24.312
328.29	23.065
328.65	25.209
329.01	24.027
329.38	25.274
329.74	24.743
330.11	26.027
330.47	24.094
330.84	26.270
331.20	28.083
331.56	24.697
331.93	25.858
332.29	27.542
332.66	28.239
333.02	26.382
333.38	25.419
333.75	26.599
334.11	26.105
334.48	26.485
334.84	28.292
335.20	26.280
335.57	26.644
335.93	27.273
336.29	25.957
336.66	26.997
337.02	28.010
337.38	26.701
337.75	27.438
338.11	27.334
338.47	28.619
338.84	27.073
339.20	26.201
339.56	26.112
339.93	27.176
340.29	26.570
340.65	26.358
341.02	28.332
341.38	28.213
341.74	27.119
342.11	27.353
342.47	26.291
342.83	27.697
343.20	27.800
343.56	27.346
343.92	28.022
344.28	26.484
344.65	27.519
345.01	26.209
345.37	27.216
345.73	27.358
346.10	28.003
346.46	27.453
346.82	27.640
347.19	27.578
347.55	27.693
347.91	27.786
348.27	26.480
348.63	27.190
349.00	27.666
349.36	27.584
349.72	27.083
350.08	27.415
350.45	26.768
350.81	27.602
351.17	27.293
351.53	28.431
351.89	28.246
352.26	27.313
352.62	27.836
352.98	28.092
353.34	27.259
353.70	27.658
354.07	27.496
354.43	28.550
354.79	27.001
355.15	28.182
355.51	28.728
355.87	28.571
356.24	27.985
356.60	28.086
356.96	27.872
357.32	27.732
357.68	27.599
358.04	27.470
358.40	27.090
358.77	28.143
359.13	27.991
359.49	27.138
359.85	28.426
360.21	28.049
360.57	28.428
360.93	28.350
361.29	27.228
361.66	28.675
362.02	29.784
362.38	28.461
362.74	28.771
363.10	27.923
363.46	29.986
363.82	28.338
364.18	29.346
364.54	28.838
364.90	29.030
365.26	28.897
365.62	29.467
365.98	29.067
366.35	28.926
366.71	29.524
367.07	28.484
367.43	29.350
367.79	29.263
368.15	29.766
368.51	30.176
368.87	29.589
369.23	29.733
369.59	30.055
369.95	30.020
370.31	30.655
370.67	29.642
371.03	30.886
371.39	29.080
371.75	29.849
372.11	30.420
372.47	29.452
372.83	30.170
373.19	29.887
373.55	29.336
373.91	30.334
374.27	30.272
374.63	31.055
374.99	29.775
375.35	30.714
375.71	30.194
376.07	31.181
376.42	30.605
376.78	30.764
377.14	30.505
377.50	30.487
377.86	31.342
378.22	31.557
378.58	31.748
378.94	31.221
379.30	30.814
379.66	31.511
380.02	31.679
380.38	32.949
380.74	31.437
381.09	31.649
381.45	31.989
381.81	32.787
382.17	31.829
382.53	31.462
382.89	32.449
383.25	32.767
383.61	32.234
383.97	32.155
384.32	32.596
384.68	32.483
385.04	33.372
385.40	33.176
385.76	32.943
386.12	32.914
386.48	33.824
386.83	33.611
387.19	31.924
387.55	32.512
387.91	32.877
388.27	33.834
388.62	32.703
388.98	32.769
389.34	33.117
389.70	33.759
390.06	32.800
390.42	32.831
390.77	34.678
391.13	33.862
391.49	33.696
391.85	34.061
392.20	34.579
392.56	34.790
392.92	34.024
393.28	33.389
393.64	33.966
393.99	35.038
394.35	33.879
394.71	35.210
395.07	34.491
395.42	34.323
395.78	34.186
396.14	35.175
396.50	34.442
396.85	33.930
397.21	34.260
397.57	34.158
397.92	34.708
398.28	33.732
398.64	34.211
399.00	33.770
399.35	34.712
399.71	33.859
400.07	35.430
400.42	35.274
400.78	35.532
401.14	34.832
401.49	35.873
401.85	35.174
402.21	35.689
402.57	35.563
402.92	35.402
403.28	35.012
403.63	35.084
403.99	36.283
404.35	35.361
404.70	34.958
405.06	36.141
405.42	35.187
405.77	36.150
406.13	36.089
406.49	35.079
406.84	35.956
407.20	35.383
407.55	35.070
407.91	36.329
408.27	34.276
408.62	35.777
408.98	36.158
409.34	34.370
409.69	35.167
410.05	36.342
410.40	37.007
410.76	36.511
411.11	36.821
411.47	36.302
411.83	37.507
412.18	36.867
412.54	37.167
412.89	36.554
413.25	35.553
413.60	37.335
413.96	36.422
414.31	35.581
414.67	36.076
415.03	35.692
415.38	37.011
415.74	37.263
416.09	36.706
416.45	36.005
416.80	35.618
417.16	37.165
417.51	35.928
417.87	36.481
418.22	36.826
418.58	36.555
418.93	38.126
419.29	36.930
419.64	36.855
420.00	36.142
420.35	36.777
420.71	37.392
421.06	36.803
421.42	36.869
421.77	35.057
422.12	36.628
422.48	36.815
422.83	37.733
423.19	36.764
423.54	37.334
423.90	37.051
424.25	38.133
424.61	37.371
424.96	36.738
425.31	37.261
425.67	36.822
426.02	37.023
426.38	37.945
426.73	37.277
427.09	38.408
427.44	36.537
427.79	37.148
428.15	36.587
428.50	37.978
428.85	37.715
429.21	37.660
429.56	37.759
429.92	37.150
430.27	37.494
430.62	37.323
430.98	36.645
431.33	36.461
431.68	37.165
432.04	38.649
432.39	38.779
432.74	38.299
433.10	37.858
433.45	38.071
433.80	37.822
434.16	37.707
434.51	37.821
434.86	39.359
435.22	39.426
435.57	38.915
435.92	38.286
436.28	38.453
436.63	38.886
436.98	37.735
437.34	37.993
437.69	38.635
438.04	37.652
438.39	38.311
438.75	38.019
439.10	38.795
439.45	39.240
439.81	38.475
440.16	38.231
440.51	38.294
440.86	37.854
441.22	37.996
441.57	39.046
441.92	38.652
442.27	40.152
442.63	39.195
442.98	39.061
443.33	39.506
443.68	39.693
444.03	39.182
444.39	38.419
444.74	39.357
445.09	38.469
445.44	40.464
445.79	39.751
446.15	38.335
446.50	39.328
446.85	39.883
447.20	39.410
447.55	40.220
447.91	39.634
448.26	38.636
448.61	39.532
448.96	41.524
449.31	39.290
449.66	39.379
450.02	39.241
450.37	39.638
450.72	39.182
451.07	39.977
451.42	40.266
451.77	40.245
452.12	40.011
452.47	39.453
452.83	41.441
453.18	38.879
453.53	39.920
453.88	39.867
454.23	40.791
454.58	40.163
454.93	40.655
455.28	41.300
455.63	40.136
455.98	39.832
456.34	40.165
456.69	40.976
457.04	41.371
457.39	40.521
457.74	40.996
458.09	39.484
458.44	40.841
458.79	40.433
459.14	38.542
459.49	40.238
459.84	39.507
460.19	39.756
460.54	41.056
460.89	40.445
461.24	40.057
461.59	41.284
461.94	39.475
462.29	41.265
462.64	41.038
462.99	41.431
463.34	41.531
463.69	40.856
464.04	40.523
464.39	40.471
464.74	40.650
465.09	40.600
465.44	40.826
465.79	39.926
466.14	39.500
466.49	40.632
466.84	41.047
467.19	41.272
467.54	40.306
467.89	41.437
468.24	41.551
468.59	40.012
468.94	40.326
469.29	41.932
469.64	41.259
469.99	41.109
470.34	41.337
470.68	41.900
471.03	42.633
471.38	44.016
471.73	42.523
472.08	42.195
472.43	41.060
472.78	42.632
473.13	42.351
473.48	42.538
473.83	43.006
474.17	42.673
474.52	42.574
474.87	42.580
475.22	42.479
475.57	41.745
475.92	41.961
476.27	43.131
476.61	42.212
476.96	41.710
477.31	42.822
477.66	42.917
478.01	41.383
478.36	41.675
478.70	42.709
479.05	42.689
479.40	42.349
479.75	41.402
480.10	42.634
480.45	42.434
480.79	42.132
481.14	41.774
481.49	42.390
481.84	42.124
482.19	42.495
482.53	43.157
482.88	42.623
483.23	42.197
483.58	42.402
483.92	41.356
484.27	41.406
484.62	42.203
484.97	41.913
485.31	40.303
485.66	37.375
486.01	36.436
486.36	37.395
486.70	38.375
487.05	39.798
487.40	39.517
487.75	39.771
488.09	40.434
488.44	39.982
488.79	40.034
489.13	41.130
489.48	41.515
489.83	41.167
490.17	40.948
490.52	41.749
490.87	43.020
491.22	42.938
491.56	42.619
491.91	43.000
492.26	42.190
492.60	43.332
492.95	42.343
493.30	42.627
493.64	43.627
493.99	43.114
494.34	42.639
494.68	41.585
495.03	43.040
495.37	42.832
495.72	42.812
496.07	43.076
496.41	42.557
496.76	42.661
497.11	42.675
497.45	42.900
497.80	43.314
498.14	43.084
498.49	42.969
498.84	43.007
499.18	42.645
499.53	43.049
499.87	42.418
500.22	42.743
500.56	42.105
500.91	43.066
501.26	43.636
501.60	42.377
501.95	42.770
502.29	43.177
502.64	42.720
502.98	42.235
503.33	42.678
503.67	42.826
504.02	42.513
504.36	42.851
504.71	43.822
505.06	42.974
505.40	43.373
505.75	44.308
506.09	44.291
506.44	43.686
506.78	44.312
507.13	43.661
507.47	45.144
507.82	44.223
508.16	44.359
508.51	43.976
508.85	44.639
509.19	44.623
509.54	44.476
509.88	45.847
510.23	45.653
510.57	45.336
510.92	45.718
511.26	45.166
511.61	44.809
511.95	45.534
512.30	46.529
512.64	45.377
512.98	45.873
513.33	46.774
513.67	45.538
514.02	46.653
514.36	46.138
514.70	46.250
515.05	46.767
515.39	46.614
515.74	48.409
516.08	47.015
516.42	48.352
516.77	46.425
517.11	46.467
517.46	47.190
517.80	48.103
518.14	48.150
518.49	47.343
518.83	47.845
519.17	48.142
519.52	48.166
519.86	48.258
520.20	47.551
520.55	49.179
520.89	48.930
521.23	48.744
521.58	49.661
521.92	48.385
522.26	49.141
522.61	50.405
522.95	49.827
523.29	48.506
523.64	48.711
523.98	49.800
524.32	50.086
524.66	49.573
525.01	48.471
525.35	49.167
525.69	48.550
526.04	48.507
526.38	49.368
526.72	49.020
527.06	50.557
527.41	49.038
527.75	51.306
528.09	50.767
528.43	48.786
528.78	49.017
529.12	48.796
529.46	48.061
529.80	49.314
530.15	50.087
530.49	49.288
530.83	50.531
531.17	48.626
531.51	48.797
531.86	50.120
532.20	50.183
532.54	49.013
532.88	49.697
533.22	49.381
533.57	49.163
533.91	47.980
534.25	48.163
534.59	49.138
534.93	47.765
535.27	47.944
535.62	48.948
535.96	48.925
536.30	48.355
536.64	48.108
536.98	48.893
537.32	49.012
537.66	48.721
538.01	47.915
538.35	48.599
538.69	48.197
539.03	50.092
539.37	47.998
539.71	49.009
540.05	49.101
540.39	48.411
540.73	47.845
541.07	49.172
541.42	47.608
541.76	47.331
542.10	48.552
542.44	48.051
542.78	47.384
543.12	48.451
543.46	48.168
543.80	46.343
544.14	47.217
544.48	48.227
544.82	47.935
545.16	47.645
545.50	47.993
545.84	47.397
546.18	48.765
546.52	47.325
546.86	48.491
547.20	49.427
547.54	48.689
547.88	47.498
548.22	46.140
548.56	46.635
548.90	48.119
549.24	48.328
549.58	47.445
549.92	48.278
550.26	48.220
550.60	47.160
550.94	47.865
551.28	47.525
551.62	49.663
551.96	46.343
552.30	49.012
552.64	46.671
552.98	46.850
553.32	47.910
553.66	48.553
554.00	48.550
554.34	48.198
554.68	46.223
555.02	49.146
555.36	47.798
555.69	47.021
556.03	48.613
556.37	48.185
556.71	47.939
557.05	47.540
557.39	47.711
557.73	47.622
558.07	48.344
558.41	47.575
558.75	47.870
559.08	49.687
559.42	48.217
559.76	48.507
560.10	48.761
560.44	46.834
560.78	47.187
561.12	46.244
561.45	45.864
561.79	46.520
562.13	47.751
562.47	45.684
562.81	47.848
563.15	46.843
563.48	46.613
563.82	46.433
564.16	46.396
564.50	44.994
564.84	45.192
565.17	46.412
565.51	45.224
565.85	44.774
566.19	45.565
566.52	45.758
566.86	45.274
567.20	44.209
567.54	43.601
567.88	44.444
568.21	44.318
568.55	42.254
568.89	42.896
569.23	42.163
569.56	40.993
569.90	40.306
570.24	39.562
570.57	39.641
570.91	38.671
571.25	38.097
571.59	38.631
571.92	37.846
572.26	37.639
572.60	38.247
572.93	37.657
573.27	38.072
573.61	37.295
573.95	36.999
574.28	36.604
574.62	36.266
574.96	35.333
575.29	35.801
575.63	35.897
575.97	36.886
576.30	36.245
576.64	36.578
576.98	36.378
577.31	36.378
577.65	36.215
577.98	35.655
578.32	34.565
578.66	35.488
578.99	35.961
579.33	35.660
579.67	35.335
580.00	35.221
580.34	35.798
580.67	35.569
581.01	36.348
581.35	35.145
581.68	34.712
582.02	34.609
582.35	35.021
582.69	35.084
583.02	35.115
583.36	35.428
583.70	36.060
584.03	35.685
584.37	35.399
584.70	35.428
585.04	34.504
585.37	35.175
585.71	34.887
586.04	34.919
586.38	35.260
586.72	35.698
587.05	35.789
587.39	35.851
587.72	35.072
588.06	35.469
588.39	35.499
588.73	35.503
589.06	36.371
589.40	36.693
589.73	36.440
590.07	36.936
590.40	36.613
590.73	36.903
591.07	37.677
591.40	37.986
591.74	37.202
592.07	38.408
592.41	38.013
592.74	36.670
593.08	36.401
593.41	36.570
593.75	35.546
594.08	36.262
594.41	36.763
594.75	36.832
595.08	36.541
595.42	36.429
595.75	36.358
596.09	36.835
596.42	36.689
596.75	37.900
597.09	38.061
597.42	37.584
597.75	37.162
598.09	37.143
598.42	37.515
598.76	36.645
599.09	36.063
599.42	35.535
599.76	36.283
600.09	35.936
600.42	35.669
600.76	36.394
601.09	34.915
601.42	35.908
601.76	35.759
602.09	36.061
602.42	35.805
602.76	36.199
603.09	36.601
603.42	36.236
603.76	35.694
604.09	36.586
604.42	36.220
604.76	35.997
605.09	36.179
605.42	36.762
605.75	36.846
606.09	36.245
606.42	35.644
606.75	35.532
607.09	35.330
607.42	35.800
607.75	36.186
608.08	35.596
608.42	35.631
608.75	36.277
609.08	35.866
609.41	36.965
609.75	37.411
610.08	37.071
610.41	36.534
610.74	36.723
611.07	36.279
611.41	36.637
611.74	36.813
612.07	37.775
612.40	37.928
612.73	38.093
613.07	37.213
613.40	36.718
613.73	36.591
614.06	37.488
614.39	36.540
614.72	37.555
615.06	36.189
615.39	37.409
615.72	36.872
616.05	36.765
616.38	38.496
616.71	37.356
617.05	36.581
617.38	37.507
617.71	38.229
618.04	38.208
618.37	39.180
618.70	38.235
619.03	38.351
619.36	39.642
619.69	39.270
620.03	39.485
620.36	37.914
620.69	37.940
621.02	40.814
621.35	42.671
621.68	41.649
622.01	40.142
622.34	40.516
622.67	40.481
623.00	37.517
623.33	39.549
623.66	39.429
623.99	38.841
624.32	39.311
624.65	38.674
624.99	38.687
625.32	39.255
625.65	39.717
625.98	39.458
626.31	40.751
626.64	39.853
626.97	40.435
627.30	40.243
627.63	40.060
627.96	42.342
628.29	42.179
628.62	42.065
628.95	43.032
629.28	42.396
629.61	40.741
629.94	40.669
630.26	42.542
630.59	41.883
630.92	41.818
631.25	42.934
631.58	44.633
631.91	43.018
632.24	43.036
632.57	43.359
632.90	43.631
633.23	44.898
633.56	44.898
633.89	43.285
634.22	45.218
634.55	44.676
634.88	43.074
635.20	45.856
635.53	46.441
635.86	43.662
636.19	45.493
636.52	42.300
636.85	42.390
637.18	44.699
637.51	45.699
637.83	45.293
638.16	45.392
638.49	44.836
638.82	43.856
639.15	43.643
639.48	45.035
639.81	43.072
640.13	47.468
640.46	42.182
640.79	43.015
641.12	44.845
641.45	45.295
641.77	47.497
642.10	46.457
642.43	46.676
642.76	45.935
643.09	45.616
643.41	44.118
643.74	46.207
644.07	46.897
644.40	47.383
644.73	47.315
645.05	47.430
645.38	47.338
645.71	46.041
646.04	47.346
646.36	46.131
646.69	46.779
647.02	47.706
647.35	47.176
647.67	48.148
648.00	49.682
648.33	47.598
648.66	45.364
648.98	43.810
649.31	44.384
649.64	46.082
649.96	43.634
650.29	43.394
650.62	44.979
650.94	46.396
651.27	45.958
651.60	44.006
651.92	47.416
652.25	43.849
652.58	43.466
652.90	43.750
653.23	45.775
653.56	44.365
653.88	46.208
654.21	44.085
654.54	43.786
654.86	42.493
655.19	40.151
655.52	37.510
655.84	29.182
656.17	33.328
656.49	45.760
656.82	49.894
657.15	38.652
657.47	29.294
657.80	21.705
658.13	17.200
658.45	23.337
658.78	27.740
659.10	27.541
659.43	27.828
659.75	29.104
660.08	29.524
660.41	33.499
660.73	36.260
661.06	43.025
661.38	43.860
661.71	43.793
662.03	44.797
662.36	48.122
662.68	46.341
663.01	46.018
663.33	46.503
663.66	45.421
663.98	47.308
664.31	48.030
664.63	45.665
664.96	48.276
665.28	43.013
665.61	44.056
665.93	44.643
666.26	44.624
666.58	45.018
666.91	47.664
667.23	46.857
667.56	47.929
667.88	47.800
668.21	46.289
668.53	45.560
668.86	44.794
669.18	48.676
669.50	46.918
669.83	46.800
670.15	46.654
670.48	46.429
670.80	40.727
671.13	42.722
671.45	45.472
671.77	47.834
672.10	42.333
672.42	42.071
672.75	38.710
673.07	40.000
673.39	39.291
673.72	43.289
674.04	42.759
674.37	41.324
674.69	44.092
675.01	44.000
675.34	41.603
675.66	42.509
675.98	43.843
676.31	44.141
676.63	46.198
676.95	45.402
677.28	43.145
677.60	44.685
677.92	44.146
678.25	39.671
678.57	41.993
678.89	42.833
679.22	40.418
679.54	38.803
679.86	39.322
680.18	40.133
680.51	37.579
680.83	39.935
681.15	40.517
681.48	41.451
681.80	41.105
682.12	39.161
682.44	40.568
682.77	41.667
683.09	43.371
683.41	44.767
683.73	41.556
684.06	40.406
684.38	37.567
684.70	40.575
685.02	39.587
685.34	39.268
685.67	38.644
685.99	36.350
686.31	36.628
686.63	35.861
686.96	38.486
687.28	39.088
687.60	38.889
687.92	38.264
688.24	40.401
688.56	38.276
688.89	41.198
689.21	39.530
689.53	40.588
689.85	42.012
690.17	39.444
690.49	40.239
690.82	39.406
691.14	39.271
691.46	40.344
691.78	40.147
692.10	36.147
692.42	35.536
692.74	37.387
693.06	38.889
693.39	38.140
693.71	37.594
694.03	39.219
694.35	36.000
694.67	40.246
694.99	42.128
695.31	40.177
695.63	40.476
695.95	36.853
696.27	40.000
696.59	42.257
696.91	38.964
697.23	41.978
697.56	36.456
697.88	36.553
698.20	40.301
698.52	38.258
698.84	40.125
699.16	38.980
699.48	38.075
699.80	36.596
700.12	39.520
700.44	37.558
700.76	42.993
701.08	41.646
701.40	42.228
701.72	39.801
702.04	43.850
702.36	40.576
702.68	40.831
703.00	39.853
703.32	38.424
703.64	41.565
703.96	38.902
704.28	38.084
704.60	40.253
704.91	39.796
705.23	37.808
705.55	40.111
705.87	42.727
706.19	44.172
706.51	42.169
706.83	43.228
707.15	39.418
707.47	36.215
707.79	35.808
708.11	35.593
708.43	36.129
708.74	33.929
709.06	35.731
709.38	37.793
709.70	38.958
710.02	38.243
710.34	39.628
710.66	37.430
710.98	39.891
711.29	39.286
711.61	39.266
711.93	41.595
712.25	37.297
712.57	44.543
712.89	42.941
713.20	38.757
713.52	39.017
713.84	35.933
714.16	37.368
714.48	39.175
714.80	38.182
715.11	34.646
715.43	33.156
715.75	35.789
716.07	35.083
716.39	38.525
716.70	39.759
717.02	40.000
717.34	42.509
717.66	40.268
717.97	38.356
718.29	37.457
718.61	36.184
718.93	42.071
719.24	40.994
719.56	36.810
719.88	33.033
720.20	37.742
720.51	31.677
720.83	35.000
721.15	37.500
721.46	40.411
721.78	38.667
722.10	34.304
722.42	39.933
722.73	35.484
723.05	41.053
723.37	37.153
723.68	39.427
724.00	40.794
724.32	34.859
724.63	37.063
724.95	41.489
725.27	34.146
725.58	37.102
725.90	38.276
726.22	36.364
726.53	36.039
726.85	34.277
727.16	34.743
727.48	41.284
727.80	36.093
728.11	32.862
728.43	39.394
728.74	37.793
729.06	36.424
729.38	34.091
729.69	38.591
730.01	34.524
730.32	30.909
730.64	36.164
730.96	28.882
731.27	34.078
731.59	34.341
731.90	28.571
732.22	32.031
732.53	27.624
732.85	34.286
733.16	36.070
733.48	32.927
733.80	31.476
734.11	31.339
734.43	31.351
734.74	30.633
735.06	29.146
735.37	30.270
735.69	28.649
736.00	33.333
736.32	30.997
736.63	29.722
736.95	31.034
737.26	34.242
737.58	32.121
737.89	31.765
738.21	33.945
738.52	30.164
738.83	34.130
739.15	29.787
739.46	34.354
739.78	30.675
740.09	32.378
740.41	34.985
740.72	36.333
741.04	33.657
741.35	33.684
741.66	35.686
741.98	36.066
742.29	36.402
742.61	36.404
742.92	33.462
743.23	33.213
743.55	37.209
743.86	34.800
744.18	29.339
744.49	33.333
744.80	37.449
745.12	37.553
745.43	36.179
745.74	31.897
746.06	33.051
746.37	35.865
746.68	36.992
747.00	37.917
747.31	37.339
747.62	38.077
747.94	33.198
748.25	34.940
748.56	33.469
748.88	33.333
749.19	38.362
749.50	32.900
749.82	36.546
750.13	36.299
750.44	30.333
750.75	27.385
751.07	30.462
751.38	30.284
751.69	29.073
752.01	28.803
752.32	30.065
752.63	30.952
752.94	34.948
753.26	29.368
753.57	32.963
753.88	31.461
754.19	31.190
754.51	34.084
754.82	30.225
755.13	34.098
755.44	32.423
755.75	32.237
756.07	31.343
756.38	28.302
756.69	31.627
757.00	24.654
757.31	27.869
757.63	25.575
757.94	26.056
758.25	30.248
758.56	29.194
758.87	25.000
759.18	29.867
759.50	29.178
759.81	29.412
760.12	27.493
760.43	24.740
760.74	31.281
761.05	27.750
761.36	25.060
761.67	25.888
761.99	29.459
762.30	30.488
762.61	26.733
762.92	30.597
763.23	31.835
763.54	27.338
763.85	29.210
764.16	25.589
764.47	32.042
764.78	30.032
765.10	27.859
765.41	28.462
765.72	25.926
766.03	24.576
766.34	26.332
766.65	21.951
766.96	29.482
767.27	33.180
767.58	31.343
767.89	35.577
768.20	32.394
768.51	31.481
768.82	31.325
769.13	27.652
769.44	26.923
769.75	28.520
770.06	32.308
770.37	30.709
770.68	27.234
770.99	23.482
771.30	35.556
771.61	28.897
771.92	26.667
772.23	25.911
772.54	27.315
772.85	36.866
773.16	30.476
773.47	24.868
773.78	25.946
774.09	34.091
774.39	36.500
774.70	26.776
775.01	28.049
775.32	26.471
775.63	29.448
775.94	23.567
776.25	30.323
776.56	30.769
776.87	40.136
777.18	30.345
777.48	41.259
777.79	35.135
778.10	34.559
778.41	31.250
778.72	31.034
779.03	27.778
779.34	33.939
779.65	27.461
779.95	28.333
780.26	26.136
780.57	29.677
780.88	36.957
781.19	38.710
781.50	33.529
781.80	37.097
782.11	29.630
782.42	17.677
782.73	29.341
783.04	30.168
783.34	23.636
783.65	24.183
783.96	27.329
784.27	28.571
784.57	29.139
784.88	42.143
785.19	35.433
785.50	31.496
785.81	31.579
786.11	26.923
786.42	23.741
786.73	25.180
787.04	28.571
787.34	28.689
787.65	25.600
787.96	35.821
788.26	32.867
788.57	34.965
788.88	30.921
789.19	32.026
789.49	29.452
789.80	25.532
790.11	29.134
790.41	25.781
790.72	22.881
791.03	28.155
791.33	26.957
791.64	26.316
791.95	16.071
792.25	29.524
792.56	33.929
792.87	28.125
793.17	25.000
793.48	26.042
793.79	12.048
794.09	32.110
794.40	24.771
794.70	23.810
795.01	22.078
795.32	19.863
795.62	23.944
795.93	25.000
796.23	32.787
796.54	28.571
796.85	18.085
797.15	16.304
797.46	31.507
797.76	28.750
798.07	47.826
798.37	21.649
798.68	23.377
798.99	31.034
799.29	26.966
799.60	28.723
799.90	38.554
800.21	29.231
800.51	35.821
800.82	30.882
801.12	15.068
801.43	7.353
801.73	3.390
802.04	36.364
802.34	23.333
802.65	25.424
802.95	32.836
803.26	25.424
803.56	9.589
803.87	32.857
804.17	38.356
804.48	1.754
804.78	22.222
805.09	18.966
805.39	31.081
805.70	18.310
806.00	31.707
806.30	30.120
806.61	28.767
806.91	20.192
807.22	15.556
807.52	22.989
807.83	31.944
808.13	30.120
808.43	26.966
808.74	23.750
809.04	23.529
809.35	12.000
809.65	37.143
809.95	17.808
810.26	17.544
810.56	31.034
810.86	32.353
811.17	22.807
811.47	14.754
811.77	26.667
812.08	18.644
812.38	20.000
812.69	22.414
812.99	28.302
813.29	17.949
813.59	18.000
813.90	31.579
814.20	10.909
814.50	25.352
814.81	17.949
815.11	27.869
815.41	32.836
815.72	29.310
816.02	33.929
816.32	44.444
816.62	25.000
816.93	31.111
817.23	40.741
817.53	29.787
817.84	40.476
818.14	41.176
818.44	26.531
818.74	13.333
819.04	-7.692
819.35	5.714
819.65	-15.385
819.95	33.962
820.25	24.444
820.56	35.714
820.86	28.125
821.16	25.641
821.46	9.302
821.76	-4.000
822.07	21.429
822.37	19.565
822.67	8.511
822.97	5.405
823.27	30.000
823.57	32.653
823.88	42.222
824.18	27.500
824.48	33.333
824.78	40.000
825.08	45.455
825.38	44.444
825.69	21.277
825.99	58.333
826.29	-14.286
826.59	12.821
826.89	20.930
827.19	22.000
827.49	55.882
827.79	27.083
828.09	37.838
828.39	20.000
828.70	7.317
829.00	2.326
829.30	-7.143
829.60	32.353
829.90	13.043
830.20	-2.857
830.50	0.000
830.80	-16.667
831.10	3.846
831.40	23.529
831.70	33.333
832.00	51.613
832.30	-88.235
832.60	41.667
832.90	-84.615
833.20	-15.789
833.50	15.000
833.80	-10.526
834.10	-42.857
834.40	47.222
834.70	34.375
835.00	8.571
835.30	41.176
835.60	16.667
835.90	8.000
836.20	-54.545
836.50	20.000
836.80	-3.030
837.10	-25.926
837.40	11.111
837.70	-43.750
838.00	17.857
838.30	8.696
838.60	17.241
838.90	14.286
839.19	-43.478
839.49	8.333
839.79	-4.348
840.09	0.000
840.39	5.000
840.69	25.806
840.99	-10.714
841.29	-26.667
841.59	10.526
841.88	48.718
842.18	-7.692
842.48	-40.000
842.78	65.000
843.08	43.333
843.38	41.935
843.68	-11.111
843.97	32.353
844.27	37.500
844.57	15.789
844.87	-80.000
845.17	-6.667
845.47	9.524
845.76	-23.810
846.06	-11.111
846.36	-5.882
846.66	46.154
846.96	53.333
847.25	29.412
847.55	39.130
847.85	-10.000
848.15	47.059
848.44	63.636
848.74	85.714
849.04	-20.833
849.34	-25.000
849.63	8.696
849.93	350.000
850.23	40.000
850.53	57.692
850.82	45.455
851.12	45.455
851.42	9.091
851.71	23.077
852.01	-30.000
852.31	0.000
852.61	-5.263
852.90	25.000
853.20	0.000
853.50	-88.889
853.79	28.571
854.09	13.636
854.39	25.000
854.68	6.452
854.98	26.923
855.28	27.778
855.57	3.571
855.87	20.000
856.17	-9.091
856.46	25.926
856.76	-22.222
857.05	-21.739
857.35	-16.667
857.65	23.077
857.94	28.571
858.24	33.333
858.53	26.087
858.83	11.765
859.13	35.294
859.42	23.529
859.72	92.857
860.01	-20.000
860.31	-122.222
860.60	20.000
860.90	6.667
861.20	27.778
861.49	-100.000
861.79	23.333
862.08	-84.615
862.38	34.375
862.67	105.882
862.97	0.000
863.26	-66.667
863.56	10.000
863.85	9.091
864.15	38.889
864.44	200.000
864.74	14.286
865.03	-6.250
865.33	0.000
865.62	19.355
865.92	13.636
866.21	52.174
866.51	-7.143
866.80	-160.000
867.10	-33.333
867.39	-66.667
867.69	800.000
867.98	-57.143
868.27	47.059
868.57	-600.000
868.86	10.000
869.16	23.810
869.45	25.000
869.75	127.273
870.04	57.143
870.33	0.000
870.63	-42.857
870.92	-100.000
871.22	-162.500
871.51	-18.182
871.80	0.000
872.10	-150.000
>>>>>End Processed Spectral Data<<<<<
