SpectraSuite Data File
++++++++++++++++++++++++++++++++++++
Date: Thu May 14 16:24:55 PDT 2015
User: schluterlab
Dark Spectrum Present: Yes
Reference Spectrum Present: Yes
Number of Sampled Component Spectra: 1
Spectrometers: USB2E3373
Integration Time (usec): 3000 (USB2E3373)
Spectra Averaged: 3 (USB2E3373)
Boxcar Smoothing: 0 (USB2E3373)
Correct for Electrical Dark: No (USB2E3373)
Strobe/Lamp Enabled: No (USB2E3373)
Correct for Detector Non-linearity: No (USB2E3373)
Correct for Stray Light: No (USB2E3373)
Number of Pixels in Processed Spectrum: 2048
>>>>>Begin Processed Spectral Data<<<<<
178.53	0.000
178.91	-0.000
179.29	-700.000
179.67	-1100.000
180.04	171.429
180.42	30.000
180.80	160.000
181.18	-700.000
181.56	-100.000
181.94	-25.000
182.31	75.000
182.69	-0.000
183.07	250.000
183.45	125.000
183.83	116.667
184.20	33.333
184.58	1300.000
184.96	-450.000
185.34	-11.111
185.72	-20.000
186.09	133.333
186.47	150.000
186.85	140.000
187.23	66.667
187.61	-200.000
187.98	20.000
188.36	-75.000
188.74	-425.000
189.12	0.000
189.49	37.500
189.87	-75.000
190.25	44.444
190.63	80.000
191.00	-33.333
191.38	0.000
191.76	-250.000
192.14	-33.333
192.51	200.000
192.89	66.667
193.27	0.000
193.65	-14.286
194.02	-200.000
194.40	-114.286
194.78	100.000
195.15	0.000
195.53	45.455
195.91	0.000
196.29	-175.000
196.66	92.308
197.04	-800.000
197.42	42.857
197.79	50.000
198.17	37.500
198.55	71.429
198.92	11.111
199.30	0.000
199.68	-45.455
200.05	28.571
200.43	-100.000
200.81	100.000
201.18	0.000
201.56	122.222
201.94	0.000
202.31	400.000
202.69	-77.778
203.07	-500.000
203.44	22.222
203.82	-225.000
204.19	25.000
204.57	-50.000
204.95	-62.500
205.32	-300.000
205.70	50.000
206.08	-83.333
206.45	-100.000
206.83	140.000
207.20	66.667
207.58	-80.000
207.96	-83.333
208.33	100.000
208.71	8.333
209.08	33.333
209.46	0.000
209.84	166.667
210.21	100.000
210.59	200.000
210.96	566.667
211.34	125.000
211.71	-100.000
212.09	-1400.000
212.46	0.000
212.84	650.000
213.22	-140.000
213.59	150.000
213.97	10.000
214.34	-100.000
214.72	66.667
215.09	-125.000
215.47	0.000
215.84	-71.429
216.22	-0.000
216.59	60.000
216.97	-100.000
217.34	-25.000
217.72	0.000
218.09	-225.000
218.47	-350.000
218.84	0.000
219.22	180.000
219.59	-35.294
219.97	80.000
220.34	400.000
220.72	0.000
221.09	15.385
221.47	-266.667
221.84	-20.000
222.22	-14.286
222.59	0.000
222.97	-75.000
223.34	-240.000
223.72	0.000
224.09	75.000
224.46	-325.000
224.84	-20.000
225.21	-185.714
225.59	-200.000
225.96	-100.000
226.34	19.231
226.71	233.333
227.08	200.000
227.46	-60.000
227.83	75.000
228.21	15.789
228.58	87.500
228.95	250.000
229.33	108.333
229.70	80.000
230.08	36.842
230.45	-30.000
230.82	-33.333
231.20	71.429
231.57	66.667
231.95	-27.273
232.32	-72.727
232.69	20.000
233.07	50.000
233.44	47.059
233.81	-10.000
234.19	27.778
234.56	-13.636
234.93	-17.241
235.31	5.263
235.68	11.111
236.05	5.000
236.43	53.846
236.80	60.000
237.17	14.815
237.55	18.182
237.92	-70.000
238.29	25.806
238.67	20.455
239.04	30.556
239.41	23.810
239.79	17.391
240.16	11.111
240.53	23.913
240.91	-9.804
241.28	26.230
241.65	22.388
242.02	36.486
242.40	10.769
242.77	28.000
243.14	21.951
243.51	21.053
243.89	17.949
244.26	25.743
244.63	15.686
245.00	25.234
245.38	19.298
245.75	13.274
246.12	22.222
246.49	18.605
246.87	22.857
247.24	25.828
247.61	25.000
247.98	22.148
248.36	17.901
248.73	19.632
249.10	20.765
249.47	29.353
249.84	29.843
250.22	22.798
250.59	28.889
250.96	24.091
251.33	22.449
251.70	26.496
252.08	22.500
252.45	25.410
252.82	26.033
253.19	23.828
253.56	24.335
253.94	28.462
254.31	24.621
254.68	26.573
255.05	21.498
255.42	23.129
255.79	25.566
256.16	25.166
256.54	23.841
256.91	24.590
257.28	24.918
257.65	22.293
258.02	24.779
258.39	19.373
258.76	26.911
259.14	29.885
259.51	23.343
259.88	24.079
260.25	24.722
260.62	24.932
260.99	26.230
261.36	27.614
261.73	24.138
262.10	26.099
262.47	23.056
262.85	25.505
263.22	24.156
263.59	23.158
263.96	24.041
264.33	23.785
264.70	24.691
265.07	25.537
265.44	24.717
265.81	25.926
266.18	24.717
266.55	23.214
266.92	20.957
267.29	23.851
267.66	24.612
268.03	25.546
268.40	24.217
268.77	23.235
269.14	23.348
269.51	23.465
269.88	23.566
270.25	24.547
270.62	23.207
270.99	25.455
271.36	22.772
271.73	23.772
272.10	25.050
272.47	23.647
272.84	22.892
273.21	23.848
273.58	22.984
273.95	21.731
274.32	24.144
274.69	20.696
275.06	22.344
275.43	24.030
275.80	25.397
276.17	21.481
276.54	22.015
276.91	21.288
277.28	22.966
277.65	23.160
278.02	22.978
278.39	23.913
278.76	23.374
279.13	24.823
279.50	22.680
279.87	24.508
280.23	20.423
280.60	22.203
280.97	24.013
281.34	23.769
281.71	24.027
282.08	22.093
282.45	23.077
282.82	21.978
283.19	22.294
283.56	22.295
283.92	23.574
284.29	22.591
284.66	22.989
285.03	21.635
285.40	21.484
285.77	25.077
286.14	23.511
286.51	25.266
286.87	21.485
287.24	23.494
287.61	20.927
287.98	23.716
288.35	22.929
288.72	23.373
289.08	23.719
289.45	21.746
289.82	20.633
290.19	21.408
290.56	25.493
290.93	22.825
291.29	23.140
291.66	20.248
292.03	21.438
292.40	23.946
292.77	20.485
293.13	22.192
293.50	22.602
293.87	21.208
294.24	24.133
294.60	21.871
294.97	19.463
295.34	22.279
295.71	19.924
296.08	21.189
296.44	20.833
296.81	22.046
297.18	22.042
297.55	19.222
297.91	21.827
298.28	20.379
298.65	21.046
299.02	21.606
299.38	21.167
299.75	19.159
300.12	21.065
300.48	22.005
300.85	21.710
301.22	20.582
301.59	20.434
301.95	21.243
302.32	21.444
302.69	20.591
303.05	21.545
303.42	20.732
303.79	21.354
304.15	20.610
304.52	20.930
304.89	21.047
305.25	21.739
305.62	20.272
305.99	21.031
306.35	20.565
306.72	21.717
307.09	20.508
307.45	21.532
307.82	20.989
308.19	20.686
308.55	20.733
308.92	21.324
309.29	19.732
309.65	20.955
310.02	21.386
310.38	20.374
310.75	22.039
311.12	21.764
311.48	20.235
311.85	21.652
312.22	21.157
312.58	21.502
312.95	19.312
313.31	21.229
313.68	21.062
314.05	20.687
314.41	21.767
314.78	21.980
315.14	21.234
315.51	21.699
315.87	21.152
316.24	21.096
316.61	22.735
316.97	20.724
317.34	20.018
317.70	20.961
318.07	21.869
318.43	21.173
318.80	21.823
319.16	21.030
319.53	20.223
319.89	20.596
320.26	21.174
320.62	21.099
320.99	22.807
321.35	21.165
321.72	22.791
322.08	22.182
322.45	22.313
322.81	21.751
323.18	22.301
323.54	22.759
323.91	23.488
324.27	20.568
324.64	24.097
325.00	22.554
325.37	23.260
325.73	22.645
326.10	22.141
326.46	22.313
326.83	23.139
327.19	22.362
327.56	23.478
327.92	21.794
328.29	22.661
328.65	23.116
329.01	22.504
329.38	23.252
329.74	24.144
330.11	22.945
330.47	23.420
330.84	22.050
331.20	23.167
331.56	22.444
331.93	21.674
332.29	23.475
332.66	23.422
333.02	23.116
333.38	21.896
333.75	22.391
334.11	23.770
334.48	22.112
334.84	23.534
335.20	22.334
335.57	22.934
335.93	22.562
336.29	22.130
336.66	23.633
337.02	23.328
337.38	22.874
337.75	23.471
338.11	23.297
338.47	22.911
338.84	23.181
339.20	23.420
339.56	21.417
339.93	23.235
340.29	21.981
340.65	22.060
341.02	22.346
341.38	22.716
341.74	21.630
342.11	24.055
342.47	22.399
342.83	23.591
343.20	23.549
343.56	22.374
343.92	22.098
344.28	22.813
344.65	22.713
345.01	23.011
345.37	23.639
345.73	22.136
346.10	23.011
346.46	23.022
346.82	22.921
347.19	22.918
347.55	23.293
347.91	22.437
348.27	23.445
348.63	22.239
349.00	22.297
349.36	22.082
349.72	22.917
350.08	23.700
350.45	23.270
350.81	22.474
351.17	22.932
351.53	23.199
351.89	23.918
352.26	23.657
352.62	22.537
352.98	23.740
353.34	23.674
353.70	22.804
354.07	23.621
354.43	23.842
354.79	23.859
355.15	23.400
355.51	24.123
355.87	23.261
356.24	24.715
356.60	23.799
356.96	23.499
357.32	24.535
357.68	23.353
358.04	23.503
358.40	22.164
358.77	24.708
359.13	23.708
359.49	23.792
359.85	24.148
360.21	23.386
360.57	23.259
360.93	24.260
361.29	23.930
361.66	24.765
362.02	24.843
362.38	24.807
362.74	24.721
363.10	25.103
363.46	25.762
363.82	24.858
364.18	25.123
364.54	23.997
364.90	25.084
365.26	24.207
365.62	25.067
365.98	24.847
366.35	26.174
366.71	25.442
367.07	25.575
367.43	25.016
367.79	26.012
368.15	26.087
368.51	25.440
368.87	25.082
369.23	24.667
369.59	25.888
369.95	25.490
370.31	26.131
370.67	25.516
371.03	25.277
371.39	26.326
371.75	26.341
372.11	26.762
372.47	26.947
372.83	26.178
373.19	26.351
373.55	26.287
373.91	26.040
374.27	26.326
374.63	26.658
374.99	25.928
375.35	27.532
375.71	27.161
376.07	26.275
376.42	26.889
376.78	27.968
377.14	26.825
377.50	27.894
377.86	27.340
378.22	28.263
378.58	27.170
378.94	27.758
379.30	27.241
379.66	28.277
380.02	27.698
380.38	27.707
380.74	27.831
381.09	27.642
381.45	28.068
381.81	29.508
382.17	28.504
382.53	28.012
382.89	27.709
383.25	28.429
383.61	28.356
383.97	28.210
384.32	29.426
384.68	28.364
385.04	29.497
385.40	29.523
385.76	29.953
386.12	30.042
386.48	28.588
386.83	29.559
387.19	29.027
387.55	29.812
387.91	29.509
388.27	29.850
388.62	30.641
388.98	29.329
389.34	30.466
389.70	30.099
390.06	31.024
390.42	29.578
390.77	30.343
391.13	30.516
391.49	30.616
391.85	31.758
392.20	31.079
392.56	30.538
392.92	30.643
393.28	30.459
393.64	30.559
393.99	31.261
394.35	32.360
394.71	31.437
395.07	30.838
395.42	30.268
395.78	32.297
396.14	31.313
396.50	31.829
396.85	30.948
397.21	31.657
397.57	31.861
397.92	31.157
398.28	30.744
398.64	31.121
399.00	30.524
399.35	32.094
399.71	31.250
400.07	32.341
400.42	31.839
400.78	32.002
401.14	32.726
401.49	33.485
401.85	31.977
402.21	33.024
402.57	32.746
402.92	32.742
403.28	31.089
403.63	32.637
403.99	32.363
404.35	31.950
404.70	32.635
405.06	32.663
405.42	32.494
405.77	33.860
406.13	33.820
406.49	32.658
406.84	32.798
407.20	33.426
407.55	32.283
407.91	33.690
408.27	33.098
408.62	34.148
408.98	33.604
409.34	33.314
409.69	33.251
410.05	32.708
410.40	32.889
410.76	33.371
411.11	32.554
411.47	33.661
411.83	33.568
412.18	34.699
412.54	33.076
412.89	33.411
413.25	33.747
413.60	34.176
413.96	33.566
414.31	33.031
414.67	33.930
415.03	33.969
415.38	32.976
415.74	33.537
416.09	34.176
416.45	32.874
416.80	33.048
417.16	34.483
417.51	34.745
417.87	33.967
418.22	33.593
418.58	32.900
418.93	34.342
419.29	33.970
419.64	33.073
420.00	33.828
420.35	33.464
420.71	34.406
421.06	33.755
421.42	34.805
421.77	34.195
422.12	33.721
422.48	33.743
422.83	34.009
423.19	32.997
423.54	34.735
423.90	33.959
424.25	33.973
424.61	32.836
424.96	33.828
425.31	34.342
425.67	33.172
426.02	33.481
426.38	33.238
426.73	32.701
427.09	35.179
427.44	32.987
427.79	33.112
428.15	33.219
428.50	33.876
428.85	33.697
429.21	33.138
429.56	33.366
429.92	33.120
430.27	33.928
430.62	33.952
430.98	32.759
431.33	32.942
431.68	32.711
432.04	32.555
432.39	32.994
432.74	32.135
433.10	33.315
433.45	32.553
433.80	33.262
434.16	33.058
434.51	34.532
434.86	34.093
435.22	34.272
435.57	33.196
435.92	34.112
436.28	33.163
436.63	33.971
436.98	33.333
437.34	33.484
437.69	32.416
438.04	32.470
438.39	33.257
438.75	32.928
439.10	33.562
439.45	33.930
439.81	32.994
440.16	32.547
440.51	33.055
440.86	32.351
441.22	32.101
441.57	33.753
441.92	33.269
442.27	33.131
442.63	31.793
442.98	32.657
443.33	32.667
443.68	33.053
444.03	34.384
444.39	33.010
444.74	32.466
445.09	31.576
445.44	33.193
445.79	32.711
446.15	32.271
446.50	31.731
446.85	32.685
447.20	32.350
447.55	32.427
447.91	31.990
448.26	31.977
448.61	32.200
448.96	32.242
449.31	31.495
449.66	32.081
450.02	31.909
450.37	32.072
450.72	31.055
451.07	32.631
451.42	31.600
451.77	31.684
452.12	32.788
452.47	32.442
452.83	32.601
453.18	31.349
453.53	31.936
453.88	31.309
454.23	31.130
454.58	31.109
454.93	31.857
455.28	32.089
455.63	31.552
455.98	31.117
456.34	32.038
456.69	31.864
457.04	30.910
457.39	31.264
457.74	31.376
458.09	30.478
458.44	30.873
458.79	30.737
459.14	30.047
459.49	31.353
459.84	31.007
460.19	29.595
460.54	31.573
460.89	31.445
461.24	30.517
461.59	31.267
461.94	29.378
462.29	30.795
462.64	29.753
462.99	30.760
463.34	31.149
463.69	30.188
464.04	30.295
464.39	30.045
464.74	30.103
465.09	30.623
465.44	30.043
465.79	30.090
466.14	29.182
466.49	29.737
466.84	29.917
467.19	30.520
467.54	29.025
467.89	28.851
468.24	29.141
468.59	29.010
468.94	29.021
469.29	29.154
469.64	29.243
469.99	29.446
470.34	29.579
470.68	30.075
471.03	29.601
471.38	29.562
471.73	28.999
472.08	30.140
472.43	29.019
472.78	29.282
473.13	28.824
473.48	28.520
473.83	29.716
474.17	28.722
474.52	29.044
474.87	29.568
475.22	27.662
475.57	28.401
475.92	28.323
476.27	27.636
476.61	28.245
476.96	28.519
477.31	27.921
477.66	28.804
478.01	28.622
478.36	28.016
478.70	27.586
479.05	28.119
479.40	27.739
479.75	28.002
480.10	27.712
480.45	27.256
480.79	27.800
481.14	27.803
481.49	27.851
481.84	28.677
482.19	27.914
482.53	27.853
482.88	28.135
483.23	27.612
483.58	27.205
483.92	26.729
484.27	27.138
484.62	26.898
484.97	27.100
485.31	26.364
485.66	25.466
486.01	25.245
486.36	26.205
486.70	26.879
487.05	27.476
487.40	26.538
487.75	26.590
488.09	27.219
488.44	25.308
488.79	26.037
489.13	26.611
489.48	25.825
489.83	25.956
490.17	25.395
490.52	26.067
490.87	25.931
491.22	25.260
491.56	25.683
491.91	25.818
492.26	26.439
492.60	25.055
492.95	25.362
493.30	25.639
493.64	25.449
493.99	25.658
494.34	24.913
494.68	24.839
495.03	25.639
495.37	25.566
495.72	25.125
496.07	25.416
496.41	25.139
496.76	25.480
497.11	25.011
497.45	24.860
497.80	24.745
498.14	24.807
498.49	25.368
498.84	24.543
499.18	24.247
499.53	23.857
499.87	24.835
500.22	23.954
500.56	24.651
500.91	24.760
501.26	24.500
501.60	24.083
501.95	24.881
502.29	24.133
502.64	24.486
502.98	24.245
503.33	24.104
503.67	23.768
504.02	23.993
504.36	24.441
504.71	23.978
505.06	23.738
505.40	23.537
505.75	24.044
506.09	24.171
506.44	23.770
506.78	23.807
507.13	24.205
507.47	23.875
507.82	24.148
508.16	23.518
508.51	23.441
508.85	23.099
509.19	23.496
509.54	24.207
509.88	22.924
510.23	23.458
510.57	24.263
510.92	23.367
511.26	23.810
511.61	23.129
511.95	23.475
512.30	23.584
512.64	22.539
512.98	23.312
513.33	23.286
513.67	23.202
514.02	23.301
514.36	23.683
514.70	23.802
515.05	23.566
515.39	23.675
515.74	24.337
516.08	21.976
516.42	23.391
516.77	23.449
517.11	22.434
517.46	23.595
517.80	23.677
518.14	23.449
518.49	23.319
518.83	23.257
519.17	22.671
519.52	23.008
519.86	22.386
520.20	23.003
520.55	22.508
520.89	23.874
521.23	22.166
521.58	23.277
521.92	23.173
522.26	22.566
522.61	23.090
522.95	22.664
523.29	23.333
523.64	22.197
523.98	22.875
524.32	23.496
524.66	22.083
525.01	22.650
525.35	21.482
525.69	21.346
526.04	22.158
526.38	22.701
526.72	21.626
527.06	23.050
527.41	23.324
527.75	22.922
528.09	22.904
528.43	21.906
528.78	22.139
529.12	22.362
529.46	22.766
529.80	22.082
530.15	22.087
530.49	21.708
530.83	22.373
531.17	22.043
531.51	22.383
531.86	22.897
532.20	22.256
532.54	21.843
532.88	22.182
533.22	22.510
533.57	22.504
533.91	21.493
534.25	22.442
534.59	21.897
534.93	21.732
535.27	22.704
535.62	22.172
535.96	21.732
536.30	21.210
536.64	21.982
536.98	20.910
537.32	22.284
537.66	22.271
538.01	21.027
538.35	20.585
538.69	20.613
539.03	21.766
539.37	21.555
539.71	21.381
540.05	22.362
540.39	21.333
540.73	20.461
541.07	20.846
541.42	20.555
541.76	20.522
542.10	20.446
542.44	20.889
542.78	21.411
543.12	21.037
543.46	20.391
543.80	20.264
544.14	21.724
544.48	21.749
544.82	21.245
545.16	20.871
545.50	20.611
545.84	20.637
546.18	21.049
546.52	20.828
546.86	20.692
547.20	21.438
547.54	21.473
547.88	20.555
548.22	19.825
548.56	21.065
548.90	20.418
549.24	21.277
549.58	20.820
549.92	20.217
550.26	21.165
550.60	20.230
550.94	19.793
551.28	20.528
551.62	21.563
551.96	20.129
552.30	20.395
552.64	20.348
552.98	20.462
553.32	20.707
553.66	19.807
554.00	19.987
554.34	20.077
554.68	19.432
555.02	20.237
555.36	20.710
555.69	19.218
556.03	20.240
556.37	20.088
556.71	19.150
557.05	19.553
557.39	20.504
557.73	19.089
558.07	19.669
558.41	19.934
558.75	19.743
559.08	19.415
559.42	18.999
559.76	20.353
560.10	19.625
560.44	19.921
560.78	19.437
561.12	19.212
561.45	20.134
561.79	19.841
562.13	20.148
562.47	19.729
562.81	19.747
563.15	18.876
563.48	19.267
563.82	18.742
564.16	18.292
564.50	19.130
564.84	19.410
565.17	19.176
565.51	19.160
565.85	18.705
566.19	19.470
566.52	19.017
566.86	19.581
567.20	18.760
567.54	19.065
567.88	19.368
568.21	19.170
568.55	18.657
568.89	19.156
569.23	18.673
569.56	19.109
569.90	19.244
570.24	18.718
570.57	18.730
570.91	18.187
571.25	18.455
571.59	18.898
571.92	18.310
572.26	18.634
572.60	18.182
572.93	18.369
573.27	18.460
573.61	18.952
573.95	18.742
574.28	18.711
574.62	18.258
574.96	18.174
575.29	18.132
575.63	18.388
575.97	18.611
576.30	18.184
576.64	17.991
576.98	17.882
577.31	18.419
577.65	18.531
577.98	18.806
578.32	17.816
578.66	17.980
578.99	18.165
579.33	18.119
579.67	18.087
580.00	18.049
580.34	18.019
580.67	17.741
581.01	18.066
581.35	17.787
581.68	17.835
582.02	17.997
582.35	18.300
582.69	18.252
583.02	18.127
583.36	17.786
583.70	18.064
584.03	17.759
584.37	17.971
584.70	17.873
585.04	17.368
585.37	17.499
585.71	17.864
586.04	17.657
586.38	17.572
586.72	17.623
587.05	17.652
587.39	17.602
587.72	18.110
588.06	18.109
588.39	17.799
588.73	17.407
589.06	17.579
589.40	17.886
589.73	18.123
590.07	18.004
590.40	17.748
590.73	17.356
591.07	18.057
591.40	17.107
591.74	17.289
592.07	17.296
592.41	17.468
592.74	17.288
593.08	17.834
593.41	17.906
593.75	17.443
594.08	17.177
594.41	18.141
594.75	17.104
595.08	17.295
595.42	17.370
595.75	17.307
596.09	17.486
596.42	17.843
596.75	17.522
597.09	18.303
597.42	17.322
597.75	16.817
598.09	17.421
598.42	18.014
598.76	17.081
599.09	16.874
599.42	16.963
599.76	17.431
600.09	17.618
600.42	17.184
600.76	17.305
601.09	17.225
601.42	17.199
601.76	16.586
602.09	16.905
602.42	16.249
602.76	17.269
603.09	16.703
603.42	17.233
603.76	16.631
604.09	17.282
604.42	17.138
604.76	16.476
605.09	17.591
605.42	17.344
605.75	16.846
606.09	16.760
606.42	16.819
606.75	16.867
607.09	16.091
607.42	16.493
607.75	16.921
608.08	17.324
608.42	16.445
608.75	17.289
609.08	17.020
609.41	16.939
609.75	16.518
610.08	16.403
610.41	16.483
610.74	16.050
611.07	16.963
611.41	16.861
611.74	16.998
612.07	17.111
612.40	16.160
612.73	16.724
613.07	16.724
613.40	16.939
613.73	16.755
614.06	16.879
614.39	16.715
614.72	17.128
615.06	16.266
615.39	16.530
615.72	16.872
616.05	16.610
616.38	17.053
616.71	16.667
617.05	16.347
617.38	16.640
617.71	17.009
618.04	16.568
618.37	16.995
618.70	17.081
619.03	15.651
619.36	16.584
619.69	16.784
620.03	16.008
620.36	16.564
620.69	16.718
621.02	16.470
621.35	16.763
621.68	16.341
622.01	16.726
622.34	15.969
622.67	16.632
623.00	15.520
623.33	16.457
623.66	16.991
623.99	16.129
624.32	17.739
624.65	15.701
624.99	16.775
625.32	17.440
625.65	15.981
625.98	16.068
626.31	16.584
626.64	17.582
626.97	16.654
627.30	15.490
627.63	15.154
627.96	18.694
628.29	15.720
628.62	16.205
628.95	16.126
629.28	15.888
629.61	17.340
629.94	16.402
630.26	15.763
630.59	14.421
630.92	15.498
631.25	17.531
631.58	16.478
631.91	15.933
632.24	16.427
632.57	16.698
632.90	15.647
633.23	15.816
633.56	16.429
633.89	15.599
634.22	16.632
634.55	17.641
634.88	16.126
635.20	16.792
635.53	16.723
635.86	15.060
636.19	17.603
636.52	17.405
636.85	16.854
637.18	15.385
637.51	16.129
637.83	16.944
638.16	17.051
638.49	15.610
638.82	16.911
639.15	15.006
639.48	16.513
639.81	16.166
640.13	17.550
640.46	15.152
640.79	15.686
641.12	16.025
641.45	16.562
641.77	17.458
642.10	14.829
642.43	17.154
642.76	15.176
643.09	16.301
643.41	15.266
643.74	15.172
644.07	16.276
644.40	15.700
644.73	15.530
645.05	15.859
645.38	16.835
645.71	16.129
646.04	19.225
646.36	14.161
646.69	16.104
647.02	17.737
647.35	18.015
647.67	16.264
648.00	15.446
648.33	17.718
648.66	17.832
648.98	15.918
649.31	16.373
649.64	15.936
649.96	15.915
650.29	14.465
650.62	16.407
650.94	15.916
651.27	15.419
651.60	15.205
651.92	15.198
652.25	16.787
652.58	16.919
652.90	14.390
653.23	17.042
653.56	14.979
653.88	16.854
654.21	15.352
654.54	16.040
654.86	15.722
655.19	14.429
655.52	15.882
655.84	15.675
656.17	18.534
656.49	26.110
656.82	28.710
657.15	22.390
657.47	16.555
657.80	12.103
658.13	9.473
658.45	12.186
658.78	15.335
659.10	14.543
659.43	14.542
659.75	14.430
660.08	13.838
660.41	13.896
660.73	13.683
661.06	14.684
661.38	12.919
661.71	13.276
662.03	15.344
662.36	16.100
662.68	16.886
663.01	15.221
663.33	16.446
663.66	17.033
663.98	14.423
664.31	16.323
664.63	15.414
664.96	14.882
665.28	15.245
665.61	17.483
665.93	15.357
666.26	17.563
666.58	14.576
666.91	16.449
667.23	15.238
667.56	14.990
667.88	15.200
668.21	13.281
668.53	13.320
668.86	16.699
669.18	14.053
669.50	14.911
669.83	14.400
670.15	14.173
670.48	15.476
670.80	13.767
671.13	15.123
671.45	14.173
671.77	17.514
672.10	13.333
672.42	13.430
672.75	14.747
673.07	14.030
673.39	14.330
673.72	16.443
674.04	16.552
674.37	15.921
674.69	15.873
675.01	14.667
675.34	16.031
675.66	13.483
675.98	16.604
676.31	14.844
676.63	15.589
676.95	20.115
677.28	13.508
677.60	12.598
677.92	14.395
678.25	17.185
678.57	16.192
678.89	15.017
679.22	14.634
679.54	12.650
679.86	10.847
680.18	14.760
680.51	15.094
680.83	15.221
681.15	13.276
681.48	15.544
681.80	15.717
682.12	15.035
682.44	15.860
682.77	14.894
683.09	15.530
683.41	13.953
683.73	15.939
684.06	13.469
684.38	13.238
684.70	12.926
685.02	13.941
685.34	13.810
685.67	12.618
685.99	14.571
686.31	12.645
686.63	13.112
686.96	13.880
687.28	14.821
687.60	14.815
687.92	11.897
688.24	16.194
688.56	13.621
688.89	14.156
689.21	14.090
689.53	13.333
689.85	11.834
690.17	12.778
690.49	14.940
690.82	14.653
691.14	13.765
691.46	13.767
691.78	15.470
692.10	13.028
692.42	12.857
692.74	12.886
693.06	12.037
693.39	12.334
693.71	14.474
694.03	15.428
694.35	14.476
694.67	14.990
694.99	14.043
695.31	15.673
695.63	13.853
695.95	15.528
696.27	14.945
696.59	16.593
696.91	13.964
697.23	15.824
697.56	13.035
697.88	14.015
698.20	12.806
698.52	16.098
698.84	16.632
699.16	13.061
699.48	14.644
699.80	14.681
700.12	14.410
700.44	12.212
700.76	15.677
701.08	15.012
701.40	11.917
701.72	14.925
702.04	16.578
702.36	14.921
702.68	13.692
703.00	17.604
703.32	12.808
703.64	14.425
703.96	13.842
704.28	18.182
704.60	14.937
704.91	14.796
705.23	14.795
705.55	14.485
705.87	15.152
706.19	16.871
706.51	12.651
706.83	11.527
707.15	12.169
707.47	11.916
707.79	15.066
708.11	12.924
708.43	14.624
708.74	12.054
709.06	15.545
709.38	15.023
709.70	17.618
710.02	12.661
710.34	15.691
710.66	12.011
710.98	11.749
711.29	12.088
711.61	14.407
711.93	15.385
712.25	12.703
712.57	17.109
712.89	16.176
713.20	12.130
713.52	16.763
713.84	16.992
714.16	14.211
714.48	15.979
714.80	14.805
715.11	12.598
715.43	13.528
715.75	13.947
716.07	12.155
716.39	13.934
716.70	11.145
717.02	14.754
717.34	10.801
717.66	14.430
717.97	11.644
718.29	13.058
718.61	13.816
718.93	15.534
719.24	12.733
719.56	12.883
719.88	11.111
720.20	14.516
720.51	11.801
720.83	11.875
721.15	10.855
721.46	9.247
721.78	15.000
722.10	11.003
722.42	12.416
722.73	17.419
723.05	16.140
723.37	14.583
723.68	16.487
724.00	13.718
724.32	13.732
724.63	11.538
724.95	13.121
725.27	14.983
725.58	12.721
725.90	12.759
726.22	17.555
726.53	13.636
726.85	15.723
727.16	14.199
727.48	14.067
727.80	12.583
728.11	10.601
728.43	13.131
728.74	13.712
729.06	11.258
729.38	12.338
729.69	14.765
730.01	14.286
730.32	12.121
730.64	12.893
730.96	12.422
731.27	16.480
731.59	13.462
731.90	13.506
732.22	11.719
732.53	9.116
732.85	10.857
733.16	12.903
733.48	10.061
733.80	14.485
734.11	9.972
734.43	13.514
734.74	15.696
735.06	10.050
735.37	15.676
735.69	11.622
736.00	11.017
736.32	11.321
736.63	16.667
736.95	12.069
737.26	12.121
737.58	12.727
737.89	14.706
738.21	11.927
738.52	8.197
738.83	12.969
739.15	9.929
739.46	13.605
739.78	11.656
740.09	12.607
740.41	13.703
740.72	11.000
741.04	14.563
741.35	13.333
741.66	13.725
741.98	17.623
742.29	14.644
742.61	13.158
742.92	15.769
743.23	16.245
743.55	14.341
743.86	8.800
744.18	14.463
744.49	9.705
744.80	9.877
745.12	13.924
745.43	16.260
745.74	13.362
746.06	13.136
746.37	13.924
746.68	18.293
747.00	7.917
747.31	12.446
747.62	15.385
747.94	11.741
748.25	11.647
748.56	11.429
748.88	13.248
749.19	12.931
749.50	7.792
749.82	10.843
750.13	11.388
750.44	7.667
750.75	11.385
751.07	14.769
751.38	17.035
751.69	12.780
752.01	8.738
752.32	11.438
752.63	12.245
752.94	13.841
753.26	12.639
753.57	9.630
753.88	13.483
754.19	15.756
754.51	12.862
754.82	15.113
755.13	15.082
755.44	9.556
755.75	11.513
756.07	14.030
756.38	14.151
756.69	16.867
757.00	10.526
757.31	12.842
757.63	11.509
757.94	14.319
758.25	11.964
758.56	13.290
758.87	16.136
759.18	13.067
759.50	14.448
759.81	14.566
760.12	13.208
760.43	11.458
760.74	14.039
761.05	11.500
761.36	8.916
761.67	11.929
761.99	11.892
762.30	10.671
762.61	8.911
762.92	11.940
763.23	10.112
763.54	11.151
763.85	13.058
764.16	12.795
764.47	16.549
764.78	13.738
765.10	12.610
765.41	12.564
765.72	10.582
766.03	12.994
766.34	10.972
766.65	9.756
766.96	12.749
767.27	14.747
767.58	10.448
767.89	16.827
768.20	15.493
768.51	16.204
768.82	19.277
769.13	8.712
769.44	9.615
769.75	14.440
770.06	12.308
770.37	12.992
770.68	9.362
770.99	5.263
771.30	18.519
771.61	8.745
771.92	12.963
772.23	14.170
772.54	7.870
772.85	17.051
773.16	18.571
773.47	7.407
773.78	8.108
774.09	15.909
774.39	10.000
774.70	18.033
775.01	4.268
775.32	2.941
775.63	11.656
775.94	-0.637
776.25	18.065
776.56	14.103
776.87	14.286
777.18	10.345
777.48	13.986
777.79	7.432
778.10	5.882
778.41	4.167
778.72	16.552
779.03	11.111
779.34	3.636
779.65	10.881
779.95	16.667
780.26	14.205
780.57	19.355
780.88	14.493
781.19	10.968
781.50	15.882
781.80	4.839
782.11	14.286
782.42	10.101
782.73	11.377
783.04	13.408
783.34	9.091
783.65	5.229
783.96	12.422
784.27	11.905
784.57	5.960
784.88	7.143
785.19	13.386
785.50	8.661
785.81	9.774
786.11	10.000
786.42	11.511
786.73	6.475
787.04	12.782
787.34	4.918
787.65	2.400
787.96	8.209
788.26	22.378
788.57	18.881
788.88	15.789
789.19	9.150
789.49	6.164
789.80	12.057
790.11	15.748
790.41	10.938
790.72	13.559
791.03	9.709
791.33	4.348
791.64	18.421
791.95	9.821
792.25	6.667
792.56	7.143
792.87	3.125
793.17	16.071
793.48	1.042
793.79	-3.614
794.09	0.000
794.40	9.174
794.70	21.769
795.01	6.494
795.32	13.014
795.62	9.859
795.93	12.879
796.23	17.213
796.54	4.464
796.85	8.511
797.15	3.261
797.46	2.740
797.76	11.250
798.07	7.609
798.37	-3.093
798.68	-1.299
798.99	17.241
799.29	6.742
799.60	10.638
799.90	9.639
800.21	-9.231
800.51	-2.985
800.82	11.765
801.12	0.000
801.43	-8.824
801.73	3.390
802.04	6.061
802.34	5.000
802.65	6.780
802.95	17.910
803.26	3.390
803.56	16.438
803.87	11.429
804.17	13.699
804.48	-3.509
804.78	13.889
805.09	-1.724
805.39	16.216
805.70	5.634
806.00	20.732
806.30	9.639
806.61	0.000
806.91	9.615
807.22	5.556
807.52	8.046
807.83	16.667
808.13	3.614
808.43	6.742
808.74	16.250
809.04	-7.353
809.35	9.333
809.65	7.143
809.95	12.329
810.26	1.754
810.56	27.586
810.86	22.059
811.17	-1.754
811.47	-8.197
811.77	0.000
812.08	-8.475
812.38	18.333
812.69	-1.724
812.99	7.547
813.29	5.128
813.59	10.000
813.90	12.281
814.20	12.727
814.50	16.901
814.81	14.103
815.11	8.197
815.41	19.403
815.72	13.793
816.02	12.500
816.32	13.333
816.62	0.000
816.93	-2.222
817.23	3.704
817.53	0.000
817.84	7.143
818.14	2.941
818.44	10.204
818.74	24.444
819.04	-10.256
819.35	2.857
819.65	-34.615
819.95	11.321
820.25	11.111
820.56	-7.143
820.86	9.375
821.16	-12.821
821.46	-23.256
821.76	2.000
822.07	-1.786
822.37	10.870
822.67	19.149
822.97	-21.622
823.27	-15.000
823.57	14.286
823.88	15.556
824.18	10.000
824.48	-6.667
824.78	-40.000
825.08	0.000
825.38	28.889
825.69	29.787
825.99	8.333
826.29	0.000
826.59	-15.385
826.89	0.000
827.19	4.000
827.49	14.706
827.79	20.833
828.09	-40.541
828.39	13.333
828.70	9.756
829.00	6.977
829.30	-28.571
829.60	11.765
829.90	13.043
830.20	-22.857
830.50	-6.897
830.80	11.111
831.10	-15.385
831.40	5.882
831.70	80.952
832.00	-9.677
832.30	-82.353
832.60	-16.667
832.90	-100.000
833.20	-26.316
833.50	-15.000
833.80	-31.579
834.10	-42.857
834.40	13.889
834.70	25.000
835.00	-37.143
835.30	2.941
835.60	10.000
835.90	8.000
836.20	-9.091
836.50	-24.000
836.80	-9.091
837.10	3.704
837.40	-3.704
837.70	18.750
838.00	10.714
838.30	0.000
838.60	13.793
838.90	-50.000
839.19	-65.217
839.49	-25.000
839.79	-30.435
840.09	-43.750
840.39	-5.000
840.69	19.355
840.99	-7.143
841.29	13.333
841.59	-15.789
841.88	12.821
842.18	-7.692
842.48	-90.000
842.78	-15.000
843.08	16.667
843.38	48.387
843.68	-66.667
843.97	26.471
844.27	31.250
844.57	-10.526
844.87	-90.000
845.17	-33.333
845.47	23.810
845.76	-9.524
846.06	22.222
846.36	-29.412
846.66	26.923
846.96	-60.000
847.25	-17.647
847.55	17.391
847.85	25.000
848.15	-11.765
848.44	-45.455
848.74	-9.524
849.04	-45.833
849.34	-18.750
849.63	-4.348
849.93	700.000
850.23	-6.667
850.53	19.231
850.82	-154.545
851.12	-9.091
851.42	-54.545
851.71	38.462
852.01	-40.000
852.31	-15.385
852.61	-10.526
852.90	41.667
853.20	-5.556
853.50	-66.667
853.79	-28.571
854.09	-22.727
854.39	-75.000
854.68	16.129
854.98	-7.692
855.28	16.667
855.57	-10.714
855.87	-4.000
856.17	9.091
856.46	7.407
856.76	27.778
857.05	-21.739
857.35	-20.833
857.65	-23.077
857.94	14.286
858.24	18.519
858.53	47.826
858.83	29.412
859.13	-17.647
859.42	23.529
859.72	-7.143
860.01	0.000
860.31	-44.444
860.60	-100.000
860.90	13.333
861.20	-16.667
861.49	-46.154
861.79	3.333
862.08	-23.077
862.38	12.500
862.67	11.765
862.97	6.250
863.26	0.000
863.56	30.000
863.85	-63.636
864.15	27.778
864.44	133.333
864.74	-7.143
865.03	-18.750
865.33	-90.000
865.62	-29.032
865.92	-9.091
866.21	26.087
866.51	7.143
866.80	-60.000
867.10	-75.000
867.39	33.333
867.69	1400.000
867.98	85.714
868.27	0.000
868.57	-1000.000
868.86	-90.000
869.16	9.524
869.45	0.000
869.75	36.364
870.04	-28.571
870.33	50.000
870.63	-142.857
870.92	-25.000
871.22	-100.000
871.51	-45.455
871.80	-400.000
872.10	-300.000
>>>>>End Processed Spectral Data<<<<<
