SpectraSuite Data File
++++++++++++++++++++++++++++++++++++
Date: Thu May 14 16:27:27 PDT 2015
User: schluterlab
Dark Spectrum Present: Yes
Reference Spectrum Present: Yes
Number of Sampled Component Spectra: 1
Spectrometers: USB2E3373
Integration Time (usec): 3000 (USB2E3373)
Spectra Averaged: 3 (USB2E3373)
Boxcar Smoothing: 0 (USB2E3373)
Correct for Electrical Dark: No (USB2E3373)
Strobe/Lamp Enabled: No (USB2E3373)
Correct for Detector Non-linearity: No (USB2E3373)
Correct for Stray Light: No (USB2E3373)
Number of Pixels in Processed Spectrum: 2048
>>>>>Begin Processed Spectral Data<<<<<
178.53	0.000
178.91	114.286
179.29	-1100.000
179.67	-1100.000
180.04	107.143
180.42	20.000
180.80	160.000
181.18	400.000
181.56	300.000
181.94	75.000
182.31	100.000
182.69	66.667
183.07	-200.000
183.45	-0.000
183.83	-66.667
184.20	200.000
184.58	-200.000
184.96	-175.000
185.34	100.000
185.72	-20.000
186.09	100.000
186.47	200.000
186.85	100.000
187.23	-77.778
187.61	-800.000
187.98	120.000
188.36	50.000
188.74	-200.000
189.12	233.333
189.49	93.750
189.87	25.000
190.25	11.111
190.63	40.000
191.00	66.667
191.38	0.000
191.76	-275.000
192.14	0.000
192.51	-50.000
192.89	-66.667
193.27	0.000
193.65	14.286
194.02	-1100.000
194.40	42.857
194.78	100.000
195.15	0.000
195.53	63.636
195.91	0.000
196.29	50.000
196.66	30.769
197.04	-200.000
197.42	71.429
197.79	0.000
198.17	62.500
198.55	14.286
198.92	100.000
199.30	12.500
199.68	0.000
200.05	92.857
200.43	-650.000
200.81	-0.000
201.18	0.000
201.56	177.778
201.94	0.000
202.31	466.667
202.69	-44.444
203.07	-1300.000
203.44	-77.778
203.82	-25.000
204.19	33.333
204.57	-66.667
204.95	-50.000
205.32	0.000
205.70	200.000
206.08	-66.667
206.45	33.333
206.83	280.000
207.20	16.667
207.58	-240.000
207.96	-116.667
208.33	66.667
208.71	58.333
209.08	116.667
209.46	0.000
209.84	133.333
210.21	50.000
210.59	-100.000
210.96	133.333
211.34	125.000
211.71	0.000
212.09	-700.000
212.46	0.000
212.84	850.000
213.22	-80.000
213.59	-50.000
213.97	-30.000
214.34	33.333
214.72	33.333
215.09	25.000
215.47	0.000
215.84	14.286
216.22	400.000
216.59	0.000
216.97	0.000
217.34	-125.000
217.72	-25.000
218.09	75.000
218.47	-100.000
218.84	0.000
219.22	100.000
219.59	-5.882
219.97	65.000
220.34	350.000
220.72	0.000
221.09	0.000
221.47	66.667
221.84	-20.000
222.22	0.000
222.59	0.000
222.97	12.500
223.34	-140.000
223.72	200.000
224.09	75.000
224.46	150.000
224.84	180.000
225.21	-85.714
225.59	-225.000
225.96	25.000
226.34	26.923
226.71	183.333
227.08	-150.000
227.46	-46.667
227.83	-25.000
228.21	10.526
228.58	12.500
228.95	250.000
229.33	50.000
229.70	50.000
230.08	100.000
230.45	-0.000
230.82	66.667
231.20	71.429
231.57	-41.667
231.95	0.000
232.32	-27.273
232.69	0.000
233.07	25.000
233.44	-11.765
233.81	0.000
234.19	88.889
234.56	36.364
234.93	24.138
235.31	5.263
235.68	44.444
236.05	-40.000
236.43	50.000
236.80	100.000
237.17	-11.111
237.55	21.212
237.92	80.000
238.29	32.258
238.67	20.455
239.04	30.556
239.41	-7.143
239.79	15.217
240.16	14.815
240.53	0.000
240.91	7.843
241.28	8.197
241.65	16.418
242.02	20.270
242.40	-7.692
242.77	1.333
243.14	3.659
243.51	-9.211
243.89	5.128
244.26	12.871
244.63	5.882
245.00	10.280
245.38	7.018
245.75	-8.850
246.12	4.762
246.49	1.550
246.87	13.571
247.24	17.219
247.61	16.447
247.98	16.107
248.36	12.346
248.73	4.908
249.10	7.650
249.47	14.925
249.84	14.660
250.22	5.699
250.59	5.000
250.96	10.000
251.33	4.082
251.70	10.684
252.08	12.917
252.45	9.016
252.82	9.091
253.19	6.641
253.56	10.266
253.94	5.385
254.31	6.818
254.68	11.888
255.05	12.704
255.42	6.803
255.79	6.472
256.16	6.954
256.54	6.291
256.91	7.541
257.28	8.852
257.65	4.140
258.02	8.555
258.39	6.838
258.76	11.009
259.14	11.207
259.51	6.628
259.88	7.649
260.25	6.944
260.62	13.151
260.99	11.749
261.36	8.043
261.73	6.101
262.10	6.868
262.47	9.920
262.85	8.333
263.22	6.494
263.59	4.474
263.96	8.696
264.33	5.627
264.70	7.901
265.07	10.740
265.44	11.338
265.81	8.102
266.18	9.524
266.55	7.366
266.92	7.517
267.29	10.284
267.66	6.208
268.03	10.262
268.40	7.933
268.77	7.973
269.14	7.489
269.51	5.921
269.88	10.451
270.25	9.256
270.62	9.705
270.99	10.909
271.36	10.495
271.73	8.448
272.10	9.018
272.47	9.419
272.84	9.036
273.21	8.818
273.58	8.468
273.95	6.923
274.32	7.605
274.69	9.478
275.06	8.425
275.43	8.318
275.80	9.524
276.17	7.222
276.54	8.396
276.91	9.123
277.28	7.776
277.65	7.720
278.02	8.824
278.39	9.964
278.76	8.084
279.13	10.461
279.50	9.278
279.87	9.481
280.23	6.866
280.60	8.814
280.97	9.539
281.34	7.980
281.71	8.968
282.08	9.468
282.45	9.493
282.82	8.791
283.19	7.916
283.56	8.525
283.92	10.060
284.29	8.689
284.66	8.210
285.03	5.449
285.40	7.883
285.77	6.966
286.14	8.244
286.51	8.676
286.87	7.267
287.24	8.434
287.61	8.072
287.98	8.610
288.35	9.911
288.72	8.728
289.08	8.931
289.45	7.249
289.82	8.133
290.19	7.759
290.56	9.155
290.93	7.561
291.29	7.851
291.66	7.438
292.03	6.513
292.40	8.571
292.77	6.065
293.13	7.713
293.50	6.307
293.87	6.711
294.24	8.400
294.60	7.965
294.97	6.174
295.34	9.347
295.71	7.062
296.08	6.977
296.44	6.985
296.81	6.456
297.18	7.472
297.55	6.250
297.91	5.694
298.28	5.924
298.65	7.372
299.02	5.195
299.38	7.323
299.75	7.009
300.12	5.093
300.48	6.221
300.85	6.862
301.22	7.047
301.59	5.822
301.95	6.102
302.32	8.222
302.69	7.448
303.05	7.073
303.42	5.765
303.79	5.625
304.15	5.678
304.52	6.237
304.89	7.435
305.25	6.315
305.62	7.106
305.99	6.598
306.35	6.351
306.72	7.032
307.09	6.701
307.45	7.453
307.82	5.348
308.19	6.054
308.55	7.329
308.92	7.498
309.29	6.609
309.65	5.848
310.02	6.337
310.38	6.496
310.75	6.602
311.12	7.383
311.48	5.865
311.85	7.028
312.22	7.400
312.58	7.700
312.95	6.692
313.31	7.769
313.68	8.242
314.05	7.498
314.41	8.106
314.78	7.539
315.14	8.984
315.51	8.218
315.87	9.721
316.24	9.224
316.61	9.059
316.97	9.050
317.34	7.848
317.70	9.956
318.07	10.141
318.43	10.544
318.80	11.371
319.16	11.760
319.53	9.940
319.89	12.095
320.26	12.189
320.62	12.943
320.99	13.112
321.35	12.384
321.72	14.326
322.08	13.886
322.45	14.273
322.81	15.794
323.18	15.133
323.54	17.241
323.91	17.972
324.27	17.900
324.64	18.220
325.00	19.071
325.37	20.966
325.73	20.496
326.10	21.898
326.46	21.173
326.83	22.818
327.19	23.228
327.56	24.506
327.92	24.941
328.29	25.000
328.65	26.131
329.01	26.734
329.38	27.633
329.74	28.853
330.11	29.366
330.47	29.655
330.84	29.027
331.20	30.250
331.56	31.282
331.93	31.464
332.29	31.356
332.66	31.312
333.02	31.993
333.38	33.305
333.75	33.754
334.11	33.945
334.48	33.828
334.84	34.325
335.20	33.669
335.57	34.317
335.93	33.636
336.29	33.860
336.66	35.828
337.02	35.452
337.38	34.609
337.75	36.198
338.11	35.660
338.47	36.146
338.84	35.956
339.20	35.468
339.56	35.997
339.93	35.796
340.29	35.990
340.65	36.577
341.02	37.510
341.38	37.914
341.74	38.176
342.11	37.651
342.47	36.299
342.83	37.118
343.20	38.757
343.56	38.172
343.92	37.710
344.28	37.344
344.65	38.062
345.01	37.129
345.37	37.869
345.73	37.412
346.10	38.534
346.46	39.161
346.82	37.903
347.19	39.649
347.55	39.605
347.91	39.302
348.27	38.923
348.63	39.604
349.00	38.628
349.36	39.108
349.72	38.616
350.08	39.302
350.45	39.544
350.81	39.367
351.17	39.624
351.53	39.955
351.89	40.471
352.26	40.299
352.62	39.627
352.98	40.687
353.34	40.627
353.70	41.140
354.07	40.462
354.43	39.939
354.79	39.417
355.15	41.648
355.51	41.667
355.87	41.810
356.24	42.281
356.60	41.020
356.96	41.586
357.32	41.710
357.68	40.849
358.04	41.168
358.40	41.791
358.77	41.301
359.13	41.064
359.49	42.230
359.85	42.930
360.21	42.898
360.57	43.216
360.93	43.089
361.29	42.737
361.66	43.085
362.02	44.259
362.38	43.008
362.74	43.925
363.10	44.085
363.46	44.529
363.82	44.034
364.18	45.179
364.54	44.537
364.90	44.816
365.26	44.966
365.62	45.000
365.98	45.882
366.35	44.027
366.71	45.782
367.07	45.670
367.43	45.962
367.79	45.853
368.15	47.358
368.51	47.091
368.87	46.048
369.23	45.200
369.59	47.951
369.95	46.586
370.31	47.941
370.67	47.937
371.03	48.684
371.39	46.206
371.75	48.900
372.11	48.442
372.47	47.935
372.83	47.971
373.19	47.365
373.55	48.916
373.91	48.943
374.27	48.577
374.63	50.406
374.99	49.668
375.35	50.909
375.71	50.065
376.07	49.645
376.42	49.307
376.78	49.596
377.14	50.031
377.50	51.803
377.86	51.847
378.22	51.377
378.58	52.378
378.94	51.174
379.30	51.728
379.66	52.557
380.02	51.818
380.38	53.571
380.74	52.676
381.09	53.310
381.45	53.125
381.81	53.396
382.17	53.860
382.53	53.158
382.89	52.540
383.25	54.338
383.61	54.919
383.97	54.653
384.32	54.904
384.68	53.132
385.04	55.697
385.40	56.217
385.76	55.862
386.12	54.159
386.48	55.765
386.83	57.390
387.19	56.547
387.55	55.810
387.91	57.249
388.27	57.679
388.62	55.269
388.98	56.232
389.34	57.454
389.70	58.164
390.06	57.786
390.42	56.988
390.77	57.676
391.13	58.627
391.49	57.850
391.85	57.939
392.20	59.668
392.56	58.949
392.92	58.397
393.28	59.149
393.64	59.050
393.99	60.372
394.35	60.981
394.71	60.539
395.07	60.299
395.42	59.280
395.78	60.085
396.14	61.676
396.50	60.451
396.85	61.837
397.21	61.183
397.57	61.720
397.92	62.257
398.28	59.316
398.64	61.327
399.00	59.476
399.35	60.366
399.71	60.652
400.07	62.100
400.42	62.980
400.78	63.715
401.14	62.550
401.49	64.355
401.85	64.128
402.21	64.368
402.57	64.261
402.92	63.652
403.28	63.466
403.63	64.499
403.99	63.777
404.35	63.673
404.70	62.550
405.06	63.424
405.42	64.344
405.77	63.413
406.13	64.290
406.49	65.484
406.84	64.709
407.20	65.511
407.55	65.475
407.91	64.362
408.27	65.135
408.62	65.794
408.98	66.802
409.34	64.985
409.69	67.182
410.05	66.882
410.40	65.951
410.76	66.798
411.11	66.978
411.47	67.260
411.83	65.961
412.18	68.133
412.54	66.568
412.89	66.298
413.25	67.212
413.60	66.686
413.96	67.599
414.31	65.156
414.67	66.905
415.03	67.138
415.38	69.168
415.74	67.807
416.09	69.957
416.45	67.001
416.80	67.197
417.16	69.029
417.51	67.933
417.87	68.915
418.22	68.084
418.58	69.455
418.93	69.208
419.29	69.174
419.64	67.047
420.00	68.843
420.35	68.725
420.71	67.145
421.06	68.430
421.42	69.151
421.77	68.659
422.12	68.076
422.48	68.305
422.83	70.263
423.19	68.541
423.54	70.409
423.90	68.691
424.25	70.133
424.61	70.321
424.96	69.138
425.31	69.002
425.67	68.545
426.02	70.116
426.38	69.805
426.73	69.252
427.09	70.704
427.44	69.361
427.79	69.154
428.15	68.550
428.50	70.674
428.85	69.059
429.21	71.330
429.56	69.891
429.92	69.484
430.27	70.024
430.62	69.614
430.98	69.405
431.33	69.159
431.68	68.056
432.04	70.696
432.39	69.898
432.74	69.977
433.10	70.633
433.45	70.178
433.80	70.279
434.16	69.783
434.51	71.326
434.86	71.498
435.22	71.785
435.57	71.816
435.92	70.006
436.28	71.502
436.63	71.983
436.98	70.048
437.34	71.308
437.69	71.602
438.04	70.756
438.39	70.994
438.75	72.330
439.10	71.776
439.45	71.604
439.81	70.056
440.16	70.617
440.51	70.624
440.86	70.484
441.22	70.686
441.57	72.013
441.92	71.193
442.27	71.111
442.63	70.045
442.98	69.904
443.33	70.752
443.68	70.912
444.03	71.025
444.39	70.828
444.74	72.078
445.09	70.198
445.44	71.707
445.79	72.174
446.15	70.966
446.50	70.284
446.85	71.401
447.20	69.826
447.55	71.130
447.91	70.524
448.26	70.666
448.61	71.892
448.96	73.337
449.31	70.785
449.66	70.479
450.02	71.361
450.37	70.804
450.72	72.174
451.07	72.039
451.42	71.057
451.77	71.429
452.12	72.743
452.47	71.004
452.83	73.874
453.18	71.512
453.53	71.568
453.88	70.900
454.23	72.203
454.58	71.735
454.93	72.087
455.28	72.547
455.63	70.779
455.98	71.620
456.34	71.496
456.69	70.899
457.04	73.227
457.39	72.007
457.74	72.651
458.09	71.060
458.44	70.851
458.79	70.397
459.14	70.425
459.49	70.741
459.84	71.039
460.19	70.239
460.54	71.493
460.89	71.572
461.24	71.494
461.59	71.444
461.94	71.592
462.29	71.221
462.64	70.187
462.99	71.751
463.34	71.447
463.69	69.695
464.04	70.762
464.39	71.076
464.74	71.209
465.09	70.185
465.44	69.689
465.79	69.963
466.14	68.994
466.49	71.263
466.84	70.523
467.19	71.040
467.54	69.389
467.89	69.655
468.24	70.194
468.59	70.353
468.94	69.930
469.29	70.846
469.64	69.803
469.99	72.594
470.34	69.740
470.68	71.770
471.03	71.120
471.38	71.485
471.73	70.871
472.08	71.256
472.43	70.439
472.78	70.970
473.13	71.113
473.48	70.332
473.83	69.704
474.17	70.750
474.52	72.219
474.87	68.937
475.22	71.831
475.57	69.574
475.92	70.682
476.27	70.873
476.61	70.768
476.96	69.552
477.31	70.693
477.66	71.616
478.01	69.903
478.36	70.140
478.70	71.970
479.05	70.757
479.40	70.731
479.75	69.741
480.10	70.441
480.45	69.462
480.79	68.798
481.14	69.072
481.49	70.423
481.84	68.625
482.19	70.710
482.53	70.092
482.88	69.960
483.23	70.076
483.58	69.651
483.92	69.548
484.27	68.671
484.62	68.936
484.97	69.207
485.31	68.532
485.66	65.271
486.01	63.472
486.36	64.151
486.70	66.490
487.05	67.552
487.40	67.982
487.75	67.710
488.09	67.906
488.44	67.016
488.79	67.589
489.13	69.189
489.48	67.068
489.83	68.290
490.17	68.894
490.52	68.103
490.87	68.697
491.22	69.584
491.56	70.051
491.91	68.600
492.26	69.277
492.60	68.868
492.95	69.416
493.30	69.431
493.64	69.426
493.99	69.079
494.34	69.294
494.68	69.379
495.03	69.559
495.37	69.241
495.72	69.524
496.07	70.202
496.41	68.597
496.76	69.725
497.11	68.323
497.45	69.227
497.80	68.903
498.14	69.660
498.49	69.347
498.84	68.967
499.18	69.951
499.53	69.327
499.87	68.527
500.22	68.210
500.56	69.276
500.91	70.572
501.26	69.409
501.60	67.963
501.95	68.823
502.29	68.670
502.64	68.999
502.98	67.127
503.33	68.294
503.67	67.902
504.02	67.644
504.36	69.035
504.71	68.948
505.06	68.849
505.40	68.739
505.75	69.536
506.09	69.291
506.44	70.102
506.78	70.688
507.13	68.280
507.47	69.209
507.82	68.655
508.16	69.168
508.51	68.167
508.85	69.391
509.19	69.493
509.54	70.029
509.88	68.286
510.23	68.820
510.57	70.324
510.92	68.989
511.26	68.927
511.61	66.828
511.95	69.009
512.30	68.291
512.64	69.165
512.98	68.684
513.33	70.313
513.67	68.078
514.02	69.801
514.36	70.486
514.70	70.312
515.05	70.959
515.39	70.184
515.74	70.944
516.08	70.629
516.42	70.644
516.77	71.399
517.11	68.076
517.46	71.315
517.80	70.657
518.14	71.110
518.49	71.041
518.83	69.079
519.17	69.682
519.52	69.549
519.86	70.327
520.20	69.702
520.55	69.113
520.89	72.297
521.23	70.408
521.58	71.017
521.92	69.065
522.26	71.478
522.61	72.049
522.95	70.242
523.29	70.747
523.64	70.011
523.98	71.877
524.32	72.493
524.66	70.461
525.01	68.177
525.35	69.730
525.69	70.418
526.04	69.116
526.38	70.115
526.72	70.473
527.06	71.437
527.41	69.796
527.75	71.200
528.09	71.251
528.43	71.462
528.78	69.306
529.12	69.037
529.46	70.152
529.80	70.023
530.15	70.493
530.49	71.412
530.83	70.189
531.17	71.147
531.51	71.239
531.86	71.695
532.20	71.463
532.54	68.462
532.88	70.364
533.22	69.122
533.57	68.667
533.91	68.743
534.25	69.361
534.59	70.402
534.93	69.949
535.27	69.014
535.62	68.960
535.96	69.378
536.30	69.389
536.64	70.390
536.98	69.803
537.32	69.753
537.66	70.056
538.01	68.338
538.35	69.245
538.69	69.411
539.03	71.919
539.37	68.375
539.71	69.129
540.05	68.285
540.39	69.743
540.73	68.002
541.07	70.325
541.42	67.277
541.76	68.031
542.10	68.999
542.44	68.331
542.78	68.674
543.12	67.104
543.46	69.536
543.80	68.945
544.14	67.744
544.48	68.972
544.82	69.719
545.16	69.112
545.50	69.083
545.84	67.544
546.18	70.000
546.52	68.917
546.86	69.119
547.20	70.038
547.54	68.227
547.88	69.017
548.22	67.368
548.56	66.706
548.90	67.940
549.24	67.781
549.58	69.338
549.92	69.133
550.26	69.385
550.60	68.028
550.94	69.405
551.28	68.383
551.62	71.429
551.96	67.832
552.30	69.025
552.64	67.890
552.98	69.807
553.32	69.582
553.66	68.810
554.00	68.916
554.34	69.048
554.68	68.238
555.02	69.185
555.36	69.822
555.69	68.866
556.03	67.591
556.37	69.274
556.71	68.358
557.05	68.243
557.39	67.618
557.73	69.155
558.07	67.616
558.41	68.173
558.75	68.627
559.08	70.007
559.42	68.930
559.76	67.978
560.10	67.113
560.44	66.491
560.78	67.063
561.12	67.365
561.45	67.762
561.79	67.521
562.13	68.330
562.47	67.324
562.81	68.165
563.15	67.424
563.48	68.241
563.82	68.259
564.16	66.445
564.50	65.971
564.84	65.959
565.17	65.706
565.51	63.809
565.85	66.865
566.19	65.207
566.52	66.940
566.86	65.705
567.20	64.383
567.54	65.428
567.88	64.934
568.21	65.267
568.55	63.357
568.89	64.140
569.23	62.315
569.56	62.407
569.90	61.511
570.24	61.012
570.57	60.969
570.91	59.829
571.25	59.242
571.59	59.866
571.92	58.822
572.26	58.179
572.60	58.886
572.93	58.753
573.27	59.062
573.61	58.867
573.95	58.752
574.28	57.837
574.62	57.685
574.96	57.322
575.29	56.576
575.63	57.196
575.97	57.437
576.30	57.612
576.64	57.003
576.98	56.743
577.31	57.424
577.65	56.995
577.98	55.873
578.32	55.709
578.66	55.202
578.99	56.011
579.33	57.137
579.67	56.845
580.00	56.260
580.34	56.894
580.67	56.134
581.01	56.621
581.35	55.659
581.68	55.191
582.02	55.212
582.35	55.163
582.69	56.124
583.02	55.859
583.36	56.952
583.70	56.919
584.03	56.923
584.37	56.801
584.70	56.919
585.04	56.289
585.37	55.457
585.71	55.405
586.04	55.504
586.38	55.919
586.72	55.829
587.05	56.127
587.39	55.722
587.72	55.598
588.06	55.948
588.39	56.261
588.73	56.508
589.06	56.744
589.40	58.175
589.73	57.326
590.07	57.328
590.40	57.809
590.73	58.218
591.07	59.084
591.40	58.554
591.74	58.665
592.07	58.831
592.41	57.413
592.74	56.727
593.08	57.484
593.41	56.139
593.75	55.718
594.08	56.589
594.41	56.955
594.75	57.257
595.08	56.864
595.42	57.435
595.75	55.925
596.09	57.099
596.42	57.399
596.75	57.970
597.09	57.980
597.42	56.615
597.75	57.076
598.09	56.825
598.42	56.896
598.76	56.897
599.09	55.749
599.42	54.375
599.76	55.332
600.09	54.888
600.42	55.822
600.76	55.581
601.09	54.929
601.42	55.750
601.76	55.034
602.09	55.647
602.42	55.580
602.76	55.277
603.09	55.910
603.42	56.792
603.76	55.497
604.09	55.713
604.42	55.963
604.76	55.594
605.09	56.522
605.42	56.738
605.75	55.308
606.09	55.580
606.42	53.849
606.75	54.723
607.09	53.687
607.42	54.798
607.75	55.686
608.08	55.091
608.42	55.139
608.75	55.224
609.08	54.711
609.41	56.198
609.75	56.473
610.08	56.684
610.41	55.225
610.74	54.832
611.07	56.439
611.41	55.785
611.74	56.351
612.07	56.007
612.40	57.224
612.73	57.017
613.07	57.604
613.40	55.727
613.73	56.428
614.06	57.164
614.39	56.171
614.72	55.216
615.06	55.871
615.39	54.712
615.72	55.592
616.05	56.338
616.38	56.811
616.71	56.217
617.05	56.869
617.38	56.661
617.71	57.721
618.04	55.370
618.37	57.650
618.70	58.032
619.03	56.989
619.36	58.200
619.69	58.296
620.03	58.945
620.36	56.810
620.69	58.297
621.02	58.858
621.35	63.280
621.68	60.738
622.01	59.146
622.34	57.531
622.67	58.694
623.00	56.613
623.33	58.394
623.66	57.588
623.99	57.999
624.32	57.635
624.65	57.207
624.99	58.518
625.32	58.720
625.65	59.609
625.98	57.220
626.31	58.753
626.64	59.707
626.97	57.914
627.30	59.529
627.63	60.690
627.96	59.234
628.29	58.833
628.62	59.530
628.95	62.051
629.28	60.748
629.61	61.195
629.94	59.163
630.26	60.424
630.59	59.845
630.92	58.961
631.25	62.254
631.58	62.524
631.91	61.481
632.24	60.711
632.57	61.101
632.90	61.685
633.23	62.245
633.56	62.653
633.89	61.260
634.22	63.825
634.55	63.466
634.88	62.879
635.20	63.724
635.53	65.085
635.86	61.972
636.19	63.521
636.52	60.970
636.85	61.389
637.18	61.123
637.51	61.828
637.83	63.898
638.16	64.862
638.49	65.493
638.82	62.345
639.15	61.970
639.48	62.702
639.81	63.626
640.13	65.018
640.46	62.788
640.79	62.623
641.12	64.720
641.45	61.606
641.77	65.083
642.10	64.304
642.43	66.223
642.76	63.279
643.09	66.438
643.41	64.566
643.74	63.448
644.07	66.069
644.40	63.508
644.73	63.716
645.05	65.639
645.38	63.597
645.71	66.716
646.04	65.136
646.36	64.234
646.69	68.712
647.02	66.361
647.35	65.954
647.67	67.955
648.00	67.038
648.33	66.967
648.66	64.337
648.98	61.088
649.31	62.382
649.64	62.284
649.96	61.141
650.29	57.719
650.62	60.962
650.94	63.964
651.27	63.024
651.60	62.427
651.92	64.590
652.25	62.518
652.58	59.560
652.90	62.936
653.23	62.394
653.56	61.626
653.88	62.921
654.21	59.859
654.54	61.994
654.86	60.765
655.19	56.713
655.52	51.796
655.84	44.808
656.17	50.836
656.49	71.140
656.82	77.526
657.15	61.237
657.47	46.866
657.80	35.377
658.13	27.852
658.45	36.887
658.78	45.185
659.10	44.590
659.43	45.033
659.75	45.845
660.08	47.395
660.41	50.868
660.73	54.276
661.06	57.269
661.38	60.766
661.71	61.207
662.03	63.668
662.36	63.506
662.68	66.041
663.01	63.540
663.33	65.406
663.66	66.667
663.98	64.231
664.31	66.979
664.63	62.042
664.96	60.436
665.28	59.710
665.61	61.189
665.93	60.179
666.26	61.649
666.58	63.100
666.91	66.168
667.23	60.762
667.56	63.905
667.88	66.000
668.21	61.523
668.53	60.811
668.86	64.833
669.18	64.155
669.50	65.805
669.83	61.800
670.15	64.567
670.48	62.698
670.80	61.377
671.13	61.248
671.45	63.976
671.77	64.595
672.10	57.667
672.42	55.340
672.75	55.146
673.07	56.866
673.39	57.935
673.72	58.893
674.04	60.000
674.37	59.213
674.69	61.199
675.01	60.762
675.34	61.069
675.66	61.610
675.98	59.701
676.31	60.742
676.63	59.696
676.95	60.920
677.28	61.895
677.60	60.827
677.92	59.501
678.25	60.146
678.57	57.829
678.89	60.410
679.22	57.143
679.54	58.120
679.86	55.593
680.18	56.219
680.51	55.189
680.83	57.119
681.15	55.862
681.48	58.895
681.80	55.613
682.12	57.692
682.44	54.090
682.77	56.028
683.09	58.712
683.41	57.558
683.73	57.116
684.06	53.321
684.38	54.204
684.70	56.373
685.02	56.971
685.34	54.576
685.67	54.259
685.99	55.368
686.31	50.145
686.63	54.976
686.96	55.836
687.28	53.583
687.60	53.199
687.92	51.286
688.24	54.591
688.56	51.897
688.89	56.806
689.21	57.534
689.53	54.314
689.85	54.241
690.17	53.704
690.49	56.175
690.82	54.059
691.14	56.073
691.46	55.641
691.78	54.328
692.10	53.028
692.42	50.536
692.74	54.083
693.06	52.593
693.39	52.562
693.71	53.195
694.03	51.487
694.35	50.667
694.67	52.977
694.99	55.745
695.31	57.174
695.63	55.411
695.95	55.280
696.27	54.286
696.59	57.522
696.91	52.928
697.23	52.967
697.56	54.990
697.88	51.894
698.20	54.049
698.52	52.841
698.84	53.015
699.16	53.265
699.48	54.603
699.80	52.553
700.12	52.183
700.44	49.770
700.76	55.107
701.08	59.564
701.40	57.513
701.72	52.239
702.04	57.219
702.36	56.545
702.68	52.078
703.00	55.746
703.32	53.941
703.64	57.702
703.96	53.461
704.28	54.300
704.60	54.937
704.91	54.847
705.23	56.712
705.55	57.103
705.87	56.364
706.19	58.282
706.51	56.325
706.83	56.196
707.15	53.968
707.47	50.701
707.79	50.000
708.11	49.153
708.43	48.602
708.74	52.232
709.06	49.884
709.38	53.756
709.70	54.839
710.02	54.522
710.34	56.383
710.66	51.117
710.98	54.098
711.29	52.198
711.61	56.497
711.93	54.986
712.25	52.703
712.57	56.932
712.89	55.588
713.20	53.846
713.52	50.289
713.84	52.368
714.16	51.053
714.48	52.062
714.80	54.026
715.11	51.969
715.43	50.398
715.75	52.368
716.07	48.619
716.39	50.820
716.70	49.398
717.02	53.443
717.34	59.582
717.66	52.685
717.97	51.712
718.29	50.859
718.61	52.961
718.93	51.456
719.24	50.621
719.56	50.613
719.88	46.847
720.20	53.226
720.51	50.000
720.83	50.000
721.15	50.987
721.46	50.000
721.78	50.333
722.10	49.515
722.42	51.007
722.73	49.032
723.05	57.193
723.37	53.472
723.68	51.613
724.00	53.430
724.32	49.648
724.63	49.650
724.95	56.738
725.27	47.735
725.58	49.823
725.90	51.724
726.22	47.335
726.53	52.273
726.85	51.258
727.16	46.828
727.48	48.624
727.80	48.013
728.11	48.410
728.43	46.128
728.74	51.839
729.06	49.007
729.38	48.377
729.69	45.638
730.01	45.238
730.32	46.364
730.64	49.686
730.96	47.205
731.27	46.369
731.59	45.604
731.90	42.338
732.22	42.448
732.53	43.370
732.85	44.571
733.16	42.815
733.48	46.341
733.80	44.290
734.11	44.444
734.43	44.865
734.74	48.101
735.06	41.960
735.37	46.216
735.69	45.946
736.00	50.000
736.32	43.935
736.63	44.167
736.95	43.103
737.26	48.182
737.58	40.909
737.89	47.353
738.21	44.648
738.52	45.246
738.83	47.440
739.15	45.390
739.46	47.959
739.78	46.012
740.09	40.115
740.41	48.397
740.72	48.667
741.04	44.013
741.35	48.772
741.66	50.196
741.98	49.180
742.29	46.025
742.61	53.509
742.92	44.615
743.23	52.347
743.55	48.062
743.86	52.000
744.18	41.322
744.49	50.211
744.80	47.325
745.12	47.257
745.43	52.439
745.74	50.000
746.06	47.034
746.37	49.789
746.68	53.659
747.00	50.833
747.31	49.356
747.62	48.462
747.94	45.344
748.25	46.185
748.56	44.082
748.88	46.154
749.19	47.845
749.50	48.052
749.82	51.004
750.13	45.907
750.44	40.333
750.75	44.000
751.07	45.538
751.38	42.587
751.69	44.728
752.01	44.660
752.32	41.830
752.63	44.898
752.94	41.176
753.26	43.494
753.57	44.815
753.88	45.318
754.19	42.765
754.51	42.444
754.82	39.871
755.13	46.557
755.44	45.051
755.75	41.776
756.07	43.582
756.38	43.396
756.69	38.554
757.00	36.842
757.31	44.262
757.63	37.084
757.94	36.150
758.25	38.375
758.56	38.562
758.87	36.818
759.18	38.667
759.50	40.793
759.81	40.336
760.12	36.927
760.43	40.625
760.74	38.424
761.05	38.000
761.36	36.145
761.67	37.817
761.99	39.189
762.30	41.768
762.61	34.983
762.92	42.537
763.23	39.326
763.54	43.885
763.85	38.488
764.16	41.751
764.47	42.606
764.78	41.534
765.10	38.416
765.41	38.718
765.72	34.656
766.03	40.960
766.34	36.050
766.65	35.540
766.96	40.637
767.27	43.779
767.58	43.284
767.89	48.558
768.20	40.845
768.51	40.741
768.82	38.554
769.13	40.530
769.44	35.000
769.75	43.682
770.06	43.462
770.37	42.913
770.68	40.851
770.99	34.818
771.30	43.333
771.61	38.403
771.92	38.519
772.23	40.891
772.54	36.111
772.85	42.857
773.16	44.762
773.47	38.624
773.78	43.243
774.09	51.136
774.39	42.500
774.70	45.355
775.01	39.024
775.32	35.294
775.63	45.399
775.94	32.484
776.25	43.226
776.56	44.231
776.87	44.218
777.18	45.517
777.48	46.154
777.79	39.865
778.10	35.294
778.41	41.667
778.72	39.310
779.03	41.358
779.34	44.242
779.65	39.896
779.95	34.444
780.26	35.227
780.57	42.581
780.88	48.551
781.19	48.387
781.50	40.588
781.80	39.247
782.11	40.741
782.42	34.343
782.73	32.335
783.04	37.430
783.34	36.970
783.65	33.333
783.96	32.919
784.27	33.333
784.57	39.735
784.88	37.857
785.19	46.457
785.50	36.220
785.81	49.624
786.11	46.923
786.42	32.374
786.73	29.496
787.04	42.857
787.34	31.967
787.65	43.200
787.96	47.761
788.26	44.056
788.57	41.958
788.88	40.132
789.19	45.752
789.49	39.041
789.80	29.787
790.11	38.583
790.41	39.844
790.72	38.983
791.03	36.893
791.33	40.870
791.64	36.842
791.95	30.357
792.25	42.857
792.56	47.321
792.87	41.667
793.17	33.036
793.48	35.417
793.79	28.916
794.09	38.532
794.40	36.697
794.70	38.095
795.01	26.623
795.32	35.616
795.62	38.732
795.93	34.848
796.23	35.246
796.54	40.179
796.85	32.979
797.15	42.391
797.46	43.836
797.76	43.750
798.07	47.826
798.37	28.866
798.68	40.260
798.99	22.989
799.29	41.573
799.60	41.489
799.90	30.120
800.21	47.692
800.51	29.851
800.82	36.765
801.12	28.767
801.43	16.176
801.73	27.119
802.04	43.939
802.34	35.000
802.65	37.288
802.95	34.328
803.26	47.458
803.56	39.726
803.87	48.571
804.17	49.315
804.48	19.298
804.78	29.167
805.09	37.931
805.39	29.730
805.70	28.169
806.00	46.341
806.30	32.530
806.61	39.726
806.91	42.308
807.22	36.667
807.52	26.437
807.83	51.389
808.13	33.735
808.43	49.438
808.74	38.750
809.04	30.882
809.35	29.333
809.65	42.857
809.95	13.699
810.26	21.053
810.56	44.828
810.86	50.000
811.17	40.351
811.47	29.508
811.77	20.000
812.08	16.949
812.38	35.000
812.69	56.897
812.99	28.302
813.29	48.718
813.59	46.000
813.90	59.649
814.20	43.636
814.50	36.620
814.81	23.077
815.11	40.984
815.41	43.284
815.72	55.172
816.02	35.714
816.32	51.111
816.62	54.545
816.93	40.000
817.23	44.444
817.53	27.660
817.84	40.476
818.14	70.588
818.44	34.694
818.74	20.000
819.04	25.641
819.35	17.143
819.65	30.769
819.95	28.302
820.25	31.111
820.56	19.048
820.86	59.375
821.16	58.974
821.46	37.209
821.76	34.000
822.07	41.071
822.37	32.609
822.67	34.043
822.97	10.811
823.27	12.500
823.57	32.653
823.88	37.778
824.18	72.500
824.48	56.667
824.78	8.000
825.08	24.242
825.38	31.111
825.69	42.553
825.99	44.444
826.29	14.286
826.59	30.769
826.89	34.884
827.19	34.000
827.49	35.294
827.79	29.167
828.09	37.838
828.39	33.333
828.70	26.829
829.00	37.209
829.30	14.286
829.60	52.941
829.90	32.609
830.20	48.571
830.50	44.828
830.80	44.444
831.10	50.000
831.40	32.353
831.70	38.095
832.00	41.935
832.30	-17.647
832.60	20.833
832.90	-30.769
833.20	63.158
833.50	55.000
833.80	36.842
834.10	-19.048
834.40	50.000
834.70	50.000
835.00	2.857
835.30	50.000
835.60	16.667
835.90	20.000
836.20	4.545
836.50	28.000
836.80	0.000
837.10	-11.111
837.40	55.556
837.70	43.750
838.00	89.286
838.30	13.043
838.60	20.690
838.90	64.286
839.19	-26.087
839.49	-25.000
839.79	56.522
840.09	-62.500
840.39	50.000
840.69	51.613
840.99	3.571
841.29	106.667
841.59	36.842
841.88	38.462
842.18	46.154
842.48	90.000
842.78	50.000
843.08	23.333
843.38	51.613
843.68	16.667
843.97	20.588
844.27	50.000
844.57	42.105
844.87	50.000
845.17	-6.667
845.47	52.381
845.76	28.571
846.06	11.111
846.36	35.294
846.66	42.308
846.96	-6.667
847.25	76.471
847.55	52.174
847.85	55.000
848.15	23.529
848.44	54.545
848.74	42.857
849.04	12.500
849.34	-6.250
849.63	30.435
849.93	-200.000
850.23	13.333
850.53	30.769
850.82	-18.182
851.12	50.000
851.42	9.091
851.71	115.385
852.01	20.000
852.31	23.077
852.61	15.789
852.90	25.000
853.20	94.444
853.50	-77.778
853.79	-4.762
854.09	-4.545
854.39	-25.000
854.68	51.613
854.98	7.692
855.28	50.000
855.57	10.714
855.87	20.000
856.17	0.000
856.46	70.370
856.76	-5.556
857.05	-4.348
857.35	20.833
857.65	107.692
857.94	19.048
858.24	66.667
858.53	69.565
858.83	29.412
859.13	11.765
859.42	23.529
859.72	35.714
860.01	-15.000
860.31	0.000
860.60	-10.000
860.90	60.000
861.20	44.444
861.49	15.385
861.79	6.667
862.08	-38.462
862.38	21.875
862.67	35.294
862.97	25.000
863.26	11.111
863.56	60.000
863.85	45.455
864.15	-11.111
864.44	100.000
864.74	100.000
865.03	62.500
865.33	-70.000
865.62	22.581
865.92	45.455
866.21	39.130
866.51	0.000
866.80	60.000
867.10	-8.333
867.39	-33.333
867.69	200.000
867.98	-14.286
868.27	23.529
868.57	-700.000
868.86	10.000
869.16	47.619
869.45	70.833
869.75	54.545
870.04	114.286
870.33	25.000
870.63	-71.429
870.92	-50.000
871.22	-50.000
871.51	18.182
871.80	33.333
872.10	-400.000
>>>>>End Processed Spectral Data<<<<<
