SpectraSuite Data File
++++++++++++++++++++++++++++++++++++
Date: Thu May 14 15:51:44 PDT 2015
User: schluterlab
Dark Spectrum Present: Yes
Reference Spectrum Present: Yes
Number of Sampled Component Spectra: 1
Spectrometers: USB2E3373
Integration Time (usec): 3000 (USB2E3373)
Spectra Averaged: 3 (USB2E3373)
Boxcar Smoothing: 0 (USB2E3373)
Correct for Electrical Dark: No (USB2E3373)
Strobe/Lamp Enabled: No (USB2E3373)
Correct for Detector Non-linearity: No (USB2E3373)
Correct for Stray Light: No (USB2E3373)
Number of Pixels in Processed Spectrum: 2048
>>>>>Begin Processed Spectral Data<<<<<
178.53	0.000
178.91	628.571
179.29	-5200.000
179.67	-4600.000
180.04	414.286
180.42	480.000
180.80	900.000
181.18	-3500.000
181.56	-3100.000
181.94	1125.000
182.31	-825.000
182.69	1233.333
183.07	-1700.000
183.45	900.000
183.83	-666.667
184.20	-1566.667
184.58	4200.000
184.96	-1400.000
185.34	-500.000
185.72	-680.000
186.09	511.111
186.47	1900.000
186.85	1020.000
187.23	-455.556
187.61	-4100.000
187.98	960.000
188.36	1175.000
188.74	-1125.000
189.12	-1466.667
189.49	-181.250
189.87	-487.500
190.25	-422.222
190.63	-640.000
191.00	-577.778
191.38	0.000
191.76	-775.000
192.14	-650.000
192.51	2050.000
192.89	-616.667
193.27	0.000
193.65	-442.857
194.02	-5300.000
194.40	-528.571
194.78	600.000
195.15	0.000
195.53	-309.091
195.91	0.000
196.29	-900.000
196.66	-315.385
197.04	-5000.000
197.42	-571.429
197.79	-1750.000
198.17	-487.500
198.55	-628.571
198.92	-455.556
199.30	-537.500
199.68	-300.000
200.05	-285.714
200.43	-2050.000
200.81	614.286
201.18	0.000
201.56	622.222
201.94	0.000
202.31	1533.333
202.69	-544.444
203.07	3700.000
203.44	-400.000
203.82	-1025.000
204.19	-358.333
204.57	-750.000
204.95	-612.500
205.32	-4300.000
205.70	1225.000
206.08	-700.000
206.45	-633.333
206.83	1080.000
207.20	-716.667
207.58	-840.000
207.96	-683.333
208.33	-633.333
208.71	400.000
209.08	-550.000
209.46	0.000
209.84	866.667
210.21	2400.000
210.59	2250.000
210.96	1233.333
211.34	-1025.000
211.71	-450.000
212.09	-4400.000
212.46	0.000
212.84	2550.000
213.22	-820.000
213.59	-875.000
213.97	-310.000
214.34	-1166.667
214.72	766.667
215.09	-1150.000
215.47	0.000
215.84	685.714
216.22	2400.000
216.59	-760.000
216.97	-880.000
217.34	-850.000
217.72	-487.500
218.09	-1175.000
218.47	-1100.000
218.84	0.000
219.22	860.000
219.59	-258.824
219.97	-170.000
220.34	2300.000
220.72	-433.333
221.09	-261.538
221.47	-1000.000
221.84	-310.000
222.22	-628.571
222.59	0.000
222.97	-462.500
223.34	-1000.000
223.72	-5100.000
224.09	-1025.000
224.46	-900.000
224.84	-660.000
225.21	-728.571
225.59	-1275.000
225.96	-1175.000
226.34	-146.154
226.71	766.667
227.08	-1950.000
227.46	-206.667
227.83	-1000.000
228.21	-189.474
228.58	575.000
228.95	2350.000
229.33	-325.000
229.70	-390.000
230.08	-163.158
230.45	490.000
230.82	-1366.667
231.20	-214.286
231.57	-283.333
231.95	-363.636
232.32	-336.364
232.69	-145.000
233.07	-975.000
233.44	-258.824
233.81	-440.000
234.19	-155.556
234.56	-150.000
234.93	-120.690
235.31	-184.211
235.68	-216.667
236.05	-240.000
236.43	-126.923
236.80	-132.000
237.17	-100.000
237.55	-96.970
237.92	-350.000
238.29	-122.581
238.67	-81.818
239.04	-94.444
239.41	-102.381
239.79	-69.565
240.16	-51.852
240.53	-76.087
240.91	-62.745
241.28	-47.541
241.65	-11.940
242.02	-21.622
242.40	-46.154
242.77	-33.333
243.14	-46.341
243.51	-43.421
243.89	-30.769
244.26	-6.931
244.63	-19.608
245.00	-14.019
245.38	-19.298
245.75	-23.009
246.12	-3.968
246.49	-16.279
246.87	-0.714
247.24	-3.974
247.61	1.316
247.98	-4.698
248.36	-3.704
248.73	-9.816
249.10	-2.732
249.47	12.438
249.84	8.377
250.22	5.181
250.59	8.889
250.96	2.273
251.33	-0.510
251.70	7.692
252.08	10.000
252.45	8.197
252.82	6.198
253.19	8.984
253.56	8.745
253.94	3.846
254.31	7.955
254.68	12.937
255.05	11.726
255.42	11.565
255.79	11.974
256.16	8.940
256.54	9.272
256.91	14.098
257.28	11.475
257.65	11.146
258.02	5.605
258.39	11.966
258.76	12.232
259.14	12.644
259.51	14.121
259.88	13.881
260.25	12.778
260.62	15.342
260.99	15.574
261.36	13.137
261.73	14.324
262.10	15.385
262.47	12.332
262.85	15.404
263.22	11.948
263.59	11.842
263.96	14.066
264.33	15.345
264.70	15.062
265.07	13.842
265.44	15.420
265.81	15.046
266.18	16.327
266.55	14.509
266.92	14.351
267.29	15.536
267.66	18.625
268.03	17.467
268.40	16.284
268.77	12.756
269.14	15.859
269.51	16.886
269.88	16.393
270.25	17.706
270.62	16.034
270.99	20.606
271.36	17.822
271.73	17.485
272.10	17.234
272.47	18.637
272.84	17.068
273.21	18.838
273.58	17.742
273.95	15.769
274.32	13.688
274.69	17.215
275.06	18.681
275.43	15.342
275.80	17.108
276.17	16.111
276.54	14.925
276.91	15.742
277.28	16.275
277.65	19.390
278.02	19.301
278.39	13.225
278.76	17.047
279.13	16.489
279.50	17.698
279.87	17.352
280.23	17.430
280.60	17.119
280.97	17.105
281.34	16.469
281.71	19.459
282.08	17.442
282.45	16.203
282.82	15.228
283.19	16.478
283.56	16.721
283.92	17.417
284.29	19.905
284.66	17.570
285.03	14.423
285.40	18.856
285.77	15.944
286.14	18.473
286.51	15.677
286.87	17.378
287.24	18.825
287.61	17.339
287.98	16.918
288.35	16.716
288.72	15.089
289.08	16.105
289.45	15.089
289.82	16.566
290.19	17.385
290.56	16.056
290.93	16.690
291.29	15.014
291.66	18.044
292.03	13.840
292.40	16.054
292.77	14.420
293.13	16.238
293.50	14.323
293.87	16.779
294.24	16.533
294.60	14.412
294.97	14.631
295.34	17.286
295.71	14.628
296.08	14.729
296.44	15.441
296.81	15.469
297.18	14.072
297.55	12.736
297.91	14.353
298.28	13.389
298.65	15.220
299.02	13.813
299.38	14.874
299.75	14.252
300.12	13.657
300.48	13.134
300.85	14.286
301.22	14.989
301.59	12.443
301.95	13.672
302.32	14.667
302.69	13.363
303.05	13.275
303.42	12.306
303.79	14.167
304.15	14.406
304.52	13.953
304.89	12.461
305.25	13.354
305.62	13.375
305.99	14.124
306.35	14.012
306.72	13.340
307.09	13.706
307.45	13.458
307.82	12.815
308.19	13.824
308.55	14.176
308.92	14.021
309.29	13.602
309.65	13.743
310.02	12.970
310.38	13.287
310.75	13.107
311.12	13.135
311.48	12.610
311.85	14.625
312.22	13.188
312.58	13.615
312.95	12.811
313.31	12.918
313.68	13.736
314.05	14.182
314.41	14.663
314.78	14.441
315.14	14.338
315.51	13.389
315.87	13.681
316.24	13.699
316.61	14.121
316.97	13.484
317.34	13.580
317.70	14.410
318.07	14.462
318.43	13.861
318.80	14.047
319.16	13.734
319.53	12.168
319.89	12.095
320.26	12.989
320.62	13.387
320.99	13.758
321.35	12.847
321.72	15.070
322.08	12.444
322.45	13.369
322.81	13.177
323.18	12.832
323.54	12.586
323.91	12.722
324.27	12.823
324.64	14.190
325.00	13.847
325.37	14.414
325.73	13.636
326.10	14.355
326.46	13.681
326.83	15.853
327.19	13.307
327.56	13.597
327.92	14.005
328.29	14.194
328.65	13.317
329.01	13.113
329.38	14.490
329.74	14.726
330.11	15.068
330.47	12.890
330.84	12.748
331.20	14.917
331.56	12.132
331.93	13.389
332.29	13.559
332.66	13.538
333.02	13.317
333.38	13.842
333.75	13.468
334.11	13.761
334.48	13.531
334.84	13.339
335.20	13.014
335.57	12.816
335.93	13.884
336.29	13.228
336.66	12.952
337.02	13.294
337.38	13.180
337.75	12.893
338.11	12.700
338.47	13.730
338.84	12.690
339.20	12.974
339.56	12.191
339.93	14.122
340.29	14.010
340.65	13.625
341.02	13.647
341.38	14.228
341.74	13.640
342.11	12.872
342.47	12.311
342.83	13.285
343.20	12.592
343.56	13.232
343.92	12.490
344.28	13.125
344.65	12.403
345.01	13.807
345.37	13.142
345.73	12.081
346.10	13.573
346.46	12.263
346.82	13.408
347.19	13.904
347.55	13.278
347.91	13.224
348.27	12.898
348.63	13.861
349.00	13.572
349.36	13.978
349.72	12.574
350.08	13.299
350.45	12.700
350.81	12.745
351.17	13.459
351.53	12.130
351.89	12.832
352.26	12.388
352.62	12.836
352.98	13.206
353.34	12.920
353.70	13.559
354.07	13.115
354.43	12.149
354.79	12.790
355.15	11.553
355.51	13.158
355.87	12.491
356.24	13.460
356.60	11.530
356.96	12.898
357.32	12.342
357.68	12.152
358.04	12.275
358.40	11.567
358.77	13.743
359.13	12.186
359.49	11.747
359.85	13.270
360.21	11.980
360.57	12.419
360.93	12.341
361.29	13.123
361.66	12.744
362.02	13.431
362.38	12.157
362.74	12.151
363.10	12.724
363.46	11.981
363.82	11.861
364.18	12.315
364.54	13.140
364.90	12.508
365.26	10.897
365.62	13.400
365.98	12.798
366.35	12.215
366.71	11.701
367.07	12.179
367.43	13.001
367.79	13.139
368.15	12.375
368.51	13.058
368.87	12.214
369.23	12.067
369.59	12.773
369.95	11.968
370.31	12.762
370.67	11.623
371.03	12.881
371.39	11.081
371.75	12.586
372.11	11.789
372.47	11.307
372.83	12.696
373.19	12.075
373.55	11.585
373.91	11.725
374.27	13.001
374.63	11.637
374.99	12.268
375.35	12.727
375.71	12.258
376.07	12.331
376.42	12.028
376.78	12.617
377.14	12.601
377.50	12.840
377.86	12.377
378.22	12.934
378.58	12.366
378.94	12.265
379.30	11.424
379.66	11.817
380.02	12.695
380.38	12.385
380.74	12.282
381.09	11.789
381.45	12.443
381.81	13.173
382.17	12.470
382.53	11.579
382.89	12.077
383.25	12.368
383.61	11.806
383.97	11.896
384.32	12.799
384.68	11.717
385.04	12.377
385.40	12.669
385.76	11.841
386.12	12.627
386.48	12.235
386.83	13.230
387.19	11.819
387.55	11.561
387.91	11.929
388.27	11.952
388.62	11.856
388.98	12.296
389.34	13.023
389.70	11.912
390.06	11.427
390.42	11.687
390.77	13.064
391.13	11.854
391.49	12.379
391.85	12.121
392.20	11.684
392.56	12.050
392.92	12.868
393.28	12.106
393.64	11.844
393.99	11.970
394.35	12.617
394.71	12.874
395.07	10.898
395.42	12.450
395.78	12.736
396.14	12.537
396.50	11.876
396.85	10.972
397.21	12.249
397.57	11.484
397.92	12.314
398.28	11.841
398.64	11.384
399.00	12.147
399.35	11.937
399.71	11.739
400.07	11.567
400.42	12.049
400.78	11.227
401.14	11.725
401.49	11.597
401.85	12.035
402.21	11.298
402.57	11.678
402.92	12.234
403.28	11.710
403.63	11.456
403.99	11.520
404.35	12.052
404.70	12.521
405.06	11.957
405.42	11.827
405.77	13.577
406.13	12.102
406.49	12.050
406.84	12.410
407.20	12.353
407.55	11.266
407.91	11.628
408.27	12.191
408.62	11.576
408.98	12.014
409.34	11.378
409.69	12.237
410.05	11.841
410.40	12.471
410.76	11.946
411.11	11.689
411.47	12.408
411.83	12.169
412.18	12.169
412.54	12.033
412.89	12.224
413.25	12.190
413.60	12.234
413.96	12.238
414.31	12.635
414.67	11.986
415.03	11.754
415.38	12.232
415.74	12.340
416.09	12.708
416.45	12.148
416.80	11.077
417.16	11.367
417.51	11.768
417.87	12.876
418.22	12.874
418.58	11.958
418.93	13.213
419.29	11.899
419.64	11.285
420.00	11.276
420.35	12.633
420.71	11.832
421.06	11.501
421.42	12.099
421.77	12.062
422.12	12.844
422.48	12.442
422.83	12.760
423.19	12.520
423.54	12.942
423.90	11.706
424.25	13.280
424.61	11.079
424.96	12.191
425.31	12.208
425.67	11.702
426.02	11.954
426.38	12.170
426.73	12.388
427.09	13.033
427.44	12.015
427.79	12.493
428.15	11.644
428.50	11.910
428.85	12.342
429.21	13.032
429.56	12.340
429.92	12.236
430.27	12.530
430.62	12.897
430.98	12.100
431.33	12.708
431.68	12.261
432.04	12.443
432.39	12.159
432.74	12.272
433.10	13.088
433.45	11.984
433.80	12.822
434.16	12.552
434.51	12.693
434.86	12.649
435.22	12.115
435.57	12.618
435.92	12.243
436.28	11.832
436.63	11.851
436.98	12.560
437.34	12.345
437.69	12.218
438.04	12.427
438.39	12.522
438.75	12.175
439.10	12.896
439.45	12.745
439.81	12.034
440.16	11.850
440.51	12.263
440.86	12.229
441.22	12.487
441.57	12.159
441.92	13.434
442.27	12.677
442.63	13.164
442.98	12.914
443.33	12.046
443.68	12.785
444.03	13.452
444.39	12.853
444.74	13.017
445.09	13.026
445.44	12.803
445.79	13.027
446.15	13.258
446.50	13.282
446.85	12.354
447.20	12.331
447.55	13.180
447.91	12.565
448.26	13.319
448.61	12.487
448.96	13.197
449.31	12.566
449.66	12.418
450.02	13.291
450.37	13.745
450.72	12.217
451.07	12.870
451.42	12.536
451.77	12.285
452.12	13.036
452.47	12.240
452.83	13.570
453.18	11.909
453.53	12.119
453.88	13.584
454.23	12.712
454.58	13.117
454.93	13.107
455.28	13.787
455.63	12.735
455.98	13.743
456.34	12.603
456.69	12.640
457.04	13.652
457.39	13.193
457.74	13.870
458.09	13.015
458.44	13.524
458.79	12.584
459.14	12.533
459.49	12.790
459.84	12.959
460.19	12.604
460.54	13.345
460.89	13.658
461.24	12.184
461.59	13.448
461.94	12.778
462.29	13.158
462.64	13.699
462.99	13.748
463.34	13.563
463.69	12.778
464.04	13.897
464.39	13.509
464.74	13.056
465.09	12.630
465.44	13.519
465.79	12.692
466.14	13.705
466.49	12.947
466.84	13.223
467.19	13.873
467.54	12.867
467.89	12.356
468.24	13.518
468.59	12.160
468.94	12.529
469.29	12.897
469.64	12.842
469.99	12.620
470.34	12.562
470.68	13.260
471.03	12.770
471.38	12.623
471.73	12.809
472.08	12.881
472.43	13.546
472.78	13.665
473.13	12.832
473.48	13.776
473.83	13.639
474.17	13.599
474.52	14.011
474.87	13.843
475.22	14.085
475.57	13.967
475.92	13.489
476.27	13.898
476.61	14.019
476.96	13.191
477.31	13.762
477.66	14.428
478.01	14.387
478.36	13.908
478.70	13.498
479.05	13.855
479.40	13.475
479.75	14.217
480.10	14.022
480.45	13.947
480.79	13.696
481.14	13.695
481.49	13.630
481.84	14.534
482.19	13.849
482.53	14.517
482.88	13.691
483.23	13.962
483.58	13.974
483.92	14.184
484.27	13.378
484.62	14.109
484.97	14.541
485.31	14.361
485.66	13.989
486.01	13.684
486.36	14.480
486.70	14.788
487.05	15.214
487.40	14.395
487.75	14.453
488.09	14.117
488.44	13.533
488.79	14.368
489.13	13.360
489.48	13.981
489.83	13.763
490.17	13.852
490.52	13.711
490.87	14.382
491.22	14.081
491.56	14.889
491.91	14.871
492.26	14.626
492.60	14.823
492.95	14.305
493.30	14.299
493.64	14.104
493.99	14.430
494.34	14.547
494.68	14.732
495.03	14.493
495.37	14.780
495.72	15.057
496.07	15.162
496.41	13.943
496.76	14.804
497.11	14.692
497.45	14.329
497.80	14.971
498.14	14.921
498.49	15.349
498.84	14.899
499.18	15.025
499.53	14.888
499.87	14.945
500.22	13.980
500.56	14.665
500.91	14.188
501.26	14.864
501.60	14.582
501.95	14.763
502.29	14.348
502.64	14.735
502.98	14.452
503.33	14.644
503.67	14.435
504.02	14.711
504.36	14.790
504.71	14.883
505.06	14.961
505.40	14.671
505.75	14.299
506.09	14.549
506.44	15.181
506.78	15.550
507.13	15.214
507.47	14.543
507.82	14.915
508.16	15.249
508.51	14.627
508.85	15.021
509.19	14.827
509.54	15.178
509.88	14.910
510.23	15.444
510.57	15.660
510.92	15.627
511.26	14.767
511.61	14.196
511.95	15.520
512.30	15.707
512.64	14.793
512.98	15.508
513.33	15.877
513.67	15.043
514.02	15.738
514.36	16.675
514.70	15.000
515.05	15.224
515.39	15.538
515.74	17.179
516.08	15.954
516.42	15.489
516.77	16.246
517.11	15.781
517.46	15.960
517.80	17.210
518.14	15.832
518.49	15.944
518.83	15.061
519.17	15.670
519.52	16.300
519.86	15.787
520.20	15.442
520.55	15.005
520.89	14.583
521.23	16.080
521.58	16.158
521.92	15.807
522.26	15.865
522.61	15.972
522.95	15.859
523.29	16.034
523.64	15.247
523.98	16.714
524.32	16.676
524.66	15.993
525.01	15.176
525.35	15.623
525.69	16.183
526.04	16.016
526.38	17.069
526.72	15.571
527.06	15.601
527.41	15.977
527.75	15.855
528.09	17.296
528.43	16.282
528.78	16.127
529.12	15.940
529.46	16.582
529.80	15.847
530.15	16.580
530.49	15.718
530.83	16.588
531.17	16.249
531.51	15.884
531.86	16.286
532.20	16.646
532.54	16.338
532.88	16.364
533.22	16.500
533.57	15.638
533.91	16.105
534.25	16.450
534.59	16.494
534.93	16.072
535.27	16.113
535.62	16.316
535.96	16.851
536.30	16.040
536.64	16.697
536.98	16.851
537.32	17.222
537.66	16.032
538.01	15.770
538.35	15.652
538.69	16.526
539.03	16.248
539.37	15.489
539.71	16.396
540.05	16.427
540.39	16.443
540.73	16.393
541.07	16.738
541.42	16.421
541.76	16.311
542.10	15.923
542.44	16.687
542.78	15.693
543.12	16.031
543.46	16.667
543.80	15.528
544.14	15.560
544.48	16.076
544.82	15.739
545.16	16.041
545.50	15.938
545.84	16.167
546.18	16.790
546.52	16.879
546.86	15.597
547.20	17.112
547.54	16.230
547.88	16.395
548.22	15.380
548.56	15.974
548.90	16.239
549.24	16.170
549.58	15.521
549.92	16.263
550.26	15.793
550.60	16.146
550.94	15.977
551.28	15.710
551.62	16.981
551.96	17.152
552.30	16.826
552.64	17.175
552.98	16.344
553.32	16.720
553.66	16.270
554.00	16.583
554.34	16.731
554.68	15.946
555.02	17.083
555.36	16.700
555.69	16.208
556.03	16.078
556.37	16.521
556.71	16.107
557.05	16.933
557.39	15.594
557.73	16.314
558.07	15.828
558.41	16.279
558.75	16.768
559.08	16.841
559.42	16.187
559.76	17.096
560.10	16.209
560.44	16.953
560.78	16.375
561.12	16.195
561.45	17.092
561.79	17.033
562.13	17.006
562.47	16.338
562.81	16.519
563.15	15.972
563.48	16.035
563.82	16.868
564.16	15.445
564.50	16.269
564.84	16.165
565.17	15.824
565.51	15.880
565.85	16.805
566.19	15.783
566.52	16.325
566.86	16.469
567.20	16.368
567.54	16.198
567.88	16.259
568.21	16.650
568.55	16.019
568.89	16.205
569.23	16.899
569.56	16.295
569.90	16.572
570.24	16.054
570.57	16.004
570.91	15.830
571.25	16.054
571.59	15.976
571.92	15.512
572.26	15.908
572.60	15.834
572.93	15.781
573.27	15.201
573.61	15.617
573.95	15.756
574.28	15.837
574.62	15.302
574.96	15.439
575.29	15.069
575.63	14.992
575.97	15.689
576.30	15.297
576.64	14.865
576.98	15.376
577.31	15.506
577.65	15.745
577.98	15.569
578.32	15.279
578.66	15.322
578.99	15.073
579.33	15.273
579.67	14.642
580.00	15.487
580.34	15.118
580.67	15.093
581.01	15.318
581.35	15.566
581.68	15.297
582.02	15.423
582.35	15.439
582.69	15.566
583.02	15.156
583.36	15.034
583.70	15.019
584.03	14.903
584.37	14.786
584.70	14.743
585.04	15.183
585.37	15.356
585.71	15.340
586.04	15.258
586.38	15.320
586.72	15.041
587.05	15.093
587.39	14.884
587.72	14.952
588.06	15.305
588.39	15.310
588.73	14.947
589.06	14.955
589.40	15.304
589.73	14.846
590.07	15.053
590.40	15.686
590.73	15.058
591.07	14.594
591.40	15.280
591.74	15.342
592.07	15.794
592.41	15.142
592.74	15.513
593.08	15.860
593.41	15.865
593.75	15.575
594.08	15.813
594.41	15.256
594.75	15.211
595.08	15.511
595.42	15.097
595.75	15.208
596.09	14.910
596.42	15.228
596.75	15.747
597.09	15.758
597.42	14.978
597.75	15.367
598.09	15.476
598.42	15.400
598.76	15.132
599.09	15.023
599.42	14.650
599.76	15.319
600.09	15.415
600.42	15.315
600.76	15.357
601.09	15.400
601.42	14.761
601.76	15.310
602.09	15.332
602.42	15.231
602.76	14.982
603.09	14.905
603.42	15.246
603.76	15.821
604.09	15.862
604.42	15.266
604.76	14.802
605.09	15.038
605.42	14.833
605.75	15.077
606.09	15.603
606.42	15.834
606.75	14.618
607.09	14.478
607.42	15.414
607.75	16.217
608.08	14.680
608.42	14.389
608.75	14.967
609.08	14.219
609.41	15.483
609.75	14.955
610.08	15.259
610.41	15.336
610.74	15.336
611.07	15.231
611.41	15.650
611.74	15.520
612.07	14.914
612.40	14.734
612.73	14.817
613.07	15.159
613.40	15.977
613.73	15.166
614.06	15.407
614.39	15.063
614.72	15.478
615.06	14.918
615.39	14.886
615.72	15.640
616.05	15.056
616.38	15.994
616.71	15.465
617.05	14.803
617.38	15.944
617.71	15.821
618.04	15.704
618.37	15.574
618.70	15.894
619.03	15.412
619.36	15.043
619.69	15.183
620.03	15.191
620.36	15.521
620.69	15.608
621.02	15.354
621.35	15.094
621.68	16.414
622.01	14.662
622.34	14.714
622.67	15.258
623.00	14.440
623.33	16.457
623.66	15.175
623.99	15.076
624.32	16.569
624.65	15.380
624.99	16.710
625.32	14.958
625.65	15.239
625.98	15.661
626.31	14.670
626.64	16.190
626.97	14.479
627.30	15.338
627.63	15.379
627.96	15.991
628.29	15.409
628.62	15.281
628.95	15.074
629.28	14.444
629.61	16.330
629.94	15.063
630.26	15.678
630.59	15.285
630.92	15.238
631.25	15.564
631.58	15.443
631.91	15.651
632.24	15.370
632.57	14.991
632.90	16.249
633.23	16.122
633.56	16.122
633.89	14.669
634.22	14.865
634.55	15.971
634.88	14.935
635.20	16.469
635.53	15.254
635.86	16.143
636.19	16.649
636.52	16.034
636.85	15.322
637.18	14.657
637.51	14.624
637.83	15.172
638.16	15.783
638.49	15.493
638.82	15.671
639.15	15.006
639.48	15.589
639.81	14.550
640.13	15.430
640.46	13.333
640.79	14.583
641.12	16.149
641.45	13.300
641.77	17.073
642.10	15.092
642.43	15.293
642.76	15.447
643.09	13.836
643.41	14.706
643.74	13.517
644.07	14.483
644.40	15.276
644.73	13.062
645.05	13.656
645.38	16.547
645.71	15.103
646.04	16.499
646.36	16.058
646.69	14.110
647.02	15.902
647.35	16.031
647.67	14.332
648.00	15.127
648.33	15.916
648.66	16.405
648.98	14.422
649.31	13.802
649.64	15.007
649.96	15.119
650.29	12.378
650.62	14.993
650.94	14.264
651.27	12.725
651.60	14.912
651.92	14.286
652.25	14.906
652.58	14.030
652.90	12.936
653.23	15.634
653.56	13.837
653.88	15.169
654.21	14.225
654.54	12.717
654.86	15.014
655.19	12.171
655.52	16.680
655.84	16.924
656.17	19.518
656.49	27.137
656.82	28.048
657.15	20.973
657.47	15.232
657.80	10.653
658.13	8.099
658.45	10.251
658.78	11.955
659.10	11.452
659.43	11.341
659.75	10.782
660.08	10.140
660.41	11.084
660.73	10.832
661.06	11.601
661.38	12.759
661.71	13.966
662.03	13.051
662.36	15.385
662.68	12.008
663.01	14.690
663.33	14.178
663.66	15.934
663.98	13.269
664.31	13.696
664.63	12.524
664.96	12.523
665.28	13.067
665.61	14.685
665.93	12.321
666.26	11.470
666.58	12.177
666.91	14.206
667.23	13.524
667.56	16.371
667.88	14.400
668.21	9.570
668.53	13.707
668.86	13.556
669.18	12.424
669.50	11.730
669.83	13.400
670.15	11.417
670.48	13.294
670.80	12.046
671.13	12.098
671.45	12.205
671.77	13.936
672.10	11.333
672.42	12.945
672.75	12.750
673.07	14.478
673.39	10.015
673.72	13.423
674.04	10.345
674.37	13.417
674.69	13.933
675.01	10.476
675.34	11.641
675.66	12.547
675.98	12.687
676.31	12.109
676.63	13.498
676.95	13.027
677.28	12.298
677.60	11.024
677.92	11.324
678.25	11.883
678.57	15.125
678.89	14.164
679.22	10.105
679.54	10.427
679.86	8.983
680.18	8.624
680.51	13.050
680.83	12.602
681.15	10.690
681.48	12.435
681.80	15.371
682.12	11.189
682.44	10.851
682.77	12.234
683.09	11.553
683.41	11.434
683.73	9.867
684.06	11.439
684.38	12.522
684.70	12.747
685.02	12.048
685.34	12.313
685.67	13.249
685.99	11.196
686.31	12.064
686.63	13.270
686.96	12.303
687.28	10.912
687.60	9.596
687.92	11.415
688.24	11.185
688.56	9.828
688.89	9.619
689.21	10.176
689.53	10.392
689.85	10.256
690.17	11.667
690.49	10.956
690.82	8.119
691.14	6.478
691.46	11.090
691.78	11.971
692.10	8.991
692.42	9.286
692.74	10.526
693.06	9.815
693.39	12.334
693.71	8.835
694.03	11.152
694.35	11.238
694.67	9.651
694.99	10.426
695.31	9.713
695.63	9.740
695.95	9.731
696.27	9.011
696.59	12.389
696.91	7.883
697.23	13.626
697.56	6.314
697.88	8.523
698.20	10.923
698.52	12.689
698.84	11.850
699.16	13.878
699.48	10.460
699.80	9.149
700.12	9.607
700.44	7.834
700.76	9.976
701.08	8.959
701.40	10.363
701.72	9.950
702.04	8.824
702.36	7.068
702.68	7.335
703.00	7.824
703.32	7.882
703.64	8.313
703.96	8.592
704.28	10.811
704.60	9.114
704.91	10.969
705.23	9.315
705.55	7.799
705.87	10.000
706.19	5.215
706.51	6.024
706.83	8.069
707.15	7.143
707.47	9.813
707.79	8.079
708.11	6.144
708.43	9.677
708.74	4.688
709.06	9.977
709.38	12.207
709.70	9.181
710.02	8.786
710.34	7.181
710.66	5.866
710.98	6.557
711.29	7.967
711.61	6.215
711.93	4.274
712.25	7.838
712.57	7.670
712.89	7.353
713.20	7.692
713.52	9.249
713.84	7.521
714.16	9.737
714.48	10.309
714.80	8.052
715.11	7.612
715.43	10.080
715.75	9.211
716.07	4.696
716.39	6.831
716.70	4.819
717.02	6.557
717.34	5.226
717.66	3.020
717.97	3.082
718.29	2.405
718.61	5.592
718.93	6.472
719.24	7.143
719.56	5.828
719.88	5.105
720.20	4.194
720.51	3.416
720.83	0.938
721.15	4.276
721.46	2.740
721.78	3.333
722.10	2.913
722.42	5.705
722.73	2.903
723.05	2.105
723.37	3.819
723.68	4.659
724.00	7.220
724.32	5.986
724.63	4.895
724.95	3.546
725.27	6.272
725.58	1.060
725.90	9.655
726.22	2.194
726.53	10.390
726.85	6.289
727.16	6.647
727.48	10.398
727.80	6.291
728.11	3.887
728.43	7.071
728.74	3.010
729.06	2.318
729.38	4.870
729.69	4.362
730.01	4.762
730.32	0.606
730.64	6.604
730.96	2.795
731.27	9.497
731.59	6.868
731.90	7.273
732.22	5.990
732.53	2.762
732.85	7.429
733.16	4.399
733.48	3.354
733.80	5.292
734.11	3.989
734.43	9.189
734.74	8.354
735.06	7.286
735.37	5.676
735.69	6.486
736.00	5.932
736.32	8.086
736.63	4.722
736.95	8.046
737.26	4.848
737.58	4.242
737.89	6.765
738.21	1.223
738.52	2.295
738.83	6.826
739.15	5.319
739.46	3.401
739.78	5.828
740.09	3.438
740.41	5.831
740.72	3.333
741.04	5.178
741.35	4.912
741.66	1.961
741.98	-0.820
742.29	0.000
742.61	3.070
742.92	3.462
743.23	4.332
743.55	3.876
743.86	0.400
744.18	-4.545
744.49	-2.110
744.80	5.761
745.12	0.844
745.43	2.846
745.74	-2.586
746.06	0.424
746.37	0.422
746.68	2.439
747.00	0.833
747.31	-0.858
747.62	4.615
747.94	-2.024
748.25	-3.213
748.56	-6.122
748.88	-0.427
749.19	0.862
749.50	-2.165
749.82	3.213
750.13	4.270
750.44	2.333
750.75	5.846
751.07	3.692
751.38	3.155
751.69	3.195
752.01	2.913
752.32	2.288
752.63	2.381
752.94	0.692
753.26	2.230
753.57	0.370
753.88	1.873
754.19	3.859
754.51	5.145
754.82	3.859
755.13	5.902
755.44	3.072
755.75	4.934
756.07	6.866
756.38	3.459
756.69	7.229
757.00	1.662
757.31	4.918
757.63	1.279
757.94	5.634
758.25	6.095
758.56	5.664
758.87	6.364
759.18	4.267
759.50	6.799
759.81	4.762
760.12	9.164
760.43	4.948
760.74	7.635
761.05	4.250
761.36	4.096
761.67	2.792
761.99	5.135
762.30	0.000
762.61	-0.330
762.92	0.746
763.23	1.873
763.54	1.439
763.85	1.718
764.16	2.357
764.47	3.873
764.78	3.834
765.10	4.106
765.41	8.974
765.72	2.910
766.03	5.932
766.34	-1.567
766.65	0.697
766.96	-1.992
767.27	0.461
767.58	-3.980
767.89	0.000
768.20	0.939
768.51	-3.704
768.82	-0.803
769.13	-1.894
769.44	-1.154
769.75	1.083
770.06	-0.385
770.37	3.937
770.68	-2.553
770.99	-4.049
771.30	8.148
771.61	2.281
771.92	-1.111
772.23	3.239
772.54	-6.019
772.85	3.687
773.16	-2.381
773.47	-8.995
773.78	-7.568
774.09	-5.682
774.39	5.500
774.70	-3.279
775.01	-12.195
775.32	-4.118
775.63	-5.521
775.94	-13.376
776.25	-1.935
776.56	-5.769
776.87	-3.401
777.18	-3.448
777.48	-11.888
777.79	-6.757
778.10	-10.294
778.41	-9.722
778.72	-9.655
779.03	-4.938
779.34	-6.667
779.65	-4.663
779.95	-3.889
780.26	-9.091
780.57	-14.194
780.88	-11.594
781.19	-9.032
781.50	-2.353
781.80	1.075
782.11	-2.116
782.42	-8.586
782.73	-7.186
783.04	-4.469
783.34	-7.879
783.65	-16.993
783.96	-12.422
784.27	-4.762
784.57	-18.543
784.88	-8.571
785.19	-13.386
785.50	-16.535
785.81	-17.293
786.11	-18.462
786.42	-12.230
786.73	-13.669
787.04	-16.541
787.34	-18.033
787.65	-13.600
787.96	-12.687
788.26	-11.888
788.57	-4.196
788.88	-12.500
789.19	-3.268
789.49	-13.014
789.80	-12.766
790.11	-6.299
790.41	-9.375
790.72	-21.186
791.03	-25.243
791.33	-19.130
791.64	-17.544
791.95	-25.893
792.25	-23.810
792.56	-14.286
792.87	-29.167
793.17	-16.964
793.48	-29.167
793.79	-37.349
794.09	-13.761
794.40	-18.349
794.70	-0.680
795.01	-11.688
795.32	-15.068
795.62	-11.972
795.93	-14.394
796.23	-20.492
796.54	-23.214
796.85	-30.851
797.15	-38.043
797.46	-57.534
797.76	-42.500
798.07	-32.609
798.37	-29.897
798.68	-33.766
798.99	-26.437
799.29	-29.213
799.60	-23.404
799.90	-33.735
800.21	-69.231
800.51	-49.254
800.82	-42.647
801.12	-60.274
801.43	-57.353
801.73	-64.407
802.04	-54.545
802.34	-68.333
802.65	-50.847
802.95	-52.239
803.26	-72.881
803.56	-52.055
803.87	-42.857
804.17	-35.616
804.48	-80.702
804.78	-41.667
805.09	-70.690
805.39	-41.892
805.70	-61.972
806.00	-31.707
806.30	-38.554
806.61	-52.055
806.91	-26.923
807.22	-31.111
807.52	-40.230
807.83	-33.333
808.13	-28.916
808.43	-34.831
808.74	-45.000
809.04	-58.824
809.35	-37.333
809.65	-41.429
809.95	-35.616
810.26	-63.158
810.56	-79.310
810.86	-39.706
811.17	-59.649
811.47	-50.820
811.77	-91.111
812.08	-50.847
812.38	-40.000
812.69	-39.655
812.99	-73.585
813.29	-117.949
813.59	-58.000
813.90	-43.860
814.20	-72.727
814.50	-21.127
814.81	-26.923
815.11	-47.541
815.41	-50.746
815.72	-36.207
816.02	-55.357
816.32	-53.333
816.62	-45.455
816.93	-66.667
817.23	-51.852
817.53	-65.957
817.84	-47.619
818.14	-82.353
818.44	-53.061
818.74	-57.778
819.04	-130.769
819.35	-142.857
819.65	-196.154
819.95	-56.604
820.25	-62.222
820.56	-100.000
820.86	-121.875
821.16	-102.564
821.46	-100.000
821.76	-92.000
822.07	-53.571
822.37	-73.913
822.67	-65.957
822.97	-124.324
823.27	-90.000
823.57	-53.061
823.88	-55.556
824.18	-62.500
824.48	-130.000
824.78	-152.000
825.08	-109.091
825.38	-71.111
825.69	-87.234
825.99	-111.111
826.29	-145.714
826.59	-105.128
826.89	-86.047
827.19	-62.000
827.49	-85.294
827.79	-60.417
828.09	-110.811
828.39	-116.667
828.70	-78.049
829.00	-83.721
829.30	-160.714
829.60	-97.059
829.90	-89.130
830.20	-94.286
830.50	-148.276
830.80	-216.667
831.10	-134.615
831.40	-135.294
831.70	-157.143
832.00	-109.677
832.30	-276.471
832.60	-191.667
832.90	-292.308
833.20	-200.000
833.50	-200.000
833.80	-221.053
834.10	-257.143
834.40	-88.889
834.70	-84.375
835.00	-122.857
835.30	-108.824
835.60	-133.333
835.90	-168.000
836.20	-240.909
836.50	-144.000
836.80	-139.394
837.10	-125.926
837.40	-107.407
837.70	-281.250
838.00	-89.286
838.30	-182.609
838.60	-144.828
838.90	-200.000
839.19	-208.696
839.49	-400.000
839.79	-134.783
840.09	-231.250
840.39	-220.000
840.69	-103.226
840.99	-150.000
841.29	-253.333
841.59	-210.526
841.88	-82.051
842.18	-157.692
842.48	-390.000
842.78	-190.000
843.08	-93.333
843.38	-74.194
843.68	-250.000
843.97	-97.059
844.27	-268.750
844.57	-236.842
844.87	-430.000
845.17	-233.333
845.47	-152.381
845.76	-185.714
846.06	-477.778
846.36	-258.824
846.66	-138.462
846.96	-273.333
847.25	-258.824
847.55	-147.826
847.85	-190.000
848.15	-217.647
848.44	-354.545
848.74	-171.429
849.04	-175.000
849.34	-250.000
849.63	-134.783
849.93	2700.000
850.23	-266.667
850.53	-96.154
850.82	-272.727
851.12	-159.091
851.42	-372.727
851.71	-276.923
852.01	-230.000
852.31	-323.077
852.61	-189.474
852.90	-325.000
853.20	-227.778
853.50	-455.556
853.79	-214.286
854.09	-204.545
854.39	-441.667
854.68	-90.323
854.98	-138.462
855.28	-133.333
855.57	-150.000
855.87	-136.000
856.17	-127.273
856.46	-111.111
856.76	-222.222
857.05	-160.870
857.35	-141.667
857.65	-269.231
857.94	-171.429
858.24	-118.519
858.53	-152.174
858.83	-211.765
859.13	-223.529
859.42	-217.647
859.72	-300.000
860.01	-210.000
860.31	-455.556
860.60	-390.000
860.90	-206.667
861.20	-188.889
861.49	-230.769
861.79	-123.333
862.08	-353.846
862.38	-115.625
862.67	-205.882
862.97	-256.250
863.26	-511.111
863.56	-400.000
863.85	-436.364
864.15	-238.889
864.44	-1400.000
864.74	-285.714
865.03	-243.750
865.33	-460.000
865.62	-141.935
865.92	-140.909
866.21	-165.217
866.51	-292.857
866.80	-800.000
867.10	-308.333
867.39	-400.000
867.69	4500.000
867.98	-514.286
868.27	-176.471
868.57	-5200.000
868.86	-370.000
869.16	-157.143
869.45	-150.000
869.75	-309.091
870.04	-571.429
870.33	-241.667
870.63	-714.286
870.92	-950.000
871.22	-687.500
871.51	-381.818
871.80	-1633.333
872.10	-2250.000
>>>>>End Processed Spectral Data<<<<<
