SpectraSuite Data File
++++++++++++++++++++++++++++++++++++
Date: Thu May 14 16:32:53 PDT 2015
User: schluterlab
Dark Spectrum Present: Yes
Reference Spectrum Present: Yes
Number of Sampled Component Spectra: 1
Spectrometers: USB2E3373
Integration Time (usec): 3000 (USB2E3373)
Spectra Averaged: 3 (USB2E3373)
Boxcar Smoothing: 0 (USB2E3373)
Correct for Electrical Dark: No (USB2E3373)
Strobe/Lamp Enabled: No (USB2E3373)
Correct for Detector Non-linearity: No (USB2E3373)
Correct for Stray Light: No (USB2E3373)
Number of Pixels in Processed Spectrum: 2048
>>>>>Begin Processed Spectral Data<<<<<
178.53	0.000
178.91	57.143
179.29	-1200.000
179.67	-300.000
180.04	135.714
180.42	-0.000
180.80	200.000
181.18	-900.000
181.56	1000.000
181.94	75.000
182.31	0.000
182.69	233.333
183.07	-50.000
183.45	-25.000
183.83	-116.667
184.20	0.000
184.58	300.000
184.96	-25.000
185.34	-22.222
185.72	80.000
186.09	77.778
186.47	250.000
186.85	280.000
187.23	-77.778
187.61	-500.000
187.98	120.000
188.36	125.000
188.74	50.000
189.12	100.000
189.49	-6.250
189.87	-62.500
190.25	22.222
190.63	-20.000
191.00	-44.444
191.38	0.000
191.76	-75.000
192.14	-116.667
192.51	100.000
192.89	116.667
193.27	0.000
193.65	-14.286
194.02	-400.000
194.40	0.000
194.78	14.286
195.15	0.000
195.53	27.273
195.91	0.000
196.29	175.000
196.66	-38.462
197.04	100.000
197.42	28.571
197.79	-400.000
198.17	-25.000
198.55	-14.286
198.92	11.111
199.30	12.500
199.68	145.455
200.05	35.714
200.43	-500.000
200.81	171.429
201.18	0.000
201.56	233.333
201.94	0.000
202.31	266.667
202.69	-144.444
203.07	-200.000
203.44	33.333
203.82	-50.000
204.19	83.333
204.57	-100.000
204.95	-12.500
205.32	-300.000
205.70	125.000
206.08	0.000
206.45	83.333
206.83	200.000
207.20	-16.667
207.58	-100.000
207.96	-100.000
208.33	50.000
208.71	-8.333
209.08	66.667
209.46	0.000
209.84	133.333
210.21	500.000
210.59	300.000
210.96	-0.000
211.34	-200.000
211.71	0.000
212.09	-400.000
212.46	0.000
212.84	100.000
213.22	-140.000
213.59	25.000
213.97	30.000
214.34	-233.333
214.72	100.000
215.09	-225.000
215.47	0.000
215.84	14.286
216.22	550.000
216.59	20.000
216.97	40.000
217.34	50.000
217.72	62.500
218.09	75.000
218.47	-75.000
218.84	0.000
219.22	-100.000
219.59	17.647
219.97	50.000
220.34	200.000
220.72	-55.556
221.09	30.769
221.47	-133.333
221.84	20.000
222.22	-128.571
222.59	0.000
222.97	62.500
223.34	-160.000
223.72	100.000
224.09	-175.000
224.46	-125.000
224.84	340.000
225.21	-28.571
225.59	-50.000
225.96	0.000
226.34	26.923
226.71	116.667
227.08	-450.000
227.46	53.333
227.83	200.000
228.21	47.368
228.58	62.500
228.95	450.000
229.33	25.000
229.70	-10.000
230.08	52.632
230.45	210.000
230.82	100.000
231.20	28.571
231.57	75.000
231.95	0.000
232.32	-27.273
232.69	20.000
233.07	75.000
233.44	35.294
233.81	40.000
234.19	44.444
234.56	59.091
234.93	55.172
235.31	10.526
235.68	22.222
236.05	20.000
236.43	30.769
236.80	64.000
237.17	14.815
237.55	12.121
237.92	10.000
238.29	-25.806
238.67	36.364
239.04	47.222
239.41	16.667
239.79	39.130
240.16	35.185
240.53	56.522
240.91	7.843
241.28	44.262
241.65	35.821
242.02	36.486
242.40	44.615
242.77	36.000
243.14	35.366
243.51	31.579
243.89	32.051
244.26	33.663
244.63	32.353
245.00	32.710
245.38	32.456
245.75	26.549
246.12	34.921
246.49	29.457
246.87	35.000
247.24	27.815
247.61	34.211
247.98	37.584
248.36	40.123
248.73	34.356
249.10	31.694
249.47	35.323
249.84	41.885
250.22	32.642
250.59	43.889
250.96	33.182
251.33	31.122
251.70	35.043
252.08	36.667
252.45	33.607
252.82	30.992
253.19	33.594
253.56	39.163
253.94	31.923
254.31	37.500
254.68	33.916
255.05	35.505
255.42	35.374
255.79	27.832
256.16	33.113
256.54	35.762
256.91	34.426
257.28	32.787
257.65	29.936
258.02	31.858
258.39	31.909
258.76	36.697
259.14	36.782
259.51	34.582
259.88	34.844
260.25	34.444
260.62	31.507
260.99	33.607
261.36	36.997
261.73	33.422
262.10	34.890
262.47	34.316
262.85	36.111
263.22	29.091
263.59	31.842
263.96	34.783
264.33	35.806
264.70	34.815
265.07	36.038
265.44	36.735
265.81	33.565
266.18	35.374
266.55	37.054
266.92	33.257
267.29	36.761
267.66	33.481
268.03	34.934
268.40	32.985
268.77	34.396
269.14	34.141
269.51	33.333
269.88	35.861
270.25	32.596
270.62	34.388
270.99	35.556
271.36	32.871
271.73	33.792
272.10	36.473
272.47	34.870
272.84	31.727
273.21	33.667
273.58	36.089
273.95	33.654
274.32	34.411
274.69	34.236
275.06	33.516
275.43	32.902
275.80	34.039
276.17	33.704
276.54	33.769
276.91	31.306
277.28	32.550
277.65	35.907
278.02	31.985
278.39	34.964
278.76	35.325
279.13	34.574
279.50	33.849
279.87	32.021
280.23	29.401
280.60	35.593
280.97	31.579
281.34	34.126
281.71	35.195
282.08	34.219
282.45	34.043
282.82	33.281
283.19	32.795
283.56	33.115
283.92	36.937
284.29	36.019
284.66	36.289
285.03	31.891
285.40	33.230
285.77	35.449
286.14	33.282
286.51	36.073
286.87	33.175
287.24	34.488
287.61	35.575
287.98	33.988
288.35	35.059
288.72	34.763
289.08	35.432
289.45	32.692
289.82	33.886
290.19	37.356
290.56	34.930
290.93	36.091
291.29	33.884
291.66	34.022
292.03	32.700
292.40	37.143
292.77	34.232
293.13	34.371
293.50	34.560
293.87	33.289
294.24	36.667
294.60	34.134
294.97	33.826
295.34	36.620
295.71	31.778
296.08	33.592
296.44	34.436
296.81	34.592
297.18	35.492
297.55	34.552
297.91	33.808
298.28	32.820
298.65	33.650
299.02	33.884
299.38	33.524
299.75	32.593
300.12	33.333
300.48	34.793
300.85	33.746
301.22	33.893
301.59	34.817
301.95	32.768
302.32	36.000
302.69	33.954
303.05	34.712
303.42	33.038
303.79	34.583
304.15	36.488
304.52	34.778
304.89	33.613
305.25	35.507
305.62	34.901
305.99	34.845
306.35	35.181
306.72	35.677
307.09	35.228
307.45	36.232
307.82	36.428
308.19	36.731
308.55	36.355
308.92	36.417
309.29	36.590
309.65	36.355
310.02	36.931
310.38	36.811
310.75	36.117
311.12	38.063
311.48	37.341
311.85	36.752
312.22	38.425
312.58	38.028
312.95	37.667
313.31	38.573
313.68	38.187
314.05	38.663
314.41	39.891
314.78	38.147
315.14	40.381
315.51	39.797
315.87	40.054
316.24	41.279
316.61	40.853
316.97	39.638
317.34	41.005
317.70	41.485
318.07	39.947
318.43	40.391
318.80	41.388
319.16	40.343
319.53	40.189
319.89	41.192
320.26	41.459
320.62	42.021
320.99	42.475
321.35	42.884
321.72	44.651
322.08	44.635
322.45	45.348
322.81	45.217
323.18	45.664
323.54	46.466
323.91	47.153
324.27	47.160
324.64	48.950
325.00	47.595
325.37	49.877
325.73	51.157
326.10	51.744
326.46	52.199
326.83	53.723
327.19	53.780
327.56	53.913
327.92	53.344
328.29	52.823
328.65	52.513
329.01	53.807
329.38	54.591
329.74	54.623
330.11	56.164
330.47	53.917
330.84	54.953
331.20	54.667
331.56	57.019
331.93	54.226
332.29	55.000
332.66	54.734
333.02	53.099
333.38	56.040
333.75	55.387
334.11	56.297
334.48	55.033
334.84	55.735
335.20	54.828
335.57	56.071
335.93	55.950
336.29	52.912
336.66	55.257
337.02	55.853
337.38	54.252
337.75	52.149
338.11	55.509
338.47	55.335
338.84	53.384
339.20	54.844
339.56	53.707
339.93	52.709
340.29	52.657
340.65	52.717
341.02	54.429
341.38	53.840
341.74	54.399
342.11	53.178
342.47	51.628
342.83	54.589
343.20	53.639
343.56	53.729
343.92	52.762
344.28	53.750
344.65	54.806
345.01	52.730
345.37	53.344
345.73	52.611
346.10	53.978
346.46	54.035
346.82	52.360
347.19	52.330
347.55	54.097
347.91	52.452
348.27	51.290
348.63	51.028
349.00	51.976
349.36	52.416
349.72	51.637
350.08	53.789
350.45	51.787
350.81	50.980
351.17	52.030
351.53	52.767
351.89	51.557
352.26	50.970
352.62	51.194
352.98	52.290
353.34	51.008
353.70	51.618
354.07	51.565
354.43	53.075
354.79	51.907
355.15	50.478
355.51	52.120
355.87	52.281
356.24	51.711
356.60	51.737
356.96	52.039
357.32	51.450
357.68	52.196
358.04	52.246
358.40	51.642
358.77	53.070
359.13	51.329
359.49	50.855
359.85	52.429
360.21	50.143
360.57	50.395
360.93	50.987
361.29	52.561
361.66	51.919
362.02	52.749
362.38	52.003
362.74	52.514
363.10	52.201
363.46	53.393
363.82	51.349
364.18	52.569
364.54	52.351
364.90	53.043
365.26	51.931
365.62	51.333
365.98	51.940
366.35	52.349
366.71	52.041
367.07	51.556
367.43	51.806
367.79	53.616
368.15	52.441
368.51	51.962
368.87	51.078
369.23	51.867
369.59	53.962
369.95	52.130
370.31	52.262
370.67	52.476
371.03	51.870
371.39	51.645
371.75	53.301
372.11	53.726
372.47	52.810
372.83	52.552
373.19	52.168
373.55	52.033
373.91	52.965
374.27	52.199
374.63	54.060
374.99	52.387
375.35	53.377
375.71	54.000
376.07	53.454
376.42	52.519
376.78	53.076
377.14	52.776
377.50	53.763
377.86	52.894
378.22	54.371
378.58	53.210
378.94	53.345
379.30	52.490
379.66	53.616
380.02	54.357
380.38	54.724
380.74	53.859
381.09	54.588
381.45	54.432
381.81	54.450
382.17	54.097
382.53	53.801
382.89	52.765
383.25	54.865
383.61	55.556
383.97	54.064
384.32	56.220
384.68	54.524
385.04	55.523
385.40	56.806
385.76	55.041
386.12	54.997
386.48	55.529
386.83	56.377
387.19	54.519
387.55	56.103
387.91	55.651
388.27	55.139
388.62	55.326
388.98	54.766
389.34	55.451
389.70	55.433
390.06	54.056
390.42	55.723
390.77	56.653
391.13	55.869
391.49	55.435
391.85	55.394
392.20	55.931
392.56	55.523
392.92	56.107
393.28	56.108
393.64	55.140
393.99	55.433
394.35	57.593
394.71	57.066
395.07	55.569
395.42	55.226
395.78	58.074
396.14	57.041
396.50	57.067
396.85	56.530
397.21	55.740
397.57	57.420
397.92	57.446
398.28	57.197
398.64	56.350
399.00	55.131
399.35	57.487
399.71	57.228
400.07	57.327
400.42	57.509
400.78	56.597
401.14	57.826
401.49	56.794
401.85	57.209
402.21	58.285
402.57	58.275
402.92	57.565
403.28	56.089
403.63	57.518
403.99	58.076
404.35	56.453
404.70	56.487
405.06	56.196
405.42	57.084
405.77	59.215
406.13	57.212
406.49	58.164
406.84	58.116
407.20	57.462
407.55	57.420
407.91	57.448
408.27	56.714
408.62	58.581
408.98	57.806
409.34	57.537
409.69	58.220
410.05	58.734
410.40	58.643
410.76	57.992
411.11	59.965
411.47	59.275
411.83	59.259
412.18	59.639
412.54	57.380
412.89	58.847
413.25	58.126
413.60	57.725
413.96	58.100
414.31	57.507
414.67	57.841
415.03	57.600
415.38	58.953
415.74	57.666
416.09	58.791
416.45	58.234
416.80	58.017
417.16	59.642
417.51	58.281
417.87	58.798
418.22	59.102
418.58	56.753
418.93	59.430
419.29	59.433
419.64	57.143
420.00	58.813
420.35	59.293
420.71	58.128
421.06	58.424
421.42	59.346
421.77	57.135
422.12	58.351
422.48	59.652
422.83	60.460
423.19	59.788
423.54	60.730
423.90	60.188
424.25	59.627
424.61	59.989
424.96	59.473
425.31	58.280
425.67	58.991
426.02	59.491
426.38	59.300
426.73	57.589
427.09	61.246
427.44	59.257
427.79	59.093
428.15	58.333
428.50	58.371
428.85	58.152
429.21	60.266
429.56	59.082
429.92	58.133
430.27	59.470
430.62	59.257
430.98	58.977
431.33	58.944
431.68	58.860
432.04	58.812
432.39	59.239
432.74	59.361
433.10	58.680
433.45	58.138
433.80	58.959
434.16	59.659
434.51	60.175
434.86	59.989
435.22	60.999
435.57	61.144
435.92	59.544
436.28	60.751
436.63	60.076
436.98	58.400
437.34	59.977
437.69	60.044
438.04	59.598
438.39	59.449
438.75	59.325
439.10	60.729
439.45	60.201
439.81	59.887
440.16	57.962
440.51	60.591
440.86	58.866
441.22	58.092
441.57	60.010
441.92	58.778
442.27	59.949
442.63	60.159
442.98	59.605
443.33	59.390
443.68	60.059
444.03	61.195
444.39	60.518
444.74	60.490
445.09	59.402
445.44	59.958
445.79	59.818
446.15	60.483
446.50	59.690
446.85	59.193
447.20	59.429
447.55	60.356
447.91	59.319
448.26	58.879
448.61	59.405
448.96	60.730
449.31	59.067
449.66	59.314
450.02	58.966
450.37	58.817
450.72	60.172
451.07	58.599
451.42	58.694
451.77	59.200
452.12	59.763
452.47	58.289
452.83	60.473
453.18	58.844
453.53	58.874
453.88	58.752
454.23	60.395
454.58	60.128
454.93	58.799
455.28	59.482
455.63	58.670
455.98	59.832
456.34	59.953
456.69	59.142
457.04	59.811
457.39	58.980
457.74	60.738
458.09	58.759
458.44	59.698
458.79	60.495
459.14	58.469
459.49	58.970
459.84	59.391
460.19	58.245
460.54	59.455
460.89	59.820
461.24	59.253
461.59	58.827
461.94	57.844
462.29	59.518
462.64	58.902
462.99	59.385
463.34	59.831
463.69	57.151
464.04	59.477
464.39	59.137
464.74	58.837
465.09	58.535
465.44	58.315
465.79	58.858
466.14	58.103
466.49	58.053
466.84	59.339
467.19	59.538
467.54	56.522
467.89	57.356
468.24	58.837
468.59	58.078
468.94	57.168
469.29	58.308
469.64	57.851
469.99	57.744
470.34	57.611
470.68	58.237
471.03	58.546
471.38	58.993
471.73	57.672
472.08	58.629
472.43	56.954
472.78	59.887
473.13	59.292
473.48	59.577
473.83	58.096
474.17	57.503
474.52	58.208
474.87	57.863
475.22	58.310
475.57	58.879
475.92	57.790
476.27	57.188
476.61	56.646
476.96	58.342
477.31	57.228
477.66	57.817
478.01	57.194
478.36	56.530
478.70	57.833
479.05	58.333
479.40	57.996
479.75	57.157
480.10	57.556
480.45	57.794
480.79	57.823
481.14	57.399
481.49	57.883
481.84	57.789
482.19	58.581
482.53	58.199
482.88	57.288
483.23	59.004
483.58	56.769
483.92	56.959
484.27	56.224
484.62	56.807
484.97	57.621
485.31	56.987
485.66	56.009
486.01	55.956
486.36	57.462
486.70	59.811
487.05	60.242
487.40	58.393
487.75	57.634
488.09	57.368
488.44	55.518
488.79	55.784
489.13	55.539
489.48	55.340
489.83	55.654
490.17	54.354
490.52	55.829
490.87	55.330
491.22	56.716
491.56	55.674
491.91	54.993
492.26	55.604
492.60	56.056
492.95	54.936
493.30	55.132
493.64	55.147
493.99	55.614
494.34	54.834
494.68	54.433
495.03	56.123
495.37	54.949
495.72	55.873
496.07	54.689
496.41	55.942
496.76	56.422
497.11	55.626
497.45	54.985
497.80	54.953
498.14	54.286
498.49	54.779
498.84	54.616
499.18	54.836
499.53	54.439
499.87	54.681
500.22	54.319
500.56	54.476
500.91	55.561
501.26	55.909
501.60	53.822
501.95	56.144
502.29	54.498
502.64	55.531
502.98	54.098
503.33	54.082
503.67	53.990
504.02	54.203
504.36	55.764
504.71	54.203
505.06	54.297
505.40	54.205
505.75	54.690
506.09	55.110
506.44	54.318
506.78	55.092
507.13	55.187
507.47	54.477
507.82	54.309
508.16	53.011
508.51	54.290
508.85	54.606
509.19	54.429
509.54	53.314
509.88	54.590
510.23	53.473
510.57	55.534
510.92	54.185
511.26	53.199
511.61	53.308
511.95	54.075
512.30	54.308
512.64	52.974
512.98	52.876
513.33	53.931
513.67	53.187
514.02	52.989
514.36	53.708
514.70	54.010
515.05	52.972
515.39	53.333
515.74	54.401
516.08	53.249
516.42	53.794
516.77	54.154
517.11	53.069
517.46	53.765
517.80	53.982
518.14	54.570
518.49	53.525
518.83	52.475
519.17	53.096
519.52	53.145
519.86	53.485
520.20	52.662
520.55	53.012
520.89	51.802
521.23	52.373
521.58	53.277
521.92	53.824
522.26	52.405
522.61	53.877
522.95	52.884
523.29	53.506
523.64	51.682
523.98	53.280
524.32	53.696
524.66	52.760
525.01	51.699
525.35	52.843
525.69	51.972
526.04	51.722
526.38	53.621
526.72	51.557
527.06	53.783
527.41	52.420
527.75	53.147
528.09	52.243
528.43	51.273
528.78	52.948
529.12	51.606
529.46	52.052
529.80	51.773
530.15	52.000
530.49	51.779
530.83	52.774
531.17	52.151
531.51	52.106
531.86	51.683
532.20	51.951
532.54	50.628
532.88	52.303
533.22	51.385
533.57	50.952
533.91	51.627
534.25	51.046
534.59	51.954
534.93	50.764
535.27	50.254
535.62	52.814
535.96	51.656
536.30	50.881
536.64	51.351
536.98	51.230
537.32	51.728
537.66	51.466
538.01	49.789
538.35	50.670
538.69	50.601
539.03	52.054
539.37	50.883
539.71	50.330
540.05	50.899
540.39	50.672
540.73	49.848
541.07	50.276
541.42	49.321
541.76	49.941
542.10	48.794
542.44	49.086
542.78	49.696
543.12	49.940
543.46	49.573
543.80	48.381
544.14	49.970
544.48	49.823
544.82	49.192
545.16	49.553
545.50	49.790
545.84	48.561
546.18	49.877
546.52	48.408
546.86	48.491
547.20	49.682
547.54	48.439
547.88	47.860
548.22	47.836
548.56	48.449
548.90	49.015
549.24	49.179
549.58	47.571
549.92	47.194
550.26	48.997
550.60	46.777
550.94	47.865
551.28	46.271
551.62	47.642
551.96	46.214
552.30	47.228
552.64	47.666
552.98	48.035
553.32	48.553
553.66	47.460
554.00	47.100
554.34	47.619
554.68	45.642
555.02	46.452
555.36	47.732
555.69	45.804
556.03	46.217
556.37	45.932
556.71	47.368
557.05	47.284
557.39	46.914
557.73	46.103
558.07	46.291
558.41	46.379
558.75	46.991
559.08	47.460
559.42	46.708
559.76	45.455
560.10	46.149
560.44	45.910
560.78	45.688
561.12	46.490
561.45	46.107
561.79	45.665
562.13	46.580
562.47	44.575
562.81	45.696
563.15	45.328
563.48	44.810
563.82	46.131
564.16	45.245
564.50	44.994
564.84	44.425
565.17	45.647
565.51	43.901
565.85	44.715
566.19	44.240
566.52	45.231
566.86	44.595
567.20	43.774
567.54	45.937
567.88	45.515
568.21	45.553
568.55	46.667
568.89	45.166
569.23	45.416
569.56	45.721
569.90	45.723
570.24	45.902
570.57	45.959
570.91	44.366
571.25	45.299
571.59	45.060
571.92	45.309
572.26	44.786
572.60	44.990
572.93	44.475
573.27	44.900
573.61	43.700
573.95	44.234
574.28	43.541
574.62	43.724
574.96	43.560
575.29	43.181
575.63	43.844
575.97	44.072
576.30	43.523
576.64	43.379
576.98	42.825
577.31	43.649
577.65	44.346
577.98	44.315
578.32	43.427
578.66	43.291
578.99	43.375
579.33	43.219
579.67	42.974
580.00	42.459
580.34	43.041
580.67	42.454
581.01	43.141
581.35	43.113
581.68	42.786
582.02	43.225
582.35	43.621
582.69	43.431
583.02	42.908
583.36	42.884
583.70	42.604
584.03	42.165
584.37	41.298
584.70	41.687
585.04	41.223
585.37	41.913
585.71	41.381
586.04	41.964
586.38	42.084
586.72	41.539
587.05	41.494
587.39	42.259
587.72	42.081
588.06	42.311
588.39	41.673
588.73	40.979
589.06	41.253
589.40	41.334
589.73	41.228
590.07	41.147
590.40	41.819
590.73	40.580
591.07	41.363
591.40	40.747
591.74	40.779
592.07	40.357
592.41	40.694
592.74	40.753
593.08	41.146
593.41	41.237
593.75	41.207
594.08	41.048
594.41	40.769
594.75	40.186
595.08	40.579
595.42	40.097
595.75	40.329
596.09	40.495
596.42	40.057
596.75	40.525
597.09	40.727
597.42	39.849
597.75	39.828
598.09	39.365
598.42	40.169
598.76	38.708
599.09	39.587
599.42	38.384
599.76	39.419
600.09	39.540
600.42	39.306
600.76	39.630
601.09	39.064
601.42	38.895
601.76	38.655
602.09	39.492
602.42	37.623
602.76	38.598
603.09	38.656
603.42	39.595
603.76	38.971
604.09	39.815
604.42	39.009
604.76	38.851
605.09	38.811
605.42	38.038
605.75	38.654
606.09	38.335
606.42	37.906
606.75	36.919
607.09	37.788
607.42	38.613
607.75	37.984
608.08	37.964
608.42	38.291
608.75	37.728
609.08	37.479
609.41	37.274
609.75	38.304
610.08	38.347
610.41	37.850
610.74	38.151
611.07	37.700
611.41	38.072
611.74	37.275
612.07	37.073
612.40	37.120
612.73	37.604
613.07	36.773
613.40	37.584
613.73	37.362
614.06	37.537
614.39	36.929
614.72	36.536
615.06	35.948
615.39	37.361
615.72	37.536
616.05	36.814
616.38	36.983
616.71	37.461
617.05	36.155
617.38	35.902
617.71	37.635
618.04	37.129
618.37	37.158
618.70	36.482
619.03	36.559
619.36	35.882
619.69	34.785
620.03	36.095
620.36	36.380
620.69	35.163
621.02	36.417
621.35	37.010
621.68	36.443
622.01	36.014
622.34	36.123
622.67	35.258
623.00	35.762
623.33	37.624
623.66	36.770
623.99	36.537
624.32	37.427
624.65	36.422
624.99	35.371
625.32	37.100
625.65	35.604
625.98	35.390
626.31	35.082
626.64	35.018
626.97	34.884
627.30	34.776
627.63	33.983
627.96	35.961
628.29	35.331
628.62	35.264
628.95	35.057
629.28	33.985
629.61	36.279
629.94	33.724
630.26	33.898
630.59	34.974
630.92	33.939
631.25	36.315
631.58	35.970
631.91	34.677
632.24	34.102
632.57	34.820
632.90	34.604
633.23	34.796
633.56	34.490
633.89	33.781
634.22	35.031
634.55	34.864
634.88	36.039
635.20	36.168
635.53	36.271
635.86	34.128
636.19	34.146
636.52	35.127
636.85	33.810
637.18	33.576
637.51	33.978
637.83	33.444
638.16	35.023
638.49	32.864
638.82	32.356
639.15	33.562
639.48	34.873
639.81	33.603
640.13	31.331
640.46	32.970
640.79	31.005
641.12	33.416
641.45	32.246
641.77	34.403
642.10	32.546
642.43	34.574
642.76	33.740
643.09	33.699
643.41	33.333
643.74	33.655
644.07	32.552
644.40	34.371
644.73	32.656
645.05	32.893
645.38	34.532
645.71	32.405
646.04	34.290
646.36	32.409
646.69	32.822
647.02	31.498
647.35	36.031
647.67	34.783
648.00	33.121
648.33	33.634
648.66	34.807
648.98	32.925
649.31	31.664
649.64	34.794
649.96	31.698
650.29	30.876
650.62	30.976
650.94	30.631
651.27	30.090
651.60	31.287
651.92	32.979
652.25	31.548
652.58	32.050
652.90	30.378
653.23	31.690
653.56	32.097
653.88	32.163
654.21	30.141
654.54	31.214
654.86	33.286
655.19	31.995
655.52	32.562
655.84	35.196
656.17	42.345
656.49	58.034
656.82	63.417
657.15	48.600
657.47	36.019
657.80	26.277
658.13	20.312
658.45	25.777
658.78	31.178
659.10	30.422
659.43	29.563
659.75	29.428
660.08	28.852
660.41	28.371
660.73	29.989
661.06	30.396
661.38	29.346
661.71	30.172
662.03	29.982
662.36	31.485
662.68	28.893
663.01	29.912
663.33	31.380
663.66	34.066
663.98	30.192
664.31	31.144
664.63	29.672
664.96	30.853
665.28	29.583
665.61	34.441
665.93	29.643
666.26	29.928
666.58	29.151
666.91	32.150
667.23	29.714
667.56	29.389
667.88	31.800
668.21	31.250
668.53	28.185
668.86	32.220
669.18	28.921
669.50	29.423
669.83	28.800
670.15	29.134
670.48	29.762
670.80	28.681
671.13	28.733
671.45	30.906
671.77	32.392
672.10	27.500
672.42	27.994
672.75	28.725
673.07	30.000
673.39	28.351
673.72	31.544
674.04	30.172
674.37	30.590
674.69	31.217
675.01	33.714
675.34	29.771
675.66	30.712
675.98	30.037
676.31	29.883
676.63	31.179
676.95	30.077
677.28	29.637
677.60	29.134
677.92	31.094
678.25	30.165
678.57	32.206
678.89	30.546
679.22	30.139
679.54	28.718
679.86	28.305
680.18	30.846
680.51	29.560
680.83	31.097
681.15	28.793
681.48	30.397
681.80	33.333
682.12	30.944
682.44	30.217
682.77	28.014
683.09	30.114
683.41	28.682
683.73	29.981
684.06	27.491
684.38	30.233
684.70	30.162
685.02	32.874
685.34	31.115
685.67	28.707
685.99	30.215
686.31	28.488
686.63	29.700
686.96	29.338
687.28	31.433
687.60	29.125
687.92	29.582
688.24	30.551
688.56	27.586
688.89	27.768
689.21	31.703
689.53	28.431
689.85	27.219
690.17	27.593
690.49	30.876
690.82	26.139
691.14	26.721
691.46	29.828
691.78	29.466
692.10	30.642
692.42	27.679
692.74	28.494
693.06	25.926
693.39	29.412
693.71	28.759
694.03	27.323
694.35	27.810
694.67	27.926
694.99	28.511
695.31	28.918
695.63	29.870
695.95	27.743
696.27	27.033
696.59	28.319
696.91	28.378
697.23	31.648
697.56	27.291
697.88	29.356
698.20	28.060
698.52	31.439
698.84	31.809
699.16	30.816
699.48	27.615
699.80	30.426
700.12	28.166
700.44	26.267
700.76	31.116
701.08	28.814
701.40	30.570
701.72	27.861
702.04	29.144
702.36	26.702
702.68	26.650
703.00	27.139
703.32	28.079
703.64	31.051
703.96	28.401
704.28	28.256
704.60	28.861
704.91	26.786
705.23	26.301
705.55	29.805
705.87	26.970
706.19	29.755
706.51	24.398
706.83	29.395
707.15	24.603
707.47	28.037
707.79	28.166
708.11	22.669
708.43	26.022
708.74	29.018
709.06	29.002
709.38	27.700
709.70	27.543
710.02	27.390
710.34	28.989
710.66	25.978
710.98	25.956
711.29	26.923
711.61	29.379
711.93	28.205
712.25	27.838
712.57	32.153
712.89	29.706
713.20	26.331
713.52	27.168
713.84	28.691
714.16	27.368
714.48	28.351
714.80	34.026
715.11	25.984
715.43	30.504
715.75	29.474
716.07	27.624
716.39	25.956
716.70	22.590
717.02	28.852
717.34	26.132
717.66	26.846
717.97	27.397
718.29	25.086
718.61	26.316
718.93	24.919
719.24	22.981
719.56	28.221
719.88	27.327
720.20	26.774
720.51	26.087
720.83	25.938
721.15	25.658
721.46	25.000
721.78	24.000
722.10	23.948
722.42	27.181
722.73	27.419
723.05	27.368
723.37	27.431
723.68	31.183
724.00	25.993
724.32	27.817
724.63	26.923
724.95	29.787
725.27	23.693
725.58	23.322
725.90	28.966
726.22	27.273
726.53	28.571
726.85	29.245
727.16	26.586
727.48	29.664
727.80	25.166
728.11	28.622
728.43	27.609
728.74	26.421
729.06	26.821
729.38	30.195
729.69	27.852
730.01	25.893
730.32	22.727
730.64	27.673
730.96	27.640
731.27	25.978
731.59	27.198
731.90	25.974
732.22	28.125
732.53	24.586
732.85	27.429
733.16	28.446
733.48	22.256
733.80	23.120
734.11	24.217
734.43	31.081
734.74	28.608
735.06	27.136
735.37	32.432
735.69	24.865
736.00	29.096
736.32	26.415
736.63	27.500
736.95	26.437
737.26	25.152
737.58	29.697
737.89	28.235
738.21	26.911
738.52	22.951
738.83	28.328
739.15	28.369
739.46	27.551
739.78	28.221
740.09	26.074
740.41	27.405
740.72	26.000
741.04	31.068
741.35	27.018
741.66	26.275
741.98	29.508
742.29	24.268
742.61	31.579
742.92	25.769
743.23	24.910
743.55	25.194
743.86	26.800
744.18	23.967
744.49	24.051
744.80	25.514
745.12	26.582
745.43	27.236
745.74	28.017
746.06	28.814
746.37	30.802
746.68	30.488
747.00	20.833
747.31	28.755
747.62	29.615
747.94	25.101
748.25	28.514
748.56	24.490
748.88	25.641
749.19	28.448
749.50	25.541
749.82	28.514
750.13	30.249
750.44	27.333
750.75	24.615
751.07	27.385
751.38	27.445
751.69	30.032
752.01	21.359
752.32	25.490
752.63	28.571
752.94	25.952
753.26	27.881
753.57	25.556
753.88	27.715
754.19	28.939
754.51	26.367
754.82	27.974
755.13	27.213
755.44	23.208
755.75	28.618
756.07	28.657
756.38	28.302
756.69	27.711
757.00	26.593
757.31	24.863
757.63	21.995
757.94	25.117
758.25	27.314
758.56	25.490
758.87	26.136
759.18	24.267
759.50	28.329
759.81	27.731
760.12	26.415
760.43	24.740
760.74	28.818
761.05	24.750
761.36	24.096
761.67	24.873
761.99	25.135
762.30	25.305
762.61	24.092
762.92	30.970
763.23	23.596
763.54	27.338
763.85	21.306
764.16	27.273
764.47	28.873
764.78	28.754
765.10	27.566
765.41	29.231
765.72	21.958
766.03	25.141
766.34	23.824
766.65	24.390
766.96	23.108
767.27	28.111
767.58	25.871
767.89	27.885
768.20	25.822
768.51	25.926
768.82	26.104
769.13	26.136
769.44	22.308
769.75	26.354
770.06	26.154
770.37	25.197
770.68	29.787
770.99	22.672
771.30	32.222
771.61	24.715
771.92	25.185
772.23	28.745
772.54	21.296
772.85	29.493
773.16	26.190
773.47	28.042
773.78	21.081
774.09	21.591
774.39	30.500
774.70	27.869
775.01	18.293
775.32	23.529
775.63	25.153
775.94	17.834
776.25	27.742
776.56	30.769
776.87	24.490
777.18	24.828
777.48	22.378
777.79	23.649
778.10	21.324
778.41	26.389
778.72	26.207
779.03	23.457
779.34	27.879
779.65	25.389
779.95	26.111
780.26	25.568
780.57	25.161
780.88	31.884
781.19	23.871
781.50	24.706
781.80	26.882
782.11	28.042
782.42	16.162
782.73	28.144
783.04	21.788
783.34	22.424
783.65	20.261
783.96	20.497
784.27	25.595
784.57	23.841
784.88	25.000
785.19	19.685
785.50	28.346
785.81	20.301
786.11	30.769
786.42	20.863
786.73	20.144
787.04	29.323
787.34	29.508
787.65	25.600
787.96	24.627
788.26	25.874
788.57	25.874
788.88	19.079
789.19	31.373
789.49	23.288
789.80	22.695
790.11	29.134
790.41	27.344
790.72	23.729
791.03	16.505
791.33	19.130
791.64	32.456
791.95	18.750
792.25	22.857
792.56	25.893
792.87	19.792
793.17	8.036
793.48	20.833
793.79	9.639
794.09	26.606
794.40	27.523
794.70	26.531
795.01	22.078
795.32	25.342
795.62	30.282
795.93	21.970
796.23	27.049
796.54	25.893
796.85	18.085
797.15	19.565
797.46	23.288
797.76	20.000
798.07	19.565
798.37	9.278
798.68	11.688
798.99	33.333
799.29	13.483
799.60	20.213
799.90	19.277
800.21	13.846
800.51	23.881
800.82	14.706
801.12	9.589
801.43	14.706
801.73	16.949
802.04	25.758
802.34	20.000
802.65	23.729
802.95	16.418
803.26	20.339
803.56	24.658
803.87	24.286
804.17	32.877
804.48	22.807
804.78	27.778
805.09	1.724
805.39	21.622
805.70	14.085
806.00	30.488
806.30	13.253
806.61	16.438
806.91	16.346
807.22	20.000
807.52	17.241
807.83	31.944
808.13	28.916
808.43	28.090
808.74	16.250
809.04	13.235
809.35	16.000
809.65	17.143
809.95	21.918
810.26	21.053
810.56	17.241
810.86	30.882
811.17	22.807
811.47	8.197
811.77	13.333
812.08	25.424
812.38	18.333
812.69	32.759
812.99	20.755
813.29	2.564
813.59	26.000
813.90	33.333
814.20	25.455
814.50	40.845
814.81	28.205
815.11	18.033
815.41	7.463
815.72	31.034
816.02	33.929
816.32	22.222
816.62	13.636
816.93	13.333
817.23	33.333
817.53	14.894
817.84	40.476
818.14	17.647
818.44	24.490
818.74	13.333
819.04	20.513
819.35	14.286
819.65	-30.769
819.95	5.660
820.25	28.889
820.56	-14.286
820.86	15.625
821.16	2.564
821.46	-13.953
821.76	2.000
822.07	28.571
822.37	-8.696
822.67	19.149
822.97	-5.405
823.27	15.000
823.57	20.408
823.88	46.667
824.18	25.000
824.48	-20.000
824.78	28.000
825.08	0.000
825.38	20.000
825.69	25.532
825.99	25.000
826.29	-11.429
826.59	5.128
826.89	46.512
827.19	4.000
827.49	35.294
827.79	16.667
828.09	5.405
828.39	16.667
828.70	19.512
829.00	11.628
829.30	25.000
829.60	41.176
829.90	30.435
830.20	28.571
830.50	17.241
830.80	11.111
831.10	-15.385
831.40	17.647
831.70	52.381
832.00	35.484
832.30	-35.294
832.60	29.167
832.90	-46.154
833.20	-21.053
833.50	-5.000
833.80	31.579
834.10	-33.333
834.40	58.333
834.70	12.500
835.00	-25.714
835.30	38.235
835.60	30.000
835.90	24.000
836.20	-18.182
836.50	36.000
836.80	-6.061
837.10	7.407
837.40	11.111
837.70	-37.500
838.00	14.286
838.30	-26.087
838.60	24.138
838.90	0.000
839.19	-21.739
839.49	-66.667
839.79	30.435
840.09	-12.500
840.39	35.000
840.69	29.032
840.99	14.286
841.29	33.333
841.59	15.789
841.88	51.282
842.18	-3.846
842.48	30.000
842.78	-15.000
843.08	26.667
843.38	38.710
843.68	-22.222
843.97	17.647
844.27	25.000
844.57	31.579
844.87	-70.000
845.17	33.333
845.47	-9.524
845.76	4.762
846.06	-100.000
846.36	-17.647
846.66	7.692
846.96	-53.333
847.25	-41.176
847.55	43.478
847.85	0.000
848.15	23.529
848.44	-18.182
848.74	28.571
849.04	4.167
849.34	31.250
849.63	4.348
849.93	450.000
850.23	-13.333
850.53	-23.077
850.82	36.364
851.12	54.545
851.42	-18.182
851.71	-7.692
852.01	-50.000
852.31	-15.385
852.61	15.789
852.90	50.000
853.20	61.111
853.50	-111.111
853.79	-9.524
854.09	-13.636
854.39	-66.667
854.68	6.452
854.98	-3.846
855.28	55.556
855.57	32.143
855.87	4.000
856.17	4.545
856.46	33.333
856.76	44.444
857.05	26.087
857.35	-4.167
857.65	-46.154
857.94	42.857
858.24	11.111
858.53	21.739
858.83	11.765
859.13	52.941
859.42	41.176
859.72	7.143
860.01	-5.000
860.31	-11.111
860.60	-10.000
860.90	46.667
861.20	38.889
861.49	53.846
861.79	20.000
862.08	15.385
862.38	46.875
862.67	35.294
862.97	-6.250
863.26	-55.556
863.56	60.000
863.85	0.000
864.15	33.333
864.44	0.000
864.74	35.714
865.03	43.750
865.33	-50.000
865.62	0.000
865.92	27.273
866.21	0.000
866.51	0.000
866.80	-180.000
867.10	33.333
867.39	0.000
867.69	1500.000
867.98	85.714
868.27	52.941
868.57	-1100.000
868.86	-30.000
869.16	-23.810
869.45	12.500
869.75	0.000
870.04	-114.286
870.33	50.000
870.63	-142.857
870.92	0.000
871.22	-112.500
871.51	-100.000
871.80	-466.667
872.10	-50.000
>>>>>End Processed Spectral Data<<<<<
