SpectraSuite Data File
++++++++++++++++++++++++++++++++++++
Date: Thu May 14 16:28:51 PDT 2015
User: schluterlab
Dark Spectrum Present: Yes
Reference Spectrum Present: Yes
Number of Sampled Component Spectra: 1
Spectrometers: USB2E3373
Integration Time (usec): 3000 (USB2E3373)
Spectra Averaged: 3 (USB2E3373)
Boxcar Smoothing: 0 (USB2E3373)
Correct for Electrical Dark: No (USB2E3373)
Strobe/Lamp Enabled: No (USB2E3373)
Correct for Detector Non-linearity: No (USB2E3373)
Correct for Stray Light: No (USB2E3373)
Number of Pixels in Processed Spectrum: 2048
>>>>>Begin Processed Spectral Data<<<<<
178.53	0.000
178.91	-14.286
179.29	-700.000
179.67	-300.000
180.04	92.857
180.42	60.000
180.80	200.000
181.18	-200.000
181.56	900.000
181.94	50.000
182.31	150.000
182.69	300.000
183.07	200.000
183.45	200.000
183.83	50.000
184.20	-66.667
184.58	700.000
184.96	-75.000
185.34	77.778
185.72	-40.000
186.09	144.444
186.47	100.000
186.85	180.000
187.23	-66.667
187.61	-1300.000
187.98	-40.000
188.36	125.000
188.74	75.000
189.12	133.333
189.49	50.000
189.87	-75.000
190.25	11.111
190.63	100.000
191.00	-33.333
191.38	0.000
191.76	-50.000
192.14	-66.667
192.51	200.000
192.89	150.000
193.27	0.000
193.65	-57.143
194.02	-700.000
194.40	128.571
194.78	171.429
195.15	0.000
195.53	18.182
195.91	0.000
196.29	-50.000
196.66	53.846
197.04	-900.000
197.42	-14.286
197.79	-100.000
198.17	100.000
198.55	28.571
198.92	122.222
199.30	50.000
199.68	9.091
200.05	57.143
200.43	-500.000
200.81	114.286
201.18	0.000
201.56	122.222
201.94	0.000
202.31	200.000
202.69	-100.000
203.07	-400.000
203.44	88.889
203.82	-275.000
204.19	0.000
204.57	-100.000
204.95	-75.000
205.32	-100.000
205.70	100.000
206.08	150.000
206.45	116.667
206.83	60.000
207.20	-83.333
207.58	20.000
207.96	-133.333
208.33	83.333
208.71	25.000
209.08	216.667
209.46	0.000
209.84	-50.000
210.21	-200.000
210.59	300.000
210.96	100.000
211.34	125.000
211.71	-112.500
212.09	-400.000
212.46	0.000
212.84	1050.000
213.22	-200.000
213.59	-75.000
213.97	40.000
214.34	-200.000
214.72	-0.000
215.09	-150.000
215.47	0.000
215.84	42.857
216.22	350.000
216.59	120.000
216.97	-60.000
217.34	75.000
217.72	37.500
218.09	0.000
218.47	0.000
218.84	0.000
219.22	60.000
219.59	58.824
219.97	35.000
220.34	200.000
220.72	44.444
221.09	107.692
221.47	166.667
221.84	40.000
222.22	-28.571
222.59	0.000
222.97	-37.500
223.34	-200.000
223.72	400.000
224.09	0.000
224.46	-250.000
224.84	200.000
225.21	-142.857
225.59	-300.000
225.96	-125.000
226.34	30.769
226.71	100.000
227.08	-200.000
227.46	26.667
227.83	125.000
228.21	31.579
228.58	-37.500
228.95	350.000
229.33	83.333
229.70	-30.000
230.08	110.526
230.45	100.000
230.82	100.000
231.20	42.857
231.57	41.667
231.95	-27.273
232.32	-36.364
232.69	35.000
233.07	-50.000
233.44	-17.647
233.81	-70.000
234.19	72.222
234.56	31.818
234.93	68.966
235.31	47.368
235.68	-22.222
236.05	35.000
236.43	61.538
236.80	76.000
237.17	33.333
237.55	-6.061
237.92	-40.000
238.29	25.806
238.67	25.000
239.04	33.333
239.41	28.571
239.79	21.739
240.16	12.963
240.53	15.217
240.91	7.843
241.28	18.033
241.65	20.896
242.02	39.189
242.40	6.154
242.77	24.000
243.14	-1.220
243.51	23.684
243.89	21.795
244.26	19.802
244.63	18.627
245.00	20.561
245.38	23.684
245.75	9.735
246.12	24.603
246.49	20.155
246.87	17.143
247.24	25.166
247.61	24.342
247.98	17.450
248.36	16.049
248.73	13.497
249.10	25.137
249.47	20.896
249.84	21.466
250.22	24.352
250.59	26.667
250.96	23.182
251.33	19.388
251.70	20.085
252.08	21.667
252.45	21.311
252.82	19.008
253.19	14.844
253.56	22.053
253.94	18.077
254.31	23.485
254.68	22.727
255.05	26.710
255.42	17.007
255.79	18.447
256.16	21.192
256.54	18.543
256.91	20.000
257.28	16.393
257.65	16.242
258.02	17.994
258.39	21.652
258.76	24.465
259.14	25.287
259.51	19.885
259.88	20.397
260.25	21.111
260.62	20.822
260.99	23.497
261.36	24.665
261.73	20.424
262.10	22.253
262.47	23.056
262.85	22.980
263.22	22.338
263.59	18.421
263.96	22.762
264.33	23.785
264.70	21.728
265.07	24.105
265.44	24.490
265.81	21.065
266.18	23.810
266.55	21.875
266.92	20.957
267.29	22.538
267.66	22.616
268.03	22.926
268.40	20.668
268.77	19.362
269.14	18.502
269.51	21.711
269.88	22.131
270.25	20.926
270.62	22.996
270.99	22.828
271.36	20.000
271.73	19.450
272.10	24.048
272.47	21.643
272.84	22.088
273.21	22.244
273.58	20.766
273.95	21.346
274.32	18.821
274.69	19.729
275.06	23.077
275.43	19.778
275.80	20.282
276.17	18.889
276.54	18.284
276.91	20.930
277.28	19.892
277.65	19.928
278.02	18.382
278.39	20.833
278.76	20.035
279.13	20.035
279.50	20.103
279.87	20.394
280.23	17.606
280.60	20.000
280.97	20.559
281.34	20.374
281.71	20.305
282.08	19.103
282.45	20.622
282.82	19.780
283.19	20.194
283.56	20.492
283.92	20.270
284.29	22.275
284.66	19.869
285.03	19.071
285.40	23.493
285.77	20.588
286.14	18.626
286.51	19.330
286.87	20.379
287.24	21.084
287.61	17.788
287.98	20.846
288.35	19.822
288.72	19.379
289.08	19.912
289.45	18.047
289.82	18.072
290.19	19.109
290.56	20.282
290.93	18.545
291.29	18.871
291.66	17.493
292.03	17.775
292.40	19.456
292.77	17.385
293.13	17.456
293.50	17.083
293.87	17.181
294.24	18.933
294.60	17.573
294.97	18.792
295.34	18.950
295.71	17.024
296.08	18.217
296.44	18.015
296.81	17.296
297.18	16.936
297.55	16.627
297.91	17.675
298.28	16.351
298.65	19.263
299.02	18.064
299.38	17.162
299.75	18.458
300.12	17.014
300.48	16.590
300.85	15.861
301.22	18.345
301.59	16.096
301.95	18.079
302.32	17.222
302.69	17.744
303.05	16.757
303.42	17.073
303.79	17.708
304.15	17.455
304.52	18.816
304.89	16.963
305.25	17.288
305.62	17.346
305.99	17.835
306.35	17.339
306.72	18.718
307.09	17.259
307.45	17.288
307.82	17.659
308.19	17.760
308.55	18.515
308.92	17.332
309.29	16.858
309.65	16.667
310.02	17.723
310.38	18.110
310.75	18.932
311.12	18.408
311.48	18.377
311.85	18.898
312.22	18.501
312.58	18.404
312.95	19.216
313.31	18.790
313.68	18.956
314.05	20.325
314.41	18.670
314.78	20.163
315.14	20.327
315.51	19.945
315.87	19.352
316.24	20.913
316.61	21.137
316.97	19.910
317.34	18.871
317.70	20.873
318.07	20.547
318.43	21.429
318.80	20.819
319.16	20.086
319.53	19.880
319.89	19.457
320.26	20.107
320.62	20.390
320.99	20.499
321.35	21.534
321.72	21.860
322.08	20.739
322.45	20.958
322.81	22.022
323.18	21.504
323.54	21.466
323.91	23.221
324.27	21.687
324.64	23.426
325.00	22.388
325.37	21.704
325.73	23.388
326.10	22.952
326.46	23.941
326.83	25.140
327.19	22.677
327.56	22.688
327.92	23.210
328.29	23.306
328.65	23.953
329.01	24.873
329.38	24.010
329.74	23.973
330.11	25.171
330.47	25.021
330.84	24.203
331.20	24.667
331.56	23.397
331.93	24.603
332.29	24.068
332.66	24.917
333.02	23.283
333.38	23.993
333.75	24.074
334.11	24.187
334.48	24.752
334.84	24.469
335.20	23.426
335.57	24.115
335.93	24.215
336.29	24.376
336.66	24.643
337.02	24.833
337.38	24.065
337.75	24.545
338.11	24.643
338.47	24.069
338.84	24.027
339.20	22.831
339.56	23.723
339.93	24.138
340.29	23.671
340.65	24.088
341.02	23.943
341.38	24.980
341.74	24.455
342.11	23.733
342.47	22.955
342.83	24.396
343.20	24.939
343.56	23.577
343.92	24.500
344.28	23.359
344.65	24.031
345.01	24.415
345.37	23.095
345.73	23.227
346.10	24.493
346.46	23.101
346.82	24.494
347.19	24.523
347.55	24.507
347.91	24.368
348.27	23.369
348.63	23.382
349.00	23.341
349.36	22.900
349.72	23.438
350.08	23.626
350.45	24.183
350.81	23.454
351.17	24.060
351.53	23.882
351.89	23.918
352.26	23.284
352.62	23.731
352.98	23.740
353.34	23.525
353.70	23.498
354.07	22.802
354.43	23.690
354.79	24.682
355.15	24.283
355.51	25.073
355.87	22.962
356.24	23.726
356.60	23.134
356.96	23.647
357.32	23.271
357.68	22.767
358.04	23.653
358.40	23.507
358.77	23.977
359.13	23.708
359.49	23.346
359.85	23.785
360.21	22.884
360.57	23.475
360.93	22.073
361.29	23.368
361.66	23.606
362.02	23.452
362.38	24.315
362.74	23.673
363.10	24.278
363.46	23.892
363.82	23.366
364.18	23.786
364.54	23.928
364.90	23.679
365.26	24.000
365.62	24.733
365.98	23.826
366.35	23.356
366.71	24.150
367.07	24.357
367.43	24.360
367.79	24.818
368.15	23.880
368.51	23.748
368.87	24.037
369.23	24.000
369.59	23.770
369.95	23.462
370.31	24.781
370.67	23.865
371.03	24.238
371.39	23.573
371.75	24.140
372.11	24.322
372.47	24.374
372.83	24.607
373.19	23.949
373.55	24.593
373.91	23.517
374.27	23.480
374.63	25.507
374.99	23.939
375.35	25.195
375.71	24.774
376.07	24.790
376.42	25.378
376.78	23.990
377.14	24.205
377.50	25.237
377.86	25.431
378.22	24.371
378.58	24.792
378.94	24.472
379.30	24.605
379.66	24.397
380.02	24.928
380.38	25.691
380.74	26.028
381.09	25.087
381.45	25.114
381.81	24.766
382.17	25.772
382.53	26.023
382.89	25.508
383.25	26.377
383.61	25.058
383.97	25.442
384.32	26.017
384.68	25.000
385.04	25.911
385.40	26.223
385.76	25.850
386.12	26.391
386.48	26.706
386.83	26.162
387.19	26.130
387.55	26.115
387.91	25.856
388.27	26.732
388.62	26.060
388.98	26.058
389.34	26.576
389.70	26.206
390.06	25.873
390.42	25.723
390.77	27.152
391.13	26.702
391.49	27.838
391.85	27.030
392.20	26.928
392.56	27.053
392.92	26.772
393.28	27.142
393.64	26.592
393.99	27.775
394.35	27.336
394.71	28.144
395.07	27.006
395.42	27.299
395.78	27.910
396.14	27.392
396.50	27.494
396.85	27.191
397.21	27.219
397.57	27.444
397.92	27.892
398.28	27.485
398.64	26.430
399.00	26.859
399.35	27.801
399.71	26.957
400.07	27.120
400.42	27.299
400.78	27.894
401.14	27.262
401.49	28.027
401.85	28.198
402.21	29.027
402.57	28.932
402.92	29.137
403.28	27.576
403.63	28.341
403.99	26.960
404.35	27.800
404.70	28.442
405.06	27.989
405.42	28.571
405.77	28.790
406.13	28.741
406.49	28.378
406.84	28.476
407.20	28.787
407.55	28.407
407.91	29.478
408.27	28.740
408.62	29.727
408.98	29.600
409.34	29.384
409.69	29.975
410.05	29.719
410.40	29.640
410.76	29.164
411.11	29.632
411.47	29.668
411.83	29.394
412.18	30.482
412.54	30.231
412.89	29.278
413.25	28.950
413.60	28.030
413.96	29.837
414.31	29.178
414.67	29.875
415.03	28.800
415.38	29.887
415.74	29.750
416.09	29.858
416.45	29.493
416.80	29.070
417.16	30.587
417.51	29.701
417.87	30.411
418.22	29.701
418.58	29.368
418.93	30.850
419.29	30.025
419.64	30.312
420.00	29.674
420.35	30.095
420.71	30.557
421.06	29.902
421.42	30.390
421.77	28.918
422.12	29.968
422.48	30.108
422.83	30.778
423.19	30.557
423.54	31.250
423.90	30.260
424.25	30.667
424.61	30.195
424.96	30.862
425.31	31.316
425.67	30.757
426.02	30.437
426.38	30.999
426.73	30.915
427.09	31.142
427.44	30.366
427.79	30.569
428.15	30.651
428.50	30.449
428.85	30.253
429.21	30.638
429.56	30.355
429.92	30.221
430.27	30.410
430.62	30.581
430.98	30.694
431.33	30.401
431.68	30.029
432.04	30.625
432.39	30.959
432.74	30.537
433.10	31.314
433.45	29.543
433.80	30.794
434.16	30.940
434.51	30.935
434.86	32.193
435.22	31.828
435.57	32.017
435.92	30.607
436.28	30.944
436.63	31.404
436.98	31.133
437.34	30.327
437.69	31.040
438.04	30.936
438.39	31.017
438.75	30.825
439.10	31.554
439.45	30.520
439.81	31.525
440.16	29.973
440.51	31.271
440.86	30.906
441.22	30.332
441.57	30.818
441.92	30.989
442.27	30.859
442.63	30.601
442.98	31.644
443.33	30.405
443.68	30.674
444.03	31.938
444.39	31.623
444.74	31.394
445.09	30.512
445.44	30.242
445.79	31.082
446.15	30.781
446.50	30.388
446.85	30.545
447.20	31.625
447.55	31.328
447.91	31.361
448.26	30.761
448.61	30.712
448.96	31.599
449.31	30.223
449.66	30.610
450.02	31.013
450.37	31.273
450.72	32.185
451.07	30.979
451.42	30.445
451.77	30.628
452.12	31.038
452.47	31.075
452.83	32.827
453.18	30.706
453.53	31.017
453.88	31.088
454.23	31.582
454.58	30.934
454.93	30.643
455.28	31.848
455.63	31.097
455.98	31.341
456.34	30.860
456.69	30.747
457.04	31.678
457.39	31.486
457.74	31.152
458.09	31.082
458.44	31.196
458.79	30.634
459.14	30.572
459.49	32.598
459.84	31.952
460.19	30.761
460.54	31.289
460.89	30.598
461.24	31.034
461.59	31.821
461.94	29.949
462.29	31.523
462.64	31.080
462.99	31.011
463.34	31.603
463.69	29.953
464.04	31.295
464.39	31.446
464.74	30.331
465.09	31.892
465.44	31.170
465.79	31.465
466.14	31.318
466.49	31.053
466.84	31.185
467.19	31.040
467.54	29.906
467.89	31.322
468.24	31.080
468.59	30.805
468.94	29.662
469.29	31.074
469.64	30.960
469.99	30.975
470.34	30.755
470.68	31.716
471.03	30.976
471.38	32.112
471.73	31.404
472.08	30.838
472.43	31.126
472.78	32.935
473.13	31.542
473.48	31.601
473.83	31.863
474.17	31.594
474.52	31.329
474.87	31.118
475.22	32.000
475.57	30.478
475.92	31.259
476.27	30.990
476.61	29.958
476.96	31.335
477.31	30.941
477.66	32.476
478.01	30.910
478.36	30.758
478.70	31.330
479.05	32.362
479.40	32.379
479.75	32.085
480.10	31.217
480.45	30.629
480.79	31.474
481.14	30.285
481.49	30.532
481.84	31.767
482.19	30.667
482.53	31.526
482.88	30.616
483.23	31.169
483.58	30.044
483.92	30.363
484.27	30.567
484.62	30.652
484.97	30.482
485.31	30.693
485.66	29.247
486.01	28.015
486.36	28.226
486.70	29.271
487.05	30.309
487.40	30.346
487.75	30.127
488.09	30.037
488.44	29.963
488.79	30.287
489.13	30.087
489.48	29.864
489.83	30.785
490.17	29.486
490.52	29.844
490.87	31.091
491.22	31.716
491.56	30.930
491.91	31.138
492.26	30.852
492.60	31.220
492.95	31.505
493.30	30.793
493.64	30.837
493.99	30.132
494.34	30.575
494.68	29.936
495.03	30.793
495.37	31.380
495.72	30.567
496.07	31.157
496.41	30.502
496.76	30.776
497.11	30.616
497.45	30.816
497.80	30.386
498.14	31.020
498.49	31.066
498.84	31.353
499.18	31.039
499.53	31.166
499.87	31.121
500.22	31.033
500.56	30.679
500.91	30.709
501.26	31.500
501.60	30.535
501.95	30.004
502.29	30.715
502.64	31.176
502.98	30.544
503.33	30.626
503.67	30.484
504.02	30.166
504.36	31.144
504.71	30.501
505.06	29.695
505.40	30.302
505.75	30.146
506.09	31.630
506.44	31.569
506.78	31.422
507.13	31.766
507.47	31.644
507.82	30.303
508.16	30.880
508.51	31.505
508.85	30.846
509.19	31.549
509.54	31.364
509.88	31.083
510.23	31.423
510.57	31.416
510.92	30.818
511.26	31.361
511.61	30.420
511.95	30.698
512.30	31.561
512.64	30.685
512.98	31.216
513.33	31.855
513.67	30.954
514.02	31.017
514.36	31.407
514.70	30.990
515.05	31.491
515.39	31.129
515.74	32.344
516.08	32.541
516.42	32.758
516.77	31.598
517.11	30.789
517.46	31.230
517.80	32.122
518.14	32.427
518.49	32.321
518.83	31.240
519.17	29.995
519.52	31.866
519.86	31.521
520.20	31.523
520.55	32.202
520.89	31.700
521.23	31.212
521.58	32.090
521.92	30.822
522.26	30.813
522.61	32.407
522.95	32.699
523.29	32.069
523.64	32.007
523.98	32.915
524.32	32.665
524.66	32.100
525.01	30.974
525.35	32.567
525.69	31.787
526.04	30.023
526.38	32.299
526.72	31.373
527.06	31.730
527.41	31.895
527.75	33.492
528.09	32.527
528.43	32.268
528.78	30.636
529.12	30.849
529.46	31.703
529.80	31.465
530.15	32.116
530.49	30.783
530.83	31.346
531.17	32.318
531.51	31.709
531.86	32.332
532.20	32.439
532.54	31.299
532.88	32.970
533.22	31.114
533.57	31.679
533.91	31.257
534.25	31.882
534.59	31.437
534.93	30.560
535.27	31.549
535.62	31.723
535.96	31.842
536.30	31.845
536.64	32.012
536.98	32.411
537.32	31.852
537.66	31.628
538.01	30.091
538.35	31.547
538.69	31.130
539.03	31.882
539.37	30.506
539.71	31.652
540.05	31.235
540.39	31.296
540.73	31.390
541.07	32.189
541.42	31.187
541.76	30.961
542.10	30.579
542.44	31.547
542.78	30.596
543.12	30.751
543.46	31.746
543.80	30.096
544.14	30.940
544.48	31.265
544.82	31.478
545.16	30.710
545.50	30.437
545.84	30.496
546.18	32.654
546.52	31.847
546.86	30.629
547.20	31.807
547.54	31.523
547.88	30.440
548.22	31.111
548.56	30.895
548.90	31.403
549.24	31.854
549.58	32.114
549.92	31.250
550.26	31.392
550.60	31.780
550.94	31.824
551.28	31.815
551.62	31.334
551.96	31.456
552.30	31.485
552.64	30.429
552.98	31.067
553.32	32.026
553.66	30.740
554.00	31.589
554.34	31.467
554.68	30.148
555.02	31.340
555.36	31.164
555.69	30.045
556.03	30.580
556.37	31.039
556.71	30.628
557.05	31.629
557.39	30.591
557.73	30.581
558.07	30.795
558.41	31.229
558.75	31.034
559.08	32.150
559.42	29.835
559.76	30.868
560.10	29.806
560.44	31.003
560.78	30.625
561.12	31.281
561.45	30.961
561.79	30.464
562.13	31.238
562.47	31.011
562.81	30.253
563.15	30.871
563.48	30.205
563.82	30.169
564.16	30.466
564.50	30.334
564.84	30.324
565.17	30.529
565.51	29.747
565.85	30.344
566.19	29.378
566.52	30.252
566.86	30.051
567.20	29.636
567.54	29.740
567.88	29.715
568.21	28.656
568.55	29.353
568.89	30.277
569.23	28.179
569.56	28.800
569.90	28.297
570.24	28.061
570.57	27.453
570.91	27.557
571.25	27.741
571.59	27.498
571.92	27.265
572.26	26.469
572.60	27.191
572.93	27.414
573.27	27.142
573.61	27.554
573.95	27.385
574.28	26.699
574.62	26.603
574.96	26.687
575.29	26.526
575.63	26.565
575.97	26.922
576.30	26.425
576.64	26.199
576.98	26.333
577.31	26.675
577.65	26.042
577.98	26.242
578.32	25.777
578.66	25.801
578.99	26.152
579.33	26.590
579.67	25.589
580.00	26.208
580.34	26.418
580.67	25.927
581.01	26.028
581.35	25.989
581.68	25.643
582.02	25.554
582.35	26.110
582.69	26.274
583.02	26.089
583.36	26.576
583.70	26.335
584.03	26.350
584.37	26.561
584.70	26.137
585.04	25.692
585.37	25.829
585.71	25.847
586.04	25.672
586.38	26.161
586.72	25.821
587.05	25.684
587.39	25.879
587.72	26.531
588.06	25.919
588.39	26.263
588.73	26.376
589.06	26.270
589.40	26.951
589.73	26.703
590.07	26.923
590.40	26.809
590.73	26.440
591.07	27.029
591.40	26.750
591.74	26.550
592.07	27.527
592.41	26.774
592.74	26.021
593.08	26.306
593.41	26.072
593.75	25.747
594.08	26.507
594.41	26.186
594.75	26.204
595.08	25.942
595.42	26.623
595.75	26.510
596.09	26.906
596.42	26.191
596.75	26.592
597.09	27.152
597.42	26.460
597.75	26.421
598.09	26.944
598.42	27.624
598.76	26.748
599.09	25.418
599.42	25.478
599.76	25.454
600.09	25.726
600.42	25.993
600.76	25.826
601.09	26.220
601.42	25.815
601.76	26.241
602.09	25.804
602.42	25.336
602.76	25.277
603.09	25.734
603.42	26.228
603.76	25.405
604.09	26.544
604.42	26.385
604.76	26.218
605.09	25.848
605.42	26.077
605.75	25.731
606.09	26.054
606.42	25.684
606.75	25.525
607.09	25.230
607.42	25.742
607.75	26.417
608.08	26.085
608.42	25.756
608.75	26.327
609.08	25.849
609.41	26.599
609.75	25.893
610.08	26.253
610.41	25.956
610.74	26.134
611.07	26.732
611.41	26.188
611.74	26.328
612.07	26.788
612.40	26.331
612.73	26.210
613.07	25.966
613.40	26.323
613.73	25.951
614.06	27.134
614.39	26.288
614.72	25.861
615.06	25.602
615.39	25.955
615.72	25.735
616.05	25.983
616.38	26.842
616.71	27.064
617.05	25.453
617.38	27.341
617.71	26.728
618.04	26.444
618.37	26.995
618.70	27.376
619.03	25.806
619.36	27.435
619.69	26.521
620.03	26.742
620.36	26.196
620.69	26.527
621.02	27.034
621.35	28.592
621.68	27.910
622.01	26.975
622.34	26.848
622.67	26.529
623.00	25.641
623.33	27.140
623.66	27.756
623.99	25.872
624.32	26.901
624.65	26.126
624.99	27.048
625.32	28.217
625.65	26.972
625.98	26.441
626.31	27.498
626.64	26.960
626.97	27.232
627.30	26.272
627.63	27.082
627.96	27.628
628.29	27.471
628.62	28.463
628.95	29.010
629.28	29.567
629.61	29.125
629.94	27.782
630.26	27.034
630.59	27.634
630.92	28.225
631.25	29.070
631.58	28.719
631.91	28.210
632.24	27.762
632.57	27.514
632.90	28.987
633.23	29.184
633.56	27.245
633.89	29.649
634.22	29.834
634.55	28.810
634.88	28.788
635.20	30.355
635.53	28.927
635.86	30.444
636.19	28.950
636.52	29.430
636.85	28.192
637.18	27.963
637.51	29.355
637.83	29.790
638.16	30.415
638.49	28.404
638.82	28.298
639.15	28.293
639.48	31.178
639.81	28.753
640.13	29.682
640.46	28.000
640.79	27.083
641.12	30.311
641.45	28.984
641.77	31.964
642.10	28.609
642.43	31.649
642.76	30.081
643.09	28.767
643.41	30.532
643.74	28.828
644.07	30.483
644.40	30.552
644.73	29.898
645.05	28.634
645.38	29.640
645.71	29.179
646.04	30.846
646.36	29.489
646.69	31.442
647.02	32.263
647.35	30.992
647.67	31.401
648.00	30.096
648.33	30.180
648.66	30.813
648.98	27.347
649.31	29.229
649.64	29.349
649.96	29.708
650.29	28.234
650.62	28.006
650.94	31.532
651.27	26.497
651.60	29.094
651.92	28.116
652.25	29.233
652.58	28.336
652.90	26.744
653.23	28.451
653.56	28.816
653.88	31.320
654.21	26.338
654.54	29.913
654.86	29.178
655.19	27.604
655.52	25.459
655.84	21.722
656.17	25.176
656.49	35.803
656.82	39.416
657.15	30.827
657.47	23.577
657.80	17.396
658.13	13.748
658.45	17.966
658.78	21.938
659.10	21.288
659.43	21.305
659.75	22.051
660.08	21.064
660.41	23.490
660.73	25.200
661.06	25.991
661.38	27.113
661.71	27.241
662.03	32.099
662.36	30.054
662.68	30.394
663.01	29.735
663.33	28.544
663.66	30.769
663.98	29.038
664.31	30.019
664.63	26.590
664.96	30.309
665.28	26.679
665.61	31.643
665.93	26.607
666.26	28.136
666.58	29.520
666.91	27.850
667.23	29.143
667.56	28.008
667.88	30.800
668.21	29.688
668.53	29.923
668.86	29.273
669.18	29.735
669.50	30.219
669.83	29.200
670.15	28.150
670.48	28.373
670.80	26.577
671.13	28.922
671.45	29.331
671.77	30.697
672.10	27.000
672.42	24.919
672.75	26.267
673.07	25.970
673.39	26.502
673.72	27.181
674.04	27.586
674.37	29.517
674.69	28.042
675.01	26.667
675.34	27.481
675.66	29.588
675.98	26.866
676.31	27.539
676.63	27.567
676.95	27.203
677.28	29.032
677.60	27.559
677.92	28.023
678.25	27.788
678.57	30.249
678.89	28.157
679.22	26.481
679.54	26.325
679.86	25.593
680.18	25.373
680.51	26.887
680.83	26.514
681.15	26.379
681.48	25.907
681.80	27.116
682.12	26.399
682.44	25.876
682.77	27.660
683.09	26.515
683.41	29.070
683.73	25.617
684.06	27.675
684.38	26.297
684.70	28.546
685.02	28.571
685.34	24.459
685.67	24.763
685.99	25.153
686.31	22.529
686.63	25.908
686.96	25.552
687.28	26.221
687.60	25.253
687.92	25.402
688.24	25.042
688.56	23.621
688.89	26.134
689.21	30.137
689.53	23.922
689.85	26.233
690.17	25.926
690.49	26.494
690.82	26.535
691.14	27.935
691.46	27.342
691.78	26.703
692.10	26.055
692.42	23.571
692.74	25.771
693.06	20.370
693.39	26.376
693.71	25.000
694.03	25.465
694.35	25.714
694.67	26.283
694.99	26.809
695.31	25.386
695.63	27.706
695.95	24.017
696.27	27.033
696.59	27.655
696.91	28.153
697.23	30.110
697.56	26.069
697.88	23.106
698.20	24.670
698.52	28.220
698.84	25.988
699.16	24.490
699.48	26.151
699.80	23.404
700.12	25.983
700.44	27.419
700.76	27.316
701.08	24.697
701.40	26.684
701.72	25.373
702.04	28.075
702.36	23.560
702.68	27.384
703.00	23.961
703.32	22.167
703.64	27.384
703.96	27.924
704.28	25.307
704.60	28.354
704.91	28.061
705.23	27.671
705.55	23.677
705.87	24.545
706.19	29.755
706.51	28.313
706.83	25.937
707.15	26.190
707.47	25.234
707.79	25.546
708.11	22.458
708.43	21.720
708.74	22.098
709.06	25.522
709.38	26.291
709.70	26.799
710.02	26.357
710.34	26.330
710.66	25.698
710.98	25.137
711.29	26.374
711.61	26.836
711.93	26.211
712.25	25.946
712.57	32.153
712.89	29.412
713.20	24.556
713.52	28.324
713.84	23.120
714.16	25.000
714.48	25.000
714.80	23.117
715.11	22.835
715.43	22.016
715.75	25.000
716.07	25.691
716.39	27.322
716.70	23.193
717.02	24.590
717.34	26.132
717.66	24.161
717.97	21.575
718.29	26.117
718.61	24.013
718.93	27.508
719.24	26.398
719.56	28.834
719.88	22.523
720.20	24.839
720.51	26.708
720.83	23.438
721.15	22.039
721.46	21.233
721.78	27.667
722.10	25.566
722.42	24.161
722.73	27.097
723.05	25.263
723.37	26.389
723.68	26.523
724.00	25.271
724.32	26.056
724.63	25.175
724.95	30.496
725.27	25.784
725.58	21.908
725.90	32.069
726.22	21.317
726.53	21.753
726.85	26.415
727.16	25.378
727.48	31.193
727.80	26.490
728.11	22.968
728.43	26.936
728.74	26.756
729.06	21.192
729.38	25.325
729.69	22.148
730.01	22.917
730.32	21.515
730.64	20.126
730.96	20.807
731.27	27.933
731.59	24.451
731.90	22.857
732.22	21.094
732.53	19.337
732.85	21.714
733.16	23.460
733.48	20.732
733.80	22.841
734.11	22.507
734.43	21.622
734.74	23.544
735.06	21.859
735.37	22.432
735.69	23.514
736.00	19.774
736.32	23.720
736.63	22.778
736.95	22.701
737.26	24.848
737.58	19.091
737.89	23.235
738.21	20.795
738.52	21.639
738.83	23.549
739.15	25.177
739.46	23.469
739.78	23.926
740.09	21.490
740.41	24.781
740.72	22.667
741.04	22.006
741.35	21.754
741.66	20.784
741.98	27.459
742.29	23.849
742.61	26.754
742.92	23.846
743.23	22.383
743.55	25.194
743.86	25.200
744.18	23.554
744.49	21.097
744.80	23.045
745.12	27.004
745.43	27.236
745.74	23.276
746.06	23.305
746.37	27.004
746.68	26.829
747.00	19.167
747.31	24.034
747.62	27.308
747.94	23.077
748.25	20.482
748.56	22.449
748.88	23.077
749.19	32.328
749.50	25.541
749.82	27.309
750.13	25.623
750.44	19.333
750.75	24.308
751.07	21.538
751.38	21.136
751.69	20.447
752.01	20.065
752.32	19.935
752.63	21.088
752.94	21.107
753.26	27.138
753.57	18.889
753.88	22.472
754.19	20.579
754.51	20.900
754.82	23.473
755.13	23.607
755.44	23.549
755.75	20.395
756.07	24.776
756.38	18.553
756.69	21.386
757.00	18.560
757.31	18.306
757.63	19.693
757.94	18.310
758.25	20.767
758.56	18.083
758.87	23.182
759.18	20.800
759.50	23.229
759.81	19.608
760.12	20.755
760.43	21.094
760.74	22.414
761.05	19.000
761.36	20.482
761.67	16.751
761.99	18.378
762.30	19.817
762.61	22.442
762.92	20.896
763.23	23.970
763.54	23.741
763.85	21.649
764.16	24.242
764.47	21.127
764.78	22.684
765.10	18.768
765.41	21.282
765.72	21.164
766.03	18.079
766.34	19.749
766.65	19.512
766.96	21.912
767.27	21.198
767.58	20.896
767.89	26.923
768.20	28.169
768.51	18.056
768.82	21.285
769.13	22.727
769.44	20.385
769.75	22.383
770.06	21.538
770.37	23.228
770.68	18.298
770.99	17.004
771.30	27.037
771.61	20.913
771.92	18.889
772.23	25.101
772.54	19.907
772.85	21.198
773.16	22.381
773.47	19.048
773.78	24.324
774.09	21.023
774.39	27.500
774.70	24.590
775.01	18.902
775.32	18.235
775.63	22.699
775.94	13.376
776.25	26.452
776.56	31.410
776.87	25.170
777.18	28.966
777.48	21.678
777.79	24.324
778.10	17.647
778.41	26.389
778.72	26.207
779.03	19.753
779.34	24.242
779.65	16.580
779.95	29.444
780.26	17.045
780.57	27.742
780.88	28.986
781.19	20.000
781.50	29.412
781.80	22.043
782.11	23.280
782.42	18.182
782.73	18.563
783.04	20.112
783.34	14.545
783.65	16.993
783.96	17.391
784.27	18.452
784.57	21.854
784.88	22.143
785.19	25.197
785.50	25.197
785.81	18.045
786.11	22.308
786.42	15.108
786.73	17.266
787.04	24.812
787.34	21.311
787.65	19.200
787.96	20.896
788.26	28.671
788.57	23.077
788.88	19.737
789.19	22.876
789.49	17.123
789.80	24.113
790.11	22.047
790.41	10.938
790.72	22.881
791.03	12.621
791.33	16.522
791.64	21.053
791.95	17.857
792.25	20.000
792.56	17.857
792.87	15.625
793.17	26.786
793.48	11.458
793.79	14.458
794.09	12.844
794.40	18.349
794.70	19.728
795.01	14.935
795.32	19.178
795.62	14.789
795.93	10.606
796.23	26.230
796.54	18.750
796.85	21.277
797.15	15.217
797.46	10.959
797.76	17.500
798.07	18.478
798.37	12.371
798.68	16.883
798.99	12.644
799.29	20.225
799.60	23.404
799.90	33.735
800.21	10.769
800.51	28.358
800.82	10.294
801.12	5.479
801.43	20.588
801.73	16.949
802.04	18.182
802.34	5.000
802.65	20.339
802.95	34.328
803.26	13.559
803.56	13.699
803.87	30.000
804.17	23.288
804.48	21.053
804.78	15.278
805.09	1.724
805.39	22.973
805.70	4.225
806.00	23.171
806.30	20.482
806.61	13.699
806.91	18.269
807.22	21.111
807.52	14.943
807.83	20.833
808.13	20.482
808.43	13.483
808.74	28.750
809.04	10.294
809.35	17.333
809.65	15.714
809.95	24.658
810.26	15.789
810.56	13.793
810.86	23.529
811.17	26.316
811.47	11.475
811.77	-20.000
812.08	23.729
812.38	28.333
812.69	20.690
812.99	11.321
813.29	2.564
813.59	16.000
813.90	36.842
814.20	27.273
814.50	29.577
814.81	23.077
815.11	22.951
815.41	22.388
815.72	24.138
816.02	19.643
816.32	17.778
816.62	36.364
816.93	11.111
817.23	24.074
817.53	17.021
817.84	40.476
818.14	23.529
818.44	30.612
818.74	24.444
819.04	-15.385
819.35	25.714
819.65	-42.308
819.95	24.528
820.25	22.222
820.56	-2.381
820.86	31.250
821.16	7.692
821.46	6.977
821.76	4.000
822.07	23.214
822.37	-2.174
822.67	10.638
822.97	-5.405
823.27	27.500
823.57	30.612
823.88	44.444
824.18	32.500
824.48	10.000
824.78	8.000
825.08	-6.061
825.38	26.667
825.69	34.043
825.99	13.889
826.29	-17.143
826.59	12.821
826.89	16.279
827.19	12.000
827.49	17.647
827.79	20.833
828.09	-2.703
828.39	13.333
828.70	12.195
829.00	25.581
829.30	-21.429
829.60	47.059
829.90	26.087
830.20	11.429
830.50	20.690
830.80	5.556
831.10	7.692
831.40	14.706
831.70	9.524
832.00	35.484
832.30	-35.294
832.60	8.333
832.90	-38.462
833.20	10.526
833.50	-10.000
833.80	-31.579
834.10	-19.048
834.40	25.000
834.70	34.375
835.00	-28.571
835.30	29.412
835.60	33.333
835.90	4.000
836.20	22.727
836.50	24.000
836.80	-6.061
837.10	7.407
837.40	-11.111
837.70	-56.250
838.00	42.857
838.30	13.043
838.60	17.241
838.90	7.143
839.19	-17.391
839.49	-8.333
839.79	-4.348
840.09	0.000
840.39	-15.000
840.69	16.129
840.99	3.571
841.29	-13.333
841.59	47.368
841.88	51.282
842.18	-11.538
842.48	-60.000
842.78	35.000
843.08	33.333
843.38	35.484
843.68	-22.222
843.97	35.294
844.27	12.500
844.57	0.000
844.87	-60.000
845.17	20.000
845.47	28.571
845.76	-14.286
846.06	-33.333
846.36	-11.765
846.66	15.385
846.96	-6.667
847.25	-58.824
847.55	69.565
847.85	10.000
848.15	0.000
848.44	-54.545
848.74	33.333
849.04	-4.167
849.34	-12.500
849.63	26.087
849.93	700.000
850.23	6.667
850.53	19.231
850.82	9.091
851.12	63.636
851.42	-18.182
851.71	46.154
852.01	-60.000
852.31	38.462
852.61	15.789
852.90	0.000
853.20	33.333
853.50	-88.889
853.79	4.762
854.09	-27.273
854.39	-25.000
854.68	6.452
854.98	7.692
855.28	22.222
855.57	-3.571
855.87	40.000
856.17	13.636
856.46	33.333
856.76	38.889
857.05	4.348
857.35	-4.167
857.65	-38.462
857.94	23.810
858.24	59.259
858.53	4.348
858.83	-5.882
859.13	-23.529
859.42	23.529
859.72	21.429
860.01	-10.000
860.31	-77.778
860.60	30.000
860.90	13.333
861.20	5.556
861.49	23.077
861.79	10.000
862.08	0.000
862.38	21.875
862.67	5.882
862.97	25.000
863.26	-22.222
863.56	30.000
863.85	0.000
864.15	38.889
864.44	0.000
864.74	-35.714
865.03	25.000
865.33	-120.000
865.62	-3.226
865.92	63.636
866.21	43.478
866.51	14.286
866.80	-40.000
867.10	-8.333
867.39	33.333
867.69	500.000
867.98	71.429
868.27	88.235
868.57	-1000.000
868.86	-90.000
869.16	-23.810
869.45	41.667
869.75	18.182
870.04	-71.429
870.33	-33.333
870.63	-100.000
870.92	125.000
871.22	-50.000
871.51	-27.273
871.80	-333.333
872.10	0.000
>>>>>End Processed Spectral Data<<<<<
