SpectraSuite Data File
++++++++++++++++++++++++++++++++++++
Date: Thu May 14 16:34:21 PDT 2015
User: schluterlab
Dark Spectrum Present: Yes
Reference Spectrum Present: Yes
Number of Sampled Component Spectra: 1
Spectrometers: USB2E3373
Integration Time (usec): 3000 (USB2E3373)
Spectra Averaged: 3 (USB2E3373)
Boxcar Smoothing: 0 (USB2E3373)
Correct for Electrical Dark: No (USB2E3373)
Strobe/Lamp Enabled: No (USB2E3373)
Correct for Detector Non-linearity: No (USB2E3373)
Correct for Stray Light: No (USB2E3373)
Number of Pixels in Processed Spectrum: 2048
>>>>>Begin Processed Spectral Data<<<<<
178.53	0.000
178.91	42.857
179.29	-1300.000
179.67	-800.000
180.04	142.857
180.42	20.000
180.80	260.000
181.18	-600.000
181.56	500.000
181.94	-150.000
182.31	-75.000
182.69	333.333
183.07	-50.000
183.45	200.000
183.83	33.333
184.20	133.333
184.58	-1300.000
184.96	-275.000
185.34	-100.000
185.72	20.000
186.09	144.444
186.47	100.000
186.85	460.000
187.23	-33.333
187.61	-600.000
187.98	-0.000
188.36	175.000
188.74	-300.000
189.12	-233.333
189.49	-12.500
189.87	-150.000
190.25	44.444
190.63	20.000
191.00	-111.111
191.38	0.000
191.76	25.000
192.14	16.667
192.51	50.000
192.89	66.667
193.27	0.000
193.65	-57.143
194.02	-1400.000
194.40	-85.714
194.78	100.000
195.15	0.000
195.53	18.182
195.91	0.000
196.29	-50.000
196.66	-30.769
197.04	-900.000
197.42	-14.286
197.79	-100.000
198.17	-37.500
198.55	14.286
198.92	100.000
199.30	-87.500
199.68	45.455
200.05	57.143
200.43	-400.000
200.81	57.143
201.18	0.000
201.56	166.667
201.94	0.000
202.31	466.667
202.69	-133.333
203.07	-200.000
203.44	44.444
203.82	-200.000
204.19	-33.333
204.57	0.000
204.95	-75.000
205.32	-700.000
205.70	-75.000
206.08	83.333
206.45	83.333
206.83	300.000
207.20	-33.333
207.58	-60.000
207.96	-100.000
208.33	116.667
208.71	-25.000
209.08	33.333
209.46	0.000
209.84	150.000
210.21	250.000
210.59	250.000
210.96	400.000
211.34	-300.000
211.71	-12.500
212.09	-200.000
212.46	0.000
212.84	1050.000
213.22	-320.000
213.59	-100.000
213.97	0.000
214.34	-300.000
214.72	100.000
215.09	-150.000
215.47	0.000
215.84	128.571
216.22	200.000
216.59	-80.000
216.97	-100.000
217.34	-200.000
217.72	-25.000
218.09	50.000
218.47	-200.000
218.84	0.000
219.22	-40.000
219.59	-11.765
219.97	40.000
220.34	750.000
220.72	-44.444
221.09	69.231
221.47	-66.667
221.84	-10.000
222.22	-228.571
222.59	0.000
222.97	50.000
223.34	-160.000
223.72	-400.000
224.09	-75.000
224.46	-50.000
224.84	100.000
225.21	-57.143
225.59	-250.000
225.96	-50.000
226.34	34.615
226.71	266.667
227.08	50.000
227.46	13.333
227.83	-275.000
228.21	15.789
228.58	25.000
228.95	250.000
229.33	50.000
229.70	30.000
230.08	31.579
230.45	100.000
230.82	-300.000
231.20	28.571
231.57	-33.333
231.95	-27.273
232.32	-72.727
232.69	-20.000
233.07	175.000
233.44	-5.882
233.81	-10.000
234.19	61.111
234.56	36.364
234.93	41.379
235.31	42.105
235.68	-5.556
236.05	45.000
236.43	50.000
236.80	44.000
237.17	22.222
237.55	24.242
237.92	-60.000
238.29	9.677
238.67	6.818
239.04	27.778
239.41	19.048
239.79	28.261
240.16	27.778
240.53	45.652
240.91	27.451
241.28	19.672
241.65	47.761
242.02	51.351
242.40	26.154
242.77	28.000
243.14	23.171
243.51	23.684
243.89	30.769
244.26	42.574
244.63	38.235
245.00	30.841
245.38	34.211
245.75	23.894
246.12	29.365
246.49	31.008
246.87	33.571
247.24	23.841
247.61	38.816
247.98	36.242
248.36	46.296
248.73	34.969
249.10	30.601
249.47	44.776
249.84	42.408
250.22	32.642
250.59	36.111
250.96	33.182
251.33	30.102
251.70	37.607
252.08	36.250
252.45	36.066
252.82	32.231
253.19	30.469
253.56	39.544
253.94	35.000
254.31	39.773
254.68	39.510
255.05	36.482
255.42	36.395
255.79	35.275
256.16	36.755
256.54	37.748
256.91	34.098
257.28	35.738
257.65	35.350
258.02	35.398
258.39	35.613
258.76	37.920
259.14	37.644
259.51	38.905
259.88	35.127
260.25	31.667
260.62	38.356
260.99	37.978
261.36	37.534
261.73	39.257
262.10	38.736
262.47	37.534
262.85	39.394
263.22	36.104
263.59	32.632
263.96	36.061
264.33	35.550
264.70	38.765
265.07	40.811
265.44	37.415
265.81	36.806
266.18	35.147
266.55	35.491
266.92	36.219
267.29	36.543
267.66	38.581
268.03	36.026
268.40	36.743
268.77	35.308
269.14	37.225
269.51	35.965
269.88	36.680
270.25	36.016
270.62	40.717
270.99	37.778
271.36	37.030
271.73	36.149
272.10	36.874
272.47	35.070
272.84	37.550
273.21	35.070
273.58	36.492
273.95	35.769
274.32	35.551
274.69	31.721
275.06	37.912
275.43	33.457
275.80	32.981
276.17	34.444
276.54	36.007
276.91	34.884
277.28	34.720
277.65	34.470
278.02	37.500
278.39	33.514
278.76	33.392
279.13	35.106
279.50	35.739
279.87	34.884
280.23	32.218
280.60	33.729
280.97	34.704
281.34	35.654
281.71	34.349
282.08	35.880
282.45	32.570
282.82	33.595
283.19	33.118
283.56	33.443
283.92	35.435
284.29	34.597
284.66	34.647
285.03	33.173
285.40	34.467
285.77	33.437
286.14	33.435
286.51	32.572
286.87	33.649
287.24	32.530
287.61	31.689
287.98	30.665
288.35	32.544
288.72	32.988
289.08	31.186
289.45	31.509
289.82	28.765
290.19	31.322
290.56	31.268
290.93	31.384
291.29	31.818
291.66	30.165
292.03	28.630
292.40	32.381
292.77	29.380
293.13	28.146
293.50	28.778
293.87	27.785
294.24	29.600
294.60	28.571
294.97	26.980
295.34	28.809
295.71	27.491
296.08	28.553
296.44	27.083
296.81	26.675
297.18	27.522
297.55	25.472
297.91	25.504
298.28	24.408
298.65	27.111
299.02	25.738
299.38	26.659
299.75	25.234
300.12	24.537
300.48	25.922
300.85	25.534
301.22	24.609
301.59	25.000
301.95	24.859
302.32	24.667
302.69	25.082
303.05	24.810
303.42	24.279
303.79	25.521
304.15	24.501
304.52	23.150
304.89	22.618
305.25	23.913
305.62	25.287
305.99	25.361
306.35	23.992
306.72	24.405
307.09	22.843
307.45	23.810
307.82	23.512
308.19	24.016
308.55	24.301
308.92	23.856
309.29	24.042
309.65	24.269
310.02	24.257
310.38	23.622
310.75	23.495
311.12	23.969
311.48	23.265
311.85	23.457
312.22	23.814
312.58	23.662
312.95	23.518
313.31	23.126
313.68	23.352
314.05	24.029
314.41	24.135
314.78	22.434
315.14	23.140
315.51	22.807
315.87	23.582
316.24	23.470
316.61	22.025
316.97	23.167
317.34	23.721
317.70	21.572
318.07	22.840
318.43	22.619
318.80	23.411
319.16	22.747
319.53	21.165
319.89	21.998
320.26	22.776
320.62	21.720
320.99	22.161
321.35	22.089
321.72	23.256
322.08	21.731
322.45	22.493
322.81	22.112
323.18	21.327
323.54	21.552
323.91	22.776
324.27	21.687
324.64	22.082
325.00	20.978
325.37	22.031
325.73	21.818
326.10	22.222
326.46	23.371
326.83	22.818
327.19	21.181
327.56	22.846
327.92	21.322
328.29	22.500
328.65	21.524
329.01	22.081
329.38	22.578
329.74	22.175
330.11	23.545
330.47	21.398
330.84	21.447
331.20	21.417
331.56	21.750
331.93	21.925
332.29	22.203
332.66	21.844
333.02	21.441
333.38	21.477
333.75	20.202
334.11	22.018
334.48	21.535
334.84	22.685
335.20	20.991
335.57	21.248
335.93	21.983
336.29	21.048
336.66	21.278
337.02	21.656
337.38	20.918
337.75	20.909
338.11	22.708
338.47	21.671
338.84	20.389
339.20	21.061
339.56	21.005
339.93	21.182
340.29	21.176
340.65	21.168
341.02	21.548
341.38	21.827
341.74	20.823
342.11	21.480
342.47	21.446
342.83	21.337
343.20	21.586
343.56	21.331
343.92	19.936
344.28	21.406
344.65	22.403
345.01	20.593
345.37	21.384
345.73	19.953
346.10	21.529
346.46	19.778
346.82	20.524
347.19	21.008
347.55	19.727
347.91	19.837
348.27	19.727
348.63	20.564
349.00	20.582
349.36	20.223
349.72	19.643
350.08	19.539
350.45	19.544
350.81	19.608
351.17	20.301
351.53	20.470
351.89	20.273
352.26	20.299
352.62	20.522
352.98	20.611
353.34	19.567
353.70	20.647
354.07	19.821
354.43	20.046
354.79	19.521
355.15	19.794
355.51	19.737
355.87	18.848
356.24	20.684
356.60	18.625
356.96	20.608
357.32	19.033
357.68	19.985
358.04	20.509
358.40	19.403
358.77	20.833
359.13	19.055
359.49	18.364
359.85	18.854
360.21	18.938
360.57	19.598
360.93	20.028
361.29	19.860
361.66	19.551
362.02	19.694
362.38	19.115
362.74	19.344
363.10	20.426
363.46	19.114
363.82	19.602
364.18	19.353
364.54	19.433
364.90	20.067
365.26	19.172
365.62	20.000
365.98	19.537
366.35	18.456
366.71	20.340
367.07	20.365
367.43	19.895
367.79	19.244
368.15	20.000
368.51	19.147
368.87	19.660
369.23	19.533
369.59	18.716
369.95	18.999
370.31	19.041
370.67	18.982
371.03	19.044
371.39	18.469
371.75	19.326
372.11	18.902
372.47	19.499
372.83	19.175
373.19	19.413
373.55	19.512
373.91	18.064
374.27	18.499
374.63	19.486
374.99	18.103
375.35	19.935
375.71	18.581
376.07	19.238
376.42	19.207
376.78	19.515
377.14	18.528
377.50	19.545
377.86	19.335
378.22	19.341
378.58	19.263
378.94	19.014
379.30	18.278
379.66	18.342
380.02	18.523
380.38	19.009
380.74	19.155
381.09	18.409
381.45	18.807
381.81	19.087
382.17	19.596
382.53	19.415
382.89	18.623
383.25	19.343
383.61	17.940
383.97	18.257
384.32	19.139
384.68	18.329
385.04	19.318
385.40	18.739
385.76	18.757
386.12	18.372
386.48	18.235
386.83	19.070
387.19	17.787
387.55	18.310
387.91	18.379
388.27	19.169
388.62	18.442
388.98	18.669
389.34	19.093
389.70	18.594
390.06	18.295
390.42	18.614
390.77	19.205
391.13	18.721
391.49	18.961
391.85	18.182
392.20	18.802
392.56	19.492
392.92	19.029
393.28	18.574
393.64	17.709
393.99	18.478
394.35	18.633
394.71	19.162
395.07	18.084
395.42	18.561
395.78	18.282
396.14	18.301
396.50	18.409
396.85	18.605
397.21	18.994
397.57	18.257
397.92	19.301
398.28	18.197
398.64	17.963
399.00	17.539
399.35	19.005
399.71	18.261
400.07	18.697
400.42	18.510
400.78	18.171
401.14	18.896
401.49	19.045
401.85	19.070
402.21	18.656
402.57	18.310
402.92	17.612
403.28	17.857
403.63	18.079
403.99	17.518
404.35	18.988
404.70	19.263
405.06	17.500
405.42	19.087
405.77	17.666
406.13	17.504
406.49	18.300
406.84	18.560
407.20	17.440
407.55	17.383
407.91	18.542
408.27	17.903
408.62	18.325
408.98	18.050
409.34	17.126
409.69	18.294
410.05	19.168
410.40	19.026
410.76	18.396
411.11	19.170
411.47	18.182
411.83	18.460
412.18	18.373
412.54	18.909
412.89	18.219
413.25	18.002
413.60	18.553
413.96	18.298
414.31	18.300
414.67	18.366
415.03	18.092
415.38	18.474
415.74	18.204
416.09	18.754
416.45	17.470
416.80	18.115
417.16	18.199
417.51	17.435
417.87	17.167
418.22	17.964
418.58	17.782
418.93	18.626
419.29	18.002
419.64	18.007
420.00	18.101
420.35	17.911
420.71	17.806
421.06	18.171
421.42	17.775
421.77	17.609
422.12	17.389
422.48	18.024
422.83	18.784
423.19	17.719
423.54	18.861
423.90	18.056
424.25	18.027
424.61	17.623
424.96	18.177
425.31	18.737
425.67	17.606
426.02	17.709
426.38	17.623
426.73	18.638
427.09	18.627
427.44	18.023
427.79	18.242
428.15	18.037
428.50	17.809
428.85	17.968
429.21	18.457
429.56	18.460
429.92	18.133
430.27	18.843
430.62	18.075
430.98	17.905
431.33	17.644
431.68	17.816
432.04	18.131
432.39	17.729
432.74	17.580
433.10	18.226
433.45	17.949
433.80	18.133
434.16	17.769
434.51	18.705
434.86	18.512
435.22	19.129
435.57	18.337
435.92	18.531
436.28	18.146
436.63	18.187
436.98	18.304
437.34	18.264
437.69	17.777
438.04	18.350
438.39	17.576
438.75	17.377
439.10	18.129
439.45	18.614
439.81	17.684
440.16	17.212
440.51	18.339
440.86	18.010
441.22	17.953
441.57	18.606
441.92	17.701
442.27	18.535
442.63	17.834
442.98	18.730
443.33	17.622
443.68	18.583
444.03	19.567
444.39	18.215
444.74	18.734
445.09	17.993
445.44	17.650
445.79	18.391
446.15	18.294
446.50	18.140
446.85	18.920
447.20	18.279
447.55	18.096
447.91	18.377
448.26	17.706
448.61	18.810
448.96	19.206
449.31	18.346
449.66	18.246
450.02	19.409
450.37	18.221
450.72	18.138
451.07	18.565
451.42	18.255
451.77	18.566
452.12	18.623
452.47	18.063
452.83	18.750
453.18	18.914
453.53	18.553
453.88	18.609
454.23	18.362
454.58	18.514
454.93	18.204
455.28	18.483
455.63	19.329
455.98	18.547
456.34	18.139
456.69	17.872
457.04	18.203
457.39	18.570
457.74	18.960
458.09	18.177
458.44	18.373
458.79	18.051
459.14	18.353
459.49	18.393
459.84	18.888
460.19	17.990
460.54	19.250
460.89	17.840
461.24	18.563
461.59	19.203
461.94	17.798
462.29	19.373
462.64	19.010
462.99	19.272
463.34	18.819
463.69	18.347
464.04	19.511
464.39	18.554
464.74	18.016
465.09	18.397
465.44	18.884
465.79	18.826
466.14	18.499
466.49	18.158
466.84	18.292
467.19	19.306
467.54	19.448
467.89	18.046
468.24	18.227
468.59	18.124
468.94	18.706
469.29	17.756
469.64	18.500
469.99	18.419
470.34	18.564
470.68	18.729
471.03	18.533
471.38	19.163
471.73	18.596
472.08	18.655
472.43	19.085
472.78	19.458
473.13	18.963
473.48	19.819
473.83	18.979
474.17	19.754
474.52	18.701
474.87	19.103
475.22	18.592
475.57	18.744
475.92	18.815
476.27	18.158
476.61	19.055
476.96	18.092
477.31	19.752
477.66	19.570
478.01	18.709
478.36	19.492
478.70	18.670
479.05	18.712
479.40	19.250
479.75	19.597
480.10	18.285
480.45	18.642
480.79	19.138
481.14	18.888
481.49	18.900
481.84	19.582
482.19	19.355
482.53	19.458
482.88	19.096
483.23	19.031
483.58	18.384
483.92	18.528
484.27	18.628
484.62	18.936
484.97	19.362
485.31	18.691
485.66	17.607
486.01	17.138
486.36	17.649
486.70	18.240
487.05	18.780
487.40	18.319
487.75	18.957
488.09	18.822
488.44	18.064
488.79	19.258
489.13	19.225
489.48	18.757
489.83	18.712
490.17	18.712
490.52	18.719
490.87	19.120
491.22	19.021
491.56	19.326
491.91	19.581
492.26	19.472
492.60	18.977
492.95	19.043
493.30	19.274
493.64	19.623
493.99	19.430
494.34	18.772
494.68	19.186
495.03	19.383
495.37	19.219
495.72	19.773
496.07	20.070
496.41	18.662
496.76	19.391
497.11	18.769
497.45	19.292
497.80	19.680
498.14	19.320
498.49	19.807
498.84	19.607
499.18	19.163
499.53	19.910
499.87	19.473
500.22	18.210
500.56	19.073
500.91	19.314
501.26	19.773
501.60	18.825
501.95	19.453
502.29	19.482
502.64	19.851
502.98	19.543
503.33	19.006
503.67	18.622
504.02	19.308
504.36	19.794
504.71	19.293
505.06	19.509
505.40	19.516
505.75	19.536
506.09	19.521
506.44	19.638
506.78	20.000
507.13	19.594
507.47	20.654
507.82	19.555
508.16	19.359
508.51	19.691
508.85	19.414
509.19	19.517
509.54	20.413
509.88	20.447
510.23	20.010
510.57	20.155
510.92	20.174
511.26	20.298
511.61	18.928
511.95	19.863
512.30	20.778
512.64	19.890
512.98	20.210
513.33	20.766
513.67	20.398
514.02	21.155
514.36	21.074
514.70	20.208
515.05	20.021
515.39	20.367
515.74	20.520
516.08	20.180
516.42	20.513
516.77	20.925
517.11	20.113
517.46	21.262
517.80	20.791
518.14	20.947
518.49	21.041
518.83	20.862
519.17	20.625
519.52	21.122
519.86	21.119
520.20	21.299
520.55	21.030
520.89	20.890
521.23	20.882
521.58	21.130
521.92	20.850
522.26	21.420
522.61	20.602
522.95	20.704
523.29	20.747
523.64	20.404
523.98	21.848
524.32	21.777
524.66	20.888
525.01	21.348
525.35	21.310
525.69	21.288
526.04	20.321
526.38	21.724
526.72	21.223
527.06	21.290
527.41	21.691
527.75	21.496
528.09	20.602
528.43	21.374
528.78	20.462
529.12	21.674
529.46	20.630
529.80	21.739
530.15	21.043
530.49	20.937
530.83	21.488
531.17	20.848
531.51	21.420
531.86	21.755
532.20	21.524
532.54	21.125
532.88	21.697
533.22	21.273
533.57	20.427
533.91	21.549
534.25	20.859
534.59	20.920
534.93	20.374
535.27	21.127
535.62	21.205
535.96	21.267
536.30	21.093
536.64	21.742
536.98	22.079
537.32	22.778
537.66	22.271
538.01	22.115
538.35	20.950
538.69	20.733
539.03	20.723
539.37	20.848
539.71	20.781
540.05	21.463
540.39	20.660
540.73	21.129
541.07	21.704
541.42	21.028
541.76	20.581
542.10	20.326
542.44	20.950
542.78	22.506
543.12	21.097
543.46	22.039
543.80	20.683
544.14	21.364
544.48	21.690
544.82	21.604
545.16	21.646
545.50	20.551
545.84	21.433
546.18	22.593
546.52	21.783
546.86	21.572
547.20	21.565
547.54	21.161
547.88	20.976
548.22	21.345
548.56	20.714
548.90	20.358
549.24	21.094
549.58	21.830
549.92	21.046
550.26	21.618
550.60	21.442
550.94	21.928
551.28	22.640
551.62	22.237
551.96	22.136
552.30	21.542
552.64	21.904
552.98	21.834
553.32	22.315
553.66	22.122
554.00	22.194
554.34	21.364
554.68	20.852
555.02	21.551
555.36	21.499
555.69	20.628
556.03	21.753
556.37	22.215
556.71	21.814
557.05	21.725
557.39	21.301
557.73	21.532
558.07	21.391
558.41	21.728
558.75	21.907
559.08	22.895
559.42	21.948
559.76	22.185
560.10	23.175
560.44	21.702
560.78	22.375
561.12	21.552
561.45	21.655
561.79	21.856
562.13	22.120
562.47	20.037
562.81	21.203
563.15	21.654
563.48	21.815
563.82	21.524
564.16	21.018
564.50	20.918
564.84	21.475
565.17	21.118
565.51	21.059
565.85	21.140
566.19	20.910
566.52	21.592
566.86	21.279
567.20	20.772
567.54	21.561
567.88	20.387
568.21	21.690
568.55	21.247
568.89	20.517
569.23	20.321
569.56	20.242
569.90	19.672
570.24	19.460
570.57	19.275
570.91	19.106
571.25	19.092
571.59	19.733
571.92	19.296
572.26	18.899
572.60	19.465
572.93	19.343
573.27	19.050
573.61	19.190
573.95	19.204
574.28	18.991
574.62	18.668
574.96	18.593
575.29	18.506
575.63	18.734
575.97	19.138
576.30	19.097
576.64	19.112
576.98	18.702
577.31	19.317
577.65	18.861
577.98	18.769
578.32	18.459
578.66	18.507
578.99	18.841
579.33	19.031
579.67	18.744
580.00	18.926
580.34	18.848
580.67	18.667
581.01	19.104
581.35	18.605
581.68	18.190
582.02	18.404
582.35	18.711
582.69	18.560
583.02	18.296
583.36	19.018
583.70	18.791
584.03	18.838
584.37	19.353
584.70	18.998
585.04	18.810
585.37	18.780
585.71	18.490
586.04	18.736
586.38	18.895
586.72	18.651
587.05	18.598
587.39	19.048
587.72	19.354
588.06	19.125
588.39	19.144
588.73	19.101
589.06	19.357
589.40	19.453
589.73	19.794
590.07	20.259
590.40	20.014
590.73	19.724
591.07	19.360
591.40	19.751
591.74	19.674
592.07	19.488
592.41	19.401
592.74	19.773
593.08	19.204
593.41	19.306
593.75	19.023
594.08	18.994
594.41	18.942
594.75	19.495
595.08	19.448
595.42	19.578
595.75	19.341
596.09	19.112
596.42	19.097
596.75	19.606
597.09	20.121
597.42	19.666
597.75	19.287
598.09	20.119
598.42	19.944
598.76	19.450
599.09	18.939
599.42	19.410
599.76	19.280
600.09	19.620
600.42	19.353
600.76	19.386
601.09	19.018
601.42	19.361
601.76	19.138
602.09	19.478
602.42	20.102
602.76	19.483
603.09	19.493
603.42	19.400
603.76	19.133
604.09	19.624
604.42	19.376
604.76	19.254
605.09	19.824
605.42	20.255
605.75	19.577
606.09	19.485
606.42	19.482
606.75	18.853
607.09	19.432
607.42	19.499
607.75	19.695
608.08	19.376
608.42	18.501
608.75	19.818
609.08	19.312
609.41	19.585
609.75	19.420
610.08	19.833
610.41	19.796
610.74	19.874
611.07	19.893
611.41	20.045
611.74	20.462
612.07	20.337
612.40	19.724
612.73	20.391
613.07	20.196
613.40	20.115
613.73	20.558
614.06	19.872
614.39	19.388
614.72	20.087
615.06	20.212
615.39	19.720
615.72	20.142
616.05	19.961
616.38	20.383
616.71	19.958
617.05	19.702
617.38	20.439
617.71	20.464
618.04	21.047
618.37	20.546
618.70	20.814
619.03	20.550
619.36	19.729
619.69	21.653
620.03	21.218
620.36	20.491
620.69	20.605
621.02	21.325
621.35	21.190
621.68	22.198
622.01	22.278
622.34	20.572
622.67	21.306
623.00	20.648
623.33	21.566
623.66	22.374
623.99	20.211
624.32	21.767
624.65	20.721
624.99	21.131
625.32	21.163
625.65	21.713
625.98	20.610
626.31	21.474
626.64	21.392
626.97	20.855
627.30	20.881
627.63	21.155
627.96	21.471
628.29	22.802
628.62	21.662
628.95	21.735
629.28	23.280
629.61	21.296
629.94	21.423
630.26	21.441
630.59	21.503
630.92	21.385
631.25	23.524
631.58	21.281
631.91	22.774
632.24	22.094
632.57	23.055
632.90	22.568
633.23	22.449
633.56	22.245
633.89	22.934
634.22	23.389
634.55	23.800
634.88	23.160
635.20	22.928
635.53	23.616
635.86	22.752
636.19	23.118
636.52	22.257
636.85	21.961
637.18	22.661
637.51	22.796
637.83	22.481
638.16	23.502
638.49	22.770
638.82	22.661
639.15	22.680
639.48	24.827
639.81	24.249
640.13	24.499
640.46	22.545
640.79	21.936
641.12	23.975
641.45	24.467
641.77	24.775
642.10	24.147
642.43	26.330
642.76	23.713
643.09	25.068
643.41	24.790
643.74	24.552
644.07	23.586
644.40	24.328
644.73	23.367
645.05	22.173
645.38	24.748
645.71	22.581
646.04	25.681
646.36	24.964
646.69	23.773
647.02	25.229
647.35	24.885
647.67	24.960
648.00	24.363
648.33	25.676
648.66	23.395
648.98	24.762
649.31	24.087
649.64	22.975
649.96	23.475
650.29	23.505
650.62	23.762
650.94	24.474
651.27	23.054
651.60	24.561
651.92	23.100
652.25	24.602
652.58	24.209
652.90	21.948
653.23	24.366
653.56	24.394
653.88	23.455
654.21	24.366
654.54	23.844
654.86	22.380
655.19	22.585
655.52	21.149
655.84	18.239
656.17	21.274
656.49	29.811
656.82	32.629
657.15	25.700
657.47	19.328
657.80	14.699
658.13	11.390
658.45	15.567
658.78	18.734
659.10	17.845
659.43	18.462
659.75	18.687
660.08	18.207
660.41	18.197
660.73	20.296
661.06	21.586
661.38	22.329
661.71	26.034
662.03	23.104
662.36	25.224
662.68	25.328
663.01	23.186
663.33	25.709
663.66	27.289
663.98	26.538
664.31	23.640
664.63	23.314
664.96	27.223
665.28	23.775
665.61	24.301
665.93	23.214
666.26	25.269
666.58	22.878
666.91	26.542
667.23	25.524
667.56	25.247
667.88	25.800
668.21	22.656
668.53	22.201
668.86	26.719
669.18	22.811
669.50	25.447
669.83	21.400
670.15	23.425
670.48	25.595
670.80	22.753
671.13	23.819
671.45	24.409
671.77	25.612
672.10	23.000
672.42	22.168
672.75	21.966
673.07	22.537
673.39	22.342
673.72	24.832
674.04	26.552
674.37	22.719
674.69	24.515
675.01	23.048
675.34	23.473
675.66	24.345
675.98	23.321
676.31	24.609
676.63	25.285
676.95	25.096
677.28	25.000
677.60	22.441
677.92	25.336
678.25	22.486
678.57	23.843
678.89	24.915
679.22	21.429
679.54	23.419
679.86	21.864
680.18	22.388
680.51	22.799
680.83	23.077
681.15	21.379
681.48	23.143
681.80	24.180
682.12	22.902
682.44	22.371
682.77	24.468
683.09	25.189
683.41	22.868
683.73	22.391
684.06	22.694
684.38	22.361
684.70	26.032
685.02	22.375
685.34	22.296
685.67	20.820
685.99	21.472
686.31	19.913
686.63	20.695
686.96	21.609
687.28	21.661
687.60	20.707
687.92	22.026
688.24	21.202
688.56	21.034
688.89	23.775
689.21	23.483
689.53	20.000
689.85	19.527
690.17	23.704
690.49	24.502
690.82	23.960
691.14	22.065
691.46	24.857
691.78	23.757
692.10	22.936
692.42	20.357
692.74	21.960
693.06	20.926
693.39	25.047
693.71	21.992
694.03	26.208
694.35	24.952
694.67	24.230
694.99	23.191
695.31	23.179
695.63	24.459
695.95	20.290
696.27	21.978
696.59	26.106
696.91	25.901
697.23	25.714
697.56	23.218
697.88	19.508
698.20	24.105
698.52	25.379
698.84	23.077
699.16	23.061
699.48	24.477
699.80	20.426
700.12	22.707
700.44	23.272
700.76	25.891
701.08	23.002
701.40	24.870
701.72	22.388
702.04	25.668
702.36	22.513
702.68	22.983
703.00	25.183
703.32	22.167
703.64	24.694
703.96	23.389
704.28	23.587
704.60	23.291
704.91	21.939
705.23	24.384
705.55	20.891
705.87	25.455
706.19	26.994
706.51	22.892
706.83	23.055
707.15	19.841
707.47	23.131
707.79	22.271
708.11	20.127
708.43	20.645
708.74	19.420
709.06	21.114
709.38	24.648
709.70	25.558
710.02	24.031
710.34	23.138
710.66	22.346
710.98	22.951
711.29	22.527
711.61	24.011
711.93	25.356
712.25	22.973
712.57	25.664
712.89	27.941
713.20	22.485
713.52	26.012
713.84	23.120
714.16	22.632
714.48	24.485
714.80	21.039
715.11	22.047
715.43	22.546
715.75	26.842
716.07	20.994
716.39	25.683
716.70	25.602
717.02	26.885
717.34	23.345
717.66	27.181
717.97	22.260
718.29	23.024
718.61	24.013
718.93	20.712
719.24	23.913
719.56	20.552
719.88	23.123
720.20	22.903
720.51	24.845
720.83	20.938
721.15	23.684
721.46	18.836
721.78	21.000
722.10	21.683
722.42	23.490
722.73	22.903
723.05	25.614
723.37	26.736
723.68	20.430
724.00	20.578
724.32	19.366
724.63	24.476
724.95	27.660
725.27	22.997
725.58	18.021
725.90	27.241
726.22	21.317
726.53	24.351
726.85	23.270
727.16	24.471
727.48	23.853
727.80	23.510
728.11	22.261
728.43	25.926
728.74	20.736
729.06	22.185
729.38	23.377
729.69	19.463
730.01	21.131
730.32	22.727
730.64	22.642
730.96	17.702
731.27	23.743
731.59	21.978
731.90	20.000
732.22	20.052
732.53	19.613
732.85	24.286
733.16	22.874
733.48	21.037
733.80	24.234
734.11	18.519
734.43	20.811
734.74	22.278
735.06	20.603
735.37	25.946
735.69	21.081
736.00	22.316
736.32	22.642
736.63	21.944
736.95	19.540
737.26	23.636
737.58	20.303
737.89	24.706
738.21	20.489
738.52	17.377
738.83	25.597
739.15	21.986
739.46	22.789
739.78	23.313
740.09	22.350
740.41	23.324
740.72	21.667
741.04	24.272
741.35	21.404
741.66	19.216
741.98	29.098
742.29	18.828
742.61	26.754
742.92	18.846
743.23	29.964
743.55	22.093
743.86	22.000
744.18	21.901
744.49	21.941
744.80	27.572
745.12	21.519
745.43	23.984
745.74	21.121
746.06	22.034
746.37	26.160
746.68	26.423
747.00	25.833
747.31	20.601
747.62	25.385
747.94	23.077
748.25	19.277
748.56	22.041
748.88	17.521
749.19	23.276
749.50	19.048
749.82	22.490
750.13	25.267
750.44	18.000
750.75	18.769
751.07	25.231
751.38	23.659
751.69	20.447
752.01	22.006
752.32	23.856
752.63	18.367
752.94	21.453
753.26	19.703
753.57	24.815
753.88	22.472
754.19	25.080
754.51	20.900
754.82	22.186
755.13	21.311
755.44	22.526
755.75	22.039
756.07	21.791
756.38	21.069
756.69	23.494
757.00	19.391
757.31	19.399
757.63	17.136
757.94	17.840
758.25	19.865
758.56	19.826
758.87	20.682
759.18	21.333
759.50	26.346
759.81	21.008
760.12	17.251
760.43	21.354
760.74	19.951
761.05	17.250
761.36	17.831
761.67	19.036
761.99	18.649
762.30	21.037
762.61	20.792
762.92	19.776
763.23	19.476
763.54	23.381
763.85	20.962
764.16	20.202
764.47	22.887
764.78	23.642
765.10	17.009
765.41	23.846
765.72	17.725
766.03	23.164
766.34	17.555
766.65	17.422
766.96	23.904
767.27	19.355
767.58	16.915
767.89	25.481
768.20	21.596
768.51	20.370
768.82	20.884
769.13	16.288
769.44	19.615
769.75	21.661
770.06	25.000
770.37	22.835
770.68	21.277
770.99	17.814
771.30	25.926
771.61	20.532
771.92	20.741
772.23	21.457
772.54	19.444
772.85	26.267
773.16	23.333
773.47	17.460
773.78	25.405
774.09	22.159
774.39	26.000
774.70	21.858
775.01	21.951
775.32	17.059
775.63	26.994
775.94	16.561
776.25	25.161
776.56	25.000
776.87	27.891
777.18	21.379
777.48	23.077
777.79	18.243
778.10	18.382
778.41	18.056
778.72	22.069
779.03	23.457
779.34	21.212
779.65	17.098
779.95	23.333
780.26	21.591
780.57	23.871
780.88	29.710
781.19	23.871
781.50	24.706
781.80	21.505
782.11	16.931
782.42	16.667
782.73	12.575
783.04	20.670
783.34	18.182
783.65	13.725
783.96	22.360
784.27	23.214
784.57	17.219
784.88	27.143
785.19	25.197
785.50	20.472
785.81	15.038
786.11	19.231
786.42	17.266
786.73	9.353
787.04	23.308
787.34	17.213
787.65	20.000
787.96	26.866
788.26	27.972
788.57	23.077
788.88	17.763
789.19	16.993
789.49	16.438
789.80	13.475
790.11	14.173
790.41	17.188
790.72	16.102
791.03	13.592
791.33	21.739
791.64	25.439
791.95	16.071
792.25	24.762
792.56	17.857
792.87	13.542
793.17	24.107
793.48	13.542
793.79	3.614
794.09	6.422
794.40	22.936
794.70	25.850
795.01	12.987
795.32	21.233
795.62	19.718
795.93	19.697
796.23	27.049
796.54	23.214
796.85	18.085
797.15	15.217
797.46	20.548
797.76	13.750
798.07	9.783
798.37	19.588
798.68	19.481
798.99	19.540
799.29	28.090
799.60	26.596
799.90	14.458
800.21	3.077
800.51	1.493
800.82	16.176
801.12	12.329
801.43	5.882
801.73	16.949
802.04	16.667
802.34	15.000
802.65	25.424
802.95	28.358
803.26	37.288
803.56	8.219
803.87	30.000
804.17	9.589
804.48	-17.544
804.78	6.944
805.09	3.448
805.39	14.865
805.70	4.225
806.00	14.634
806.30	9.639
806.61	27.397
806.91	17.308
807.22	8.889
807.52	21.839
807.83	23.611
808.13	27.711
808.43	21.348
808.74	16.250
809.04	16.176
809.35	22.667
809.65	11.429
809.95	15.068
810.26	7.018
810.56	27.586
810.86	14.706
811.17	21.053
811.47	21.311
811.77	4.444
812.08	28.814
812.38	26.667
812.69	27.586
812.99	11.321
813.29	5.128
813.59	20.000
813.90	28.070
814.20	14.545
814.50	30.986
814.81	30.769
815.11	16.393
815.41	11.940
815.72	18.966
816.02	17.857
816.32	42.222
816.62	9.091
816.93	15.556
817.23	29.630
817.53	8.511
817.84	52.381
818.14	20.588
818.44	18.367
818.74	33.333
819.04	5.128
819.35	-11.429
819.65	-7.692
819.95	13.208
820.25	20.000
820.56	4.762
820.86	3.125
821.16	2.564
821.46	27.907
821.76	16.000
822.07	30.357
822.37	6.522
822.67	10.638
822.97	-18.919
823.27	22.500
823.57	38.776
823.88	22.222
824.18	15.000
824.48	33.333
824.78	20.000
825.08	15.152
825.38	2.222
825.69	36.170
825.99	30.556
826.29	-25.714
826.59	25.641
826.89	11.628
827.19	18.000
827.49	44.118
827.79	31.250
828.09	5.405
828.39	20.000
828.70	0.000
829.00	2.326
829.30	-7.143
829.60	20.588
829.90	26.087
830.20	0.000
830.50	31.034
830.80	22.222
831.10	-11.538
831.40	14.706
831.70	0.000
832.00	29.032
832.30	-17.647
832.60	-4.167
832.90	-46.154
833.20	-15.789
833.50	-30.000
833.80	-52.632
834.10	-47.619
834.40	25.000
834.70	21.875
835.00	-31.429
835.30	35.294
835.60	-3.333
835.90	28.000
836.20	-63.636
836.50	32.000
836.80	-12.121
837.10	7.407
837.40	29.630
837.70	-18.750
838.00	0.000
838.30	-21.739
838.60	24.138
838.90	-35.714
839.19	-47.826
839.49	-66.667
839.79	21.739
840.09	-6.250
840.39	5.000
840.69	29.032
840.99	-32.143
841.29	13.333
841.59	10.526
841.88	41.026
842.18	-23.077
842.48	-70.000
842.78	-15.000
843.08	13.333
843.38	35.484
843.68	-22.222
843.97	26.471
844.27	50.000
844.57	15.789
844.87	-60.000
845.17	-80.000
845.47	85.714
845.76	4.762
846.06	-11.111
846.36	41.176
846.66	46.154
846.96	-33.333
847.25	-41.176
847.55	34.783
847.85	50.000
848.15	29.412
848.44	-81.818
848.74	9.524
849.04	8.333
849.34	6.250
849.63	-4.348
849.93	700.000
850.23	-40.000
850.53	26.923
850.82	-72.727
851.12	-4.545
851.42	-63.636
851.71	38.462
852.01	-35.000
852.31	76.923
852.61	47.368
852.90	0.000
853.20	5.556
853.50	-77.778
853.79	-47.619
854.09	-31.818
854.39	-66.667
854.68	22.581
854.98	-7.692
855.28	22.222
855.57	-3.571
855.87	-12.000
856.17	9.091
856.46	29.630
856.76	27.778
857.05	-30.435
857.35	-16.667
857.65	0.000
857.94	-14.286
858.24	18.519
858.53	-8.696
858.83	0.000
859.13	-23.529
859.42	47.059
859.72	14.286
860.01	10.000
860.31	-44.444
860.60	-50.000
860.90	-20.000
861.20	-27.778
861.49	30.769
861.79	-10.000
862.08	0.000
862.38	21.875
862.67	64.706
862.97	0.000
863.26	-100.000
863.56	40.000
863.85	-36.364
864.15	38.889
864.44	-500.000
864.74	21.429
865.03	31.250
865.33	-90.000
865.62	3.226
865.92	45.455
866.21	4.348
866.51	-28.571
866.80	-260.000
867.10	-41.667
867.39	-16.667
867.69	1100.000
867.98	71.429
868.27	17.647
868.57	-900.000
868.86	-110.000
869.16	-33.333
869.45	12.500
869.75	-9.091
870.04	-71.429
870.33	66.667
870.63	-185.714
870.92	-275.000
871.22	-175.000
871.51	-63.636
871.80	-500.000
872.10	-350.000
>>>>>End Processed Spectral Data<<<<<
