SpectraSuite Data File
++++++++++++++++++++++++++++++++++++
Date: Thu May 14 15:51:50 PDT 2015
User: schluterlab
Dark Spectrum Present: Yes
Reference Spectrum Present: Yes
Number of Sampled Component Spectra: 1
Spectrometers: USB2E3373
Integration Time (usec): 3000 (USB2E3373)
Spectra Averaged: 3 (USB2E3373)
Boxcar Smoothing: 0 (USB2E3373)
Correct for Electrical Dark: No (USB2E3373)
Strobe/Lamp Enabled: No (USB2E3373)
Correct for Detector Non-linearity: No (USB2E3373)
Correct for Stray Light: No (USB2E3373)
Number of Pixels in Processed Spectrum: 2048
>>>>>Begin Processed Spectral Data<<<<<
178.53	0.000
178.91	500.000
179.29	-4700.000
179.67	-4700.000
180.04	414.286
180.42	420.000
180.80	980.000
181.18	-3900.000
181.56	-2900.000
181.94	1175.000
182.31	-925.000
182.69	1200.000
183.07	-1950.000
183.45	1000.000
183.83	-633.333
184.20	-1200.000
184.58	4000.000
184.96	-1025.000
185.34	-444.444
185.72	-720.000
186.09	600.000
186.47	2050.000
186.85	820.000
187.23	-522.222
187.61	-4600.000
187.98	620.000
188.36	1175.000
188.74	-925.000
189.12	-1333.333
189.49	-250.000
189.87	-587.500
190.25	-400.000
190.63	-680.000
191.00	-466.667
191.38	0.000
191.76	-1075.000
192.14	-683.333
192.51	2300.000
192.89	-616.667
193.27	0.000
193.65	-571.429
194.02	-5400.000
194.40	-614.286
194.78	728.571
195.15	0.000
195.53	-300.000
195.91	0.000
196.29	-925.000
196.66	-238.462
197.04	-5000.000
197.42	-571.429
197.79	-1850.000
198.17	-550.000
198.55	-700.000
198.92	-377.778
199.30	-550.000
199.68	-345.455
200.05	-242.857
200.43	-2150.000
200.81	628.571
201.18	0.000
201.56	555.556
201.94	0.000
202.31	1333.333
202.69	-477.778
203.07	4100.000
203.44	-433.333
203.82	-1100.000
204.19	-325.000
204.57	-666.667
204.95	-487.500
205.32	-4300.000
205.70	1150.000
206.08	-550.000
206.45	-600.000
206.83	1140.000
207.20	-716.667
207.58	-1020.000
207.96	-716.667
208.33	-400.000
208.71	350.000
209.08	-600.000
209.46	0.000
209.84	833.333
210.21	2000.000
210.59	2150.000
210.96	1600.000
211.34	-900.000
211.71	-537.500
212.09	-4300.000
212.46	0.000
212.84	2350.000
213.22	-900.000
213.59	-1000.000
213.97	-420.000
214.34	-1200.000
214.72	783.333
215.09	-1075.000
215.47	0.000
215.84	628.571
216.22	2550.000
216.59	-820.000
216.97	-1020.000
217.34	-950.000
217.72	-462.500
218.09	-1175.000
218.47	-1000.000
218.84	0.000
219.22	860.000
219.59	-211.765
219.97	-180.000
220.34	2100.000
220.72	-422.222
221.09	-284.615
221.47	-1400.000
221.84	-460.000
222.22	-600.000
222.59	0.000
222.97	-387.500
223.34	-880.000
223.72	-4300.000
224.09	-950.000
224.46	-1000.000
224.84	-640.000
225.21	-685.714
225.59	-1125.000
225.96	-1100.000
226.34	-138.462
226.71	750.000
227.08	-2250.000
227.46	-240.000
227.83	-900.000
228.21	-178.947
228.58	600.000
228.95	2650.000
229.33	-250.000
229.70	-290.000
230.08	-136.842
230.45	390.000
230.82	-1233.333
231.20	-214.286
231.57	-275.000
231.95	-345.455
232.32	-309.091
232.69	-170.000
233.07	-1175.000
233.44	-270.588
233.81	-400.000
234.19	-155.556
234.56	-172.727
234.93	-117.241
235.31	-168.421
235.68	-194.444
236.05	-170.000
236.43	-84.615
236.80	-100.000
237.17	-159.259
237.55	-103.030
237.92	-280.000
238.29	-83.871
238.67	-81.818
239.04	-63.889
239.41	-78.571
239.79	-45.652
240.16	-57.407
240.53	-63.043
240.91	-68.627
241.28	-39.344
241.65	-14.925
242.02	-14.865
242.40	-30.769
242.77	-37.333
243.14	-32.927
243.51	-40.789
243.89	-37.179
244.26	-25.743
244.63	-19.608
245.00	-12.150
245.38	-17.544
245.75	-26.549
246.12	-15.079
246.49	-14.729
246.87	-12.143
247.24	-3.311
247.61	-10.526
247.98	-6.040
248.36	-8.642
248.73	-6.135
249.10	-2.186
249.47	3.483
249.84	8.377
250.22	4.663
250.59	2.778
250.96	5.909
251.33	1.531
251.70	5.983
252.08	4.167
252.45	7.787
252.82	5.372
253.19	1.953
253.56	6.844
253.94	3.077
254.31	7.576
254.68	10.140
255.05	11.075
255.42	11.565
255.79	3.560
256.16	7.285
256.54	8.278
256.91	12.131
257.28	4.262
257.65	7.962
258.02	4.425
258.39	8.262
258.76	10.398
259.14	10.920
259.51	8.069
259.88	10.198
260.25	5.556
260.62	9.589
260.99	12.842
261.36	12.332
261.73	7.162
262.10	9.341
262.47	10.992
262.85	13.889
263.22	9.351
263.59	5.263
263.96	9.719
264.33	8.696
264.70	11.111
265.07	13.842
265.44	13.832
265.81	12.037
266.18	12.698
266.55	13.616
266.92	14.123
267.29	12.910
267.66	11.752
268.03	12.664
268.40	13.361
268.77	9.112
269.14	12.996
269.51	13.816
269.88	12.910
270.25	13.280
270.62	13.924
270.99	15.152
271.36	16.040
271.73	12.377
272.10	14.429
272.47	15.631
272.84	13.253
273.21	13.026
273.58	11.895
273.95	11.154
274.32	11.597
274.69	14.120
275.06	13.004
275.43	11.830
275.80	12.346
276.17	9.815
276.54	11.940
276.91	15.027
277.28	13.743
277.65	13.645
278.02	12.500
278.39	11.957
278.76	12.478
279.13	14.894
279.50	12.887
279.87	11.449
280.23	8.451
280.60	14.237
280.97	13.980
281.34	13.413
281.71	14.890
282.08	12.957
282.45	11.948
282.82	13.344
283.19	11.470
283.56	13.934
283.92	13.814
284.29	15.008
284.66	11.658
285.03	11.218
285.40	13.292
285.77	12.693
286.14	14.504
286.51	13.394
286.87	12.954
287.24	13.705
287.61	14.051
287.98	13.142
288.35	13.905
288.72	11.834
289.08	13.470
289.45	12.574
289.82	10.843
290.19	13.937
290.56	13.662
290.93	11.555
291.29	12.397
291.66	13.774
292.03	12.347
292.40	14.150
292.77	11.456
293.13	11.096
293.50	10.907
293.87	11.141
294.24	12.400
294.60	14.033
294.97	10.336
295.34	12.676
295.71	9.836
296.08	9.561
296.44	11.397
296.81	11.206
297.18	10.710
297.55	12.028
297.91	11.151
298.28	11.374
298.65	10.702
299.02	10.508
299.38	11.327
299.75	10.748
300.12	9.491
300.48	11.521
300.85	9.899
301.22	10.067
301.59	9.932
301.95	10.395
302.32	10.556
302.69	10.624
303.05	11.317
303.42	10.754
303.79	11.146
304.15	11.777
304.52	11.205
304.89	10.576
305.25	10.455
305.62	10.972
305.99	10.825
306.35	10.786
306.72	10.858
307.09	10.660
307.45	11.284
307.82	10.192
308.19	10.394
308.55	10.608
308.92	11.782
309.29	9.579
309.65	10.526
310.02	10.000
310.38	9.843
310.75	9.029
311.12	10.834
311.48	9.286
311.85	11.586
312.22	10.152
312.58	11.080
312.95	9.465
313.31	12.647
313.68	11.355
314.05	11.653
314.41	12.022
314.78	10.173
315.14	10.799
315.51	10.896
315.87	11.791
316.24	10.959
316.61	11.190
316.97	10.226
317.34	10.317
317.70	11.354
318.07	10.935
318.43	9.864
318.80	11.789
319.16	10.558
319.53	10.111
319.89	10.254
320.26	11.655
320.62	9.929
320.99	10.619
321.35	10.259
321.72	11.907
322.08	10.370
322.45	10.027
322.81	11.191
323.18	12.035
323.54	10.948
323.91	10.498
324.27	11.704
324.64	11.419
325.00	11.194
325.37	11.220
325.73	11.570
326.10	11.841
326.46	12.052
326.83	11.129
327.19	11.732
327.56	11.304
327.92	11.251
328.29	11.452
328.65	10.385
329.01	9.729
329.38	11.457
329.74	10.873
330.11	11.558
330.47	11.542
330.84	10.680
331.20	11.667
331.56	11.005
331.93	12.134
332.29	11.271
332.66	11.379
333.02	10.302
333.38	11.242
333.75	11.364
334.11	10.759
334.48	11.799
334.84	11.215
335.20	10.831
335.57	10.708
335.93	11.405
336.29	10.982
336.66	10.934
337.02	9.699
337.38	11.480
337.75	9.091
338.11	10.597
338.47	9.926
338.84	10.406
339.20	9.604
339.56	10.544
339.93	9.113
340.29	10.225
340.65	11.192
341.02	11.333
341.38	12.288
341.74	10.008
342.11	11.344
342.47	10.882
342.83	10.789
343.20	10.793
343.56	9.383
343.92	11.369
344.28	11.094
344.65	10.698
345.01	11.154
345.37	11.198
345.73	10.366
346.10	11.622
346.46	10.047
346.82	11.386
347.19	11.001
347.55	11.381
347.91	10.996
348.27	10.243
348.63	10.510
349.00	10.067
349.36	10.706
349.72	10.938
350.08	11.070
350.45	9.278
350.81	10.784
351.17	10.000
351.53	11.221
351.89	11.314
352.26	9.851
352.62	10.522
352.98	9.466
353.34	9.410
353.70	9.553
354.07	10.134
354.43	9.947
354.79	9.873
355.15	10.817
355.51	10.307
355.87	9.798
356.24	10.646
356.60	10.347
356.96	10.452
357.32	9.814
357.68	10.469
358.04	10.030
358.40	9.328
358.77	10.746
359.13	9.232
359.49	9.219
359.85	10.732
360.21	10.115
360.57	10.050
360.93	9.379
361.29	10.386
361.66	10.210
362.02	11.204
362.38	10.260
362.74	9.986
363.10	10.248
363.46	9.834
363.82	10.156
364.18	10.134
364.54	9.682
364.90	10.435
365.26	9.586
365.62	10.533
365.98	9.803
366.35	9.933
366.71	10.340
367.07	10.555
367.43	10.112
367.79	10.219
368.15	11.371
368.51	9.878
368.87	10.255
369.23	10.067
369.59	9.631
369.95	9.872
370.31	10.196
370.67	10.385
371.03	9.903
371.39	9.738
371.75	9.835
372.11	10.840
372.47	9.479
372.83	10.340
373.19	10.274
373.55	9.350
373.91	8.998
374.27	10.220
374.63	10.690
374.99	9.615
375.35	10.779
375.71	10.129
376.07	9.942
376.42	10.327
376.78	10.441
377.14	10.418
377.50	9.361
377.86	10.037
378.22	10.599
378.58	10.642
378.94	10.446
379.30	9.549
379.66	9.994
380.02	10.733
380.38	9.217
380.74	9.972
381.09	10.453
381.45	10.341
381.81	10.246
382.17	9.679
382.53	10.000
382.89	10.102
383.25	10.317
383.61	9.317
383.97	9.364
384.32	9.988
384.68	9.513
385.04	10.006
385.40	10.784
385.76	10.258
386.12	10.174
386.48	10.588
386.83	11.323
387.19	9.907
387.55	9.859
387.91	10.046
388.27	10.681
388.62	9.565
388.98	9.363
389.34	10.194
389.70	9.820
390.06	10.598
390.42	9.759
390.77	10.415
391.13	9.038
391.49	10.386
391.85	8.909
392.20	9.490
392.56	9.982
392.92	10.251
393.28	10.614
393.64	10.168
393.99	10.343
394.35	10.631
394.71	10.359
395.07	9.042
395.42	9.994
395.78	11.091
396.14	10.220
396.50	10.154
396.85	10.078
397.21	9.586
397.57	9.894
397.92	10.882
398.28	9.723
398.64	9.153
399.00	9.581
399.35	10.366
399.71	10.109
400.07	10.500
400.42	10.012
400.78	9.838
401.14	10.017
401.49	10.688
401.85	10.465
402.21	10.603
402.57	9.859
402.92	10.461
403.28	10.187
403.63	9.427
403.99	9.917
404.35	9.835
404.70	10.878
405.06	10.380
405.42	10.304
405.77	10.960
406.13	10.859
406.49	10.586
406.84	10.803
407.20	10.565
407.55	9.752
407.91	10.434
408.27	10.895
408.62	10.239
408.98	10.621
409.34	9.619
409.69	10.383
410.05	11.079
410.40	10.557
410.76	10.544
411.11	10.345
411.47	10.565
411.83	11.405
412.18	10.783
412.54	10.670
412.89	10.244
413.25	10.779
413.60	10.684
413.96	11.305
414.31	10.765
414.67	9.779
415.03	10.523
415.38	10.656
415.74	9.652
416.09	10.919
416.45	10.833
416.80	9.486
417.16	9.898
417.51	10.897
417.87	10.362
418.22	11.557
418.58	10.471
418.93	10.827
419.29	10.666
419.64	10.084
420.00	10.623
420.35	10.949
420.71	9.879
421.06	10.178
421.42	10.550
421.77	10.878
422.12	11.258
422.48	11.214
422.83	10.953
423.19	11.989
423.54	10.841
423.90	9.994
424.25	11.147
424.61	10.563
424.96	10.763
425.31	11.730
425.67	10.789
426.02	10.847
426.38	10.677
426.73	10.100
427.09	11.476
427.44	10.322
427.79	10.614
428.15	10.902
428.50	10.618
428.85	10.907
429.21	11.330
429.56	10.069
429.92	11.351
430.27	11.663
430.62	11.822
430.98	10.723
431.33	10.753
431.68	11.063
432.04	11.884
432.39	11.516
432.74	10.559
433.10	11.357
433.45	10.033
433.80	10.944
434.16	11.312
434.51	10.997
434.86	11.292
435.22	10.946
435.57	10.377
435.92	11.408
436.28	11.490
436.63	10.595
436.98	11.648
437.34	11.330
437.69	10.787
438.04	11.423
438.39	11.947
438.75	10.570
439.10	11.469
439.45	11.683
439.81	10.904
440.16	11.153
440.51	12.040
440.86	11.340
441.22	12.111
441.57	12.055
441.92	12.076
442.27	12.020
442.63	11.972
442.98	12.006
443.33	11.468
443.68	12.289
444.03	12.700
444.39	12.621
444.74	12.302
445.09	11.607
445.44	11.749
445.79	11.925
446.15	11.922
446.50	11.731
446.85	12.646
447.20	12.282
447.55	11.402
447.91	11.675
448.26	11.892
448.61	12.062
448.96	12.232
449.31	12.884
449.66	12.092
450.02	12.500
450.37	12.999
450.72	12.217
451.07	12.130
451.42	12.363
451.77	12.229
452.12	12.585
452.47	12.299
452.83	11.261
453.18	11.909
453.53	11.832
453.88	12.645
454.23	12.316
454.58	11.840
454.93	11.408
455.28	13.004
455.63	11.995
455.98	11.899
456.34	12.073
456.69	12.463
457.04	12.648
457.39	12.528
457.74	12.528
458.09	12.466
458.44	12.931
458.79	12.635
459.14	12.271
459.49	12.620
459.84	12.487
460.19	11.882
460.54	12.663
460.89	12.388
461.24	11.034
461.59	13.005
461.94	11.181
462.29	12.598
462.64	12.492
462.99	12.304
463.34	12.459
463.69	12.192
464.04	13.063
464.39	12.220
464.74	13.113
465.09	13.149
465.44	12.929
465.79	12.956
466.14	12.663
466.49	13.842
466.84	12.617
467.19	12.890
467.54	12.632
467.89	12.701
468.24	12.964
468.59	12.044
468.94	12.238
469.29	12.597
469.64	11.634
469.99	11.727
470.34	12.624
470.68	13.329
471.03	12.443
471.38	12.623
471.73	11.964
472.08	12.817
472.43	13.365
472.78	13.224
473.13	12.073
473.48	12.810
473.83	13.291
474.17	12.603
474.52	12.508
474.87	13.178
475.22	13.465
475.57	12.980
475.92	13.390
476.27	13.472
476.61	12.980
476.96	13.347
477.31	13.218
477.66	14.218
478.01	13.625
478.36	13.111
478.70	13.645
479.05	13.599
479.40	13.623
479.75	14.073
480.10	13.690
480.45	14.175
480.79	13.379
481.14	12.914
481.49	14.175
481.84	14.491
482.19	13.677
482.53	14.254
482.88	13.957
483.23	13.739
483.58	13.799
483.92	13.032
484.27	13.336
484.62	13.779
484.97	13.919
485.31	13.094
485.66	13.422
486.01	13.795
486.36	14.572
486.70	15.334
487.05	15.650
487.40	14.767
487.75	14.224
488.09	14.032
488.44	13.440
488.79	13.524
489.13	13.396
489.48	12.893
489.83	13.682
490.17	13.811
490.52	13.670
490.87	14.044
491.22	14.081
491.56	14.078
491.91	14.086
492.26	14.063
492.60	13.730
492.95	14.612
493.30	13.716
493.64	14.148
493.99	13.421
494.34	14.111
494.68	13.448
495.03	14.626
495.37	14.248
495.72	13.741
496.07	14.154
496.41	14.243
496.76	14.387
497.11	14.480
497.45	14.199
497.80	14.927
498.14	14.014
498.49	13.419
498.84	14.214
499.18	14.350
499.53	14.664
499.87	14.330
500.22	13.758
500.56	14.305
500.91	14.783
501.26	14.955
501.60	14.185
501.95	14.894
502.29	14.524
502.64	15.129
502.98	14.840
503.33	14.298
503.67	14.130
504.02	13.923
504.36	14.209
504.71	14.378
505.06	13.870
505.40	14.214
505.75	14.754
506.09	14.319
506.44	14.810
506.78	14.725
507.13	14.938
507.47	14.543
507.82	14.394
508.16	14.197
508.51	14.627
508.85	14.927
509.19	14.638
509.54	14.890
509.88	15.007
510.23	15.299
510.57	14.500
510.92	15.094
511.26	14.863
511.61	14.631
511.95	14.739
512.30	15.116
512.64	14.743
512.98	14.657
513.33	15.272
513.67	14.278
514.02	15.278
514.36	14.271
514.70	15.104
515.05	15.276
515.39	15.223
515.74	15.217
516.08	14.369
516.42	15.908
516.77	15.142
517.11	14.698
517.46	15.111
517.80	15.874
518.14	16.050
518.49	15.076
518.83	15.434
519.17	15.240
519.52	15.828
519.86	15.892
520.20	15.761
520.55	14.951
520.89	15.315
521.23	15.131
521.58	15.480
521.92	15.241
522.26	15.464
522.61	15.914
522.95	15.110
523.29	15.920
523.64	15.863
523.98	15.402
524.32	16.218
524.66	15.367
525.01	15.912
525.35	15.451
525.69	16.241
526.04	15.155
526.38	15.920
526.72	15.398
527.06	15.132
527.41	15.510
527.75	15.914
528.09	15.939
528.43	16.223
528.78	15.260
529.12	15.940
529.46	15.402
529.80	15.332
530.15	16.638
530.49	15.540
530.83	15.348
531.17	15.771
531.51	15.644
531.86	16.466
532.20	16.220
532.54	16.038
532.88	15.939
533.22	15.910
533.57	16.792
533.91	16.554
534.25	16.393
534.59	16.322
534.93	15.563
535.27	16.113
535.62	16.089
535.96	16.212
536.30	15.805
536.64	16.697
536.98	16.052
537.32	16.914
537.66	17.654
538.01	16.254
538.35	15.834
538.69	15.325
539.03	17.045
539.37	16.667
539.71	16.216
540.05	16.966
540.39	16.381
540.73	16.211
541.07	16.983
541.42	15.535
541.76	16.667
542.10	16.164
542.44	16.139
542.78	16.119
543.12	16.091
543.46	17.216
543.80	15.887
544.14	16.697
544.48	17.139
544.82	17.834
545.16	16.816
545.50	17.016
545.84	16.779
546.18	17.037
546.52	16.497
546.86	16.289
547.20	16.412
547.54	16.417
547.88	16.275
548.22	16.316
548.56	17.028
548.90	16.299
549.24	16.231
549.58	16.530
549.92	16.837
550.26	16.375
550.60	17.230
550.94	16.753
551.28	16.502
551.62	17.453
551.96	16.699
552.30	17.527
552.64	16.677
552.98	16.532
553.32	17.492
553.66	17.106
554.00	17.213
554.34	16.860
554.68	17.301
555.02	16.360
555.36	17.291
555.69	16.976
556.03	16.709
556.37	17.647
556.71	16.233
557.05	17.188
557.39	16.855
557.73	16.182
558.07	16.026
558.41	17.010
558.75	17.579
559.08	16.841
559.42	16.667
559.76	17.436
560.10	17.147
560.44	17.876
560.78	18.188
561.12	17.241
561.45	17.457
561.79	17.033
562.13	17.375
562.47	16.954
562.81	18.165
563.15	17.487
563.48	17.216
563.82	17.352
564.16	16.233
564.50	17.163
564.84	17.522
565.17	17.235
565.51	17.664
565.85	16.686
566.19	17.800
566.52	17.145
566.86	17.997
567.20	16.639
567.54	17.260
567.88	17.074
568.21	17.638
568.55	18.177
568.89	17.749
569.23	17.997
569.56	17.155
569.90	17.035
570.24	17.808
570.57	17.415
570.91	17.606
571.25	17.269
571.59	18.091
571.92	17.697
572.26	17.946
572.60	17.226
572.93	17.117
573.27	16.774
573.61	17.496
573.95	17.771
574.28	17.566
574.62	17.303
574.96	17.336
575.29	17.184
575.63	17.648
575.97	17.198
576.30	17.197
576.64	17.108
576.98	17.380
577.31	17.367
577.65	17.912
577.98	17.828
578.32	17.577
578.66	17.471
578.99	17.428
579.33	17.452
579.67	17.248
580.00	17.532
580.34	17.168
580.67	17.365
581.01	17.438
581.35	17.923
581.68	17.587
582.02	17.655
582.35	17.971
582.69	17.824
583.02	17.529
583.36	17.560
583.70	17.473
584.03	16.967
584.37	17.082
584.70	17.042
585.04	16.996
585.37	17.587
585.71	17.886
586.04	17.349
586.38	17.734
586.72	16.997
587.05	17.421
587.39	17.502
587.72	17.751
588.06	17.432
588.39	17.252
588.73	17.249
589.06	17.212
589.40	17.087
589.73	16.838
590.07	17.042
590.40	17.377
590.73	16.614
591.07	17.424
591.40	16.563
591.74	17.329
592.07	17.743
592.41	16.838
592.74	18.140
593.08	17.675
593.41	18.373
593.75	17.557
594.08	17.661
594.41	17.756
594.75	17.967
595.08	17.328
595.42	17.468
595.75	17.469
596.09	17.824
596.42	17.485
596.75	17.522
597.09	17.737
597.42	17.004
597.75	17.209
598.09	17.579
598.42	17.169
598.76	17.272
599.09	17.871
599.42	17.767
599.76	17.035
600.09	18.185
600.42	17.985
600.76	17.933
601.09	17.723
601.42	17.336
601.76	17.690
602.09	17.191
602.42	17.048
602.76	17.269
603.09	17.548
603.42	17.630
603.76	18.006
604.09	18.204
604.42	17.358
604.76	17.580
605.09	18.030
605.42	17.663
605.75	17.269
606.09	17.320
606.42	17.986
606.75	17.016
607.09	17.243
607.42	17.148
607.75	18.523
608.08	17.048
608.42	16.808
608.75	17.081
609.08	17.233
609.41	17.865
609.75	17.679
610.08	17.854
610.41	17.757
610.74	17.395
611.07	17.052
611.41	17.489
611.74	17.875
612.07	18.139
612.40	17.728
612.73	17.946
613.07	18.093
613.40	18.142
613.73	17.477
614.06	16.830
614.39	17.541
614.72	17.613
615.06	17.517
615.39	17.303
615.72	17.725
616.05	17.387
616.38	17.911
616.71	17.241
617.05	17.093
617.38	17.549
617.71	18.467
618.04	18.079
618.37	18.197
618.70	17.930
619.03	17.324
619.36	16.523
619.69	17.361
620.03	17.075
620.36	17.362
620.69	17.582
621.02	18.373
621.35	18.287
621.68	17.570
622.01	17.438
622.34	17.225
622.67	17.595
623.00	17.004
623.33	17.585
623.66	18.872
623.99	18.104
624.32	18.454
624.65	17.632
624.99	17.360
625.32	17.831
625.65	18.004
625.98	16.881
626.31	16.442
626.64	16.703
626.97	17.704
627.30	16.477
627.63	17.329
627.96	19.144
628.29	17.432
628.62	16.205
628.95	15.776
629.28	15.973
629.61	16.582
629.94	16.234
630.26	16.949
630.59	17.703
630.92	17.056
631.25	18.068
631.58	17.797
631.91	18.088
632.24	17.291
632.57	16.509
632.90	17.854
633.23	18.673
633.56	17.041
633.89	16.426
634.22	17.983
634.55	17.954
634.88	15.152
635.20	17.330
635.53	17.740
635.86	16.468
636.19	17.922
636.52	17.405
636.85	16.752
637.18	17.775
637.51	16.559
637.83	19.269
638.16	17.281
638.49	16.197
638.82	17.024
639.15	16.495
639.48	18.129
639.81	16.513
640.13	17.079
640.46	16.848
640.79	17.402
641.12	17.019
641.45	16.688
641.77	17.843
642.10	16.273
642.43	17.420
642.76	16.802
643.09	17.397
643.41	15.966
643.74	15.862
644.07	17.793
644.40	16.973
644.73	16.110
645.05	16.446
645.38	15.827
645.71	15.982
646.04	16.212
646.36	16.788
646.69	16.564
647.02	15.443
647.35	17.099
647.67	18.357
648.00	15.605
648.33	17.417
648.66	17.832
648.98	16.735
649.31	16.644
649.64	17.397
649.96	15.915
650.29	14.882
650.62	14.851
650.94	16.366
651.27	16.018
651.60	14.912
651.92	15.805
652.25	16.787
652.58	16.369
652.90	15.698
653.23	18.169
653.56	14.979
653.88	18.680
654.21	16.620
654.54	18.208
654.86	17.139
655.19	16.060
655.52	19.633
655.84	20.309
656.17	23.573
656.49	32.349
656.82	34.199
657.15	25.641
657.47	18.149
657.80	13.240
658.13	10.008
658.45	12.541
658.78	14.456
659.10	13.770
659.43	13.196
659.75	12.444
660.08	11.597
660.41	11.580
660.73	12.771
661.06	12.041
661.38	15.311
661.71	15.172
662.03	16.402
662.36	16.458
662.68	14.822
663.01	16.637
663.33	15.690
663.66	16.300
663.98	12.692
664.31	16.510
664.63	13.487
664.96	16.334
665.28	15.971
665.61	15.035
665.93	14.286
666.26	16.487
666.58	12.546
666.91	15.327
667.23	15.619
667.56	14.398
667.88	14.400
668.21	12.695
668.53	12.741
668.86	14.735
669.18	12.627
669.50	13.320
669.83	12.400
670.15	13.780
670.48	13.294
670.80	12.620
671.13	14.745
671.45	12.008
671.77	15.066
672.10	15.333
672.42	13.916
672.75	14.286
673.07	14.030
673.39	15.100
673.72	15.436
674.04	15.345
674.37	15.564
674.69	16.931
675.01	12.000
675.34	14.504
675.66	12.172
675.98	17.537
676.31	13.867
676.63	16.160
676.95	16.858
677.28	14.718
677.60	12.992
677.92	13.436
678.25	14.991
678.57	14.947
678.89	15.870
679.22	12.718
679.54	13.846
679.86	12.203
680.18	13.930
680.51	13.836
680.83	15.057
681.15	14.138
681.48	14.508
681.80	13.299
682.12	16.084
682.44	13.189
682.77	14.716
683.09	12.879
683.41	12.597
683.73	14.991
684.06	13.284
684.38	10.912
684.70	15.440
685.02	13.941
685.34	12.646
685.67	14.984
685.99	13.804
686.31	13.953
686.63	12.480
686.96	14.353
687.28	13.192
687.60	13.131
687.92	13.344
688.24	14.357
688.56	11.552
688.89	13.975
689.21	12.916
689.53	9.608
689.85	12.229
690.17	12.407
690.49	13.546
690.82	14.653
691.14	11.336
691.46	13.002
691.78	13.628
692.10	15.229
692.42	13.393
692.74	13.067
693.06	10.556
693.39	16.698
693.71	13.534
694.03	13.197
694.35	12.000
694.67	13.758
694.99	10.426
695.31	13.245
695.63	12.987
695.95	10.766
696.27	11.648
696.59	15.708
696.91	12.838
697.23	12.088
697.56	13.035
697.88	15.341
698.20	13.748
698.52	15.909
698.84	12.266
699.16	13.673
699.48	11.088
699.80	10.638
700.12	13.755
700.44	10.599
700.76	11.876
701.08	10.412
701.40	9.585
701.72	14.179
702.04	11.765
702.36	8.901
702.68	13.203
703.00	8.557
703.32	11.576
703.64	12.714
703.96	10.740
704.28	11.548
704.60	13.165
704.91	10.969
705.23	10.685
705.55	8.357
705.87	11.212
706.19	10.429
706.51	7.831
706.83	8.069
707.15	7.407
707.47	9.112
707.79	10.480
708.11	8.686
708.43	10.323
708.74	8.705
709.06	11.369
709.38	10.798
709.70	11.166
710.02	11.370
710.34	10.904
710.66	6.704
710.98	9.836
711.29	11.264
711.61	9.887
711.93	12.251
712.25	10.000
712.57	10.914
712.89	10.294
713.20	9.172
713.52	8.671
713.84	12.256
714.16	9.474
714.48	8.505
714.80	11.948
715.11	10.236
715.43	10.080
715.75	8.684
716.07	10.221
716.39	8.197
716.70	4.217
717.02	4.262
717.34	9.059
717.66	4.698
717.97	6.507
718.29	7.904
718.61	9.539
718.93	9.061
719.24	7.143
719.56	5.828
719.88	6.306
720.20	3.871
720.51	6.522
720.83	8.750
721.15	5.263
721.46	4.110
721.78	9.333
722.10	7.120
722.42	5.369
722.73	10.323
723.05	8.772
723.37	5.556
723.68	8.244
724.00	6.498
724.32	4.930
724.63	5.594
724.95	5.674
725.27	4.530
725.58	4.594
725.90	8.276
726.22	5.956
726.53	8.117
726.85	8.176
727.16	7.251
727.48	8.257
727.80	5.629
728.11	2.827
728.43	9.764
728.74	9.699
729.06	4.967
729.38	7.143
729.69	9.396
730.01	9.821
730.32	10.000
730.64	7.233
730.96	7.764
731.27	10.894
731.59	6.868
731.90	7.013
732.22	5.469
732.53	6.906
732.85	7.143
733.16	7.331
733.48	6.402
733.80	7.799
734.11	8.832
734.43	10.000
734.74	10.633
735.06	7.789
735.37	8.108
735.69	9.730
736.00	12.429
736.32	11.321
736.63	8.889
736.95	8.333
737.26	9.394
737.58	8.485
737.89	9.706
738.21	5.505
738.52	4.918
738.83	9.215
739.15	6.028
739.46	6.463
739.78	9.202
740.09	5.444
740.41	8.163
740.72	4.667
741.04	6.472
741.35	8.070
741.66	3.137
741.98	4.098
742.29	0.000
742.61	2.632
742.92	5.769
743.23	6.137
743.55	5.039
743.86	5.200
744.18	-3.719
744.49	1.688
744.80	9.877
745.12	5.907
745.43	4.878
745.74	4.310
746.06	4.237
746.37	8.017
746.68	9.350
747.00	5.000
747.31	3.433
747.62	3.462
747.94	5.668
748.25	4.418
748.56	0.816
748.88	1.709
749.19	3.017
749.50	5.195
749.82	4.418
750.13	8.897
750.44	8.333
750.75	6.769
751.07	9.231
751.38	5.678
751.69	8.307
752.01	5.178
752.32	6.209
752.63	5.442
752.94	5.882
753.26	3.717
753.57	1.481
753.88	5.993
754.19	8.682
754.51	6.109
754.82	3.537
755.13	5.574
755.44	3.754
755.75	5.263
756.07	9.851
756.38	8.805
756.69	10.241
757.00	7.202
757.31	6.284
757.63	6.394
757.94	7.746
758.25	9.029
758.56	7.625
758.87	9.091
759.18	6.667
759.50	6.232
759.81	7.843
760.12	7.817
760.43	8.854
760.74	10.099
761.05	6.250
761.36	9.157
761.67	8.376
761.99	5.405
762.30	2.439
762.61	1.980
762.92	5.224
763.23	5.618
763.54	6.475
763.85	5.498
764.16	4.377
764.47	4.225
764.78	8.626
765.10	9.091
765.41	10.513
765.72	5.026
766.03	9.040
766.34	2.508
766.65	5.575
766.96	1.195
767.27	-1.843
767.58	0.000
767.89	3.846
768.20	-1.408
768.51	0.000
768.82	3.213
769.13	1.515
769.44	-1.154
769.75	3.610
770.06	7.308
770.37	5.512
770.68	-0.426
770.99	-4.858
771.30	10.000
771.61	5.703
771.92	0.000
772.23	3.644
772.54	0.000
772.85	0.922
773.16	1.905
773.47	-0.529
773.78	-3.784
774.09	-4.545
774.39	-1.000
774.70	2.186
775.01	-9.756
775.32	-4.706
775.63	-7.362
775.94	-12.739
776.25	-9.032
776.56	-5.128
776.87	-2.721
777.18	-6.207
777.48	-14.685
777.79	-10.135
778.10	-11.765
778.41	-9.722
778.72	-5.517
779.03	-9.259
779.34	-4.848
779.65	-3.627
779.95	-2.222
780.26	-7.955
780.57	-3.226
780.88	-7.246
781.19	-6.452
781.50	-2.941
781.80	-2.688
782.11	-5.820
782.42	-10.606
782.73	-8.383
783.04	-5.587
783.34	-7.879
783.65	-13.725
783.96	-6.211
784.27	-11.310
784.57	-10.596
784.88	-5.714
785.19	-11.024
785.50	-3.937
785.81	-9.774
786.11	-15.385
786.42	-17.986
786.73	-6.475
787.04	-9.023
787.34	-20.492
787.65	-16.800
787.96	-14.179
788.26	-0.699
788.57	-11.189
788.88	-15.132
789.19	-7.843
789.49	-12.329
789.80	-4.255
790.11	-11.811
790.41	-14.062
790.72	-18.644
791.03	-30.097
791.33	-20.870
791.64	-11.404
791.95	-18.750
792.25	-16.190
792.56	-24.107
792.87	-31.250
793.17	-16.071
793.48	-29.167
793.79	-39.759
794.09	-19.266
794.40	-14.679
794.70	-6.122
795.01	-12.338
795.32	-10.274
795.62	-8.451
795.93	-11.364
796.23	-15.574
796.54	-15.179
796.85	-18.085
797.15	-26.087
797.46	-38.356
797.76	-35.000
798.07	-40.217
798.37	-30.928
798.68	-37.662
798.99	-27.586
799.29	-35.955
799.60	-14.894
799.90	-18.072
800.21	-53.846
800.51	-52.239
800.82	-41.176
801.12	-49.315
801.43	-58.824
801.73	-57.627
802.04	-51.515
802.34	-66.667
802.65	-45.763
802.95	-47.761
803.26	-57.627
803.56	-35.616
803.87	-37.143
804.17	-35.616
804.48	-61.404
804.78	-33.333
805.09	-67.241
805.39	-37.838
805.70	-50.704
806.00	-37.805
806.30	-31.325
806.61	-45.205
806.91	-17.308
807.22	-25.556
807.52	-25.287
807.83	-19.444
808.13	-22.892
808.43	-31.461
808.74	-38.750
809.04	-51.471
809.35	-44.000
809.65	-44.286
809.95	-42.466
810.26	-66.667
810.56	-51.724
810.86	-39.706
811.17	-49.123
811.47	-57.377
811.77	-88.889
812.08	-54.237
812.38	-33.333
812.69	-37.931
812.99	-79.245
813.29	-112.821
813.59	-50.000
813.90	-52.632
814.20	-58.182
814.50	-33.803
814.81	-23.077
815.11	-55.738
815.41	-50.746
815.72	-32.759
816.02	-58.929
816.32	-62.222
816.62	-54.545
816.93	-66.667
817.23	-35.185
817.53	-65.957
817.84	-83.333
818.14	-100.000
818.44	-61.224
818.74	-82.222
819.04	-123.077
819.35	-111.429
819.65	-142.308
819.95	-54.717
820.25	-82.222
820.56	-97.619
820.86	-109.375
821.16	-92.308
821.46	-76.744
821.76	-72.000
822.07	-53.571
822.37	-80.435
822.67	-78.723
822.97	-135.135
823.27	-92.500
823.57	-55.102
823.88	-73.333
824.18	-77.500
824.48	-140.000
824.78	-148.000
825.08	-96.970
825.38	-46.667
825.69	-65.957
825.99	-77.778
826.29	-117.143
826.59	-71.795
826.89	-74.419
827.19	-54.000
827.49	-94.118
827.79	-64.583
828.09	-97.297
828.39	-113.333
828.70	-75.610
829.00	-60.465
829.30	-125.000
829.60	-58.824
829.90	-84.783
830.20	-117.143
830.50	-131.034
830.80	-200.000
831.10	-134.615
831.40	-108.824
831.70	-157.143
832.00	-103.226
832.30	-264.706
832.60	-175.000
832.90	-323.077
833.20	-200.000
833.50	-210.000
833.80	-221.053
834.10	-195.238
834.40	-83.333
834.70	-100.000
835.00	-134.286
835.30	-108.824
835.60	-150.000
835.90	-160.000
836.20	-240.909
836.50	-176.000
836.80	-136.364
837.10	-129.630
837.40	-129.630
837.70	-312.500
838.00	-103.571
838.30	-186.957
838.60	-89.655
838.90	-257.143
839.19	-226.087
839.49	-375.000
839.79	-169.565
840.09	-312.500
840.39	-210.000
840.69	-106.452
840.99	-142.857
841.29	-280.000
841.59	-236.842
841.88	-48.718
842.18	-134.615
842.48	-420.000
842.78	-220.000
843.08	-116.667
843.38	-116.129
843.68	-255.556
843.97	-108.824
844.27	-181.250
844.57	-184.211
844.87	-380.000
845.17	-300.000
845.47	-142.857
845.76	-209.524
846.06	-433.333
846.36	-229.412
846.66	-142.308
846.96	-280.000
847.25	-241.176
847.55	-126.087
847.85	-205.000
848.15	-211.765
848.44	-363.636
848.74	-166.667
849.04	-179.167
849.34	-250.000
849.63	-178.261
849.93	2350.000
850.23	-306.667
850.53	-130.769
850.82	-327.273
851.12	-131.818
851.42	-381.818
851.71	-230.769
852.01	-200.000
852.31	-276.923
852.61	-194.737
852.90	-350.000
853.20	-183.333
853.50	-455.556
853.79	-209.524
854.09	-190.909
854.39	-375.000
854.68	-80.645
854.98	-111.538
855.28	-183.333
855.57	-182.143
855.87	-144.000
856.17	-140.909
856.46	-144.444
856.76	-194.444
857.05	-169.565
857.35	-183.333
857.65	-276.923
857.94	-171.429
858.24	-114.815
858.53	-143.478
858.83	-241.176
859.13	-229.412
859.42	-194.118
859.72	-207.143
860.01	-180.000
860.31	-488.889
860.60	-410.000
860.90	-266.667
861.20	-200.000
861.49	-300.000
861.79	-110.000
862.08	-338.462
862.38	-96.875
862.67	-158.824
862.97	-237.500
863.26	-488.889
863.56	-420.000
863.85	-318.182
864.15	-155.556
864.44	-1100.000
864.74	-285.714
865.03	-237.500
865.33	-460.000
865.62	-116.129
865.92	-100.000
866.21	-169.565
866.51	-242.857
866.80	-840.000
867.10	-291.667
867.39	-416.667
867.69	4600.000
867.98	-500.000
868.27	-188.235
868.57	-4200.000
868.86	-470.000
869.16	-242.857
869.45	-162.500
869.75	-345.455
870.04	-528.571
870.33	-400.000
870.63	-700.000
870.92	-825.000
871.22	-562.500
871.51	-400.000
871.80	-1766.667
872.10	-2150.000
>>>>>End Processed Spectral Data<<<<<
