SpectraSuite Data File
++++++++++++++++++++++++++++++++++++
Date: Thu May 14 16:30:30 PDT 2015
User: schluterlab
Dark Spectrum Present: Yes
Reference Spectrum Present: Yes
Number of Sampled Component Spectra: 1
Spectrometers: USB2E3373
Integration Time (usec): 3000 (USB2E3373)
Spectra Averaged: 3 (USB2E3373)
Boxcar Smoothing: 0 (USB2E3373)
Correct for Electrical Dark: No (USB2E3373)
Strobe/Lamp Enabled: No (USB2E3373)
Correct for Detector Non-linearity: No (USB2E3373)
Correct for Stray Light: No (USB2E3373)
Number of Pixels in Processed Spectrum: 2048
>>>>>Begin Processed Spectral Data<<<<<
178.53	0.000
178.91	28.571
179.29	-1100.000
179.67	-800.000
180.04	107.143
180.42	-100.000
180.80	140.000
181.18	-1000.000
181.56	1000.000
181.94	-100.000
182.31	125.000
182.69	166.667
183.07	-150.000
183.45	-0.000
183.83	-33.333
184.20	33.333
184.58	400.000
184.96	50.000
185.34	-100.000
185.72	20.000
186.09	177.778
186.47	350.000
186.85	180.000
187.23	-100.000
187.61	-1000.000
187.98	140.000
188.36	250.000
188.74	50.000
189.12	-100.000
189.49	-37.500
189.87	-125.000
190.25	77.778
190.63	-80.000
191.00	-111.111
191.38	0.000
191.76	-225.000
192.14	-50.000
192.51	100.000
192.89	66.667
193.27	0.000
193.65	14.286
194.02	-900.000
194.40	-57.143
194.78	114.286
195.15	0.000
195.53	-9.091
195.91	0.000
196.29	125.000
196.66	30.769
197.04	500.000
197.42	42.857
197.79	-350.000
198.17	-50.000
198.55	-42.857
198.92	-22.222
199.30	-162.500
199.68	-9.091
200.05	21.429
200.43	-750.000
200.81	228.571
201.18	0.000
201.56	55.556
201.94	0.000
202.31	100.000
202.69	22.222
203.07	-400.000
203.44	33.333
203.82	-225.000
204.19	0.000
204.57	-33.333
204.95	37.500
205.32	0.000
205.70	150.000
206.08	-116.667
206.45	0.000
206.83	20.000
207.20	100.000
207.58	-280.000
207.96	-166.667
208.33	116.667
208.71	-8.333
209.08	83.333
209.46	0.000
209.84	66.667
210.21	-50.000
210.59	-150.000
210.96	-0.000
211.34	125.000
211.71	-12.500
212.09	200.000
212.46	0.000
212.84	550.000
213.22	-20.000
213.59	0.000
213.97	0.000
214.34	-300.000
214.72	-33.333
215.09	-150.000
215.47	0.000
215.84	28.571
216.22	300.000
216.59	-20.000
216.97	-60.000
217.34	0.000
217.72	87.500
218.09	50.000
218.47	-100.000
218.84	0.000
219.22	-0.000
219.59	-11.765
219.97	50.000
220.34	-0.000
220.72	11.111
221.09	53.846
221.47	400.000
221.84	-20.000
222.22	-71.429
222.59	0.000
222.97	-62.500
223.34	-140.000
223.72	100.000
224.09	-175.000
224.46	100.000
224.84	100.000
225.21	-157.143
225.59	-250.000
225.96	50.000
226.34	38.462
226.71	100.000
227.08	-350.000
227.46	-13.333
227.83	50.000
228.21	36.842
228.58	75.000
228.95	300.000
229.33	-16.667
229.70	50.000
230.08	89.474
230.45	50.000
230.82	-133.333
231.20	42.857
231.57	100.000
231.95	0.000
232.32	27.273
232.69	30.000
233.07	100.000
233.44	17.647
233.81	50.000
234.19	50.000
234.56	31.818
234.93	48.276
235.31	-15.789
235.68	0.000
236.05	-25.000
236.43	30.769
236.80	56.000
237.17	29.630
237.55	30.303
237.92	70.000
238.29	22.581
238.67	34.091
239.04	38.889
239.41	33.333
239.79	39.130
240.16	33.333
240.53	47.826
240.91	25.490
241.28	45.902
241.65	40.299
242.02	48.649
242.40	27.692
242.77	42.667
243.14	30.488
243.51	32.895
243.89	41.026
244.26	58.416
244.63	48.039
245.00	39.252
245.38	42.982
245.75	25.664
246.12	39.683
246.49	32.558
246.87	45.000
247.24	42.384
247.61	45.395
247.98	39.597
248.36	40.741
248.73	37.423
249.10	42.077
249.47	41.294
249.84	40.838
250.22	36.269
250.59	46.111
250.96	40.455
251.33	40.816
251.70	38.889
252.08	40.000
252.45	43.033
252.82	39.669
253.19	37.891
253.56	38.023
253.94	37.308
254.31	42.803
254.68	39.860
255.05	41.694
255.42	41.837
255.79	41.100
256.16	42.053
256.54	37.748
256.91	41.967
257.28	40.984
257.65	41.720
258.02	37.168
258.39	40.456
258.76	43.731
259.14	40.517
259.51	36.599
259.88	37.960
260.25	40.556
260.62	37.260
260.99	42.077
261.36	39.142
261.73	39.257
262.10	42.033
262.47	42.359
262.85	39.141
263.22	40.519
263.59	40.263
263.96	37.852
264.33	38.107
264.70	36.543
265.07	44.630
265.44	40.590
265.81	37.500
266.18	40.816
266.55	41.295
266.92	39.180
267.29	41.357
267.66	40.798
268.03	41.921
268.40	38.205
268.77	41.002
269.14	35.903
269.51	41.009
269.88	41.393
270.25	38.028
270.62	40.506
270.99	39.798
271.36	40.000
271.73	38.900
272.10	38.477
272.47	38.076
272.84	36.546
273.21	36.072
273.58	40.524
273.95	37.500
274.32	34.791
274.69	36.750
275.06	35.897
275.43	36.044
275.80	36.508
276.17	38.333
276.54	36.194
276.91	37.030
277.28	38.156
277.65	38.779
278.02	41.544
278.39	38.406
278.76	39.192
279.13	35.284
279.50	39.691
279.87	36.315
280.23	35.211
280.60	36.780
280.97	36.184
281.34	35.993
281.71	39.763
282.08	36.877
282.45	36.170
282.82	34.694
283.19	34.087
283.56	34.426
283.92	34.384
284.29	35.071
284.66	35.961
285.03	34.776
285.40	34.003
285.77	35.759
286.14	36.947
286.51	36.986
286.87	34.281
287.24	34.337
287.61	34.679
287.98	35.952
288.35	32.249
288.72	33.432
289.08	32.211
289.45	32.692
289.82	32.229
290.19	34.339
290.56	34.648
290.93	32.953
291.29	34.022
291.66	32.507
292.03	31.615
292.40	32.109
292.77	32.075
293.13	32.476
293.50	30.749
293.87	31.141
294.24	33.067
294.60	30.973
294.97	29.664
295.34	32.266
295.71	30.139
296.08	29.974
296.44	30.270
296.81	31.060
297.18	29.639
297.55	29.835
297.91	29.063
298.28	28.318
298.65	28.775
299.02	29.516
299.38	29.405
299.75	28.154
300.12	28.356
300.48	28.341
300.85	28.459
301.22	28.859
301.59	26.712
301.95	29.718
302.32	28.889
302.69	29.244
303.05	27.095
303.42	28.714
303.79	28.333
304.15	29.232
304.52	27.061
304.89	28.796
305.25	28.054
305.62	27.691
305.99	28.866
306.35	28.831
306.72	29.576
307.09	26.904
307.45	28.571
307.82	27.851
308.19	27.245
308.55	28.544
308.92	29.406
309.29	27.682
309.65	28.752
310.02	26.634
310.38	29.134
310.75	29.612
311.12	30.489
311.48	28.837
311.85	29.915
312.22	29.412
312.58	28.920
312.95	30.402
313.31	28.004
313.68	28.663
314.05	29.810
314.41	28.689
314.78	29.428
315.14	29.855
315.51	30.656
315.87	29.973
316.24	31.142
316.61	31.439
316.97	30.226
317.34	30.600
317.70	32.664
318.07	31.922
318.43	30.697
318.80	31.020
319.16	30.472
319.53	29.734
319.89	30.237
320.26	31.495
320.62	31.294
320.99	30.656
321.35	31.978
321.72	32.372
322.08	32.642
322.45	34.146
322.81	33.574
323.18	33.274
323.54	34.483
323.91	35.053
324.27	33.305
324.64	34.761
325.00	34.909
325.37	35.299
325.73	34.876
326.10	36.010
326.46	34.691
326.83	36.509
327.19	35.591
327.56	36.522
327.92	35.563
328.29	35.161
328.65	36.265
329.01	38.156
329.38	36.731
329.74	37.671
330.11	37.329
330.47	37.489
330.84	36.520
331.20	37.417
331.56	37.435
331.93	36.987
332.29	37.797
332.66	36.130
333.02	35.678
333.38	35.990
333.75	36.195
334.11	36.781
334.48	37.046
334.84	37.638
335.20	36.440
335.57	36.172
335.93	36.198
336.29	35.191
336.66	37.090
337.02	37.291
337.38	35.714
337.75	34.959
338.11	37.426
338.47	36.890
338.84	36.379
339.20	36.647
339.56	36.656
339.93	35.961
340.29	34.058
340.65	35.766
341.02	35.674
341.38	37.025
341.74	36.481
342.11	36.042
342.47	34.790
342.83	35.588
343.20	35.323
343.56	36.167
343.92	35.548
344.28	35.078
344.65	35.814
345.01	35.803
345.37	34.914
345.73	35.230
346.10	36.193
346.46	34.889
346.82	35.356
347.19	35.065
347.55	36.343
347.91	35.215
348.27	35.964
348.63	34.425
349.00	33.706
349.36	35.316
349.72	33.705
350.08	34.324
350.45	34.525
350.81	35.143
351.17	34.812
351.53	34.647
351.89	35.232
352.26	35.672
352.62	33.881
352.98	35.420
353.34	34.130
353.70	35.516
354.07	35.320
354.43	34.852
354.79	34.256
355.15	33.554
355.51	34.357
355.87	34.405
356.24	35.665
356.60	34.590
356.96	35.137
357.32	33.086
357.68	34.334
358.04	34.431
358.40	34.851
358.77	34.284
359.13	34.712
359.49	34.944
359.85	34.373
360.21	34.935
360.57	34.602
360.93	34.344
361.29	34.737
361.66	34.468
362.02	35.560
362.38	34.926
362.74	33.799
363.10	34.869
363.46	34.003
363.82	34.801
364.18	34.764
364.54	34.993
364.90	33.846
365.26	33.931
365.62	34.867
365.98	34.445
366.35	35.436
366.71	35.170
367.07	34.777
367.43	33.618
367.79	35.169
368.15	34.716
368.51	34.574
368.87	34.553
369.23	34.933
369.59	35.587
369.95	34.077
370.31	34.909
370.67	34.594
371.03	35.526
371.39	34.587
371.75	34.250
372.11	34.485
372.47	33.446
372.83	35.079
373.19	33.823
373.55	34.485
373.91	34.015
374.27	34.217
374.63	35.115
374.99	33.488
375.35	34.935
375.71	34.516
376.07	34.668
376.42	35.076
376.78	34.618
377.14	35.434
377.50	34.978
377.86	35.653
378.22	35.210
378.58	35.375
378.94	34.977
379.30	34.564
379.66	35.979
380.02	34.911
380.38	36.233
380.74	34.817
381.09	35.250
381.45	35.341
381.81	35.304
382.17	35.867
382.53	34.737
382.89	34.819
383.25	35.346
383.61	34.838
383.97	34.452
384.32	35.706
384.68	34.571
385.04	35.917
385.40	36.889
385.76	36.811
386.12	34.710
386.48	35.765
386.83	35.936
387.19	35.805
387.55	35.681
387.91	35.845
388.27	37.356
388.62	35.452
388.98	35.928
389.34	36.535
389.70	37.071
390.06	36.649
390.42	36.687
390.77	37.026
391.13	35.798
391.49	35.870
391.85	35.758
392.20	35.647
392.56	36.680
392.92	36.205
393.28	37.645
393.64	36.480
393.99	37.013
394.35	37.383
394.71	36.766
395.07	35.689
395.42	35.237
395.78	37.172
396.14	37.730
396.50	36.639
396.85	35.540
397.21	36.686
397.57	37.691
397.92	37.514
398.28	37.099
398.64	37.071
399.00	36.806
399.35	37.173
399.71	37.554
400.07	37.170
400.42	37.602
400.78	37.500
401.14	37.678
401.49	38.260
401.85	37.733
402.21	38.297
402.57	39.437
402.92	38.121
403.28	37.998
403.63	37.172
403.99	38.124
404.35	36.555
404.70	37.677
405.06	37.826
405.42	37.529
405.77	39.531
406.13	37.817
406.49	38.795
406.84	38.061
407.20	39.407
407.55	38.764
407.91	38.655
408.27	38.163
408.62	38.976
408.98	39.060
409.34	38.065
409.69	40.420
410.05	39.918
410.40	40.081
410.76	38.531
411.11	39.100
411.47	40.848
411.83	40.682
412.18	40.602
412.54	40.486
412.89	39.697
413.25	40.801
413.60	39.575
413.96	41.200
414.31	38.980
414.67	39.893
415.03	40.123
415.38	40.731
415.74	40.440
416.09	41.579
416.45	40.388
416.80	40.942
417.16	41.635
417.51	39.415
417.87	41.876
418.22	40.958
418.58	39.839
418.93	41.618
419.29	41.245
419.64	40.936
420.00	41.721
420.35	41.662
420.71	41.470
421.06	41.173
421.42	42.087
421.77	40.926
422.12	41.596
422.48	40.758
422.83	42.497
423.19	42.493
423.54	42.035
423.90	41.745
424.25	42.560
424.61	42.250
424.96	43.053
425.31	42.304
425.67	42.083
426.02	41.671
426.38	42.710
426.73	42.243
427.09	42.561
427.44	43.037
427.79	42.344
428.15	42.808
428.50	42.135
428.85	42.423
429.21	43.191
429.56	43.139
429.92	40.983
430.27	42.988
430.62	42.794
430.98	43.237
431.33	42.326
431.68	42.625
432.04	43.525
432.39	42.742
432.74	41.610
433.10	43.158
433.45	42.085
433.80	43.509
434.16	43.130
434.51	43.371
434.86	43.105
435.22	43.464
435.57	44.045
435.92	44.352
436.28	44.539
436.63	44.511
436.98	42.995
437.34	42.841
437.69	42.873
438.04	43.469
438.39	43.711
438.75	42.501
439.10	44.133
439.45	43.600
439.81	43.842
440.16	43.003
440.51	43.534
440.86	43.469
441.22	43.676
441.57	43.711
441.92	44.035
442.27	43.687
442.63	43.865
442.98	43.757
443.33	43.714
443.68	44.400
444.03	44.779
444.39	44.198
444.74	43.492
445.09	44.045
445.44	44.942
445.79	44.349
446.15	44.450
446.50	44.651
446.85	44.601
447.20	44.004
447.55	44.508
447.91	43.037
448.26	43.975
448.61	44.899
448.96	44.528
449.31	43.902
449.66	43.519
450.02	43.196
450.37	44.646
450.72	43.864
451.07	44.761
451.42	43.616
451.77	43.747
452.12	44.187
452.47	43.791
452.83	44.932
453.18	44.367
453.53	44.630
453.88	44.064
454.23	44.802
454.58	44.515
454.93	43.689
455.28	43.769
455.63	44.059
455.98	44.525
456.34	44.641
456.69	45.385
457.04	44.740
457.39	43.237
457.74	45.134
458.09	43.602
458.44	44.127
458.79	43.785
459.14	42.632
459.49	44.086
459.84	44.596
460.19	43.531
460.54	44.804
460.89	45.633
461.24	43.563
461.59	44.328
461.94	43.012
462.29	45.073
462.64	43.452
462.99	44.382
463.34	44.257
463.69	42.438
464.04	43.969
464.39	44.114
464.74	43.330
465.09	44.983
465.44	44.689
465.79	43.681
466.14	43.825
466.49	43.263
466.84	44.298
467.19	43.699
467.54	44.066
467.89	44.310
468.24	44.155
468.59	43.486
468.94	43.065
469.29	44.271
469.64	43.547
469.99	44.041
470.34	42.884
470.68	44.429
471.03	44.466
471.38	44.016
471.73	43.823
472.08	43.274
472.43	44.070
472.78	45.025
473.13	43.742
473.48	44.350
473.83	44.806
474.17	44.959
474.52	44.558
474.87	44.408
475.22	45.465
475.57	44.081
475.92	43.803
476.27	44.728
476.61	43.354
476.96	43.900
477.31	44.257
477.66	44.753
478.01	43.162
478.36	44.068
478.70	44.532
479.05	45.603
479.40	44.521
479.75	45.005
480.10	44.529
480.45	44.713
480.79	44.172
481.14	43.888
481.49	44.980
481.84	44.560
482.19	44.344
482.53	44.250
482.88	44.572
483.23	44.375
483.58	43.188
483.92	43.218
484.27	44.327
484.62	43.688
484.97	44.635
485.31	44.069
485.66	42.020
486.01	41.477
486.36	42.813
486.70	44.493
487.05	45.444
487.40	45.554
487.75	45.776
488.09	45.618
488.44	44.544
488.79	44.755
489.13	44.316
489.48	42.796
489.83	43.742
490.17	43.459
490.52	43.555
490.87	43.909
491.22	44.627
491.56	44.241
491.91	44.265
492.26	44.180
492.60	43.244
492.95	44.186
493.30	43.837
493.64	44.240
493.99	44.386
494.34	42.683
494.68	43.555
495.03	44.802
495.37	44.119
495.72	44.218
496.07	43.953
496.41	43.930
496.76	45.121
497.11	44.161
497.45	43.505
497.80	44.469
498.14	43.628
498.49	43.980
498.84	43.190
499.18	44.354
499.53	44.709
499.87	44.352
500.22	43.589
500.56	43.860
500.91	43.982
501.26	44.682
501.60	43.615
501.95	43.639
502.29	44.362
502.64	44.687
502.98	44.176
503.33	43.067
503.67	43.873
504.02	43.345
504.36	44.727
504.71	44.097
505.06	42.974
505.40	43.739
505.75	44.536
506.09	44.291
506.44	44.522
506.78	44.954
507.13	44.675
507.47	44.292
507.82	44.792
508.16	44.264
508.51	44.257
508.85	44.119
509.19	44.008
509.54	44.909
509.88	44.828
510.23	44.633
510.57	44.611
510.92	43.783
511.26	43.386
511.61	43.457
511.95	44.510
512.30	44.953
512.64	43.928
512.98	44.672
513.33	45.413
513.67	44.059
514.02	45.069
514.36	45.831
514.70	45.208
515.05	45.099
515.39	45.407
515.74	46.129
516.08	44.585
516.42	45.369
516.77	45.110
517.11	44.146
517.46	44.963
517.80	46.179
518.14	45.919
518.49	45.933
518.83	45.184
519.17	43.996
519.52	44.864
519.86	44.984
520.20	44.782
520.55	45.071
520.89	45.552
521.23	45.840
521.58	45.593
521.92	45.949
522.26	45.246
522.61	44.734
522.95	44.983
523.29	45.747
523.64	45.067
523.98	46.834
524.32	46.476
524.66	44.963
525.01	45.187
525.35	46.123
525.69	43.968
526.04	45.293
526.38	45.402
526.72	46.078
527.06	46.510
527.41	45.889
527.75	47.209
528.09	46.045
528.43	46.477
528.78	45.549
529.12	45.986
529.46	45.756
529.80	46.396
530.15	45.913
530.49	45.789
530.83	46.694
531.17	46.177
531.51	46.209
531.86	46.214
532.20	47.256
532.54	47.098
532.88	46.485
533.22	46.494
533.57	46.220
533.91	45.455
534.25	45.676
534.59	45.977
534.93	45.897
535.27	46.535
535.62	45.935
535.96	46.426
536.30	46.592
536.64	46.847
536.98	48.155
537.32	46.543
537.66	46.725
538.01	44.169
538.35	45.859
538.69	45.673
539.03	46.352
539.37	45.819
539.71	46.306
540.05	45.444
540.39	45.049
540.73	44.869
541.07	45.371
541.42	44.182
541.76	45.077
542.10	44.813
542.44	46.163
542.78	45.438
543.12	44.815
543.46	46.703
543.80	44.904
544.14	45.242
544.48	46.336
544.82	45.183
545.16	46.333
545.50	46.016
545.84	46.601
546.18	46.605
546.52	45.987
546.86	44.717
547.20	46.247
547.54	44.944
547.88	46.775
548.22	45.439
548.56	46.284
548.90	45.672
549.24	45.593
549.58	43.785
549.92	44.133
550.26	46.019
550.60	46.522
550.94	45.666
551.28	45.743
551.62	46.833
551.96	45.955
552.30	45.188
552.64	46.609
552.98	45.228
553.32	46.174
553.66	46.559
554.00	45.271
554.34	45.946
554.68	45.190
555.02	45.138
555.36	46.022
555.69	45.227
556.03	45.334
556.37	44.806
556.71	44.895
557.05	45.751
557.39	47.445
557.73	45.641
558.07	43.907
558.41	45.648
558.75	45.301
559.08	45.790
559.42	46.022
559.76	44.980
560.10	44.608
560.44	44.195
560.78	45.125
561.12	45.382
561.45	45.560
561.79	44.872
562.13	46.888
562.47	44.081
562.81	44.557
563.15	44.823
563.48	45.867
563.82	44.982
564.16	45.790
564.50	45.530
564.84	45.133
565.17	45.353
565.51	43.786
565.85	45.487
566.19	44.528
566.52	44.880
566.86	45.105
567.20	43.502
567.54	45.141
567.88	44.393
568.21	44.664
568.55	45.132
568.89	43.940
569.23	43.980
569.56	43.415
569.90	43.407
570.24	43.879
570.57	42.880
570.91	43.080
571.25	43.130
571.59	43.724
571.92	42.884
572.26	43.330
572.60	43.571
572.93	43.390
573.27	43.720
573.61	43.250
573.95	43.287
574.28	42.233
574.62	42.542
574.96	42.236
575.29	42.124
575.63	42.319
575.97	43.090
576.30	42.734
576.64	43.045
576.98	42.392
577.31	42.597
577.65	42.819
577.98	42.150
578.32	41.533
578.66	41.915
578.99	42.044
579.33	43.019
579.67	42.747
580.00	42.324
580.34	42.081
580.67	42.365
581.01	41.995
581.35	41.964
581.68	41.562
582.02	41.987
582.35	42.420
582.69	42.439
583.02	42.908
583.36	43.274
583.70	43.172
584.03	43.029
584.37	43.693
584.70	42.274
585.04	42.316
585.37	42.267
585.71	41.553
586.04	42.008
586.38	42.456
586.72	41.765
587.05	42.313
587.39	42.084
587.72	42.656
588.06	41.779
588.39	42.221
588.73	41.905
589.06	42.156
589.40	43.546
589.73	41.645
590.07	42.507
590.40	43.002
590.73	42.736
591.07	42.331
591.40	42.224
591.74	42.369
592.07	42.509
592.41	41.838
592.74	41.001
593.08	41.624
593.41	41.820
593.75	41.494
594.08	41.533
594.41	41.699
594.75	42.079
595.08	41.689
595.42	41.981
595.75	41.912
596.09	42.087
596.42	42.207
596.75	42.686
597.09	42.667
597.42	41.955
597.75	41.866
598.09	41.548
598.42	42.220
598.76	41.039
599.09	41.296
599.42	40.630
599.76	40.872
600.09	41.275
600.42	41.341
600.76	41.380
601.09	41.321
601.42	40.817
601.76	41.138
602.09	41.029
602.42	40.785
602.76	40.775
603.09	41.703
603.42	41.727
603.76	40.698
604.09	41.022
604.42	41.358
604.76	40.868
605.09	41.883
605.42	40.789
605.75	40.923
606.09	40.239
606.42	40.095
606.75	40.592
607.09	39.555
607.42	40.925
607.75	41.110
608.08	40.371
608.42	40.951
608.75	41.252
609.08	39.092
609.41	40.626
609.75	40.402
610.08	42.128
610.41	40.697
610.74	40.210
611.07	40.675
611.41	40.717
611.74	41.570
612.07	40.813
612.40	40.399
612.73	41.369
613.07	41.222
613.40	41.578
613.73	40.250
614.06	40.334
614.39	40.282
614.72	40.563
615.06	40.616
615.39	39.488
615.72	40.284
616.05	40.214
616.38	41.423
616.71	40.334
617.05	40.575
617.38	40.342
617.71	40.389
618.04	41.446
618.37	41.038
618.70	40.441
619.03	40.323
619.36	40.691
619.69	41.320
620.03	39.674
620.36	40.859
620.69	40.160
621.02	39.633
621.35	42.380
621.68	41.721
622.01	40.569
622.34	38.773
622.67	40.962
623.00	39.204
623.33	41.009
623.66	39.883
623.99	39.500
624.32	40.481
624.65	39.640
624.99	40.377
625.32	40.758
625.65	41.065
625.98	40.949
626.31	39.830
626.64	40.220
626.97	41.410
627.30	38.345
627.63	39.685
627.96	40.315
628.29	40.000
628.62	40.722
628.95	40.754
629.28	39.677
629.61	39.983
629.94	38.828
630.26	39.915
630.59	39.983
630.92	39.221
631.25	41.055
631.58	40.301
631.91	40.394
632.24	39.385
632.57	40.323
632.90	42.227
633.23	40.204
633.56	39.796
633.89	38.326
634.22	39.605
634.55	40.605
634.88	39.394
635.20	41.442
635.53	40.565
635.86	39.220
636.19	39.343
636.52	40.823
636.85	41.062
637.18	38.877
637.51	40.323
637.83	39.092
638.16	40.668
638.49	41.901
638.82	39.684
639.15	38.946
639.48	41.801
639.81	39.723
640.13	41.578
640.46	38.182
640.79	38.971
641.12	39.627
641.45	40.025
641.77	43.004
642.10	40.551
642.43	39.628
642.76	39.837
643.09	40.274
643.41	39.496
643.74	38.483
644.07	40.552
644.40	40.028
644.73	41.364
645.05	41.557
645.38	39.137
645.71	39.883
646.04	40.890
646.36	38.394
646.69	39.724
647.02	40.061
647.35	41.069
647.67	42.029
648.00	41.720
648.33	41.141
648.66	37.946
648.98	39.456
649.31	38.024
649.64	38.645
649.96	37.666
650.29	36.857
650.62	37.341
650.94	36.637
651.27	38.623
651.60	39.181
651.92	38.146
652.25	39.797
652.58	37.001
652.90	38.808
653.23	39.718
653.56	38.374
653.88	40.309
654.21	37.606
654.54	38.006
654.86	39.235
655.19	37.265
655.52	36.233
655.84	35.146
656.17	40.953
656.49	58.671
656.82	65.224
657.15	52.444
657.47	40.980
657.80	30.602
658.13	24.400
658.45	32.715
658.78	40.379
659.10	39.485
659.43	38.630
659.75	39.116
660.08	37.311
660.41	37.138
660.73	36.830
661.06	38.032
661.38	39.234
661.71	38.103
662.03	38.272
662.36	40.787
662.68	37.523
663.01	38.584
663.33	39.130
663.66	42.125
663.98	39.231
664.31	38.274
664.63	38.343
664.96	39.383
665.28	36.842
665.61	38.462
665.93	36.964
666.26	38.889
666.58	38.376
666.91	39.439
667.23	37.524
667.56	37.278
667.88	40.600
668.21	38.086
668.53	36.486
668.86	35.953
669.18	38.900
669.50	38.370
669.83	36.800
670.15	36.614
670.48	40.873
670.80	39.388
671.13	36.862
671.45	39.370
671.77	40.113
672.10	34.000
672.42	36.246
672.75	37.174
673.07	35.075
673.39	35.593
673.72	38.758
674.04	38.448
674.37	38.998
674.69	39.683
675.01	37.333
675.34	38.931
675.66	36.142
675.98	38.060
676.31	38.477
676.63	38.593
676.95	36.973
677.28	38.105
677.60	35.630
677.92	37.620
678.25	37.477
678.57	39.324
678.89	36.348
679.22	34.843
679.54	36.923
679.86	34.407
680.18	35.987
680.51	37.107
680.83	36.825
681.15	37.069
681.48	35.060
681.80	36.269
682.12	37.063
682.44	37.730
682.77	35.993
683.09	33.712
683.41	37.209
683.73	33.586
684.06	35.793
684.38	33.631
684.70	36.445
685.02	36.145
685.34	36.106
685.67	35.174
685.99	34.663
686.31	35.320
686.63	35.703
686.96	35.804
687.28	35.668
687.60	36.195
687.92	33.762
688.24	35.225
688.56	34.655
688.89	36.479
689.21	38.160
689.53	35.686
689.85	33.531
690.17	35.741
690.49	36.853
690.82	36.832
691.14	33.806
691.46	36.902
691.78	35.543
692.10	33.945
692.42	33.214
692.74	34.664
693.06	31.481
693.39	34.345
693.71	33.459
694.03	35.130
694.35	35.619
694.67	37.988
694.99	33.404
695.31	35.541
695.63	34.416
695.95	32.298
696.27	35.385
696.59	34.735
696.91	34.234
697.23	37.143
697.56	35.031
697.88	33.902
698.20	34.840
698.52	35.795
698.84	35.135
699.16	35.714
699.48	34.937
699.80	34.894
700.12	37.991
700.44	33.180
700.76	34.917
701.08	35.351
701.40	36.528
701.72	33.333
702.04	39.037
702.36	33.246
702.68	35.208
703.00	33.252
703.32	33.744
703.64	33.741
703.96	34.368
704.28	32.187
704.60	37.215
704.91	34.694
705.23	36.164
705.55	34.540
705.87	34.242
706.19	39.264
706.51	34.337
706.83	34.294
707.15	34.392
707.47	33.178
707.79	33.624
708.11	31.568
708.43	33.763
708.74	31.920
709.06	32.251
709.38	36.854
709.70	37.221
710.02	34.367
710.34	38.298
710.66	34.916
710.98	34.153
711.29	32.143
711.61	34.181
711.93	36.467
712.25	30.811
712.57	37.168
712.89	35.882
713.20	31.657
713.52	32.948
713.84	36.212
714.16	31.842
714.48	34.021
714.80	34.805
715.11	33.858
715.43	34.748
715.75	33.947
716.07	32.044
716.39	35.792
716.70	31.928
717.02	34.098
717.34	28.223
717.66	35.570
717.97	30.137
718.29	32.990
718.61	34.211
718.93	31.715
719.24	36.646
719.56	34.049
719.88	32.132
720.20	32.581
720.51	33.230
720.83	31.250
721.15	28.618
721.46	31.507
721.78	30.667
722.10	31.068
722.42	31.208
722.73	31.613
723.05	31.930
723.37	37.153
723.68	32.258
724.00	34.296
724.32	27.465
724.63	29.021
724.95	36.879
725.27	33.449
725.58	28.269
725.90	37.241
726.22	26.959
726.53	33.117
726.85	33.962
727.16	29.909
727.48	33.333
727.80	32.119
728.11	31.449
728.43	34.343
728.74	34.114
729.06	33.775
729.38	35.714
729.69	31.879
730.01	33.631
730.32	29.394
730.64	30.503
730.96	31.677
731.27	33.520
731.59	34.890
731.90	29.351
732.22	29.948
732.53	29.834
732.85	31.429
733.16	29.326
733.48	31.098
733.80	29.526
734.11	30.769
734.43	31.081
734.74	32.405
735.06	29.397
735.37	30.000
735.69	31.351
736.00	29.379
736.32	30.458
736.63	30.833
736.95	31.322
737.26	33.030
737.58	30.000
737.89	32.059
738.21	28.746
738.52	27.541
738.83	34.812
739.15	33.333
739.46	31.973
739.78	33.436
740.09	31.232
740.41	34.111
740.72	32.667
741.04	32.039
741.35	31.228
741.66	29.412
741.98	30.328
742.29	30.544
742.61	31.140
742.92	30.000
743.23	33.574
743.55	30.620
743.86	27.200
744.18	28.926
744.49	29.114
744.80	32.510
745.12	32.911
745.43	35.772
745.74	35.776
746.06	35.169
746.37	34.599
746.68	30.894
747.00	32.083
747.31	37.768
747.62	31.538
747.94	34.818
748.25	30.522
748.56	31.020
748.88	26.923
749.19	36.207
749.50	30.303
749.82	33.333
750.13	32.384
750.44	29.000
750.75	32.308
751.07	34.462
751.38	29.338
751.69	31.949
752.01	30.097
752.32	30.392
752.63	29.592
752.94	30.450
753.26	27.138
753.57	29.259
753.88	29.213
754.19	31.190
754.51	28.296
754.82	29.260
755.13	34.754
755.44	25.939
755.75	30.263
756.07	31.642
756.38	28.616
756.69	30.723
757.00	27.147
757.31	26.776
757.63	26.087
757.94	27.230
758.25	29.345
758.56	25.490
758.87	28.409
759.18	32.000
759.50	29.178
759.81	26.331
760.12	30.189
760.43	27.604
760.74	30.788
761.05	30.750
761.36	27.711
761.67	30.203
761.99	28.108
762.30	29.573
762.61	31.023
762.92	26.866
763.23	28.464
763.54	32.734
763.85	26.117
764.16	29.630
764.47	29.930
764.78	30.351
765.10	31.378
765.41	29.487
765.72	25.926
766.03	29.661
766.34	32.288
766.65	27.178
766.96	33.865
767.27	32.719
767.58	25.373
767.89	32.692
768.20	30.047
768.51	30.093
768.82	27.309
769.13	31.061
769.44	22.692
769.75	30.686
770.06	27.692
770.37	32.677
770.68	25.106
770.99	25.911
771.30	28.519
771.61	33.840
771.92	24.815
772.23	35.628
772.54	24.537
772.85	32.258
773.16	31.429
773.47	24.868
773.78	26.486
774.09	32.386
774.39	37.500
774.70	30.055
775.01	28.049
775.32	20.000
775.63	20.245
775.94	24.204
776.25	25.806
776.56	33.333
776.87	37.415
777.18	23.448
777.48	29.371
777.79	30.405
778.10	24.265
778.41	31.250
778.72	36.552
779.03	32.716
779.34	27.879
779.65	26.425
779.95	28.889
780.26	23.864
780.57	32.903
780.88	36.232
781.19	35.484
781.50	32.353
781.80	26.344
782.11	28.042
782.42	19.192
782.73	22.754
783.04	23.464
783.34	25.455
783.65	25.490
783.96	24.845
784.27	28.571
784.57	24.503
784.88	37.143
785.19	33.071
785.50	29.921
785.81	29.323
786.11	37.692
786.42	30.216
786.73	29.496
787.04	30.075
787.34	22.951
787.65	24.800
787.96	24.627
788.26	29.371
788.57	33.566
788.88	27.632
789.19	25.490
789.49	32.877
789.80	27.660
790.11	34.646
790.41	26.563
790.72	27.119
791.03	14.563
791.33	29.565
791.64	19.298
791.95	32.143
792.25	16.190
792.56	27.679
792.87	26.042
793.17	20.536
793.48	26.042
793.79	22.892
794.09	25.688
794.40	37.615
794.70	29.252
795.01	25.325
795.32	23.288
795.62	27.465
795.93	22.727
796.23	32.787
796.54	26.786
796.85	22.340
797.15	30.435
797.46	35.616
797.76	23.750
798.07	31.522
798.37	25.773
798.68	18.182
798.99	27.586
799.29	20.225
799.60	34.043
799.90	32.530
800.21	24.615
800.51	13.433
800.82	19.118
801.12	16.438
801.43	11.765
801.73	11.864
802.04	19.697
802.34	15.000
802.65	40.678
802.95	35.821
803.26	13.559
803.56	38.356
803.87	35.714
804.17	45.205
804.48	26.316
804.78	23.611
805.09	6.897
805.39	16.216
805.70	21.127
806.00	28.049
806.30	26.506
806.61	24.658
806.91	25.962
807.22	12.222
807.52	12.644
807.83	34.722
808.13	28.916
808.43	25.843
808.74	18.750
809.04	14.706
809.35	28.000
809.65	15.714
809.95	20.548
810.26	12.281
810.56	27.586
810.86	27.941
811.17	24.561
811.47	13.115
811.77	13.333
812.08	38.983
812.38	26.667
812.69	15.517
812.99	13.208
813.29	-12.821
813.59	36.000
813.90	31.579
814.20	27.273
814.50	30.986
814.81	35.897
815.11	22.951
815.41	23.881
815.72	36.207
816.02	25.000
816.32	35.556
816.62	29.545
816.93	24.444
817.23	38.889
817.53	23.404
817.84	21.429
818.14	26.471
818.44	40.816
818.74	40.000
819.04	5.128
819.35	8.571
819.65	3.846
819.95	35.849
820.25	46.667
820.56	28.571
820.86	9.375
821.16	15.385
821.46	18.605
821.76	14.000
822.07	23.214
822.37	13.043
822.67	6.383
822.97	-24.324
823.27	7.500
823.57	30.612
823.88	42.222
824.18	10.000
824.48	33.333
824.78	-4.000
825.08	39.394
825.38	33.333
825.69	25.532
825.99	19.444
826.29	-20.000
826.59	12.821
826.89	-2.326
827.19	6.000
827.49	17.647
827.79	27.083
828.09	40.541
828.39	43.333
828.70	31.707
829.00	18.605
829.30	57.143
829.60	23.529
829.90	21.739
830.20	11.429
830.50	27.586
830.80	11.111
831.10	11.538
831.40	-2.941
831.70	14.286
832.00	58.065
832.30	-29.412
832.60	25.000
832.90	-38.462
833.20	-10.526
833.50	-15.000
833.80	-26.316
834.10	4.762
834.40	22.222
834.70	43.750
835.00	8.571
835.30	29.412
835.60	0.000
835.90	24.000
836.20	-50.000
836.50	16.000
836.80	24.242
837.10	-14.815
837.40	-3.704
837.70	-37.500
838.00	39.286
838.30	8.696
838.60	41.379
838.90	42.857
839.19	-8.696
839.49	-41.667
839.79	8.696
840.09	-75.000
840.39	20.000
840.69	64.516
840.99	-10.714
841.29	13.333
841.59	63.158
841.88	38.462
842.18	0.000
842.48	0.000
842.78	15.000
843.08	30.000
843.38	25.806
843.68	16.667
843.97	14.706
844.27	-43.750
844.57	0.000
844.87	-50.000
845.17	0.000
845.47	76.190
845.76	9.524
846.06	-44.444
846.36	11.765
846.66	26.923
846.96	-46.667
847.25	17.647
847.55	52.174
847.85	5.000
848.15	-29.412
848.44	0.000
848.74	-19.048
849.04	-4.167
849.34	37.500
849.63	43.478
849.93	450.000
850.23	0.000
850.53	53.846
850.82	9.091
851.12	36.364
851.42	-54.545
851.71	61.538
852.01	-25.000
852.31	7.692
852.61	26.316
852.90	66.667
853.20	50.000
853.50	-144.444
853.79	-42.857
854.09	-27.273
854.39	-91.667
854.68	22.581
854.98	19.231
855.28	-5.556
855.57	17.857
855.87	-8.000
856.17	-4.545
856.46	14.815
856.76	-33.333
857.05	-26.087
857.35	8.333
857.65	-15.385
857.94	28.571
858.24	25.926
858.53	52.174
858.83	47.059
859.13	17.647
859.42	17.647
859.72	35.714
860.01	15.000
860.31	0.000
860.60	-80.000
860.90	53.333
861.20	38.889
861.49	30.769
861.79	23.333
862.08	-61.538
862.38	37.500
862.67	94.118
862.97	31.250
863.26	-22.222
863.56	20.000
863.85	27.273
864.15	11.111
864.44	433.333
864.74	35.714
865.03	68.750
865.33	-80.000
865.62	-12.903
865.92	45.455
866.21	0.000
866.51	7.143
866.80	-40.000
867.10	-50.000
867.39	-100.000
867.69	-100.000
867.98	-100.000
868.27	17.647
868.57	-1000.000
868.86	-100.000
869.16	4.762
869.45	12.500
869.75	-18.182
870.04	14.286
870.33	25.000
870.63	-214.286
870.92	25.000
871.22	-125.000
871.51	9.091
871.80	-433.333
872.10	-300.000
>>>>>End Processed Spectral Data<<<<<
