SpectraSuite Data File
++++++++++++++++++++++++++++++++++++
Date: Thu May 14 16:23:35 PDT 2015
User: schluterlab
Dark Spectrum Present: Yes
Reference Spectrum Present: Yes
Number of Sampled Component Spectra: 1
Spectrometers: USB2E3373
Integration Time (usec): 3000 (USB2E3373)
Spectra Averaged: 3 (USB2E3373)
Boxcar Smoothing: 0 (USB2E3373)
Correct for Electrical Dark: No (USB2E3373)
Strobe/Lamp Enabled: No (USB2E3373)
Correct for Detector Non-linearity: No (USB2E3373)
Correct for Stray Light: No (USB2E3373)
Number of Pixels in Processed Spectrum: 2048
>>>>>Begin Processed Spectral Data<<<<<
178.53	0.000
178.91	42.857
179.29	-1400.000
179.67	-400.000
180.04	121.429
180.42	80.000
180.80	120.000
181.18	-200.000
181.56	400.000
181.94	-25.000
182.31	-250.000
182.69	133.333
183.07	-50.000
183.45	225.000
183.83	-150.000
184.20	-433.333
184.58	800.000
184.96	-175.000
185.34	55.556
185.72	60.000
186.09	44.444
186.47	400.000
186.85	340.000
187.23	-144.444
187.61	-1900.000
187.98	-40.000
188.36	175.000
188.74	-175.000
189.12	33.333
189.49	0.000
189.87	-137.500
190.25	-22.222
190.63	-260.000
191.00	-77.778
191.38	0.000
191.76	-150.000
192.14	0.000
192.51	-0.000
192.89	166.667
193.27	0.000
193.65	14.286
194.02	-800.000
194.40	-100.000
194.78	28.571
195.15	0.000
195.53	27.273
195.91	0.000
196.29	-150.000
196.66	15.385
197.04	-400.000
197.42	-85.714
197.79	-150.000
198.17	-37.500
198.55	-14.286
198.92	11.111
199.30	-25.000
199.68	72.727
200.05	50.000
200.43	-350.000
200.81	228.571
201.18	0.000
201.56	66.667
201.94	0.000
202.31	233.333
202.69	33.333
203.07	-0.000
203.44	0.000
203.82	75.000
204.19	-25.000
204.57	50.000
204.95	-212.500
205.32	-1300.000
205.70	200.000
206.08	-116.667
206.45	66.667
206.83	320.000
207.20	66.667
207.58	-280.000
207.96	-250.000
208.33	0.000
208.71	66.667
209.08	133.333
209.46	0.000
209.84	233.333
210.21	350.000
210.59	-500.000
210.96	366.667
211.34	-100.000
211.71	0.000
212.09	300.000
212.46	0.000
212.84	1100.000
213.22	-400.000
213.59	25.000
213.97	120.000
214.34	-200.000
214.72	133.333
215.09	-125.000
215.47	0.000
215.84	-28.571
216.22	850.000
216.59	0.000
216.97	-140.000
217.34	-375.000
217.72	-75.000
218.09	-75.000
218.47	-200.000
218.84	0.000
219.22	-40.000
219.59	47.059
219.97	50.000
220.34	300.000
220.72	-111.111
221.09	23.077
221.47	33.333
221.84	-40.000
222.22	-42.857
222.59	0.000
222.97	75.000
223.34	-160.000
223.72	-1300.000
224.09	-150.000
224.46	-225.000
224.84	80.000
225.21	-42.857
225.59	-175.000
225.96	-75.000
226.34	53.846
226.71	283.333
227.08	-100.000
227.46	26.667
227.83	0.000
228.21	36.842
228.58	125.000
228.95	300.000
229.33	-25.000
229.70	10.000
230.08	94.737
230.45	-10.000
230.82	-33.333
231.20	35.714
231.57	50.000
231.95	18.182
232.32	0.000
232.69	20.000
233.07	150.000
233.44	35.294
233.81	40.000
234.19	22.222
234.56	18.182
234.93	6.897
235.31	5.263
235.68	-22.222
236.05	-45.000
236.43	88.462
236.80	40.000
237.17	33.333
237.55	30.303
237.92	0.000
238.29	19.355
238.67	29.545
239.04	27.778
239.41	35.714
239.79	39.130
240.16	33.333
240.53	15.217
240.91	-5.882
241.28	24.590
241.65	26.866
242.02	31.081
242.40	30.769
242.77	24.000
243.14	13.415
243.51	23.684
243.89	23.077
244.26	26.733
244.63	31.373
245.00	28.972
245.38	24.561
245.75	16.814
246.12	24.603
246.49	29.457
246.87	26.429
247.24	24.503
247.61	33.553
247.98	26.846
248.36	25.309
248.73	18.405
249.10	22.404
249.47	29.851
249.84	29.319
250.22	24.870
250.59	28.333
250.96	27.727
251.33	22.449
251.70	26.496
252.08	27.917
252.45	30.328
252.82	28.512
253.19	24.609
253.56	27.757
253.94	25.769
254.31	30.682
254.68	29.371
255.05	29.642
255.42	25.510
255.79	23.948
256.16	29.139
256.54	23.510
256.91	28.852
257.28	26.230
257.65	27.070
258.02	24.484
258.39	27.066
258.76	32.416
259.14	29.598
259.51	27.666
259.88	25.212
260.25	30.000
260.62	29.315
260.99	29.235
261.36	27.614
261.73	26.790
262.10	29.396
262.47	29.223
262.85	29.545
263.22	23.896
263.59	25.263
263.96	28.645
264.33	25.320
264.70	30.370
265.07	28.878
265.44	31.293
265.81	25.694
266.18	30.385
266.55	27.902
266.92	26.651
267.29	29.540
267.66	27.494
268.03	29.039
268.40	25.678
268.77	28.474
269.14	24.009
269.51	26.316
269.88	27.459
270.25	28.974
270.62	27.215
270.99	28.889
271.36	27.723
271.73	27.112
272.10	29.058
272.47	28.257
272.84	27.510
273.21	29.058
273.58	27.218
273.95	24.615
274.32	26.236
274.69	28.627
275.06	28.022
275.43	24.769
275.80	28.219
276.17	25.556
276.54	25.373
276.91	26.297
277.28	26.763
277.65	26.750
278.02	27.206
278.39	26.993
278.76	28.120
279.13	28.369
279.50	28.694
279.87	27.728
280.23	21.127
280.60	26.610
280.97	25.493
281.34	26.995
281.71	26.565
282.08	26.080
282.45	25.368
282.82	27.002
283.19	24.233
283.56	24.918
283.92	26.276
284.29	26.224
284.66	28.571
285.03	24.840
285.40	26.121
285.77	24.303
286.14	25.649
286.51	24.962
286.87	25.908
287.24	24.849
287.61	24.813
287.98	23.565
288.35	24.852
288.72	25.592
289.08	25.622
289.45	24.260
289.82	23.494
290.19	23.707
290.56	24.085
290.93	22.397
291.29	24.656
291.66	23.416
292.03	22.252
292.40	24.082
292.77	23.585
293.13	22.733
293.50	21.682
293.87	22.550
294.24	23.867
294.60	22.630
294.97	21.074
295.34	20.359
295.71	20.050
296.08	21.576
296.44	22.181
296.81	22.046
297.18	19.552
297.55	20.401
297.91	20.759
298.28	20.379
298.65	20.927
299.02	20.897
299.38	20.824
299.75	19.977
300.12	19.444
300.48	20.161
300.85	20.247
301.22	20.358
301.59	19.521
301.95	20.226
302.32	19.222
302.69	19.168
303.05	19.913
303.42	20.510
303.79	20.000
304.15	19.664
304.52	18.393
304.89	19.476
305.25	18.116
305.62	19.540
305.99	18.763
306.35	18.145
306.72	19.545
307.09	19.086
307.45	19.255
307.82	18.365
308.19	18.769
308.55	19.672
308.92	17.624
309.29	18.103
309.65	18.226
310.02	19.010
310.38	18.701
310.75	19.806
311.12	19.559
311.48	18.768
311.85	17.474
312.22	18.406
312.58	18.498
312.95	18.642
313.31	19.964
313.68	20.604
314.05	19.332
314.41	19.763
314.78	19.074
315.14	19.601
315.51	19.483
315.87	20.792
316.24	20.639
316.61	19.893
316.97	18.462
317.34	19.841
317.70	21.048
318.07	21.869
318.43	20.663
318.80	21.990
319.16	21.116
319.53	20.908
319.89	21.209
320.26	23.754
320.62	21.897
320.99	23.176
321.35	24.030
321.72	24.651
322.08	23.445
322.45	25.203
322.81	25.993
323.18	27.522
323.54	26.897
323.91	28.559
324.27	27.883
324.64	29.135
325.00	28.773
325.37	30.057
325.73	30.744
326.10	31.549
326.46	31.678
326.83	33.147
327.19	34.094
327.56	35.020
327.92	35.563
328.29	36.210
328.65	36.097
329.01	38.071
329.38	39.090
329.74	38.955
330.11	39.983
330.47	39.848
330.84	39.621
331.20	40.917
331.56	41.854
331.93	41.339
332.29	42.627
332.66	43.688
333.02	42.044
333.38	43.624
333.75	42.593
334.11	43.620
334.48	43.399
334.84	43.670
335.20	42.737
335.57	45.363
335.93	45.041
336.29	43.844
336.66	45.921
337.02	44.983
337.38	46.429
337.75	45.785
338.11	46.930
338.47	46.816
338.84	46.785
339.20	47.262
339.56	46.952
339.93	45.238
340.29	46.135
340.65	46.310
341.02	46.528
341.38	48.585
341.74	46.973
342.11	48.512
342.47	47.577
342.83	48.953
343.20	48.160
343.56	47.474
343.92	47.238
344.28	47.812
344.65	49.147
345.01	48.050
345.37	47.434
345.73	47.701
346.10	48.284
346.46	48.497
346.82	48.315
347.19	48.816
347.55	50.986
347.91	48.291
348.27	49.545
348.63	48.210
349.00	48.098
349.36	48.699
349.72	50.670
350.08	49.108
350.45	48.061
350.81	48.643
351.17	50.677
351.53	50.341
351.89	50.418
352.26	49.254
352.62	49.254
352.98	50.687
353.34	49.066
353.70	51.156
354.07	49.553
354.43	50.797
354.79	50.935
355.15	50.478
355.51	50.512
355.87	50.262
356.24	51.787
356.60	49.372
356.96	51.446
357.32	50.632
357.68	50.732
358.04	50.075
358.40	51.716
358.77	51.170
359.13	51.920
359.49	50.558
359.85	51.124
360.21	50.646
360.57	50.897
360.93	50.987
361.29	52.772
361.66	50.833
362.02	51.148
362.38	52.495
362.74	52.444
363.10	52.063
363.46	53.116
363.82	52.912
364.18	52.991
364.54	53.804
364.90	53.579
365.26	54.138
365.62	53.533
365.98	52.485
366.35	52.953
366.71	54.490
367.07	53.315
367.43	53.513
367.79	53.882
368.15	56.054
368.51	53.383
368.87	52.907
369.23	53.400
369.59	55.669
369.95	54.091
370.31	54.693
370.67	54.333
371.03	55.402
371.39	54.399
371.75	53.851
372.11	55.217
372.47	55.450
372.83	55.563
373.19	54.770
373.55	55.420
373.91	54.942
374.27	55.175
374.63	56.157
374.99	56.698
375.35	56.494
375.71	55.613
376.07	55.649
376.42	56.486
376.78	56.433
377.14	56.457
377.50	57.495
377.86	57.266
378.22	56.587
378.58	56.421
378.94	57.101
379.30	56.825
379.66	57.202
380.02	58.857
380.38	58.295
380.74	58.310
381.09	59.524
381.45	58.125
381.81	58.489
382.17	58.729
382.53	57.778
382.89	57.167
383.25	59.730
383.61	58.507
383.97	58.716
384.32	58.553
384.68	58.237
385.04	58.878
385.40	59.576
385.76	60.082
386.12	59.665
386.48	59.941
386.83	60.489
387.19	59.849
387.55	59.800
387.91	60.160
388.27	60.277
388.62	60.195
388.98	59.842
389.34	61.108
389.70	61.650
390.06	61.279
390.42	61.566
390.77	61.469
391.13	60.915
391.49	61.292
391.85	60.303
392.20	61.269
392.56	62.315
392.92	61.668
393.28	62.078
393.64	62.179
393.99	62.347
394.35	62.091
394.71	62.814
395.07	61.796
395.42	62.250
395.78	64.778
396.14	62.745
396.50	62.411
396.85	62.016
397.21	62.249
397.57	62.662
397.92	62.658
398.28	63.498
398.64	61.270
399.00	61.518
399.35	63.455
399.71	62.717
400.07	63.841
400.42	65.017
400.78	63.194
401.14	63.404
401.49	64.753
401.85	65.523
402.21	65.353
402.57	66.373
402.92	64.243
403.28	64.520
403.63	65.573
403.99	65.143
404.35	63.843
404.70	64.476
405.06	62.500
405.42	64.520
405.77	64.286
406.13	63.911
406.49	64.527
406.84	64.931
407.20	64.841
407.55	66.021
407.91	64.928
408.27	64.900
408.62	66.259
408.98	65.061
409.34	65.103
409.69	66.873
410.05	66.295
410.40	66.067
410.76	65.059
411.11	66.043
411.47	67.936
411.83	68.254
412.18	67.048
412.54	66.509
412.89	66.182
413.25	66.140
413.60	66.513
413.96	67.890
414.31	65.949
414.67	67.442
415.03	66.277
415.38	67.970
415.74	67.013
416.09	67.304
416.45	67.376
416.80	66.585
417.16	68.327
417.51	67.933
417.87	68.056
418.22	68.922
418.58	68.278
418.93	68.393
419.29	69.975
419.64	68.487
420.00	69.258
420.35	68.782
420.71	68.811
421.06	67.913
421.42	69.725
421.77	66.990
422.12	68.288
422.48	68.408
422.83	69.551
423.19	68.647
423.54	70.354
423.90	68.526
424.25	68.907
424.61	68.714
424.96	69.248
425.31	70.594
425.67	69.726
426.02	71.334
426.38	70.207
426.73	70.926
427.09	72.030
427.44	69.962
427.79	70.039
428.15	69.920
428.50	70.843
428.85	70.092
429.21	71.702
429.56	72.113
429.92	70.319
430.27	70.651
430.62	70.933
430.98	71.372
431.33	69.648
431.68	69.061
432.04	71.153
432.39	70.969
432.74	72.432
433.10	71.823
433.45	69.788
433.80	71.835
434.16	70.764
434.51	72.097
434.86	73.073
435.22	73.379
435.57	74.292
435.92	72.510
436.28	73.436
436.63	74.276
436.98	71.766
437.34	72.773
437.69	73.253
438.04	71.920
438.39	71.798
438.75	72.773
439.10	72.886
439.45	71.660
439.81	73.446
440.16	72.172
440.51	72.241
440.86	72.651
441.22	72.347
441.57	74.004
441.92	72.405
442.27	75.707
442.63	73.075
442.98	72.572
443.33	72.699
443.68	73.885
444.03	74.459
444.39	73.879
444.74	74.579
445.09	73.847
445.44	74.658
445.79	74.904
446.15	74.255
446.50	74.470
446.85	73.881
447.20	74.178
447.55	74.582
447.91	74.555
448.26	74.471
448.61	73.964
448.96	74.464
449.31	74.443
449.66	73.094
450.02	74.525
450.37	74.267
450.72	75.081
451.07	74.431
451.42	74.235
451.77	74.819
452.12	75.677
452.47	75.342
452.83	77.027
453.18	74.197
453.53	74.670
453.88	74.434
454.23	75.028
454.58	76.030
454.93	74.211
455.28	74.955
455.63	75.156
455.98	76.034
456.34	75.854
456.69	76.249
457.04	76.182
457.39	74.778
457.74	77.125
458.09	75.892
458.44	75.754
458.79	75.709
459.14	73.676
459.49	75.778
459.84	76.863
460.19	74.237
460.54	76.207
460.89	75.913
461.24	75.230
461.59	77.587
461.94	74.273
462.29	77.492
462.64	75.196
462.99	77.527
463.34	76.509
463.69	75.147
464.04	75.598
464.39	74.776
464.74	75.485
465.09	76.355
465.44	75.912
465.79	74.299
466.14	74.726
466.49	75.474
466.84	76.088
467.19	75.780
467.54	75.441
467.89	75.345
468.24	75.125
468.59	75.680
468.94	74.767
469.29	75.885
469.64	75.207
469.99	77.374
470.34	76.052
470.68	79.836
471.03	79.109
471.38	78.286
471.73	76.853
472.08	77.855
472.43	78.146
472.78	77.204
473.13	78.571
473.48	77.885
473.83	78.178
474.17	75.205
474.52	78.773
474.87	76.301
475.22	78.310
475.57	77.051
475.92	76.705
476.27	76.677
476.61	76.947
476.96	76.225
477.31	76.040
477.66	77.754
478.01	77.326
478.36	75.823
478.70	77.734
479.05	78.476
479.40	77.542
479.75	76.321
480.10	76.646
480.45	77.940
480.79	76.190
481.14	76.011
481.49	77.010
481.84	76.806
482.19	76.559
482.53	77.656
482.88	78.113
483.23	77.412
483.58	77.686
483.92	76.950
484.27	76.376
484.62	75.784
484.97	76.361
485.31	75.361
485.66	71.267
486.01	68.532
486.36	70.274
486.70	72.993
487.05	74.802
487.40	74.205
487.75	74.656
488.09	75.345
488.44	74.260
488.79	75.413
489.13	76.430
489.48	75.612
489.83	74.970
490.17	76.792
490.52	76.190
490.87	76.438
491.22	78.076
491.56	76.877
491.91	77.584
492.26	76.893
492.60	76.913
492.95	76.656
493.30	78.082
493.64	78.143
493.99	77.412
494.34	76.307
494.68	76.060
495.03	77.930
495.37	76.565
495.72	77.143
496.07	78.089
496.41	76.062
496.76	77.606
497.11	77.495
497.45	77.989
497.80	76.766
498.14	78.277
498.49	78.171
498.84	77.971
499.18	77.148
499.53	77.668
499.87	77.407
500.22	76.759
500.56	77.958
500.91	77.941
501.26	78.364
501.60	77.154
501.95	78.029
502.29	77.841
502.64	77.569
502.98	77.437
503.33	76.803
503.67	77.715
504.02	77.496
504.36	78.463
504.71	78.732
505.06	77.763
505.40	77.788
505.75	77.186
506.09	77.716
506.44	80.641
506.78	79.541
507.13	79.345
507.47	80.483
507.82	78.551
508.16	80.019
508.51	79.700
508.85	79.547
509.19	79.725
509.54	80.692
509.88	79.796
510.23	80.622
510.57	81.150
510.92	81.084
511.26	79.365
511.61	79.527
511.95	79.551
512.30	80.207
512.64	80.260
512.98	81.291
513.33	82.056
513.67	81.693
514.02	83.955
514.36	82.660
514.70	83.646
515.05	82.169
515.39	82.257
515.74	82.238
516.08	83.096
516.42	82.732
516.77	83.912
517.11	81.898
517.46	84.146
517.80	83.859
518.14	84.712
518.49	84.490
518.83	82.491
519.17	83.468
519.52	82.914
519.86	84.266
520.20	84.239
520.55	83.571
520.89	85.135
521.23	84.255
521.58	84.859
521.92	85.892
522.26	85.052
522.61	86.458
522.95	85.640
523.29	87.816
523.64	85.202
523.98	88.078
524.32	87.335
524.66	86.113
525.01	84.938
525.35	85.755
525.69	85.325
526.04	84.328
526.38	86.149
526.72	86.390
527.06	88.152
527.41	85.948
527.75	88.183
528.09	87.131
528.43	86.205
528.78	86.994
529.12	85.665
529.46	84.148
529.80	86.384
530.15	86.029
530.49	87.307
530.83	86.009
531.17	86.081
531.51	87.064
531.86	87.079
532.20	88.110
532.54	86.415
532.88	87.152
533.22	85.975
533.57	85.574
533.91	85.129
534.25	87.168
534.59	86.782
534.93	86.022
535.27	85.690
535.62	86.868
535.96	86.345
536.30	86.486
536.64	87.447
536.98	87.269
537.32	88.210
537.66	87.523
538.01	86.284
538.35	87.150
538.69	86.478
539.03	86.327
539.37	84.923
539.71	88.168
540.05	86.691
540.39	85.452
540.73	86.278
541.07	86.757
541.42	85.115
541.76	84.342
542.10	85.887
542.44	86.297
542.78	84.976
543.12	85.101
543.46	84.432
543.80	83.873
544.14	84.500
544.48	85.165
544.82	86.774
545.16	85.987
545.50	85.500
545.84	84.813
546.18	86.420
546.52	86.051
546.86	85.723
547.20	85.814
547.54	85.893
547.88	85.232
548.22	83.977
548.56	83.909
548.90	83.881
549.24	85.289
549.58	85.615
549.92	85.523
550.26	86.214
550.60	85.003
550.94	87.387
551.28	86.403
551.62	88.679
551.96	84.984
552.30	85.341
552.64	84.070
552.98	85.527
553.32	87.460
553.66	88.039
554.00	85.876
554.34	85.586
554.68	85.023
555.02	86.202
555.36	87.048
555.69	84.497
556.03	83.480
556.37	85.982
556.71	84.908
557.05	84.601
557.39	87.127
557.73	86.129
558.07	86.424
558.41	86.312
558.75	86.477
559.08	87.683
559.42	86.145
559.76	84.532
560.10	84.193
560.44	86.280
560.78	84.562
561.12	84.914
561.45	84.550
561.79	83.761
562.13	83.611
562.47	82.737
562.81	83.987
563.15	83.586
563.48	84.835
563.82	84.039
564.16	82.798
564.50	82.479
564.84	81.475
565.17	82.941
565.51	81.761
565.85	81.710
566.19	82.028
566.52	82.680
566.86	82.286
567.20	79.772
567.54	81.200
567.88	80.326
568.21	80.385
568.55	80.192
568.89	78.802
569.23	77.778
569.56	78.038
569.90	77.192
570.24	75.784
570.57	76.203
570.91	74.127
571.25	73.387
571.59	73.532
571.92	73.028
572.26	73.452
572.60	72.918
572.93	72.753
573.27	73.363
573.61	73.584
573.95	71.911
574.28	71.175
574.62	71.874
574.96	70.291
575.29	70.720
575.63	70.478
575.97	71.689
576.30	71.256
576.64	71.940
576.98	70.091
577.31	70.806
577.65	71.069
577.98	69.672
578.32	68.946
578.66	69.110
578.99	69.814
579.33	71.321
579.67	70.195
580.00	70.488
580.34	69.764
580.67	69.395
581.01	70.814
581.35	69.024
581.68	69.086
582.02	68.485
582.35	69.237
582.69	69.945
583.02	70.454
583.36	70.507
583.70	70.802
584.03	70.434
584.37	70.748
584.70	69.780
585.04	69.705
585.37	69.686
585.71	68.975
586.04	69.441
586.38	69.800
586.72	69.892
587.05	70.095
587.39	69.584
587.72	70.646
588.06	69.778
588.39	70.227
588.73	70.450
589.06	70.767
589.40	72.680
589.73	71.240
590.07	71.552
590.40	72.718
590.73	71.721
591.07	73.753
591.40	73.017
591.74	73.728
592.07	73.447
592.41	72.319
592.74	70.465
593.08	70.701
593.41	70.575
593.75	70.029
594.08	70.978
594.41	71.859
594.75	70.176
595.08	71.131
595.42	70.942
595.75	70.423
596.09	72.009
596.42	72.590
596.75	71.787
597.09	71.798
597.42	71.752
597.75	71.776
598.09	71.587
598.42	71.371
598.76	69.889
599.09	71.520
599.42	67.784
599.76	69.330
600.09	70.170
600.42	68.669
600.76	69.221
601.09	69.366
601.42	69.241
601.76	69.241
602.09	68.906
602.42	70.302
602.76	70.332
603.09	70.668
603.42	70.990
603.76	69.662
604.09	70.546
604.42	70.716
604.76	70.548
605.09	71.201
605.42	70.534
605.75	69.038
606.09	70.287
606.42	69.026
606.75	68.366
607.09	69.278
607.42	68.671
607.75	69.597
608.08	69.140
608.42	68.884
608.75	69.983
609.08	69.185
609.41	70.666
609.75	70.223
610.08	71.548
610.41	69.371
610.74	68.908
611.07	70.826
611.41	69.865
611.74	70.808
612.07	69.939
612.40	70.390
612.73	71.932
613.07	71.443
613.40	70.885
613.73	70.583
614.06	70.461
614.39	68.853
614.72	70.209
615.06	69.875
615.39	69.889
615.72	69.716
616.05	70.520
616.38	71.796
616.71	69.697
617.05	70.447
617.38	70.144
617.71	70.842
618.04	71.452
618.37	71.530
618.70	72.285
619.03	73.775
619.36	72.380
619.69	73.863
620.03	72.630
620.36	71.718
620.69	72.918
621.02	74.081
621.35	77.358
621.68	75.705
622.01	74.235
622.34	74.616
622.67	73.127
623.00	72.942
623.33	73.524
623.66	72.114
623.99	73.667
624.32	73.554
624.65	71.364
624.99	73.667
625.32	73.677
625.65	73.702
625.98	71.390
626.31	72.077
626.64	74.359
626.97	74.569
627.30	75.247
627.63	74.194
627.96	74.550
628.29	74.786
628.62	77.666
628.95	76.161
629.28	76.551
629.61	76.010
629.94	74.561
630.26	75.000
630.59	76.943
630.92	75.931
631.25	76.655
631.58	79.661
631.91	78.444
632.24	78.770
632.57	76.376
632.90	79.639
633.23	79.490
633.56	79.388
633.89	79.545
634.22	81.081
634.55	77.662
634.88	79.004
635.20	79.225
635.53	81.921
635.86	80.282
636.19	78.473
636.52	78.797
636.85	78.039
637.18	77.651
637.51	77.312
637.83	78.738
638.16	79.032
638.49	78.756
638.82	79.481
639.15	78.351
639.48	81.755
639.81	77.714
640.13	79.034
640.46	77.697
640.79	78.554
641.12	81.366
641.45	81.430
641.77	80.745
642.10	76.772
642.43	81.915
642.76	79.810
643.09	82.329
643.41	80.812
643.74	80.414
644.07	82.759
644.40	81.330
644.73	82.583
645.05	83.113
645.38	81.007
645.71	79.765
646.04	81.923
646.36	81.314
646.69	82.822
647.02	83.028
647.35	81.221
647.67	84.863
648.00	86.146
648.33	82.733
648.66	81.027
648.98	77.143
649.31	78.349
649.64	77.291
649.96	79.973
650.29	78.164
650.62	77.511
650.94	79.580
651.27	80.240
651.60	79.094
651.92	79.635
652.25	80.174
652.58	75.928
652.90	76.308
653.23	76.056
653.56	78.031
653.88	78.792
654.21	77.042
654.54	74.277
654.86	76.912
655.19	72.020
655.52	67.358
655.84	56.868
656.17	65.926
656.49	91.172
656.82	98.889
657.15	79.885
657.47	60.444
657.80	45.352
658.13	36.002
658.45	48.051
658.78	57.980
659.10	57.447
659.43	58.169
659.75	58.735
660.08	59.328
660.41	60.463
660.73	68.643
661.06	74.449
661.38	74.641
661.71	78.276
662.03	82.540
662.36	80.143
662.68	80.488
663.01	78.938
663.33	80.718
663.66	78.938
663.98	80.962
664.31	80.300
664.63	79.383
664.96	81.125
665.28	76.407
665.61	77.448
665.93	78.571
666.26	79.928
666.58	80.074
666.91	78.879
667.23	76.000
667.56	78.698
667.88	83.400
668.21	76.562
668.53	76.834
668.86	77.407
669.18	84.318
669.50	81.909
669.83	75.600
670.15	75.197
670.48	80.754
670.80	77.820
671.13	76.371
671.45	80.118
671.77	78.908
672.10	73.833
672.42	74.919
672.75	70.661
673.07	68.358
673.39	70.262
673.72	73.154
674.04	71.724
674.37	76.923
674.69	75.132
675.01	77.143
675.34	77.099
675.66	74.532
675.98	72.761
676.31	75.000
676.63	76.426
676.95	76.054
677.28	79.234
677.60	77.362
677.92	77.159
678.25	72.943
678.57	74.377
678.89	75.427
679.22	71.603
679.54	72.479
679.86	70.678
680.18	74.461
680.51	69.654
680.83	67.921
681.15	71.724
681.48	74.611
681.80	71.848
682.12	71.154
682.44	66.945
682.77	70.567
683.09	73.674
683.41	71.512
683.73	69.829
684.06	69.926
684.38	68.336
684.70	70.736
685.02	73.666
685.34	68.552
685.67	67.035
685.99	67.945
686.31	64.099
686.63	68.720
686.96	66.562
687.28	70.033
687.60	70.034
687.92	65.916
688.24	67.613
688.56	67.931
688.89	68.240
689.21	73.190
689.53	71.176
689.85	72.387
690.17	67.963
690.49	73.904
690.82	70.693
691.14	69.231
691.46	70.172
691.78	68.877
692.10	68.440
692.42	66.607
692.74	66.969
693.06	68.333
693.39	68.311
693.71	65.226
694.03	67.658
694.35	68.000
694.67	69.610
694.99	64.681
695.31	72.406
695.63	70.996
695.95	68.944
696.27	71.429
696.59	71.681
696.91	67.568
697.23	74.725
697.56	67.210
697.88	66.288
698.20	64.407
698.52	67.614
698.84	66.736
699.16	68.980
699.48	65.900
699.80	68.936
700.12	67.904
700.44	68.894
700.76	68.646
701.08	70.702
701.40	69.948
701.72	65.174
702.04	72.193
702.36	71.728
702.68	68.215
703.00	71.149
703.32	67.980
703.64	70.660
703.96	66.587
704.28	67.322
704.60	68.861
704.91	66.837
705.23	73.151
705.55	69.638
705.87	74.848
706.19	76.380
706.51	69.578
706.83	72.334
707.15	73.016
707.47	65.654
707.79	61.572
708.11	63.559
708.43	64.731
708.74	61.830
709.06	64.269
709.38	66.667
709.70	68.238
710.02	68.992
710.34	67.287
710.66	64.804
710.98	69.945
711.29	64.835
711.61	67.797
711.93	67.236
712.25	64.054
712.57	68.732
712.89	70.882
713.20	63.905
713.52	68.786
713.84	64.067
714.16	62.895
714.48	62.887
714.80	64.935
715.11	61.942
715.43	66.578
715.75	64.474
716.07	67.680
716.39	63.661
716.70	62.048
717.02	69.508
717.34	66.899
717.66	67.450
717.97	67.466
718.29	70.447
718.61	67.105
718.93	61.165
719.24	64.286
719.56	63.804
719.88	57.057
720.20	62.903
720.51	61.491
720.83	62.813
721.15	66.447
721.46	65.753
721.78	69.000
722.10	64.401
722.42	67.785
722.73	62.258
723.05	67.368
723.37	63.889
723.68	67.025
724.00	64.982
724.32	63.380
724.63	62.937
724.95	65.957
725.27	64.460
725.58	59.364
725.90	70.690
726.22	64.577
726.53	62.987
726.85	60.377
727.16	58.006
727.48	61.162
727.80	62.252
728.11	62.191
728.43	61.616
728.74	64.214
729.06	62.583
729.38	62.662
729.69	62.081
730.01	57.440
730.32	55.152
730.64	61.635
730.96	59.627
731.27	57.821
731.59	60.440
731.90	57.143
732.22	55.990
732.53	54.972
732.85	58.571
733.16	58.065
733.48	58.841
733.80	56.825
734.11	57.835
734.43	58.108
734.74	56.456
735.06	56.030
735.37	56.216
735.69	54.324
736.00	55.650
736.32	58.221
736.63	53.056
736.95	56.322
737.26	61.818
737.58	56.970
737.89	60.882
738.21	55.046
738.52	55.738
738.83	61.092
739.15	64.539
739.46	59.524
739.78	56.748
740.09	53.295
740.41	57.434
740.72	59.333
741.04	59.547
741.35	55.789
741.66	63.922
741.98	62.295
742.29	61.506
742.61	65.351
742.92	60.385
743.23	59.206
743.55	62.016
743.86	63.600
744.18	55.785
744.49	61.181
744.80	58.436
745.12	60.759
745.43	64.634
745.74	61.207
746.06	65.254
746.37	65.823
746.68	67.073
747.00	59.583
747.31	60.515
747.62	61.923
747.94	59.514
748.25	62.651
748.56	57.551
748.88	62.393
749.19	62.500
749.50	59.307
749.82	62.249
750.13	61.922
750.44	55.667
750.75	54.769
751.07	57.538
751.38	58.044
751.69	50.799
752.01	51.780
752.32	60.458
752.63	52.721
752.94	56.747
753.26	56.506
753.57	57.778
753.88	55.805
754.19	57.878
754.51	49.196
754.82	54.341
755.13	58.689
755.44	55.290
755.75	56.250
756.07	49.254
756.38	54.088
756.69	56.024
757.00	52.078
757.31	51.913
757.63	48.338
757.94	51.643
758.25	49.661
758.56	49.455
758.87	50.455
759.18	49.333
759.50	55.524
759.81	53.221
760.12	52.291
760.43	51.562
760.74	48.768
761.05	50.250
761.36	48.193
761.67	48.731
761.99	47.838
762.30	50.305
762.61	46.205
762.92	55.224
763.23	56.929
763.54	53.237
763.85	52.577
764.16	51.852
764.47	54.577
764.78	57.508
765.10	50.440
765.41	50.513
765.72	47.354
766.03	48.305
766.34	47.649
766.65	48.084
766.96	50.598
767.27	55.300
767.58	56.219
767.89	58.654
768.20	52.582
768.51	49.537
768.82	49.398
769.13	51.515
769.44	48.846
769.75	50.542
770.06	54.231
770.37	55.512
770.68	46.809
770.99	46.964
771.30	51.111
771.61	52.091
771.92	47.778
772.23	53.846
772.54	51.389
772.85	59.447
773.16	51.905
773.47	57.672
773.78	50.811
774.09	52.273
774.39	59.000
774.70	57.377
775.01	53.049
775.32	48.824
775.63	57.669
775.94	47.771
776.25	58.710
776.56	57.692
776.87	51.020
777.18	56.552
777.48	51.748
777.79	52.027
778.10	49.265
778.41	50.000
778.72	53.103
779.03	48.148
779.34	49.091
779.65	51.295
779.95	52.778
780.26	47.727
780.57	49.032
780.88	63.043
781.19	59.355
781.50	55.294
781.80	50.538
782.11	52.381
782.42	43.434
782.73	44.910
783.04	48.603
783.34	42.424
783.65	42.484
783.96	55.280
784.27	44.643
784.57	53.642
784.88	54.286
785.19	51.181
785.50	54.331
785.81	55.639
786.11	51.538
786.42	40.288
786.73	46.763
787.04	53.383
787.34	51.639
787.65	51.200
787.96	37.313
788.26	51.748
788.57	43.357
788.88	49.342
789.19	52.288
789.49	47.945
789.80	46.809
790.11	54.331
790.41	41.406
790.72	50.847
791.03	48.544
791.33	39.130
791.64	53.509
791.95	44.643
792.25	54.286
792.56	49.107
792.87	54.167
793.17	32.143
793.48	52.083
793.79	36.145
794.09	43.119
794.40	50.459
794.70	36.735
795.01	35.065
795.32	40.411
795.62	47.183
795.93	42.424
796.23	50.000
796.54	43.750
796.85	42.553
797.15	52.174
797.46	30.137
797.76	53.750
798.07	53.261
798.37	32.990
798.68	51.948
798.99	45.977
799.29	40.449
799.60	42.553
799.90	43.373
800.21	27.692
800.51	49.254
800.82	61.765
801.12	26.027
801.43	38.235
801.73	45.763
802.04	48.485
802.34	38.333
802.65	52.542
802.95	53.731
803.26	45.763
803.56	30.137
803.87	35.714
804.17	50.685
804.48	40.351
804.78	38.889
805.09	41.379
805.39	54.054
805.70	50.704
806.00	46.341
806.30	59.036
806.61	43.836
806.91	42.308
807.22	51.111
807.52	48.276
807.83	48.611
808.13	44.578
808.43	37.079
808.74	55.000
809.04	44.118
809.35	48.000
809.65	42.857
809.95	34.247
810.26	35.088
810.56	46.552
810.86	52.941
811.17	29.825
811.47	36.066
811.77	22.222
812.08	37.288
812.38	53.333
812.69	55.172
812.99	35.849
813.29	38.462
813.59	50.000
813.90	54.386
814.20	43.636
814.50	46.479
814.81	44.872
815.11	44.262
815.41	26.866
815.72	55.172
816.02	55.357
816.32	24.444
816.62	56.818
816.93	35.556
817.23	40.741
817.53	38.298
817.84	71.429
818.14	61.765
818.44	26.531
818.74	44.444
819.04	28.205
819.35	31.429
819.65	61.538
819.95	33.962
820.25	33.333
820.56	30.952
820.86	50.000
821.16	38.462
821.46	46.512
821.76	26.000
822.07	33.929
822.37	34.783
822.67	31.915
822.97	10.811
823.27	15.000
823.57	55.102
823.88	53.333
824.18	40.000
824.48	56.667
824.78	56.000
825.08	39.394
825.38	44.444
825.69	31.915
825.99	47.222
826.29	25.714
826.59	30.769
826.89	9.302
827.19	22.000
827.49	50.000
827.79	45.833
828.09	13.514
828.39	20.000
828.70	39.024
829.00	46.512
829.30	67.857
829.60	52.941
829.90	30.435
830.20	31.429
830.50	37.931
830.80	50.000
831.10	57.692
831.40	38.235
831.70	104.762
832.00	54.839
832.30	-52.941
832.60	29.167
832.90	84.615
833.20	42.105
833.50	40.000
833.80	5.263
834.10	-19.048
834.40	38.889
834.70	62.500
835.00	5.714
835.30	44.118
835.60	20.000
835.90	76.000
836.20	9.091
836.50	8.000
836.80	24.242
837.10	18.519
837.40	-7.407
837.70	25.000
838.00	25.000
838.30	-26.087
838.60	20.690
838.90	-14.286
839.19	-34.783
839.49	-91.667
839.79	-17.391
840.09	-50.000
840.39	25.000
840.69	29.032
840.99	10.714
841.29	60.000
841.59	94.737
841.88	43.590
842.18	15.385
842.48	70.000
842.78	5.000
843.08	36.667
843.38	32.258
843.68	-11.111
843.97	26.471
844.27	0.000
844.57	-5.263
844.87	20.000
845.17	-33.333
845.47	57.143
845.76	95.238
846.06	22.222
846.36	-11.765
846.66	30.769
846.96	40.000
847.25	29.412
847.55	86.957
847.85	20.000
848.15	82.353
848.44	0.000
848.74	61.905
849.04	-16.667
849.34	18.750
849.63	43.478
849.93	250.000
850.23	46.667
850.53	53.846
850.82	-18.182
851.12	4.545
851.42	27.273
851.71	69.231
852.01	-10.000
852.31	0.000
852.61	26.316
852.90	66.667
853.20	27.778
853.50	-88.889
853.79	0.000
854.09	9.091
854.39	50.000
854.68	25.806
854.98	26.923
855.28	77.778
855.57	28.571
855.87	8.000
856.17	27.273
856.46	62.963
856.76	33.333
857.05	4.348
857.35	25.000
857.65	-15.385
857.94	42.857
858.24	11.111
858.53	43.478
858.83	17.647
859.13	-17.647
859.42	88.235
859.72	0.000
860.01	-20.000
860.31	-66.667
860.60	40.000
860.90	6.667
861.20	-88.889
861.49	46.154
861.79	33.333
862.08	-53.846
862.38	25.000
862.67	29.412
862.97	50.000
863.26	11.111
863.56	80.000
863.85	-63.636
864.15	16.667
864.44	200.000
864.74	14.286
865.03	50.000
865.33	-40.000
865.62	41.935
865.92	9.091
866.21	47.826
866.51	14.286
866.80	-80.000
867.10	16.667
867.39	-58.333
867.69	800.000
867.98	85.714
868.27	11.765
868.57	-500.000
868.86	-30.000
869.16	-14.286
869.45	29.167
869.75	27.273
870.04	0.000
870.33	-33.333
870.63	-71.429
870.92	-250.000
871.22	-200.000
871.51	-90.909
871.80	-433.333
872.10	-150.000
>>>>>End Processed Spectral Data<<<<<
