SpectraSuite Data File
++++++++++++++++++++++++++++++++++++
Date: Thu May 14 15:52:29 PDT 2015
User: schluterlab
Dark Spectrum Present: Yes
Reference Spectrum Present: Yes
Number of Sampled Component Spectra: 1
Spectrometers: USB2E3373
Integration Time (usec): 3000 (USB2E3373)
Spectra Averaged: 3 (USB2E3373)
Boxcar Smoothing: 0 (USB2E3373)
Correct for Electrical Dark: No (USB2E3373)
Strobe/Lamp Enabled: No (USB2E3373)
Correct for Detector Non-linearity: No (USB2E3373)
Correct for Stray Light: No (USB2E3373)
Number of Pixels in Processed Spectrum: 2048
>>>>>Begin Processed Spectral Data<<<<<
178.53	0.000
178.91	614.286
179.29	-4200.000
179.67	-4500.000
180.04	378.571
180.42	350.000
180.80	740.000
181.18	-3700.000
181.56	-3200.000
181.94	875.000
182.31	-700.000
182.69	1466.667
183.07	-2250.000
183.45	1225.000
183.83	-633.333
184.20	-1166.667
184.58	2900.000
184.96	-850.000
185.34	-477.778
185.72	-620.000
186.09	466.667
186.47	1700.000
186.85	900.000
187.23	-500.000
187.61	-4300.000
187.98	760.000
188.36	1050.000
188.74	-900.000
189.12	-1266.667
189.49	-168.750
189.87	-587.500
190.25	-366.667
190.63	-740.000
191.00	-466.667
191.38	0.000
191.76	-1125.000
192.14	-750.000
192.51	2100.000
192.89	-650.000
193.27	0.000
193.65	-514.286
194.02	-5100.000
194.40	-500.000
194.78	585.714
195.15	0.000
195.53	-272.727
195.91	0.000
196.29	-625.000
196.66	-269.231
197.04	-5300.000
197.42	-657.143
197.79	-2350.000
198.17	-500.000
198.55	-571.429
198.92	-388.889
199.30	-475.000
199.68	-300.000
200.05	-278.571
200.43	-2100.000
200.81	657.143
201.18	0.000
201.56	455.556
201.94	0.000
202.31	1400.000
202.69	-455.556
203.07	3400.000
203.44	-388.889
203.82	-975.000
204.19	-283.333
204.57	-550.000
204.95	-587.500
205.32	-4200.000
205.70	1025.000
206.08	-550.000
206.45	-533.333
206.83	1040.000
207.20	-550.000
207.58	-820.000
207.96	-600.000
208.33	-616.667
208.71	308.333
209.08	-533.333
209.46	0.000
209.84	750.000
210.21	1750.000
210.59	1650.000
210.96	1400.000
211.34	-825.000
211.71	-425.000
212.09	-4000.000
212.46	0.000
212.84	2400.000
213.22	-740.000
213.59	-850.000
213.97	-310.000
214.34	-1200.000
214.72	616.667
215.09	-825.000
215.47	0.000
215.84	642.857
216.22	2250.000
216.59	-680.000
216.97	-800.000
217.34	-875.000
217.72	-450.000
218.09	-1000.000
218.47	-925.000
218.84	0.000
219.22	880.000
219.59	-217.647
219.97	-205.000
220.34	2000.000
220.72	-522.222
221.09	-207.692
221.47	-1200.000
221.84	-380.000
222.22	-542.857
222.59	0.000
222.97	-437.500
223.34	-900.000
223.72	-4200.000
224.09	-850.000
224.46	-800.000
224.84	-700.000
225.21	-614.286
225.59	-1025.000
225.96	-1025.000
226.34	-123.077
226.71	633.333
227.08	-1800.000
227.46	-220.000
227.83	-1125.000
228.21	-142.105
228.58	512.500
228.95	1950.000
229.33	-258.333
229.70	-280.000
230.08	-121.053
230.45	430.000
230.82	-1500.000
231.20	-214.286
231.57	-208.333
231.95	-336.364
232.32	-327.273
232.69	-170.000
233.07	-775.000
233.44	-211.765
233.81	-410.000
234.19	-100.000
234.56	-154.545
234.93	-93.103
235.31	-194.737
235.68	-200.000
236.05	-210.000
236.43	-69.231
236.80	-64.000
237.17	-100.000
237.55	-75.758
237.92	-400.000
238.29	-90.323
238.67	-68.182
239.04	-69.444
239.41	-69.048
239.79	-52.174
240.16	-51.852
240.53	-54.348
240.91	-60.784
241.28	-55.738
241.65	-7.463
242.02	-12.162
242.40	-47.692
242.77	-25.333
243.14	-23.171
243.51	-43.421
243.89	-19.231
244.26	-3.960
244.63	-10.784
245.00	-3.738
245.38	-9.649
245.75	-23.009
246.12	-5.556
246.49	-10.078
246.87	-4.286
247.24	-1.325
247.61	3.289
247.98	2.685
248.36	0.617
248.73	-1.840
249.10	5.464
249.47	11.940
249.84	13.089
250.22	7.772
250.59	1.667
250.96	10.909
251.33	4.082
251.70	9.829
252.08	11.667
252.45	9.426
252.82	15.702
253.19	7.422
253.56	12.548
253.94	9.231
254.31	13.258
254.68	12.587
255.05	14.658
255.42	8.163
255.79	9.061
256.16	8.278
256.54	14.901
256.91	10.820
257.28	16.721
257.65	11.783
258.02	11.504
258.39	15.100
258.76	16.208
259.14	14.943
259.51	13.833
259.88	13.314
260.25	15.278
260.62	16.438
260.99	17.213
261.36	15.818
261.73	14.589
262.10	16.209
262.47	15.282
262.85	18.939
263.22	13.766
263.59	13.158
263.96	16.880
264.33	15.601
264.70	17.778
265.07	18.854
265.44	17.234
265.81	14.815
266.18	17.914
266.55	18.080
266.92	17.312
267.29	19.037
267.66	15.965
268.03	15.939
268.40	20.251
268.77	15.945
269.14	16.960
269.51	16.009
269.88	18.033
270.25	17.907
270.62	20.042
270.99	17.778
271.36	18.614
271.73	16.896
272.10	21.443
272.47	15.030
272.84	20.482
273.21	14.429
273.58	18.145
273.95	17.885
274.32	16.160
274.69	19.342
275.06	20.147
275.43	16.636
275.80	19.577
276.17	17.037
276.54	17.724
276.91	19.320
277.28	18.083
277.65	19.210
278.02	20.037
278.39	18.297
278.76	17.575
279.13	16.135
279.50	19.588
279.87	18.426
280.23	14.965
280.60	19.492
280.97	18.421
281.34	20.034
281.71	18.613
282.08	17.774
282.45	16.367
282.82	16.641
283.19	18.094
283.56	18.033
283.92	18.919
284.29	19.115
284.66	19.212
285.03	15.385
285.40	17.774
285.77	18.885
286.14	18.931
286.51	19.939
286.87	15.324
287.24	19.880
287.61	18.386
287.98	16.918
288.35	18.047
288.72	17.456
289.08	19.619
289.45	16.716
289.82	17.169
290.19	18.103
290.56	17.324
290.93	17.118
291.29	16.391
291.66	16.253
292.03	14.654
292.40	16.871
292.77	14.960
293.13	16.373
293.50	15.243
293.87	14.631
294.24	17.200
294.60	17.067
294.97	13.154
295.34	16.517
295.71	14.754
296.08	14.599
296.44	16.299
296.81	15.347
297.18	14.819
297.55	15.212
297.91	14.591
298.28	14.692
298.65	14.863
299.02	13.695
299.38	15.789
299.75	13.785
300.12	16.088
300.48	14.286
300.85	14.173
301.22	15.772
301.59	14.954
301.95	14.237
302.32	14.778
302.69	14.020
303.05	14.255
303.42	14.412
303.79	15.521
304.15	14.721
304.52	14.588
304.89	14.136
305.25	14.907
305.62	14.316
305.99	14.021
306.35	14.718
306.72	16.649
307.09	15.228
307.45	14.596
307.82	14.733
308.19	14.531
308.55	14.754
308.92	14.411
309.29	14.559
309.65	16.179
310.02	14.059
310.38	14.173
310.75	15.631
311.12	15.628
311.48	15.152
311.85	14.530
312.22	14.896
312.58	13.991
312.95	16.252
313.31	15.718
313.68	16.117
314.05	15.989
314.41	17.213
314.78	16.076
315.14	16.515
315.51	15.697
315.87	17.012
316.24	18.265
316.61	17.851
316.97	17.376
317.34	17.901
317.70	18.603
318.07	18.254
318.43	18.367
318.80	20.569
319.16	17.511
319.53	16.967
319.89	17.616
320.26	18.950
320.62	17.730
320.99	18.283
321.35	19.593
321.72	18.605
322.08	17.674
322.45	20.506
322.81	20.487
323.18	19.735
323.54	20.086
323.91	21.085
324.27	19.277
324.64	21.830
325.00	20.315
325.37	21.949
325.73	21.405
326.10	22.303
326.46	23.046
326.83	23.619
327.19	21.890
327.56	23.083
327.92	22.974
328.29	22.823
328.65	21.273
329.01	23.012
329.38	22.409
329.74	23.545
330.11	22.860
330.47	23.168
330.84	22.222
331.20	22.667
331.56	22.270
331.93	23.347
332.29	22.203
332.66	22.591
333.02	22.111
333.38	22.903
333.75	23.316
334.11	22.769
334.48	24.010
334.84	22.940
335.20	22.586
335.57	22.260
335.93	23.471
336.29	22.795
336.66	23.970
337.02	22.826
337.38	23.639
337.75	22.231
338.11	21.447
338.47	23.739
338.84	22.166
339.20	22.241
339.56	22.817
339.93	22.085
340.29	22.303
340.65	21.817
341.02	22.506
341.38	23.120
341.74	22.115
342.11	22.043
342.47	21.525
342.83	22.866
343.20	23.876
343.56	23.336
343.92	21.777
344.28	22.891
344.65	22.946
345.01	21.763
345.37	22.006
345.73	22.058
346.10	22.309
346.46	22.706
346.82	22.697
347.19	22.154
347.55	23.065
347.91	23.180
348.27	22.155
348.63	22.391
349.00	22.819
349.36	23.717
349.72	21.131
350.08	22.288
350.45	22.281
350.81	23.077
351.17	22.406
351.53	21.607
351.89	22.779
352.26	21.791
352.62	22.910
352.98	22.061
353.34	21.135
353.70	22.111
354.07	22.578
354.43	22.248
354.79	21.840
355.15	21.928
355.51	22.515
355.87	22.812
356.24	22.890
356.60	21.951
356.96	22.165
357.32	21.710
357.68	22.694
358.04	21.482
358.40	22.239
358.77	22.149
359.13	22.157
359.49	20.372
359.85	22.190
360.21	22.669
360.57	22.326
360.93	21.791
361.29	22.316
361.66	22.810
362.02	23.939
362.38	23.050
362.74	22.277
363.10	23.315
363.46	23.338
363.82	22.088
364.18	22.730
364.54	22.268
364.90	22.876
365.26	22.000
365.62	23.667
365.98	23.417
366.35	22.483
366.71	23.605
367.07	23.207
367.43	23.703
367.79	23.756
368.15	23.144
368.51	22.463
368.87	23.449
369.23	23.400
369.59	23.429
369.95	24.206
370.31	22.957
370.67	23.109
371.03	23.061
371.39	23.707
371.75	24.347
372.11	22.696
372.47	24.374
372.83	23.560
373.19	22.882
373.55	23.713
373.91	23.722
374.27	24.127
374.63	24.087
374.99	23.077
375.35	24.675
375.71	24.387
376.07	24.209
376.42	23.048
376.78	24.984
377.14	24.891
377.50	24.731
377.86	24.754
378.22	25.269
378.58	25.565
378.94	24.824
379.30	23.784
379.66	25.279
380.02	25.159
380.38	26.267
380.74	25.465
381.09	25.261
381.45	25.909
381.81	25.995
382.17	25.653
382.53	25.322
382.89	24.718
383.25	25.674
383.61	25.579
383.97	25.029
384.32	26.256
384.68	24.710
385.04	25.622
385.40	26.105
385.76	26.729
386.12	25.494
386.48	25.765
386.83	26.400
387.19	25.666
387.55	26.350
387.91	25.913
388.27	26.097
388.62	26.575
388.98	25.719
389.34	26.753
389.70	26.438
390.06	27.827
390.42	27.229
390.77	27.514
391.13	25.293
391.49	26.147
391.85	26.848
392.20	26.631
392.56	27.112
392.92	28.135
393.28	27.584
393.64	27.151
393.99	27.542
394.35	27.687
394.71	27.784
395.07	27.126
395.42	27.242
395.78	27.483
396.14	27.926
396.50	26.010
396.85	27.609
397.21	27.396
397.57	27.032
397.92	27.606
398.28	26.507
398.64	27.231
399.00	26.859
399.35	27.016
399.71	27.609
400.07	28.130
400.42	27.299
400.78	27.373
401.14	28.002
401.49	27.914
401.85	27.907
402.21	28.216
402.57	28.756
402.92	27.660
403.28	27.049
403.63	27.804
403.99	27.672
404.35	28.368
404.70	27.535
405.06	27.989
405.42	27.283
405.77	28.135
406.13	28.417
406.49	28.378
406.84	28.144
407.20	26.942
407.55	27.075
407.91	28.221
408.27	27.562
408.62	27.981
408.98	28.439
409.34	26.393
409.69	28.183
410.05	28.077
410.40	28.480
410.76	28.211
411.11	28.229
411.47	27.948
411.83	29.042
412.18	27.892
412.54	27.682
412.89	27.998
413.25	28.047
413.60	28.202
413.96	28.322
414.31	26.912
414.67	27.311
415.03	27.138
415.38	28.815
415.74	27.550
416.09	28.378
416.45	28.178
416.80	26.867
417.16	27.650
417.51	28.829
417.87	27.897
418.22	28.323
418.58	27.633
418.93	27.881
419.29	28.607
419.64	27.731
420.00	27.537
420.35	27.681
420.71	28.202
421.06	27.947
421.42	28.096
421.77	27.356
422.12	27.960
422.48	28.213
422.83	29.354
423.19	28.276
423.54	28.319
423.90	28.272
424.25	28.800
424.61	27.497
424.96	28.171
425.31	29.406
425.67	28.341
426.02	28.058
426.38	28.129
426.73	28.460
427.09	28.777
427.44	27.690
427.79	28.358
428.15	28.196
428.50	27.753
428.85	27.268
429.21	28.138
429.56	27.493
429.92	28.354
430.27	28.145
430.62	28.334
430.98	28.037
431.33	28.201
431.68	27.921
432.04	28.542
432.39	28.441
432.74	27.911
433.10	27.745
433.45	28.149
433.80	27.468
434.16	28.357
434.51	28.366
434.86	29.533
435.22	28.587
435.57	28.420
435.92	28.659
436.28	28.214
436.63	28.946
436.98	27.322
437.34	28.523
437.69	27.958
438.04	26.917
438.39	27.915
438.75	27.338
439.10	28.964
439.45	27.781
439.81	27.571
440.16	27.668
440.51	28.149
440.86	28.127
441.22	27.760
441.57	28.721
441.92	28.274
442.27	28.788
442.63	28.415
442.98	28.549
443.33	27.880
443.68	28.989
444.03	28.975
444.39	29.126
444.74	28.841
445.09	28.332
445.44	28.714
445.79	28.496
446.15	28.623
446.50	28.786
446.85	28.064
447.20	29.352
447.55	28.347
447.91	28.953
448.26	28.066
448.61	28.374
448.96	29.238
449.31	27.253
449.66	27.669
450.02	28.797
450.37	28.396
450.72	27.610
451.07	28.815
451.42	27.556
451.77	27.849
452.12	28.442
452.47	27.807
452.83	28.660
453.18	26.853
453.53	28.202
453.88	27.940
454.23	28.023
454.58	28.091
454.93	26.638
455.28	28.417
455.63	28.255
455.98	28.659
456.34	27.444
456.69	27.219
457.04	27.660
457.39	27.882
457.74	27.852
458.09	26.908
458.44	27.694
458.79	27.540
459.14	28.002
459.49	28.297
459.84	28.437
460.19	27.707
460.54	27.995
460.89	27.792
461.24	27.759
461.59	28.279
461.94	26.868
462.29	28.443
462.64	27.097
462.99	27.181
463.34	27.709
463.69	26.905
464.04	27.849
464.39	28.139
464.74	26.682
465.09	26.701
465.44	27.682
465.79	28.186
466.14	26.472
466.49	27.263
466.84	27.989
467.19	27.225
467.54	26.381
467.89	26.667
468.24	27.368
468.59	26.752
468.94	26.515
469.29	26.095
469.64	26.319
469.99	26.004
470.34	26.361
470.68	26.726
471.03	26.457
471.38	25.441
471.73	25.943
472.08	26.269
472.43	25.406
472.78	26.448
473.13	25.664
473.48	25.982
473.83	25.305
474.17	25.674
474.52	26.819
474.87	26.190
475.22	26.141
475.57	25.597
475.92	25.734
476.27	26.464
476.61	25.961
476.96	26.069
477.31	26.040
477.66	26.863
478.01	25.572
478.36	26.022
478.70	26.601
479.05	26.125
479.40	26.209
479.75	26.465
480.10	26.149
480.45	26.527
480.79	26.168
481.14	25.046
481.49	26.170
481.84	25.849
482.19	25.505
482.53	25.579
482.88	27.116
483.23	26.056
483.58	25.677
483.92	25.754
484.27	26.376
484.62	25.124
484.97	26.205
485.31	25.695
485.66	24.899
486.01	25.559
486.36	26.711
486.70	27.537
487.05	28.071
487.40	26.956
487.75	26.641
488.09	26.402
488.44	25.339
488.79	25.801
489.13	24.801
489.48	25.204
489.83	25.352
490.17	24.382
490.52	24.384
490.87	25.169
491.22	24.827
491.56	24.957
491.91	25.425
492.26	24.275
492.60	25.492
492.95	25.143
493.30	24.160
493.64	24.354
493.99	23.860
494.34	24.956
494.68	23.854
495.03	24.493
495.37	24.767
495.72	23.900
496.07	24.452
496.41	23.767
496.76	24.771
497.11	24.289
497.45	24.040
497.80	24.300
498.14	23.583
498.49	23.713
498.84	24.132
499.18	23.302
499.53	23.363
499.87	24.088
500.22	23.108
500.56	23.392
500.91	23.707
501.26	24.182
501.60	23.774
501.95	23.882
502.29	23.475
502.64	23.655
502.98	22.390
503.33	23.153
503.67	23.027
504.02	23.380
504.36	23.190
504.71	22.967
505.06	23.101
505.40	22.898
505.75	23.270
506.09	23.481
506.44	23.630
506.78	23.349
507.13	23.375
507.47	22.928
507.82	23.580
508.16	22.323
508.51	22.082
508.85	22.957
509.19	22.928
509.54	23.007
509.88	22.827
510.23	22.681
510.57	23.055
510.92	22.496
511.26	22.463
511.61	22.405
511.95	22.352
512.30	22.354
512.64	21.989
512.98	21.961
513.33	23.135
513.67	21.928
514.02	22.432
514.36	22.302
514.70	21.875
515.05	22.419
515.39	21.732
515.74	22.534
516.08	22.081
516.42	22.187
516.77	21.451
517.11	21.970
517.46	21.739
517.80	22.074
518.14	22.742
518.49	21.095
518.83	21.660
519.17	21.917
519.52	22.013
519.86	22.281
520.20	22.045
520.55	21.851
520.89	21.340
521.23	21.161
521.58	21.638
521.92	22.493
522.26	21.249
522.61	20.312
522.95	21.223
523.29	20.977
523.64	21.188
523.98	21.734
524.32	21.318
524.66	21.229
525.01	21.971
525.35	21.137
525.69	20.534
526.04	20.551
526.38	20.747
526.72	21.280
527.06	21.349
527.41	21.166
527.75	21.556
528.09	21.606
528.43	20.841
528.78	20.520
529.12	20.241
529.46	21.304
529.80	20.595
530.15	20.928
530.49	20.996
530.83	21.015
531.17	20.609
531.51	20.878
531.86	20.853
532.20	21.585
532.54	20.227
532.88	20.364
533.22	21.332
533.57	20.138
533.91	20.707
534.25	21.029
534.59	21.322
534.93	21.166
535.27	20.507
535.62	21.035
535.96	20.918
536.30	20.270
536.64	20.120
536.98	19.865
537.32	20.432
537.66	20.025
538.01	20.000
538.35	20.524
538.69	20.373
539.03	20.907
539.37	20.554
539.71	19.700
540.05	20.923
540.39	19.560
540.73	20.158
541.07	20.294
541.42	20.142
541.76	19.276
542.10	19.361
542.44	19.610
542.78	19.769
543.12	19.309
543.46	19.780
543.80	18.825
544.14	19.988
544.48	19.740
544.82	19.569
545.16	20.572
545.50	19.113
545.84	19.718
546.18	20.494
546.52	19.299
546.86	18.994
547.20	19.784
547.54	20.162
547.88	19.168
548.22	19.240
548.56	19.544
548.90	18.209
549.24	19.939
549.58	18.675
549.92	18.941
550.26	19.353
550.60	18.188
550.94	18.370
551.28	19.010
551.62	19.205
551.96	18.964
552.30	19.120
552.64	19.291
552.98	18.341
553.32	18.071
553.66	19.807
554.00	19.735
554.34	18.211
554.68	18.334
555.02	19.120
555.36	19.264
555.69	18.193
556.03	18.916
556.37	19.712
556.71	18.706
557.05	18.530
557.39	17.983
557.73	17.900
558.07	18.079
558.41	19.003
558.75	17.918
559.08	19.903
559.42	17.833
559.76	18.725
560.10	18.419
560.44	18.668
560.78	18.938
561.12	18.719
561.45	18.856
561.79	18.254
562.13	18.361
562.47	18.249
562.81	18.481
563.15	18.056
563.48	18.645
563.82	18.017
564.16	17.565
564.50	17.998
564.84	18.348
565.17	17.765
565.51	18.124
565.85	18.646
566.19	18.836
566.52	18.198
566.86	18.449
567.20	17.673
567.54	17.950
567.88	18.349
568.21	18.874
568.55	18.561
568.89	19.246
569.23	19.899
569.56	19.148
569.90	19.530
570.24	19.427
570.57	18.762
570.91	19.045
571.25	19.265
571.59	19.538
571.92	19.376
572.26	20.090
572.60	19.192
572.93	19.538
573.27	19.416
573.61	18.925
573.95	19.738
574.28	19.692
574.62	19.623
574.96	19.453
575.29	19.277
575.63	19.358
575.97	19.329
576.30	19.171
576.64	19.112
576.98	18.952
577.31	19.514
577.65	19.418
577.98	19.447
578.32	19.158
578.66	19.224
578.99	19.107
579.33	19.231
579.67	19.130
580.00	19.218
580.34	19.219
580.67	18.667
581.01	18.996
581.35	18.819
581.68	18.811
582.02	19.414
582.35	19.336
582.69	19.962
583.02	19.211
583.36	18.957
583.70	18.678
584.03	18.575
584.37	18.366
584.70	18.606
585.04	18.833
585.37	18.095
585.71	18.770
586.04	18.846
586.38	18.617
586.72	18.300
587.05	18.675
587.39	18.773
587.72	18.900
588.06	19.004
588.39	18.447
588.73	18.677
589.06	17.974
589.40	17.886
589.73	17.898
590.07	17.772
590.40	18.357
590.73	17.886
591.07	17.945
591.40	17.263
591.74	17.130
592.07	17.499
592.41	17.311
592.74	17.891
593.08	18.917
593.41	18.169
593.75	18.247
594.08	17.692
594.41	18.429
594.75	17.635
595.08	18.271
595.42	17.532
595.75	18.276
596.09	17.486
596.42	17.521
596.75	17.792
597.09	17.818
597.42	17.163
597.75	16.974
598.09	17.897
598.42	17.652
598.76	17.233
599.09	17.622
599.42	17.332
599.76	17.960
600.09	17.951
600.42	17.818
600.76	17.900
601.09	17.159
601.42	17.096
601.76	17.138
602.09	17.119
602.42	16.830
602.76	16.679
603.09	17.584
603.42	17.666
603.76	17.266
604.09	17.921
604.42	16.954
604.76	16.971
605.09	17.312
605.42	17.663
605.75	17.577
606.09	17.208
606.42	16.819
606.75	16.754
607.09	16.551
607.42	17.303
607.75	17.507
608.08	17.048
608.42	16.203
608.75	17.371
609.08	16.851
609.41	16.630
609.75	17.143
610.08	17.106
610.41	16.907
610.74	17.059
611.07	16.607
611.41	17.265
611.74	16.628
612.07	16.877
612.40	15.875
612.73	17.017
613.07	16.773
613.40	16.843
613.73	16.177
614.06	16.438
614.39	15.986
614.72	16.351
615.06	15.833
615.39	15.853
615.72	16.398
616.05	16.464
616.38	16.650
616.71	16.405
617.05	15.335
617.38	16.586
617.71	16.253
618.04	16.028
618.37	16.393
618.70	16.968
619.03	15.830
619.36	15.166
619.69	14.862
620.03	14.878
620.36	15.460
620.69	14.127
621.02	15.354
621.35	15.094
621.68	14.895
622.01	15.018
622.34	14.854
622.67	14.914
623.00	14.912
623.33	15.262
623.66	15.110
623.99	14.812
624.32	15.789
624.65	14.865
624.99	14.499
625.32	16.525
625.65	15.374
625.98	14.237
626.31	15.308
626.64	15.018
626.97	14.554
627.30	13.667
627.63	14.479
627.96	15.315
628.29	13.696
628.62	13.098
628.95	14.461
629.28	13.849
629.61	14.394
629.94	14.142
630.26	14.153
630.59	13.299
630.92	14.372
631.25	14.401
631.58	14.030
631.91	13.683
632.24	12.680
632.57	14.042
632.90	12.939
633.23	12.857
633.56	14.592
633.89	12.500
634.22	13.721
634.55	13.361
634.88	12.338
635.20	11.841
635.53	12.090
635.86	13.759
636.19	13.680
636.52	13.080
636.85	12.768
637.18	12.786
637.51	12.688
637.83	14.064
638.16	13.364
638.49	12.207
638.82	13.191
639.15	12.257
639.48	13.395
639.81	12.818
640.13	13.663
640.46	10.424
640.79	11.029
641.12	11.677
641.45	11.920
641.77	14.249
642.10	11.549
642.43	12.766
642.76	12.060
643.09	10.959
643.41	11.905
643.74	10.069
644.07	10.759
644.40	12.306
644.73	11.321
645.05	11.454
645.38	11.079
645.71	11.290
646.04	12.339
646.36	12.701
646.69	10.890
647.02	12.385
647.35	11.450
647.67	10.628
648.00	11.783
648.33	12.913
648.66	10.699
648.98	10.340
649.31	10.149
649.64	12.749
649.96	11.936
650.29	10.014
650.62	9.477
650.94	10.961
651.27	9.581
651.60	10.380
651.92	9.726
652.25	12.156
652.58	11.554
652.90	9.593
653.23	11.972
653.56	11.270
653.88	12.640
654.21	10.563
654.54	9.827
654.86	11.048
655.19	11.418
655.52	15.962
655.84	18.633
656.17	21.342
656.49	29.896
656.82	32.426
657.15	24.877
657.47	18.616
657.80	13.622
658.13	10.432
658.45	13.222
658.78	15.902
659.10	14.871
659.43	14.333
659.75	12.485
660.08	11.092
660.41	11.249
660.73	10.490
661.06	8.517
661.38	10.207
661.71	9.483
662.03	8.289
662.36	9.839
662.68	7.692
663.01	10.796
663.33	9.074
663.66	9.524
663.98	9.038
664.31	7.692
664.63	7.514
664.96	11.252
665.28	8.348
665.61	9.790
665.93	9.643
666.26	7.348
666.58	8.856
666.91	9.533
667.23	8.952
667.56	9.073
667.88	9.600
668.21	8.398
668.53	6.178
668.86	8.841
669.18	7.332
669.50	7.555
669.83	7.200
670.15	8.268
670.48	7.738
670.80	9.560
671.13	7.372
671.45	7.480
671.77	11.676
672.10	10.167
672.42	8.576
672.75	8.756
673.07	10.299
673.39	8.783
673.72	9.564
674.04	10.172
674.37	9.481
674.69	10.758
675.01	5.905
675.34	8.779
675.66	9.176
675.98	9.888
676.31	9.961
676.63	9.886
676.95	9.387
677.28	9.879
677.60	5.906
677.92	8.829
678.25	9.506
678.57	8.185
678.89	10.068
679.22	8.537
679.54	9.744
679.86	9.661
680.18	9.287
680.51	10.377
680.83	9.329
681.15	8.103
681.48	9.845
681.80	10.363
682.12	9.091
682.44	8.180
682.77	9.043
683.09	8.902
683.41	8.333
683.73	10.247
684.06	8.672
684.38	8.766
684.70	8.259
685.02	12.048
685.34	7.820
685.67	8.360
685.99	8.896
686.31	8.721
686.63	8.847
686.96	10.410
687.28	9.935
687.60	9.596
687.92	9.486
688.24	9.683
688.56	8.793
688.89	8.167
689.21	10.568
689.53	7.059
689.85	8.284
690.17	10.370
690.49	7.171
690.82	8.713
691.14	6.478
691.46	9.943
691.78	9.576
692.10	8.991
692.42	7.500
692.74	7.623
693.06	5.370
693.39	8.539
693.71	8.271
694.03	8.550
694.35	8.952
694.67	8.008
694.99	4.894
695.31	4.636
695.63	6.926
695.95	5.383
696.27	6.374
696.59	5.973
696.91	6.081
697.23	9.890
697.56	7.332
697.88	9.659
698.20	9.228
698.52	11.553
698.84	9.356
699.16	8.367
699.48	7.113
699.80	8.085
700.12	6.987
700.44	7.604
700.76	8.551
701.08	7.748
701.40	4.663
701.72	4.229
702.04	6.150
702.36	1.309
702.68	6.357
703.00	4.156
703.32	4.187
703.64	6.601
703.96	5.251
704.28	4.177
704.60	8.608
704.91	6.633
705.23	3.562
705.55	6.407
705.87	4.242
706.19	2.454
706.51	2.410
706.83	2.882
707.15	5.556
707.47	6.776
707.79	8.079
708.11	4.661
708.43	6.237
708.74	3.125
709.06	7.425
709.38	7.277
709.70	6.452
710.02	5.426
710.34	5.851
710.66	2.235
710.98	5.191
711.29	2.747
711.61	3.955
711.93	2.564
712.25	5.405
712.57	7.080
712.89	4.118
713.20	2.071
713.52	2.312
713.84	5.014
714.16	5.789
714.48	4.639
714.80	8.052
715.11	5.512
715.43	4.244
715.75	4.737
716.07	4.696
716.39	6.831
716.70	2.410
717.02	2.623
717.34	-1.045
717.66	1.678
717.97	-4.110
718.29	-0.687
718.61	3.618
718.93	4.531
719.24	2.484
719.56	0.613
719.88	4.204
720.20	7.097
720.51	5.590
720.83	2.500
721.15	2.632
721.46	-2.397
721.78	2.000
722.10	3.883
722.42	1.342
722.73	2.581
723.05	1.404
723.37	0.694
723.68	5.376
724.00	3.610
724.32	3.521
724.63	-0.350
724.95	2.482
725.27	0.697
725.58	0.707
725.90	5.172
726.22	1.881
726.53	3.247
726.85	4.088
727.16	1.511
727.48	6.422
727.80	0.331
728.11	-0.707
728.43	2.020
728.74	4.013
729.06	3.974
729.38	3.896
729.69	1.342
730.01	4.167
730.32	1.515
730.64	5.346
730.96	6.211
731.27	8.939
731.59	2.747
731.90	6.753
732.22	3.906
732.53	4.696
732.85	5.143
733.16	4.399
733.48	-2.744
733.80	2.786
734.11	2.279
734.43	6.216
734.74	4.304
735.06	6.784
735.37	3.784
735.69	5.676
736.00	2.542
736.32	5.121
736.63	3.333
736.95	5.172
737.26	3.333
737.58	3.333
737.89	3.529
738.21	1.835
738.52	0.656
738.83	3.754
739.15	1.773
739.46	3.401
739.78	3.681
740.09	2.579
740.41	2.624
740.72	2.667
741.04	3.560
741.35	1.754
741.66	0.784
741.98	2.459
742.29	-1.255
742.61	3.070
742.92	-3.462
743.23	2.888
743.55	0.000
743.86	2.000
744.18	0.000
744.49	-0.844
744.80	-0.412
745.12	0.000
745.43	5.285
745.74	-3.017
746.06	-3.390
746.37	1.688
746.68	3.252
747.00	-4.583
747.31	-3.004
747.62	0.000
747.94	2.024
748.25	-1.606
748.56	-2.449
748.88	-4.274
749.19	-2.586
749.50	-2.597
749.82	1.205
750.13	3.915
750.44	-0.333
750.75	4.923
751.07	3.385
751.38	3.785
751.69	2.236
752.01	0.000
752.32	4.248
752.63	1.020
752.94	0.692
753.26	-0.372
753.57	-1.481
753.88	-0.749
754.19	2.894
754.51	1.929
754.82	4.502
755.13	5.574
755.44	1.706
755.75	1.316
756.07	5.970
756.38	-0.314
756.69	7.229
757.00	1.939
757.31	4.645
757.63	4.604
757.94	7.512
758.25	6.321
758.56	7.190
758.87	7.045
759.18	4.267
759.50	5.949
759.81	7.563
760.12	5.391
760.43	5.208
760.74	6.158
761.05	6.000
761.36	4.096
761.67	5.838
761.99	4.054
762.30	2.134
762.61	-2.640
762.92	1.866
763.23	0.749
763.54	5.396
763.85	-0.687
764.16	1.010
764.47	3.873
764.78	7.668
765.10	6.452
765.41	6.923
765.72	3.439
766.03	6.215
766.34	1.254
766.65	-2.091
766.96	-2.390
767.27	-2.304
767.58	-4.975
767.89	0.481
768.20	0.469
768.51	-0.926
768.82	0.000
769.13	0.379
769.44	-5.000
769.75	0.722
770.06	2.308
770.37	6.299
770.68	-7.660
770.99	-6.478
771.30	7.407
771.61	0.760
771.92	-2.222
772.23	4.858
772.54	-4.630
772.85	0.461
773.16	1.429
773.47	1.587
773.78	-8.108
774.09	-3.409
774.39	2.000
774.70	-3.825
775.01	-9.756
775.32	-19.412
775.63	-8.589
775.94	-19.108
776.25	-9.677
776.56	-6.410
776.87	-6.122
777.18	-7.586
777.48	-14.685
777.79	-9.459
778.10	-18.382
778.41	-11.111
778.72	-13.103
779.03	-10.494
779.34	-3.030
779.65	-6.736
779.95	-4.444
780.26	-5.682
780.57	-10.323
780.88	-8.696
781.19	-7.097
781.50	-0.588
781.80	-7.527
782.11	-6.878
782.42	-9.091
782.73	-14.371
783.04	-6.145
783.34	-8.485
783.65	-16.993
783.96	-6.832
784.27	-7.738
784.57	-9.272
784.88	-15.714
785.19	-15.748
785.50	-15.748
785.81	-12.782
786.11	-9.231
786.42	-19.424
786.73	-18.705
787.04	-14.286
787.34	-13.934
787.65	-12.800
787.96	-20.149
788.26	-4.196
788.57	-11.189
788.88	-12.500
789.19	-5.882
789.49	-10.274
789.80	-12.057
790.11	-8.661
790.41	-11.719
790.72	-17.797
791.03	-30.097
791.33	-19.130
791.64	-14.035
791.95	-27.679
792.25	-19.048
792.56	-24.107
792.87	-28.125
793.17	-14.286
793.48	-31.250
793.79	-39.759
794.09	-25.688
794.40	-30.275
794.70	-11.565
795.01	-15.584
795.32	-13.699
795.62	-10.563
795.93	-21.970
796.23	-9.016
796.54	-25.000
796.85	-28.723
797.15	-23.913
797.46	-35.616
797.76	-42.500
798.07	-30.435
798.37	-27.835
798.68	-51.948
798.99	-27.586
799.29	-22.472
799.60	-17.021
799.90	-33.735
800.21	-56.923
800.51	-47.761
800.82	-67.647
801.12	-47.945
801.43	-54.412
801.73	-55.932
802.04	-50.000
802.34	-70.000
802.65	-52.542
802.95	-52.239
803.26	-76.271
803.56	-46.575
803.87	-37.143
804.17	-35.616
804.48	-61.404
804.78	-47.222
805.09	-51.724
805.39	-33.784
805.70	-54.930
806.00	-30.488
806.30	-26.506
806.61	-39.726
806.91	-16.346
807.22	-37.778
807.52	-42.529
807.83	-27.778
808.13	-24.096
808.43	-29.213
808.74	-40.000
809.04	-61.765
809.35	-42.667
809.65	-44.286
809.95	-43.836
810.26	-71.930
810.56	-63.793
810.86	-39.706
811.17	-50.877
811.47	-54.098
811.77	-97.778
812.08	-59.322
812.38	-45.000
812.69	-43.103
812.99	-60.377
813.29	-105.128
813.59	-48.000
813.90	-49.123
814.20	-63.636
814.50	-33.803
814.81	-32.051
815.11	-37.705
815.41	-37.313
815.72	-37.931
816.02	-44.643
816.32	-55.556
816.62	-63.636
816.93	-80.000
817.23	-44.444
817.53	-68.085
817.84	-50.000
818.14	-88.235
818.44	-63.265
818.74	-66.667
819.04	-92.308
819.35	-105.714
819.65	-126.923
819.95	-62.264
820.25	-64.444
820.56	-95.238
820.86	-112.500
821.16	-76.923
821.46	-102.326
821.76	-84.000
822.07	-42.857
822.37	-78.261
822.67	-76.596
822.97	-121.622
823.27	-80.000
823.57	-69.388
823.88	-55.556
824.18	-85.000
824.48	-133.333
824.78	-164.000
825.08	-109.091
825.38	-51.111
825.69	-48.936
825.99	-80.556
826.29	-114.286
826.59	-82.051
826.89	-90.698
827.19	-60.000
827.49	-97.059
827.79	-68.750
828.09	-108.108
828.39	-123.333
828.70	-90.244
829.00	-90.698
829.30	-125.000
829.60	-82.353
829.90	-69.565
830.20	-114.286
830.50	-141.379
830.80	-211.111
831.10	-161.538
831.40	-100.000
831.70	-152.381
832.00	-109.677
832.30	-258.824
832.60	-154.167
832.90	-276.923
833.20	-189.474
833.50	-180.000
833.80	-236.842
834.10	-266.667
834.40	-66.667
834.70	-71.875
835.00	-134.286
835.30	-97.059
835.60	-110.000
835.90	-156.000
836.20	-218.182
836.50	-136.000
836.80	-109.091
837.10	-118.519
837.40	-137.037
837.70	-293.750
838.00	-135.714
838.30	-173.913
838.60	-141.379
838.90	-235.714
839.19	-178.261
839.49	-416.667
839.79	-139.130
840.09	-256.250
840.39	-180.000
840.69	-112.903
840.99	-135.714
841.29	-206.667
841.59	-173.684
841.88	-56.410
842.18	-150.000
842.48	-470.000
842.78	-165.000
843.08	-123.333
843.38	-112.903
843.68	-227.778
843.97	-88.235
844.27	-212.500
844.57	-163.158
844.87	-470.000
845.17	-253.333
845.47	-119.048
845.76	-166.667
846.06	-311.111
846.36	-229.412
846.66	-103.846
846.96	-280.000
847.25	-241.176
847.55	-108.696
847.85	-185.000
848.15	-176.471
848.44	-300.000
848.74	-209.524
849.04	-133.333
849.34	-218.750
849.63	-143.478
849.93	2250.000
850.23	-213.333
850.53	-88.462
850.82	-309.091
851.12	-145.455
851.42	-363.636
851.71	-253.846
852.01	-210.000
852.31	-330.769
852.61	-194.737
852.90	-241.667
853.20	-161.111
853.50	-466.667
853.79	-223.810
854.09	-186.364
854.39	-391.667
854.68	-116.129
854.98	-134.615
855.28	-188.889
855.57	-135.714
855.87	-104.000
856.17	-145.455
856.46	-140.741
856.76	-194.444
857.05	-169.565
857.35	-137.500
857.65	-300.000
857.94	-180.952
858.24	-125.926
858.53	-147.826
858.83	-217.647
859.13	-235.294
859.42	-188.235
859.72	-214.286
860.01	-215.000
860.31	-388.889
860.60	-350.000
860.90	-253.333
861.20	-194.444
861.49	-300.000
861.79	-113.333
862.08	-346.154
862.38	-84.375
862.67	-170.588
862.97	-225.000
863.26	-544.444
863.56	-420.000
863.85	-327.273
864.15	-172.222
864.44	-1133.333
864.74	-235.714
865.03	-262.500
865.33	-360.000
865.62	-100.000
865.92	-122.727
866.21	-165.217
866.51	-328.571
866.80	-960.000
867.10	-300.000
867.39	-391.667
867.69	5500.000
867.98	-542.857
868.27	-170.588
868.57	-5300.000
868.86	-490.000
869.16	-209.524
869.45	-154.167
869.75	-263.636
870.04	-471.429
870.33	-341.667
870.63	-685.714
870.92	-1025.000
871.22	-550.000
871.51	-390.909
871.80	-1633.333
872.10	-1950.000
>>>>>End Processed Spectral Data<<<<<
