SpectraSuite Data File
++++++++++++++++++++++++++++++++++++
Date: Thu May 14 16:27:13 PDT 2015
User: schluterlab
Dark Spectrum Present: Yes
Reference Spectrum Present: Yes
Number of Sampled Component Spectra: 1
Spectrometers: USB2E3373
Integration Time (usec): 3000 (USB2E3373)
Spectra Averaged: 3 (USB2E3373)
Boxcar Smoothing: 0 (USB2E3373)
Correct for Electrical Dark: No (USB2E3373)
Strobe/Lamp Enabled: No (USB2E3373)
Correct for Detector Non-linearity: No (USB2E3373)
Correct for Stray Light: No (USB2E3373)
Number of Pixels in Processed Spectrum: 2048
>>>>>Begin Processed Spectral Data<<<<<
178.53	0.000
178.91	142.857
179.29	-600.000
179.67	-300.000
180.04	100.000
180.42	100.000
180.80	140.000
181.18	-500.000
181.56	1000.000
181.94	-0.000
182.31	275.000
182.69	100.000
183.07	-100.000
183.45	225.000
183.83	116.667
184.20	0.000
184.58	-500.000
184.96	-75.000
185.34	22.222
185.72	160.000
186.09	100.000
186.47	50.000
186.85	200.000
187.23	-66.667
187.61	-100.000
187.98	20.000
188.36	75.000
188.74	25.000
189.12	-33.333
189.49	100.000
189.87	-75.000
190.25	-11.111
190.63	-160.000
191.00	-88.889
191.38	0.000
191.76	-150.000
192.14	-66.667
192.51	150.000
192.89	116.667
193.27	0.000
193.65	100.000
194.02	-1000.000
194.40	-42.857
194.78	157.143
195.15	0.000
195.53	9.091
195.91	0.000
196.29	225.000
196.66	23.077
197.04	-1000.000
197.42	-14.286
197.79	-100.000
198.17	87.500
198.55	-42.857
198.92	122.222
199.30	-25.000
199.68	36.364
200.05	7.143
200.43	-300.000
200.81	114.286
201.18	0.000
201.56	111.111
201.94	0.000
202.31	366.667
202.69	-33.333
203.07	-100.000
203.44	55.556
203.82	-75.000
204.19	25.000
204.57	33.333
204.95	100.000
205.32	200.000
205.70	100.000
206.08	0.000
206.45	100.000
206.83	160.000
207.20	0.000
207.58	0.000
207.96	-116.667
208.33	16.667
208.71	91.667
209.08	66.667
209.46	0.000
209.84	83.333
210.21	200.000
210.59	-350.000
210.96	366.667
211.34	-250.000
211.71	-12.500
212.09	-900.000
212.46	0.000
212.84	550.000
213.22	-100.000
213.59	25.000
213.97	-40.000
214.34	0.000
214.72	133.333
215.09	25.000
215.47	0.000
215.84	71.429
216.22	-200.000
216.59	20.000
216.97	-140.000
217.34	225.000
217.72	112.500
218.09	-100.000
218.47	0.000
218.84	0.000
219.22	-0.000
219.59	-29.412
219.97	30.000
220.34	100.000
220.72	0.000
221.09	61.538
221.47	100.000
221.84	-30.000
222.22	-71.429
222.59	0.000
222.97	100.000
223.34	-80.000
223.72	-600.000
224.09	-100.000
224.46	-50.000
224.84	-160.000
225.21	-100.000
225.59	-150.000
225.96	-200.000
226.34	11.538
226.71	-16.667
227.08	150.000
227.46	80.000
227.83	-100.000
228.21	52.632
228.58	12.500
228.95	100.000
229.33	50.000
229.70	90.000
230.08	47.368
230.45	60.000
230.82	233.333
231.20	-21.429
231.57	25.000
231.95	36.364
232.32	18.182
232.69	-35.000
233.07	-25.000
233.44	17.647
233.81	-110.000
234.19	50.000
234.56	4.545
234.93	44.828
235.31	84.211
235.68	11.111
236.05	5.000
236.43	61.538
236.80	132.000
237.17	92.593
237.55	48.485
237.92	10.000
238.29	29.032
238.67	9.091
239.04	38.889
239.41	40.476
239.79	4.348
240.16	22.222
240.53	28.261
240.91	37.255
241.28	49.180
241.65	47.761
242.02	47.297
242.40	20.000
242.77	49.333
243.14	28.049
243.51	27.632
243.89	39.744
244.26	23.762
244.63	48.039
245.00	34.579
245.38	35.965
245.75	23.009
246.12	39.683
246.49	38.760
246.87	43.571
247.24	29.139
247.61	36.184
247.98	38.255
248.36	44.444
248.73	31.902
249.10	32.787
249.47	38.308
249.84	40.314
250.22	36.269
250.59	35.000
250.96	42.273
251.33	35.204
251.70	33.761
252.08	40.417
252.45	35.656
252.82	35.950
253.19	35.547
253.56	39.544
253.94	33.462
254.31	37.879
254.68	38.112
255.05	39.088
255.42	36.054
255.79	35.275
256.16	38.742
256.54	36.755
256.91	38.033
257.28	35.410
257.65	36.306
258.02	31.858
258.39	34.758
258.76	38.532
259.14	39.943
259.51	35.735
259.88	38.810
260.25	38.056
260.62	37.808
260.99	38.251
261.36	35.657
261.73	36.340
262.10	40.110
262.47	41.287
262.85	36.869
263.22	35.844
263.59	34.737
263.96	39.642
264.33	39.130
264.70	37.778
265.07	39.857
265.44	38.322
265.81	35.880
266.18	39.909
266.55	38.393
266.92	35.991
267.29	40.044
267.66	36.807
268.03	37.991
268.40	38.622
268.77	34.396
269.14	38.987
269.51	36.404
269.88	37.705
270.25	37.626
270.62	37.553
270.99	38.586
271.36	37.426
271.73	37.132
272.10	37.074
272.47	37.876
272.84	37.349
273.21	38.277
273.58	38.306
273.95	34.423
274.32	34.030
274.69	35.783
275.06	35.897
275.43	34.381
275.80	34.568
276.17	33.519
276.54	35.448
276.91	34.884
277.28	37.251
277.65	35.727
278.02	37.316
278.39	37.138
278.76	35.149
279.13	35.284
279.50	37.457
279.87	35.242
280.23	30.810
280.60	34.746
280.97	37.007
281.34	34.635
281.71	37.225
282.08	34.551
282.45	34.043
282.82	37.363
283.19	33.764
283.56	35.082
283.92	35.135
284.29	36.493
284.66	35.140
285.03	30.929
285.40	33.849
285.77	34.830
286.14	32.977
286.51	33.029
286.87	33.491
287.24	35.241
287.61	33.632
287.98	34.592
288.35	34.615
288.72	32.988
289.08	34.407
289.45	33.136
289.82	32.078
290.19	34.052
290.56	32.113
290.93	30.670
291.29	32.094
291.66	31.267
292.03	29.715
292.40	31.565
292.77	29.784
293.13	32.206
293.50	30.223
293.87	29.799
294.24	31.200
294.60	29.583
294.97	28.993
295.34	28.809
295.71	27.617
296.08	28.941
296.44	28.309
296.81	28.989
297.18	28.643
297.55	27.712
297.91	27.758
298.28	27.133
298.65	27.348
299.02	26.919
299.38	24.943
299.75	27.570
300.12	25.926
300.48	26.152
300.85	26.659
301.22	25.727
301.59	25.342
301.95	25.989
302.32	26.333
302.69	25.630
303.05	25.680
303.42	25.610
303.79	25.729
304.15	25.447
304.52	25.264
304.89	25.236
305.25	25.673
305.62	25.601
305.99	25.155
306.35	25.202
306.72	25.336
307.09	26.193
307.45	25.362
307.82	24.319
308.19	25.832
308.55	25.265
308.92	23.272
309.29	24.425
309.65	25.049
310.02	25.050
310.38	25.000
310.75	24.951
311.12	24.832
311.48	23.949
311.85	24.122
312.22	25.237
312.58	24.225
312.95	23.805
313.31	24.119
313.68	24.725
314.05	24.661
314.41	24.681
314.78	23.524
315.14	24.955
315.51	25.392
315.87	24.392
316.24	24.110
316.61	23.979
316.97	23.620
317.34	23.986
317.70	24.105
318.07	24.868
318.43	23.129
318.80	23.161
319.16	23.863
319.53	22.965
319.89	22.086
320.26	24.021
320.62	23.227
320.99	23.453
321.35	23.290
321.72	24.465
322.08	22.994
322.45	23.668
322.81	24.458
323.18	23.805
323.54	23.448
323.91	24.466
324.27	22.806
324.64	24.265
325.00	23.715
325.37	24.898
325.73	24.463
326.10	24.169
326.46	23.860
326.83	24.420
327.19	23.150
327.56	24.111
327.92	23.525
328.29	23.548
328.65	23.032
329.01	24.112
329.38	23.842
329.74	24.058
330.11	24.401
330.47	23.252
330.84	24.548
331.20	24.583
331.56	24.177
331.93	23.598
332.29	23.644
332.66	24.668
333.02	22.781
333.38	23.406
333.75	23.569
334.11	23.520
334.48	22.937
334.84	23.110
335.20	22.922
335.57	22.934
335.93	22.893
336.29	22.629
336.66	22.708
337.02	22.408
337.38	24.150
337.75	22.727
338.11	24.054
338.47	23.325
338.84	23.689
339.20	21.230
339.56	22.982
339.93	22.250
340.29	21.417
340.65	22.222
341.02	22.905
341.38	23.201
341.74	22.518
342.11	21.963
342.47	22.081
342.83	22.222
343.20	21.750
343.56	21.973
343.92	21.697
344.28	22.891
344.65	21.783
345.01	22.231
345.37	22.162
345.73	22.214
346.10	23.011
346.46	22.073
346.82	21.948
347.19	21.161
347.55	22.989
347.91	21.768
348.27	22.307
348.63	22.163
349.00	21.700
349.36	22.900
349.72	22.173
350.08	23.031
350.45	21.369
350.81	21.342
351.17	21.729
351.53	21.759
351.89	21.564
352.26	21.343
352.62	22.612
352.98	21.603
353.34	21.285
353.70	21.957
354.07	21.759
354.43	20.349
354.79	21.316
355.15	20.898
355.51	21.711
355.87	21.391
356.24	21.673
356.60	20.769
356.96	21.349
357.32	20.595
357.68	21.010
358.04	21.482
358.40	21.194
358.77	21.272
359.13	21.049
359.49	20.149
359.85	21.682
360.21	20.230
360.57	21.393
360.93	20.451
361.29	21.825
361.66	20.999
362.02	21.155
362.38	21.434
362.74	20.740
363.10	21.114
363.46	20.776
363.82	20.952
364.18	21.112
364.54	20.954
364.90	20.936
365.26	19.931
365.62	21.200
365.98	20.490
366.35	21.208
366.71	20.952
367.07	20.433
367.43	21.602
367.79	20.438
368.15	20.736
368.51	21.516
368.87	20.509
369.23	21.267
369.59	19.945
369.95	20.892
370.31	21.810
370.67	21.114
371.03	21.537
371.39	19.610
371.75	20.426
372.11	19.986
372.47	20.650
372.83	19.895
373.19	20.213
373.55	20.867
373.91	20.314
374.27	20.569
374.63	20.027
374.99	19.761
375.35	20.325
375.71	20.516
376.07	20.013
376.42	19.458
376.78	19.888
377.14	19.963
377.50	19.608
377.86	19.889
378.22	19.760
378.58	19.976
378.94	19.601
379.30	19.742
379.66	20.106
380.02	19.388
380.38	19.931
380.74	19.944
381.09	19.512
381.45	19.716
381.81	21.370
382.17	19.596
382.53	19.415
382.89	19.582
383.25	19.754
383.61	18.981
383.97	20.200
384.32	20.036
384.68	18.677
385.04	19.607
385.40	19.505
385.76	19.812
386.12	19.689
386.48	20.706
386.83	20.679
387.19	19.061
387.55	19.014
387.91	19.349
388.27	19.861
388.62	19.702
388.98	18.782
389.34	19.918
389.70	19.698
390.06	20.545
390.42	18.675
390.77	20.891
391.13	19.953
391.49	19.143
391.85	19.636
392.20	19.692
392.56	19.965
392.92	20.393
393.28	19.182
393.64	19.330
393.99	19.872
394.35	19.568
394.71	20.060
395.07	19.461
395.42	18.504
395.78	20.353
396.14	19.846
396.50	19.537
396.85	19.738
397.21	20.178
397.57	19.081
397.92	18.843
398.28	18.631
398.64	18.535
399.00	18.534
399.35	19.162
399.71	18.424
400.07	18.922
400.42	19.150
400.78	19.329
401.14	19.294
401.49	19.102
401.85	18.663
402.21	19.641
402.57	20.188
402.92	19.976
403.28	18.794
403.63	18.496
403.99	19.181
404.35	19.102
404.70	19.037
405.06	19.239
405.42	19.087
405.77	19.793
406.13	19.611
406.49	19.651
406.84	18.837
407.20	18.502
407.55	19.140
407.91	18.793
408.27	19.258
408.62	19.546
408.98	18.050
409.34	18.299
409.69	18.912
410.05	20.106
410.40	19.084
410.76	19.574
411.11	19.287
411.47	19.902
411.83	19.518
412.18	20.120
412.54	18.969
412.89	20.023
413.25	19.357
413.60	18.782
413.96	19.347
414.31	19.433
414.67	19.141
415.03	19.754
415.38	19.231
415.74	19.914
416.09	19.371
416.45	18.410
416.80	19.400
417.16	18.455
417.51	18.867
417.87	19.681
418.22	19.341
418.58	19.269
418.93	19.965
419.29	18.866
419.64	18.667
420.00	19.525
420.35	19.090
420.71	18.782
421.06	18.976
421.42	19.381
421.77	18.578
422.12	19.239
422.48	19.355
422.83	19.441
423.19	19.310
423.54	19.082
423.90	19.768
424.25	19.840
424.61	19.231
424.96	19.769
425.31	20.170
425.67	19.002
426.02	18.982
426.38	19.460
426.73	18.862
427.09	19.262
427.44	18.351
427.79	19.624
428.15	18.493
428.50	19.888
428.85	18.542
429.21	19.787
429.56	18.115
429.92	18.919
430.27	19.133
430.62	19.199
430.98	19.134
431.33	18.524
431.68	18.966
432.04	18.994
432.39	19.389
432.74	19.007
433.10	19.524
433.45	18.116
433.80	19.152
434.16	19.370
434.51	19.527
434.86	18.730
435.22	19.022
435.57	19.870
435.92	19.143
436.28	19.738
436.63	19.279
436.98	18.465
437.34	19.278
437.69	19.207
438.04	18.614
438.39	19.644
438.75	19.148
439.10	19.239
439.45	18.893
439.81	19.040
440.16	18.552
440.51	19.454
440.86	18.344
441.22	18.810
441.57	19.287
441.92	18.962
442.27	18.636
442.63	19.374
442.98	18.943
443.33	18.727
443.68	19.475
444.03	20.132
444.39	18.909
444.74	19.704
445.09	19.311
445.44	19.968
445.79	19.301
446.15	19.990
446.50	18.605
446.85	19.407
447.20	19.487
447.55	19.142
447.91	19.267
448.26	18.816
448.61	19.182
448.96	20.279
449.31	18.558
449.66	19.118
450.02	18.618
450.37	19.872
450.72	17.869
451.07	19.590
451.42	18.140
451.77	19.177
452.12	19.582
452.47	19.489
452.83	19.932
453.18	19.673
453.53	18.438
453.88	18.719
454.23	19.605
454.58	19.211
454.93	19.235
455.28	18.964
455.63	19.727
455.98	19.441
456.34	19.376
456.69	19.342
457.04	19.267
457.39	19.290
457.74	19.575
458.09	19.605
458.44	20.420
458.79	18.412
459.14	19.612
459.49	19.015
459.84	19.203
460.19	19.767
460.54	19.648
460.89	19.111
461.24	18.678
461.59	20.199
461.94	18.825
462.29	19.149
462.64	19.252
462.99	18.770
463.34	20.052
463.69	18.171
464.04	20.122
464.39	19.395
464.74	19.669
465.09	18.973
465.44	19.152
465.79	19.461
466.14	19.229
466.49	19.211
466.84	18.898
467.19	18.671
467.54	18.978
467.89	18.793
468.24	19.557
468.59	18.761
468.94	19.231
469.29	17.996
469.64	19.263
469.99	19.503
470.34	19.554
470.68	19.891
471.03	19.712
471.38	19.032
471.73	19.181
472.08	19.099
472.43	18.362
472.78	20.214
473.13	18.394
473.48	19.456
473.83	18.572
474.17	19.578
474.52	18.641
474.87	19.601
475.22	19.493
475.57	18.744
475.92	19.014
476.27	19.276
476.61	18.744
476.96	18.822
477.31	20.149
477.66	19.570
478.01	19.929
478.36	19.143
478.70	19.064
479.05	19.274
479.40	19.250
479.75	18.924
480.10	18.759
480.45	18.323
480.79	19.002
481.14	19.210
481.49	19.219
481.84	19.843
482.19	19.140
482.53	19.370
482.88	19.451
483.23	19.031
483.58	18.952
483.92	19.193
484.27	19.052
484.62	18.688
484.97	19.246
485.31	19.043
485.66	18.309
486.01	18.116
486.36	18.567
486.70	19.364
487.05	19.592
487.40	19.503
487.75	19.822
488.09	19.752
488.44	19.390
488.79	19.966
489.13	19.008
489.48	18.214
489.83	19.396
490.17	18.388
490.52	18.678
490.87	19.036
491.22	19.021
491.56	19.753
491.91	19.145
492.26	18.650
492.60	18.758
492.95	18.649
493.30	19.095
493.64	19.185
493.99	19.211
494.34	18.510
494.68	18.672
495.03	19.119
495.37	19.086
495.72	19.592
496.07	19.194
496.41	18.361
496.76	19.224
497.11	18.726
497.45	18.645
497.80	18.969
498.14	18.141
498.49	18.428
498.84	19.424
499.18	18.938
499.53	19.731
499.87	19.385
500.22	18.166
500.56	18.578
500.91	18.810
501.26	19.273
501.60	17.941
501.95	19.019
502.29	18.912
502.64	18.933
502.98	18.464
503.33	17.797
503.67	18.666
504.02	18.520
504.36	19.124
504.71	18.420
505.06	18.508
505.40	18.693
505.75	18.898
506.09	19.337
506.44	19.174
506.78	19.495
507.13	18.857
507.47	19.233
507.82	18.797
508.16	18.690
508.51	18.143
508.85	19.225
509.19	19.233
509.54	19.212
509.88	18.941
510.23	18.893
510.57	18.946
510.92	19.158
511.26	19.144
511.61	18.252
511.95	18.985
512.30	19.104
512.64	18.541
512.98	18.609
513.33	19.405
513.67	19.072
514.02	19.111
514.36	18.977
514.70	18.437
515.05	18.978
515.39	18.740
515.74	19.565
516.08	19.334
516.42	18.943
516.77	19.138
517.11	18.412
517.46	18.876
517.80	19.294
518.14	19.314
518.49	20.119
518.83	18.787
519.17	18.094
519.52	19.340
519.86	18.743
520.20	19.010
520.55	18.565
520.89	18.637
521.23	19.263
521.58	18.983
521.92	18.527
522.26	18.156
522.61	19.444
522.95	19.319
523.29	19.138
523.64	19.226
523.98	19.167
524.32	19.771
524.66	18.725
525.01	18.177
525.35	18.840
525.69	18.910
526.04	17.566
526.38	18.851
526.72	19.031
527.06	18.710
527.41	19.125
527.75	19.893
528.09	18.831
528.43	17.703
528.78	19.249
529.12	18.521
529.46	18.550
529.80	19.336
530.15	18.377
530.49	19.098
530.83	19.362
531.17	19.594
531.51	18.953
531.86	19.111
532.20	19.390
532.54	19.569
532.88	19.212
533.22	19.859
533.57	18.580
533.91	18.967
534.25	18.881
534.59	19.080
534.93	18.563
535.27	19.380
535.62	19.443
535.96	19.001
536.30	19.624
536.64	18.799
536.98	19.926
537.32	18.580
537.66	19.152
538.01	19.517
538.35	18.697
538.69	18.209
539.03	19.252
539.37	19.435
539.71	20.120
540.05	19.185
540.39	18.765
540.73	18.579
541.07	19.007
541.42	18.842
541.76	18.446
542.10	18.637
542.44	18.819
542.78	19.526
543.12	19.666
543.46	18.742
543.80	18.885
544.14	18.851
544.48	18.617
544.82	19.569
545.16	19.559
545.50	19.293
545.84	18.983
546.18	19.877
546.52	17.962
546.86	19.308
547.20	19.656
547.54	18.602
547.88	18.746
548.22	18.830
548.56	19.544
548.90	18.925
549.24	19.453
549.58	19.558
549.92	19.834
550.26	19.547
550.60	19.974
550.94	20.246
551.28	19.142
551.62	19.474
551.96	19.223
552.30	20.140
552.64	19.540
552.98	20.087
553.32	18.971
553.66	19.421
554.00	19.483
554.34	19.369
554.68	19.303
555.02	19.974
555.36	19.329
555.69	18.770
556.03	19.294
556.37	20.275
556.71	18.516
557.05	18.466
557.39	19.044
557.73	20.938
558.07	19.073
558.41	20.399
558.75	19.067
559.08	18.720
559.42	19.067
559.76	19.810
560.10	18.687
560.44	19.855
560.78	19.188
561.12	18.842
561.45	19.465
561.79	19.231
562.13	19.162
562.47	18.989
562.81	20.190
563.15	20.076
563.48	19.267
563.82	19.468
564.16	18.353
564.50	18.713
564.84	19.292
565.17	20.294
565.51	18.700
565.85	19.002
566.19	19.182
566.52	19.310
566.86	19.185
567.20	18.760
567.54	19.490
567.88	19.878
568.21	19.368
568.55	19.281
568.89	19.564
569.23	19.899
569.56	19.734
569.90	19.031
570.24	19.629
570.57	19.307
570.91	18.953
571.25	19.178
571.59	19.510
571.92	19.430
572.26	19.322
572.60	18.646
572.93	20.206
573.27	19.528
573.61	19.164
573.95	19.107
574.28	19.528
574.62	19.145
574.96	19.144
575.29	18.837
575.63	19.543
575.97	19.521
576.30	19.245
576.64	19.542
576.98	19.795
577.31	19.558
577.65	19.459
577.98	19.164
578.32	19.121
578.66	19.280
578.99	19.353
579.33	19.520
579.67	19.356
580.00	19.420
580.34	19.459
580.67	18.822
581.01	19.061
581.35	19.229
581.68	18.900
582.02	19.235
582.35	19.681
582.69	19.398
583.02	19.641
583.36	20.066
583.70	19.927
584.03	19.702
584.37	19.526
584.70	19.609
585.04	19.414
585.37	19.421
585.71	19.115
586.04	19.705
586.38	19.568
586.72	19.253
587.05	19.263
587.39	19.571
587.72	19.378
588.06	19.681
588.39	20.040
588.73	19.577
589.06	19.752
589.40	19.945
589.73	19.859
590.07	19.927
590.40	20.318
590.73	19.795
591.07	20.402
591.40	19.207
591.74	19.316
592.07	19.691
592.41	18.730
592.74	18.885
593.08	19.490
593.41	19.539
593.75	19.282
594.08	19.994
594.41	19.391
594.75	19.628
595.08	18.708
595.42	19.903
595.75	19.600
596.09	19.620
596.42	19.670
596.75	20.069
597.09	20.364
597.42	19.229
597.75	19.522
598.09	20.119
598.42	19.461
598.76	18.991
599.09	19.153
599.42	18.907
599.76	18.818
600.09	18.986
600.42	19.286
600.76	19.551
601.09	19.681
601.42	19.293
601.76	19.414
602.09	19.693
602.42	18.902
602.76	19.373
603.09	19.347
603.42	19.436
603.76	19.063
604.09	20.546
604.42	19.486
604.76	19.140
605.09	19.705
605.42	19.418
605.75	19.000
606.09	19.298
606.42	19.591
606.75	18.928
607.09	19.393
607.42	19.383
607.75	19.422
608.08	19.416
608.42	19.226
608.75	19.610
609.08	18.846
609.41	19.453
609.75	19.152
610.08	19.305
610.41	18.946
610.74	19.328
611.07	19.183
611.41	19.865
611.74	19.677
612.07	19.963
612.40	19.154
612.73	20.098
613.07	19.364
613.40	19.297
613.73	19.884
614.06	19.235
614.39	19.728
614.72	19.068
615.06	18.383
615.39	18.850
615.72	19.716
616.05	19.961
616.38	19.677
616.71	19.540
617.05	18.743
617.38	19.583
617.71	19.816
618.04	19.752
618.37	19.727
618.70	19.570
619.03	19.474
619.36	19.605
619.69	19.603
620.03	19.648
620.36	18.834
620.69	19.247
621.02	19.751
621.35	20.102
621.68	19.957
622.01	18.221
622.34	18.759
622.67	19.313
623.00	18.691
623.33	19.575
623.66	19.520
623.99	18.960
624.32	19.298
624.65	18.790
624.99	19.766
625.32	20.575
625.65	20.499
625.98	18.237
626.31	19.348
626.64	19.780
626.97	19.880
627.30	18.679
627.63	18.980
627.96	18.544
628.29	18.444
628.62	18.640
628.95	18.843
629.28	20.221
629.61	19.697
629.94	18.745
630.26	19.661
630.59	18.566
630.92	19.048
631.25	18.962
631.58	20.716
631.91	18.650
632.24	18.540
632.57	19.260
632.90	19.057
633.23	20.306
633.56	20.306
633.89	18.492
634.22	19.647
634.55	19.729
634.88	20.130
635.20	20.237
635.53	19.887
635.86	18.635
636.19	20.997
636.52	20.042
636.85	18.386
637.18	18.295
637.51	18.602
637.83	20.155
638.16	19.124
638.49	18.075
638.82	19.391
639.15	19.015
639.48	19.169
639.81	20.670
640.13	20.495
640.46	16.485
640.79	17.279
641.12	20.000
641.45	19.824
641.77	21.951
642.10	18.504
642.43	20.878
642.76	18.293
643.09	18.630
643.41	19.048
643.74	19.862
644.07	18.207
644.40	19.378
644.73	19.303
645.05	18.502
645.38	18.705
645.71	20.235
646.04	18.795
646.36	18.978
646.69	19.479
647.02	21.713
647.35	20.305
647.67	17.230
648.00	18.631
648.33	21.171
648.66	16.976
648.98	18.095
649.31	18.403
649.64	18.858
649.96	19.894
650.29	17.385
650.62	18.812
650.94	18.018
651.27	17.964
651.60	20.322
651.92	18.085
652.25	19.971
652.58	18.845
652.90	18.605
653.23	20.000
653.56	19.116
653.88	19.803
654.21	18.592
654.54	18.064
654.86	19.405
655.19	17.817
655.52	19.074
655.84	18.124
656.17	21.987
656.49	31.440
656.82	35.463
657.15	28.374
657.47	21.728
657.80	16.582
658.13	12.857
658.45	17.544
658.78	20.863
659.10	20.258
659.43	20.736
659.75	20.268
660.08	19.720
660.41	18.776
660.73	17.902
661.06	17.915
661.38	19.298
661.71	20.517
662.03	17.637
662.36	20.751
662.68	19.700
663.01	16.283
663.33	19.282
663.66	22.161
663.98	19.038
664.31	19.137
664.63	17.341
664.96	20.327
665.28	19.601
665.61	20.280
665.93	18.214
666.26	21.147
666.58	18.081
666.91	21.121
667.23	19.429
667.56	17.949
667.88	19.600
668.21	17.773
668.53	16.023
668.86	19.646
669.18	17.312
669.50	19.881
669.83	18.600
670.15	18.307
670.48	20.833
670.80	17.591
671.13	20.227
671.45	20.276
671.77	19.397
672.10	18.167
672.42	18.932
672.75	18.894
673.07	17.761
673.39	17.874
673.72	17.785
674.04	21.897
674.37	19.141
674.69	20.106
675.01	19.429
675.34	20.038
675.66	20.599
675.98	17.537
676.31	19.336
676.63	20.532
676.95	18.966
677.28	20.161
677.60	17.717
677.92	19.578
678.25	19.561
678.57	20.819
678.89	19.625
679.22	19.861
679.54	19.487
679.86	15.932
680.18	18.408
680.51	19.969
680.83	18.985
681.15	18.276
681.48	18.135
681.80	20.035
682.12	18.531
682.44	20.200
682.77	20.035
683.09	19.697
683.41	18.605
683.73	18.027
684.06	18.819
684.38	16.995
684.70	19.210
685.02	20.654
685.34	18.303
685.67	16.246
685.99	17.791
686.31	18.169
686.63	17.220
686.96	18.770
687.28	18.730
687.60	17.172
687.92	18.810
688.24	20.868
688.56	15.690
688.89	17.060
689.21	17.613
689.53	17.059
689.85	17.357
690.17	17.778
690.49	16.534
690.82	18.218
691.14	16.194
691.46	17.782
691.78	20.810
692.10	18.165
692.42	15.536
692.74	17.423
693.06	15.926
693.39	19.734
693.71	18.233
694.03	18.216
694.35	17.333
694.67	15.400
694.99	18.723
695.31	16.115
695.63	16.450
695.95	19.669
696.27	17.582
696.59	19.912
696.91	18.694
697.23	18.022
697.56	16.497
697.88	17.992
698.20	17.891
698.52	21.402
698.84	18.503
699.16	19.388
699.48	17.573
699.80	18.511
700.12	19.432
700.44	18.664
700.76	18.527
701.08	18.160
701.40	18.135
701.72	18.408
702.04	20.053
702.36	16.754
702.68	17.115
703.00	16.870
703.32	15.025
703.64	19.071
703.96	19.332
704.28	18.182
704.60	16.456
704.91	17.602
705.23	18.356
705.55	17.549
705.87	18.788
706.19	18.098
706.51	15.361
706.83	16.138
707.15	18.254
707.47	18.692
707.79	15.939
708.11	12.924
708.43	14.194
708.74	13.393
709.06	16.009
709.38	18.779
709.70	19.107
710.02	18.863
710.34	16.755
710.66	16.760
710.98	19.672
711.29	16.484
711.61	17.232
711.93	18.234
712.25	16.757
712.57	19.469
712.89	21.176
713.20	14.497
713.52	18.786
713.84	15.877
714.16	17.105
714.48	13.402
714.80	18.182
715.11	17.060
715.43	17.241
715.75	17.632
716.07	18.508
716.39	19.945
716.70	13.253
717.02	19.672
717.34	16.376
717.66	21.141
717.97	14.041
718.29	15.464
718.61	18.421
718.93	14.239
719.24	14.596
719.56	17.178
719.88	17.117
720.20	15.161
720.51	16.770
720.83	15.938
721.15	15.461
721.46	15.068
721.78	15.667
722.10	12.945
722.42	13.758
722.73	15.806
723.05	21.053
723.37	17.014
723.68	18.280
724.00	15.162
724.32	16.549
724.63	14.336
724.95	19.858
725.27	19.164
725.58	18.728
725.90	19.310
726.22	15.674
726.53	14.935
726.85	16.352
727.16	15.106
727.48	18.349
727.80	15.894
728.11	13.074
728.43	19.865
728.74	18.395
729.06	17.550
729.38	16.234
729.69	20.134
730.01	16.369
730.32	11.818
730.64	16.981
730.96	17.391
731.27	17.877
731.59	16.484
731.90	14.545
732.22	15.625
732.53	13.536
732.85	20.571
733.16	17.595
733.48	14.024
733.80	17.827
734.11	15.954
734.43	17.027
734.74	22.532
735.06	18.593
735.37	15.676
735.69	16.216
736.00	18.079
736.32	15.633
736.63	16.389
736.95	16.379
737.26	15.455
737.58	14.848
737.89	18.235
738.21	11.927
738.52	14.754
738.83	20.478
739.15	13.475
739.46	16.327
739.78	19.018
740.09	16.619
740.41	20.700
740.72	18.000
741.04	17.476
741.35	18.246
741.66	18.431
741.98	14.344
742.29	17.573
742.61	17.544
742.92	15.385
743.23	15.523
743.55	14.729
743.86	15.600
744.18	12.397
744.49	10.549
744.80	20.165
745.12	15.190
745.43	20.325
745.74	18.534
746.06	18.220
746.37	17.722
746.68	22.764
747.00	14.167
747.31	17.597
747.62	22.308
747.94	15.789
748.25	13.253
748.56	13.878
748.88	15.812
749.19	17.672
749.50	15.584
749.82	12.048
750.13	18.149
750.44	13.667
750.75	16.308
751.07	16.308
751.38	14.826
751.69	16.294
752.01	14.563
752.32	20.261
752.63	13.946
752.94	15.225
753.26	15.242
753.57	14.444
753.88	20.974
754.19	17.363
754.51	14.148
754.82	15.434
755.13	22.623
755.44	17.065
755.75	12.171
756.07	17.612
756.38	16.981
756.69	16.867
757.00	14.958
757.31	15.574
757.63	18.159
757.94	16.197
758.25	16.027
758.56	17.865
758.87	18.182
759.18	18.933
759.50	16.714
759.81	17.927
760.12	16.712
760.43	16.667
760.74	17.734
761.05	16.000
761.36	13.253
761.67	16.497
761.99	16.757
762.30	15.244
762.61	15.512
762.92	17.164
763.23	16.479
763.54	17.266
763.85	16.151
764.16	19.192
764.47	19.014
764.78	17.891
765.10	15.836
765.41	17.436
765.72	14.815
766.03	16.949
766.34	16.614
766.65	13.240
766.96	15.936
767.27	19.355
767.58	15.920
767.89	18.750
768.20	16.432
768.51	12.963
768.82	18.072
769.13	15.530
769.44	15.385
769.75	17.690
770.06	16.154
770.37	22.047
770.68	8.936
770.99	13.765
771.30	22.593
771.61	15.970
771.92	15.556
772.23	19.433
772.54	12.037
772.85	20.276
773.16	17.619
773.47	14.815
773.78	14.595
774.09	14.773
774.39	20.000
774.70	17.486
775.01	11.585
775.32	15.294
775.63	11.656
775.94	9.554
776.25	19.355
776.56	25.000
776.87	16.327
777.18	13.793
777.48	11.888
777.79	12.162
778.10	11.029
778.41	11.806
778.72	17.931
779.03	11.111
779.34	20.000
779.65	15.026
779.95	15.000
780.26	19.886
780.57	19.355
780.88	20.290
781.19	20.000
781.50	19.412
781.80	18.817
782.11	16.402
782.42	9.091
782.73	15.569
783.04	11.732
783.34	14.545
783.65	13.725
783.96	12.422
784.27	21.429
784.57	15.232
784.88	19.286
785.19	13.386
785.50	18.110
785.81	20.301
786.11	15.385
786.42	5.755
786.73	9.353
787.04	21.805
787.34	10.656
787.65	13.600
787.96	10.448
788.26	16.783
788.57	23.077
788.88	15.132
789.19	18.301
789.49	15.753
789.80	13.475
790.11	23.622
790.41	16.406
790.72	18.644
791.03	12.621
791.33	9.565
791.64	15.789
791.95	16.964
792.25	20.000
792.56	13.393
792.87	16.667
793.17	25.893
793.48	7.292
793.79	3.614
794.09	5.505
794.40	22.936
794.70	20.408
795.01	14.935
795.32	13.014
795.62	16.197
795.93	14.394
796.23	20.492
796.54	19.643
796.85	14.894
797.15	19.565
797.46	-4.110
797.76	7.500
798.07	13.043
798.37	8.247
798.68	15.584
798.99	13.793
799.29	7.865
799.60	14.894
799.90	4.819
800.21	-6.154
800.51	20.896
800.82	11.765
801.12	1.370
801.43	10.294
801.73	-8.475
802.04	27.273
802.34	15.000
802.65	13.559
802.95	10.448
803.26	15.254
803.56	6.849
803.87	25.714
804.17	19.178
804.48	1.754
804.78	12.500
805.09	-5.172
805.39	13.514
805.70	2.817
806.00	20.732
806.30	12.048
806.61	5.479
806.91	16.346
807.22	6.667
807.52	16.092
807.83	15.278
808.13	24.096
808.43	19.101
808.74	21.250
809.04	-4.412
809.35	18.667
809.65	14.286
809.95	21.918
810.26	3.509
810.56	3.448
810.86	20.588
811.17	7.018
811.47	0.000
811.77	0.000
812.08	22.034
812.38	6.667
812.69	13.793
812.99	-9.434
813.29	-33.333
813.59	12.000
813.90	-3.509
814.20	3.636
814.50	28.169
814.81	17.949
815.11	13.115
815.41	16.418
815.72	18.966
816.02	17.857
816.32	17.778
816.62	13.636
816.93	-2.222
817.23	11.111
817.53	8.511
817.84	33.333
818.14	5.882
818.44	24.490
818.74	0.000
819.04	-5.128
819.35	0.000
819.65	-57.692
819.95	7.547
820.25	8.889
820.56	-4.762
820.86	-6.250
821.16	-15.385
821.46	18.605
821.76	6.000
822.07	10.714
822.37	4.348
822.67	36.170
822.97	-2.703
823.27	12.500
823.57	10.204
823.88	42.222
824.18	35.000
824.48	13.333
824.78	4.000
825.08	27.273
825.38	28.889
825.69	8.511
825.99	-8.333
826.29	-2.857
826.59	17.949
826.89	-2.326
827.19	-6.000
827.49	-2.941
827.79	25.000
828.09	18.919
828.39	6.667
828.70	39.024
829.00	-2.326
829.30	0.000
829.60	23.529
829.90	26.087
830.20	-5.714
830.50	6.897
830.80	27.778
831.10	26.923
831.40	-2.941
831.70	4.762
832.00	48.387
832.30	-94.118
832.60	12.500
832.90	-38.462
833.20	-26.316
833.50	-10.000
833.80	0.000
834.10	-19.048
834.40	2.778
834.70	37.500
835.00	-40.000
835.30	-20.588
835.60	0.000
835.90	12.000
836.20	-9.091
836.50	4.000
836.80	-18.182
837.10	44.444
837.40	14.815
837.70	-31.250
838.00	25.000
838.30	-13.043
838.60	17.241
838.90	7.143
839.19	-30.435
839.49	-100.000
839.79	8.696
840.09	-68.750
840.39	-60.000
840.69	19.355
840.99	-25.000
841.29	-40.000
841.59	5.263
841.88	20.513
842.18	7.692
842.48	-90.000
842.78	35.000
843.08	6.667
843.38	19.355
843.68	-72.222
843.97	8.824
844.27	68.750
844.57	10.526
844.87	-50.000
845.17	-26.667
845.47	9.524
845.76	-19.048
846.06	-22.222
846.36	11.765
846.66	3.846
846.96	-6.667
847.25	-29.412
847.55	-4.348
847.85	30.000
848.15	64.706
848.44	-27.273
848.74	52.381
849.04	-33.333
849.34	-56.250
849.63	8.696
849.93	700.000
850.23	-6.667
850.53	-15.385
850.82	-72.727
851.12	4.545
851.42	-27.273
851.71	107.692
852.01	-30.000
852.31	-7.692
852.61	-31.579
852.90	-41.667
853.20	-16.667
853.50	-66.667
853.79	-42.857
854.09	4.545
854.39	-83.333
854.68	32.258
854.98	3.846
855.28	0.000
855.57	10.714
855.87	-8.000
856.17	-45.455
856.46	22.222
856.76	-33.333
857.05	8.696
857.35	8.333
857.65	-23.077
857.94	-23.810
858.24	3.704
858.53	13.043
858.83	5.882
859.13	29.412
859.42	76.471
859.72	64.286
860.01	35.000
860.31	77.778
860.60	-20.000
860.90	33.333
861.20	33.333
861.49	46.154
861.79	20.000
862.08	-23.077
862.38	50.000
862.67	23.529
862.97	-37.500
863.26	11.111
863.56	110.000
863.85	36.364
864.15	-5.556
864.44	133.333
864.74	-7.143
865.03	12.500
865.33	-10.000
865.62	-3.226
865.92	36.364
866.21	26.087
866.51	28.571
866.80	60.000
867.10	8.333
867.39	-91.667
867.69	1600.000
867.98	-42.857
868.27	-29.412
868.57	-2300.000
868.86	-100.000
869.16	-14.286
869.45	12.500
869.75	18.182
870.04	-14.286
870.33	-16.667
870.63	-100.000
870.92	225.000
871.22	-50.000
871.51	-45.455
871.80	-400.000
872.10	200.000
>>>>>End Processed Spectral Data<<<<<
