SpectraSuite Data File
++++++++++++++++++++++++++++++++++++
Date: Thu May 14 16:30:40 PDT 2015
User: schluterlab
Dark Spectrum Present: Yes
Reference Spectrum Present: Yes
Number of Sampled Component Spectra: 1
Spectrometers: USB2E3373
Integration Time (usec): 3000 (USB2E3373)
Spectra Averaged: 3 (USB2E3373)
Boxcar Smoothing: 0 (USB2E3373)
Correct for Electrical Dark: No (USB2E3373)
Strobe/Lamp Enabled: No (USB2E3373)
Correct for Detector Non-linearity: No (USB2E3373)
Correct for Stray Light: No (USB2E3373)
Number of Pixels in Processed Spectrum: 2048
>>>>>Begin Processed Spectral Data<<<<<
178.53	0.000
178.91	28.571
179.29	-300.000
179.67	-700.000
180.04	128.571
180.42	40.000
180.80	20.000
181.18	-600.000
181.56	1800.000
181.94	-25.000
182.31	-225.000
182.69	266.667
183.07	550.000
183.45	50.000
183.83	16.667
184.20	-166.667
184.58	800.000
184.96	-275.000
185.34	-88.889
185.72	20.000
186.09	144.444
186.47	500.000
186.85	60.000
187.23	-133.333
187.61	-200.000
187.98	-0.000
188.36	-125.000
188.74	50.000
189.12	-66.667
189.49	6.250
189.87	-75.000
190.25	-22.222
190.63	60.000
191.00	22.222
191.38	0.000
191.76	-325.000
192.14	66.667
192.51	-100.000
192.89	-66.667
193.27	0.000
193.65	-14.286
194.02	-1800.000
194.40	128.571
194.78	28.571
195.15	0.000
195.53	81.818
195.91	0.000
196.29	-150.000
196.66	-23.077
197.04	-800.000
197.42	-57.143
197.79	-50.000
198.17	12.500
198.55	28.571
198.92	66.667
199.30	12.500
199.68	27.273
200.05	78.571
200.43	-550.000
200.81	100.000
201.18	0.000
201.56	55.556
201.94	0.000
202.31	233.333
202.69	-111.111
203.07	200.000
203.44	-22.222
203.82	25.000
204.19	33.333
204.57	-33.333
204.95	25.000
205.32	-600.000
205.70	125.000
206.08	-116.667
206.45	0.000
206.83	260.000
207.20	83.333
207.58	0.000
207.96	16.667
208.33	-16.667
208.71	41.667
209.08	116.667
209.46	0.000
209.84	133.333
210.21	350.000
210.59	50.000
210.96	-66.667
211.34	50.000
211.71	62.500
212.09	-900.000
212.46	0.000
212.84	300.000
213.22	-280.000
213.59	175.000
213.97	20.000
214.34	-166.667
214.72	33.333
215.09	0.000
215.47	0.000
215.84	100.000
216.22	-0.000
216.59	60.000
216.97	100.000
217.34	75.000
217.72	75.000
218.09	-200.000
218.47	125.000
218.84	0.000
219.22	-40.000
219.59	23.529
219.97	45.000
220.34	400.000
220.72	-88.889
221.09	38.462
221.47	100.000
221.84	20.000
222.22	-71.429
222.59	0.000
222.97	75.000
223.34	-100.000
223.72	-100.000
224.09	-75.000
224.46	50.000
224.84	120.000
225.21	-242.857
225.59	-175.000
225.96	0.000
226.34	50.000
226.71	216.667
227.08	-250.000
227.46	40.000
227.83	25.000
228.21	47.368
228.58	50.000
228.95	300.000
229.33	33.333
229.70	60.000
230.08	52.632
230.45	170.000
230.82	0.000
231.20	35.714
231.57	75.000
231.95	45.455
232.32	36.364
232.69	15.000
233.07	-225.000
233.44	-11.765
233.81	10.000
234.19	11.111
234.56	40.909
234.93	51.724
235.31	21.053
235.68	38.889
236.05	-15.000
236.43	19.231
236.80	68.000
237.17	7.407
237.55	15.152
237.92	-50.000
238.29	-29.032
238.67	13.636
239.04	11.111
239.41	19.048
239.79	21.739
240.16	12.963
240.53	13.043
240.91	5.882
241.28	24.590
241.65	26.866
242.02	16.216
242.40	6.154
242.77	12.000
243.14	15.854
243.51	18.421
243.89	15.385
244.26	18.812
244.63	19.608
245.00	19.626
245.38	19.298
245.75	0.000
246.12	11.905
246.49	18.605
246.87	23.571
247.24	21.854
247.61	20.395
247.98	18.792
248.36	16.049
248.73	17.178
249.10	15.847
249.47	19.403
249.84	25.131
250.22	22.280
250.59	19.444
250.96	22.273
251.33	20.408
251.70	18.376
252.08	20.833
252.45	19.672
252.82	17.769
253.19	15.625
253.56	18.251
253.94	19.231
254.31	20.833
254.68	20.629
255.05	20.521
255.42	17.007
255.79	16.181
256.16	19.205
256.54	17.881
256.91	17.049
257.28	19.672
257.65	17.516
258.02	16.224
258.39	19.943
258.76	20.489
259.14	19.828
259.51	17.003
259.88	18.697
260.25	18.611
260.62	19.452
260.99	21.858
261.36	19.571
261.73	16.180
262.10	19.231
262.47	16.890
262.85	21.717
263.22	15.844
263.59	15.263
263.96	18.670
264.33	17.647
264.70	16.049
265.07	17.900
265.44	22.222
265.81	16.435
266.18	19.048
266.55	16.518
266.92	16.629
267.29	20.350
267.66	19.512
268.03	19.214
268.40	19.624
268.77	16.856
269.14	13.656
269.51	17.982
269.88	18.033
270.25	17.706
270.62	19.409
270.99	21.010
271.36	19.802
271.73	18.861
272.10	17.635
272.47	17.635
272.84	15.863
273.21	16.834
273.58	17.339
273.95	15.577
274.32	16.730
274.69	15.667
275.06	18.132
275.43	15.712
275.80	18.519
276.17	15.741
276.54	16.045
276.91	17.352
277.28	17.179
277.65	18.133
278.02	16.912
278.39	15.761
278.76	16.169
279.13	17.376
279.50	16.667
279.87	17.352
280.23	13.908
280.60	15.254
280.97	16.776
281.34	16.129
281.71	17.090
282.08	17.110
282.45	16.694
282.82	16.484
283.19	14.863
283.56	17.213
283.92	17.267
284.29	19.115
284.66	16.913
285.03	14.904
285.40	15.920
285.77	15.325
286.14	17.557
286.51	15.830
286.87	16.272
287.24	17.771
287.61	16.592
287.98	15.710
288.35	15.976
288.72	14.349
289.08	17.277
289.45	14.497
289.82	15.512
290.19	15.948
290.56	14.930
290.93	14.408
291.29	16.391
291.66	15.289
292.03	13.569
292.40	17.007
292.77	16.981
293.13	14.885
293.50	14.192
293.87	14.765
294.24	15.867
294.60	17.573
294.97	14.765
295.34	15.365
295.71	14.124
296.08	14.987
296.44	14.216
296.81	15.713
297.18	13.200
297.55	14.151
297.91	15.421
298.28	13.507
298.65	15.220
299.02	13.932
299.38	14.760
299.75	15.187
300.12	14.005
300.48	14.401
300.85	14.848
301.22	13.758
301.59	13.927
301.95	14.124
302.32	14.667
302.69	14.020
303.05	14.363
303.42	15.299
303.79	13.854
304.15	14.826
304.52	13.848
304.89	13.927
305.25	14.079
305.62	14.211
305.99	14.948
306.35	14.113
306.72	15.202
307.09	14.010
307.45	14.493
307.82	14.026
308.19	14.329
308.55	15.429
308.92	14.606
309.29	14.559
309.65	14.425
310.02	14.554
310.38	14.370
310.75	13.981
311.12	14.286
311.48	14.467
311.85	14.625
312.22	13.757
312.58	13.521
312.95	14.340
313.31	15.537
313.68	14.103
314.05	14.453
314.41	15.756
314.78	14.351
315.14	15.699
315.51	14.589
315.87	15.572
316.24	16.530
316.61	15.275
316.97	15.475
317.34	13.757
317.70	15.895
318.07	15.432
318.43	16.241
318.80	16.388
319.16	14.421
319.53	14.824
319.89	15.600
320.26	16.103
320.62	14.628
320.99	15.512
321.35	15.250
321.72	16.093
322.08	14.968
322.45	15.899
322.81	16.245
323.18	15.487
323.54	15.948
323.91	15.925
324.27	15.663
324.64	15.785
325.00	15.920
325.37	16.462
325.73	16.942
326.10	15.815
326.46	15.879
326.83	16.653
327.19	17.087
327.56	17.154
327.92	15.893
328.29	15.645
328.65	16.583
329.01	16.751
329.38	15.080
329.74	17.808
330.11	16.267
330.47	15.838
330.84	16.279
331.20	16.250
331.56	16.898
331.93	15.481
332.29	16.186
332.66	16.279
333.02	16.080
333.38	15.772
333.75	17.508
334.11	15.430
334.48	16.089
334.84	16.822
335.20	16.289
335.57	15.852
335.93	16.694
336.29	15.308
336.66	14.130
337.02	16.137
337.38	15.901
337.75	15.537
338.11	16.316
338.47	15.550
338.84	15.990
339.20	15.838
339.56	15.074
339.93	15.928
340.29	15.781
340.65	15.247
341.02	16.361
341.38	15.764
341.74	14.851
342.11	15.688
342.47	15.488
342.83	16.184
343.20	15.372
343.56	15.397
343.92	15.693
344.28	15.469
344.65	15.659
345.01	14.821
345.37	15.241
345.73	14.965
346.10	16.459
346.46	15.427
346.82	15.730
347.19	15.890
347.55	14.795
347.91	15.156
348.27	15.099
348.63	14.928
349.00	15.213
349.36	14.424
349.72	15.923
350.08	15.602
350.45	14.297
350.81	14.480
351.17	14.812
351.53	16.073
351.89	15.566
352.26	14.403
352.62	15.224
352.98	14.656
353.34	14.638
353.70	15.331
354.07	16.170
354.43	15.490
354.79	13.987
355.15	14.717
355.51	15.278
355.87	14.585
356.24	15.133
356.60	14.856
356.96	15.938
357.32	14.275
357.68	14.568
358.04	14.746
358.40	15.448
358.77	14.693
359.13	14.771
359.49	13.383
359.85	14.431
360.21	14.778
360.57	14.932
360.93	15.233
361.29	14.526
361.66	14.772
362.02	14.823
362.38	14.758
362.74	13.897
363.10	14.993
363.46	14.820
363.82	14.702
364.18	14.497
364.54	14.454
364.90	15.652
365.26	14.966
365.62	15.667
365.98	15.180
366.35	14.631
366.71	14.694
367.07	14.953
367.43	15.299
367.79	14.466
368.15	15.385
368.51	14.817
368.87	15.872
369.23	14.733
369.59	14.686
369.95	14.672
370.31	15.463
370.67	14.856
371.03	14.958
371.39	14.238
371.75	15.543
372.11	15.786
372.47	15.775
372.83	14.725
373.19	14.343
373.55	14.024
373.91	14.315
374.27	15.330
374.63	15.223
374.99	15.451
375.35	15.390
375.71	13.935
376.07	14.719
376.42	15.302
376.78	15.289
377.14	14.972
377.50	15.433
377.86	15.887
378.22	15.629
378.58	15.161
378.94	15.610
379.30	15.759
379.66	15.697
380.02	15.984
380.38	15.899
380.74	15.718
381.09	15.970
381.45	16.307
381.81	16.452
382.17	16.330
382.53	15.789
382.89	15.971
383.25	15.651
383.61	14.988
383.97	16.490
384.32	16.746
384.68	16.009
385.04	16.831
385.40	15.793
385.76	15.592
386.12	16.577
386.48	16.824
386.83	16.210
387.19	15.701
387.55	15.845
387.91	16.495
388.27	16.166
388.62	16.609
388.98	15.623
389.34	15.439
389.70	16.502
390.06	15.867
390.42	15.904
390.77	16.737
391.13	16.549
391.49	16.908
391.85	15.576
392.20	15.718
392.56	15.830
392.92	17.394
393.28	16.915
393.64	16.201
393.99	16.560
394.35	16.472
394.71	16.826
395.07	16.287
395.42	16.848
395.78	16.758
396.14	17.647
396.50	16.390
396.85	16.160
397.21	16.509
397.57	16.784
397.92	17.354
398.28	16.295
398.64	16.247
399.00	17.225
399.35	17.225
399.71	16.739
400.07	16.395
400.42	16.938
400.78	16.898
401.14	16.050
401.49	17.908
401.85	17.849
402.21	17.497
402.57	17.195
402.92	16.962
403.28	17.330
403.63	16.527
403.99	16.924
404.35	17.169
404.70	16.941
405.06	17.283
405.42	17.681
405.77	17.775
406.13	17.180
406.49	17.230
406.84	17.729
407.20	17.160
407.55	17.262
407.91	17.033
408.27	17.491
408.62	17.976
408.98	16.599
409.34	16.422
409.69	18.418
410.05	17.233
410.40	18.503
410.76	17.667
411.11	17.534
411.47	17.506
411.83	17.931
412.18	18.313
412.54	17.783
412.89	17.753
413.25	17.720
413.60	17.174
413.96	17.949
414.31	17.620
414.67	18.128
415.03	17.662
415.38	17.276
415.74	17.776
416.09	17.458
416.45	17.157
416.80	17.013
417.16	18.135
417.51	18.369
417.87	17.842
418.22	17.844
418.58	17.224
418.93	17.870
419.29	18.742
419.64	17.827
420.00	17.864
420.35	17.911
420.71	17.289
421.06	17.999
421.42	18.177
421.77	17.609
422.12	18.552
422.48	18.331
422.83	17.744
423.19	17.347
423.54	18.142
423.90	17.670
424.25	18.400
424.61	16.820
424.96	18.287
425.31	17.516
425.67	18.089
426.02	17.764
426.38	18.025
426.73	17.243
427.09	19.204
427.44	17.695
427.79	18.132
428.15	17.580
428.50	16.854
428.85	17.623
429.21	18.085
429.56	16.782
429.92	18.084
430.27	18.072
430.62	18.026
430.98	17.265
431.33	17.253
431.68	16.810
432.04	17.369
432.39	17.300
432.74	17.352
433.10	17.685
433.45	17.781
433.80	17.865
434.16	17.717
434.51	18.243
434.86	18.078
435.22	18.172
435.57	18.101
435.92	17.807
436.28	17.918
436.63	17.695
436.98	17.821
437.34	17.869
437.69	17.722
438.04	17.663
438.39	18.840
438.75	16.989
439.10	17.812
439.45	16.993
439.81	18.023
440.16	17.641
440.51	18.116
440.86	17.232
441.22	16.988
441.57	18.291
441.92	18.380
442.27	17.778
442.63	17.685
442.98	18.036
443.33	17.728
443.68	18.186
444.03	18.532
444.39	17.753
444.74	18.326
445.09	17.182
445.44	17.387
445.79	17.481
446.15	17.780
446.50	17.261
446.85	17.753
447.20	17.360
447.55	17.626
447.91	17.382
448.26	18.288
448.61	17.694
448.96	17.489
449.31	16.596
449.66	16.939
450.02	17.827
450.37	17.954
450.72	17.546
451.07	18.109
451.42	17.100
451.77	16.843
452.12	17.720
452.47	16.637
452.83	18.300
453.18	17.280
453.53	16.772
453.88	17.283
454.23	17.740
454.58	18.514
454.93	16.626
455.28	18.423
455.63	17.226
455.98	17.486
456.34	17.786
456.69	18.107
457.04	17.376
457.39	17.295
457.74	17.953
458.09	16.200
458.44	17.457
458.79	17.432
459.14	17.410
459.49	17.148
459.84	17.314
460.19	17.046
460.54	17.149
460.89	17.364
461.24	17.644
461.59	16.823
461.94	17.114
462.29	17.245
462.64	16.596
462.99	16.698
463.34	17.197
463.69	17.409
464.04	17.399
464.39	16.704
464.74	17.104
465.09	17.416
465.44	17.328
465.79	17.292
466.14	16.832
466.49	17.316
466.84	16.860
467.19	17.110
467.54	15.922
467.89	16.667
468.24	16.510
468.59	15.866
468.94	15.734
469.29	16.437
469.64	15.957
469.99	16.699
470.34	16.646
470.68	16.678
471.03	17.027
471.38	17.005
471.73	15.540
472.08	16.117
472.43	16.677
472.78	17.003
473.13	17.067
473.48	16.314
473.83	17.179
474.17	16.764
474.52	15.935
474.87	16.888
475.22	16.225
475.57	16.407
475.92	16.277
476.27	16.720
476.61	16.459
476.96	15.276
477.31	17.079
477.66	16.842
478.01	15.963
478.36	15.703
478.70	16.108
479.05	16.360
479.40	16.041
479.75	16.330
480.10	16.248
480.45	16.454
480.79	15.692
481.14	15.671
481.49	16.038
481.84	16.144
482.19	16.301
482.53	16.003
482.88	16.526
483.23	15.474
483.58	15.240
483.92	15.603
484.27	16.469
484.62	15.924
484.97	15.980
485.31	15.347
485.66	14.691
486.01	15.125
486.36	15.521
486.70	15.703
487.05	15.670
487.40	15.835
487.75	15.522
488.09	14.765
488.44	15.166
488.79	15.649
489.13	15.206
489.48	14.408
489.83	15.372
490.17	14.540
490.52	15.189
490.87	15.059
491.22	15.295
491.56	15.316
491.91	14.915
492.26	15.188
492.60	14.910
492.95	14.787
493.30	15.195
493.64	14.893
493.99	14.825
494.34	14.373
494.68	14.133
495.03	14.758
495.37	15.579
495.72	15.147
496.07	14.154
496.41	14.071
496.76	14.095
497.11	14.352
497.45	14.545
497.80	15.016
498.14	14.376
498.49	15.074
498.84	14.671
499.18	14.980
499.53	14.933
499.87	14.637
500.22	13.847
500.56	13.810
500.91	14.416
501.26	14.818
501.60	13.920
501.95	14.069
502.29	14.173
502.64	14.429
502.98	14.625
503.33	13.909
503.67	14.174
504.02	14.711
504.36	14.835
504.71	15.021
505.06	13.824
505.40	13.940
505.75	13.752
506.09	14.134
506.44	14.578
506.78	14.220
507.13	14.246
507.47	14.543
507.82	14.631
508.16	14.101
508.51	13.361
508.85	14.596
509.19	13.595
509.54	14.073
509.88	13.745
510.23	14.522
510.57	13.871
510.92	14.417
511.26	13.949
511.61	13.375
511.95	14.056
512.30	13.737
512.64	13.243
512.98	13.557
513.33	13.810
513.67	13.717
514.02	13.848
514.36	14.527
514.70	13.385
515.05	14.390
515.39	13.858
515.74	14.740
516.08	13.576
516.42	15.332
516.77	13.407
517.11	13.564
517.46	14.104
517.80	14.377
518.14	14.635
518.49	13.937
518.83	14.263
519.17	13.624
519.52	13.994
519.86	14.150
520.20	14.590
520.55	13.746
520.89	13.457
521.23	13.624
521.58	14.124
521.92	13.201
522.26	13.517
522.61	14.988
522.95	12.687
523.29	13.966
523.64	13.453
523.98	14.261
524.32	14.155
524.66	14.229
525.01	14.156
525.35	13.383
525.69	13.573
526.04	13.490
526.38	14.253
526.72	13.841
527.06	13.548
527.41	14.402
527.75	13.895
528.09	13.518
528.43	13.262
528.78	13.584
529.12	13.532
529.46	13.266
529.80	13.787
530.15	13.913
530.49	13.879
530.83	13.518
531.17	12.963
531.51	13.718
531.86	13.762
532.20	13.720
532.54	13.764
532.88	13.879
533.22	14.378
533.57	13.849
533.91	14.085
534.25	13.737
534.59	14.080
534.93	13.130
535.27	13.803
535.62	13.587
535.96	14.294
536.30	12.808
536.64	13.514
536.98	12.977
537.32	13.827
537.66	14.223
538.01	13.293
538.35	13.276
538.69	13.041
539.03	14.224
539.37	14.075
539.71	13.934
540.05	13.609
540.39	13.570
540.73	12.811
541.07	13.427
541.42	13.290
541.76	13.464
542.10	13.088
542.44	12.789
542.78	13.686
543.12	12.932
543.46	13.248
543.80	12.590
544.14	13.166
544.48	13.593
544.82	12.687
545.16	12.582
545.50	13.002
545.84	13.227
546.18	13.642
546.52	13.057
546.86	13.019
547.20	13.422
547.54	13.171
547.88	12.839
548.22	12.573
548.56	12.288
548.90	11.881
549.24	13.191
549.58	12.681
549.92	12.564
550.26	13.657
550.60	12.444
550.94	12.031
551.28	13.135
551.62	12.399
551.96	14.110
552.30	13.767
552.64	12.943
552.98	12.789
553.32	13.569
553.66	12.733
554.00	12.926
554.34	12.613
554.68	12.847
555.02	12.746
555.36	12.952
555.69	12.364
556.03	11.917
556.37	13.517
556.71	12.873
557.05	13.291
557.39	12.143
557.73	12.351
558.07	12.517
558.41	12.824
558.75	12.711
559.08	12.109
559.42	12.757
559.76	12.347
560.10	13.195
560.44	12.995
560.78	13.438
561.12	12.131
561.45	12.470
561.79	11.538
562.13	13.001
562.47	12.207
562.81	12.848
563.15	12.374
563.48	12.927
563.82	11.911
564.16	12.962
564.50	12.277
564.84	12.802
565.17	12.882
565.51	11.392
565.85	12.233
566.19	12.327
566.52	12.229
566.86	12.564
567.20	11.800
567.54	12.533
567.88	12.895
568.21	12.994
568.55	12.758
568.89	12.392
569.23	13.012
569.56	12.270
569.90	12.865
570.24	12.614
570.57	12.380
570.91	12.094
571.25	12.294
571.59	12.580
571.92	12.420
572.26	12.308
572.60	12.449
572.93	12.580
573.27	12.532
573.61	12.308
573.95	12.722
574.28	12.450
574.62	12.483
574.96	11.932
575.29	12.382
575.63	12.197
575.97	12.144
576.30	12.189
576.64	12.264
576.98	12.392
577.31	12.330
577.65	12.278
577.98	12.368
578.32	12.135
578.66	12.363
578.99	12.288
579.33	12.272
579.67	11.967
580.00	12.093
580.34	11.976
580.67	12.246
581.01	12.224
581.35	12.312
581.68	11.819
582.02	12.492
582.35	12.397
582.69	12.213
583.02	12.484
583.36	12.220
583.70	11.997
584.03	12.239
584.37	11.948
584.70	11.369
585.04	12.183
585.37	12.064
585.71	12.211
586.04	12.329
586.38	12.233
586.72	11.958
587.05	11.921
587.39	11.942
587.72	12.225
588.06	12.016
588.39	12.348
588.73	11.852
589.06	11.879
589.40	12.077
589.73	12.179
590.07	12.765
590.40	12.508
590.73	12.372
591.07	12.137
591.40	12.286
591.74	11.566
592.07	12.221
592.41	11.475
592.74	12.141
593.08	12.070
593.41	12.248
593.75	12.040
594.08	12.451
594.41	12.500
594.75	11.857
595.08	11.743
595.42	11.981
595.75	12.173
596.09	12.436
596.42	11.895
596.75	12.350
597.09	12.081
597.42	12.277
597.75	12.113
598.09	11.865
598.42	12.264
598.76	11.693
599.09	11.748
599.42	12.270
599.76	11.885
600.09	12.079
600.42	11.912
600.76	11.889
601.09	11.981
601.42	11.775
601.76	12.069
602.09	11.651
602.42	11.487
602.76	11.956
603.09	12.115
603.42	12.500
603.76	11.734
604.09	12.704
604.42	12.110
604.76	11.530
605.09	11.687
605.42	12.002
605.75	12.385
606.09	11.721
606.42	11.711
606.75	11.582
607.09	11.790
607.42	12.100
607.75	11.801
608.08	11.642
608.42	11.528
608.75	11.857
609.08	11.290
609.41	11.381
609.75	12.098
610.08	12.401
610.41	11.852
610.74	12.017
611.07	11.368
611.41	12.018
611.74	12.379
612.07	11.688
612.40	11.264
612.73	12.225
613.07	11.980
613.40	12.560
613.73	12.229
614.06	11.482
614.39	11.710
614.72	11.548
615.06	11.357
615.39	11.938
615.72	11.659
616.05	12.142
616.38	11.806
616.71	13.009
617.05	11.235
617.38	12.413
617.71	12.041
618.04	11.171
618.37	12.404
618.70	11.595
619.03	10.812
619.36	11.714
619.69	12.236
620.03	12.178
620.36	11.104
620.69	11.783
621.02	12.008
621.35	11.901
621.68	12.003
622.01	11.174
622.34	11.088
622.67	11.753
623.00	11.471
623.33	11.812
623.66	12.451
623.99	11.060
624.32	12.086
624.65	11.776
624.99	12.159
625.32	12.345
625.65	12.879
625.98	11.254
626.31	11.056
626.64	12.527
626.97	11.178
627.30	11.314
627.63	11.103
627.96	12.763
628.29	11.518
628.62	10.243
628.95	10.605
629.28	10.960
629.61	11.448
629.94	11.213
630.26	11.356
630.59	11.572
630.92	11.429
631.25	11.807
631.58	13.183
631.91	10.965
632.24	11.720
632.57	11.290
632.90	11.434
633.23	12.857
633.56	12.041
633.89	9.917
634.22	11.435
634.55	12.317
634.88	11.580
635.20	11.302
635.53	11.864
635.86	10.401
636.19	13.574
636.52	11.920
636.85	11.645
637.18	11.642
637.51	11.398
637.83	12.514
638.16	11.521
638.49	10.563
638.82	10.485
639.15	10.653
639.48	12.818
639.81	12.240
640.13	11.190
640.46	11.030
640.79	11.642
641.12	10.807
641.45	12.547
641.77	13.864
642.10	11.024
642.43	13.564
642.76	12.195
643.09	10.411
643.41	11.345
643.74	12.138
644.07	12.552
644.40	11.740
644.73	10.740
645.05	10.720
645.38	13.957
645.71	10.557
646.04	11.908
646.36	10.365
646.69	10.429
647.02	11.468
647.35	11.756
647.67	11.916
648.00	12.420
648.33	12.162
648.66	12.553
648.98	11.837
649.31	11.502
649.64	12.351
649.96	11.936
650.29	13.491
650.62	11.033
650.94	12.613
651.27	9.731
651.60	12.719
651.92	10.790
652.25	11.143
652.58	11.279
652.90	11.047
653.23	13.099
653.56	11.127
653.88	11.938
654.21	12.254
654.54	11.850
654.86	12.606
655.19	9.912
655.52	11.413
655.84	12.110
656.17	14.471
656.49	20.338
656.82	22.135
657.15	17.009
657.47	12.552
657.80	9.143
658.13	6.887
658.45	9.242
658.78	10.842
659.10	10.422
659.43	10.114
659.75	9.647
660.08	9.468
660.41	9.512
660.73	10.946
661.06	11.894
661.38	10.845
661.71	12.069
662.03	11.993
662.36	12.165
662.68	9.944
663.01	13.628
663.33	10.964
663.66	12.271
663.98	10.385
664.31	11.257
664.63	10.405
664.96	11.797
665.28	11.434
665.61	13.287
665.93	9.286
666.26	11.649
666.58	8.672
666.91	12.150
667.23	12.000
667.56	11.834
667.88	12.600
668.21	8.008
668.53	7.143
668.86	11.591
669.18	9.776
669.50	12.127
669.83	9.400
670.15	9.843
670.48	12.698
670.80	9.751
671.13	9.641
671.45	8.858
671.77	13.748
672.10	9.667
672.42	10.194
672.75	11.521
673.07	10.597
673.39	8.475
673.72	12.752
674.04	12.069
674.37	11.270
674.69	13.051
675.01	10.857
675.34	11.450
675.66	10.300
675.98	12.127
676.31	12.500
676.63	13.118
676.95	11.303
677.28	12.903
677.60	9.449
677.92	10.940
678.25	11.335
678.57	10.854
678.89	13.652
679.22	11.498
679.54	11.453
679.86	10.508
680.18	10.945
680.51	11.321
680.83	11.293
681.15	10.345
681.48	12.263
681.80	13.817
682.12	11.888
682.44	11.686
682.77	11.170
683.09	13.258
683.41	13.953
683.73	11.954
684.06	10.701
684.38	10.733
684.70	9.156
685.02	12.737
685.34	11.481
685.67	10.726
685.99	9.356
686.31	9.884
686.63	9.953
686.96	11.356
687.28	11.726
687.60	10.269
687.92	12.379
688.24	11.018
688.56	10.172
688.89	14.156
689.21	12.916
689.53	10.784
689.85	8.284
690.17	10.185
690.49	10.159
690.82	10.495
691.14	11.134
691.46	11.090
691.78	12.339
692.10	11.376
692.42	10.000
692.74	11.071
693.06	8.519
693.39	11.575
693.71	11.654
694.03	12.268
694.35	10.476
694.67	12.320
694.99	11.702
695.31	10.596
695.63	12.338
695.95	12.215
696.27	9.451
696.59	13.053
696.91	10.360
697.23	9.890
697.56	8.758
697.88	12.689
698.20	13.183
698.52	14.583
698.84	10.603
699.16	11.429
699.48	10.251
699.80	9.574
700.12	12.227
700.44	9.908
700.76	11.164
701.08	12.591
701.40	11.399
701.72	12.189
702.04	10.695
702.36	9.686
702.68	11.247
703.00	11.247
703.32	8.128
703.64	11.002
703.96	11.695
704.28	11.548
704.60	11.139
704.91	11.990
705.23	13.699
705.55	9.192
705.87	13.636
706.19	12.270
706.51	9.940
706.83	10.375
707.15	11.111
707.47	10.981
707.79	11.135
708.11	7.415
708.43	12.473
708.74	6.473
709.06	7.889
709.38	11.502
709.70	13.400
710.02	9.302
710.34	12.234
710.66	8.380
710.98	11.749
711.29	8.791
711.61	11.582
711.93	11.966
712.25	9.730
712.57	12.094
712.89	14.412
713.20	7.396
713.52	11.272
713.84	8.357
714.16	14.474
714.48	10.309
714.80	12.208
715.11	12.598
715.43	11.671
715.75	11.842
716.07	11.878
716.39	13.115
716.70	10.241
717.02	7.869
717.34	7.317
717.66	11.745
717.97	6.849
718.29	9.966
718.61	10.855
718.93	11.327
719.24	11.491
719.56	12.270
719.88	11.111
720.20	10.968
720.51	10.559
720.83	11.875
721.15	8.882
721.46	6.507
721.78	11.667
722.10	6.149
722.42	9.060
722.73	8.710
723.05	10.526
723.37	11.111
723.68	12.545
724.00	11.913
724.32	10.915
724.63	8.741
724.95	15.248
725.27	12.544
725.58	7.774
725.90	10.690
726.22	11.285
726.53	12.338
726.85	12.579
727.16	12.387
727.48	12.844
727.80	13.245
728.11	11.307
728.43	11.785
728.74	10.033
729.06	7.616
729.38	11.364
729.69	8.389
730.01	11.905
730.32	9.394
730.64	11.006
730.96	7.764
731.27	10.056
731.59	10.989
731.90	9.610
732.22	10.677
732.53	8.011
732.85	10.571
733.16	10.850
733.48	11.585
733.80	10.585
734.11	11.681
734.43	11.351
734.74	15.443
735.06	7.789
735.37	14.324
735.69	14.324
736.00	9.887
736.32	11.051
736.63	13.889
736.95	11.207
737.26	10.000
737.58	8.182
737.89	12.353
738.21	8.257
738.52	10.492
738.83	13.311
739.15	11.348
739.46	11.905
739.78	10.736
740.09	9.456
740.41	14.869
740.72	6.667
741.04	12.945
741.35	13.684
741.66	8.235
741.98	14.754
742.29	11.715
742.61	12.281
742.92	11.923
743.23	14.079
743.55	11.628
743.86	10.800
744.18	7.438
744.49	9.283
744.80	14.403
745.12	12.236
745.43	12.602
745.74	11.207
746.06	16.102
746.37	10.970
746.68	12.195
747.00	11.667
747.31	12.876
747.62	14.231
747.94	7.692
748.25	8.835
748.56	9.796
748.88	12.821
749.19	14.655
749.50	8.225
749.82	11.245
750.13	16.014
750.44	7.667
750.75	10.154
751.07	13.231
751.38	9.779
751.69	10.863
752.01	10.356
752.32	13.399
752.63	8.503
752.94	11.765
753.26	11.524
753.57	8.889
753.88	9.738
754.19	10.289
754.51	8.039
754.82	10.932
755.13	15.738
755.44	11.263
755.75	12.500
756.07	15.821
756.38	8.176
756.69	13.253
757.00	9.141
757.31	9.016
757.63	10.230
757.94	12.207
758.25	11.512
758.56	11.329
758.87	11.818
759.18	9.333
759.50	14.731
759.81	13.445
760.12	11.321
760.43	12.240
760.74	13.054
761.05	10.000
761.36	10.361
761.67	11.168
761.99	12.162
762.30	8.537
762.61	6.601
762.92	9.701
763.23	13.109
763.54	10.791
763.85	9.622
764.16	12.121
764.47	11.972
764.78	12.780
765.10	8.504
765.41	13.590
765.72	10.582
766.03	13.559
766.34	14.107
766.65	6.620
766.96	10.757
767.27	12.442
767.58	6.468
767.89	17.788
768.20	15.493
768.51	8.796
768.82	11.245
769.13	10.227
769.44	7.692
769.75	11.552
770.06	11.923
770.37	12.992
770.68	8.511
770.99	6.883
771.30	18.889
771.61	13.688
771.92	9.630
772.23	12.551
772.54	8.796
772.85	16.129
773.16	16.190
773.47	13.228
773.78	9.189
774.09	6.818
774.39	16.000
774.70	12.568
775.01	4.268
775.32	11.176
775.63	7.975
775.94	12.102
776.25	10.968
776.56	14.103
776.87	9.524
777.18	13.793
777.48	6.993
777.79	12.162
778.10	0.000
778.41	11.806
778.72	16.552
779.03	16.049
779.34	6.667
779.65	11.917
779.95	13.333
780.26	6.250
780.57	9.677
780.88	18.841
781.19	11.613
781.50	18.824
781.80	10.215
782.11	15.873
782.42	10.101
782.73	8.982
783.04	11.732
783.34	4.242
783.65	5.229
783.96	11.180
784.27	11.310
784.57	9.272
784.88	17.143
785.19	5.512
785.50	13.386
785.81	10.526
786.11	10.000
786.42	8.633
786.73	7.194
787.04	12.782
787.34	12.295
787.65	7.200
787.96	12.687
788.26	12.587
788.57	14.685
788.88	13.158
789.19	20.915
789.49	12.329
789.80	14.894
790.11	10.236
790.41	10.156
790.72	15.254
791.03	10.680
791.33	11.304
791.64	14.035
791.95	7.143
792.25	12.381
792.56	9.821
792.87	2.083
793.17	16.071
793.48	6.250
793.79	7.229
794.09	4.587
794.40	11.927
794.70	14.966
795.01	7.792
795.32	10.959
795.62	11.972
795.93	9.848
796.23	3.279
796.54	16.964
796.85	9.574
797.15	2.174
797.46	-2.740
797.76	2.500
798.07	8.696
798.37	2.062
798.68	-3.896
798.99	8.046
799.29	13.483
799.60	18.085
799.90	13.253
800.21	9.231
800.51	4.478
800.82	16.176
801.12	-4.110
801.43	-10.294
801.73	20.339
802.04	-9.091
802.34	0.000
802.65	5.085
802.95	5.970
803.26	15.254
803.56	5.479
803.87	17.143
804.17	8.219
804.48	-12.281
804.78	13.889
805.09	-1.724
805.39	17.568
805.70	-4.225
806.00	2.439
806.30	14.458
806.61	2.740
806.91	15.385
807.22	12.222
807.52	2.299
807.83	18.056
808.13	19.277
808.43	7.865
808.74	3.750
809.04	-10.294
809.35	9.333
809.65	20.000
809.95	5.479
810.26	5.263
810.56	18.966
810.86	10.294
811.17	15.789
811.47	13.115
811.77	-11.111
812.08	0.000
812.38	1.667
812.69	15.517
812.99	-5.660
813.29	-48.718
813.59	16.000
813.90	17.544
814.20	-7.273
814.50	4.225
814.81	12.821
815.11	22.951
815.41	14.925
815.72	32.759
816.02	25.000
816.32	28.889
816.62	9.091
816.93	17.778
817.23	25.926
817.53	2.128
817.84	11.905
818.14	8.824
818.44	0.000
818.74	2.222
819.04	-30.769
819.35	-11.429
819.65	-30.769
819.95	13.208
820.25	13.333
820.56	-2.381
820.86	0.000
821.16	-5.128
821.46	0.000
821.76	6.000
822.07	1.786
822.37	0.000
822.67	-2.128
822.97	0.000
823.27	5.000
823.57	40.816
823.88	24.444
824.18	27.500
824.48	-10.000
824.78	36.000
825.08	0.000
825.38	17.778
825.69	-10.638
825.99	5.556
826.29	-11.429
826.59	23.077
826.89	11.628
827.19	0.000
827.49	8.824
827.79	22.917
828.09	21.622
828.39	43.333
828.70	19.512
829.00	-9.302
829.30	0.000
829.60	29.412
829.90	10.870
830.20	-17.143
830.50	-17.241
830.80	11.111
831.10	-3.846
831.40	8.824
831.70	9.524
832.00	41.935
832.30	-35.294
832.60	-8.333
832.90	-38.462
833.20	-10.526
833.50	-25.000
833.80	-10.526
834.10	-38.095
834.40	11.111
834.70	25.000
835.00	-22.857
835.30	23.529
835.60	20.000
835.90	-20.000
836.20	-27.273
836.50	-8.000
836.80	-9.091
837.10	-33.333
837.40	11.111
837.70	-93.750
838.00	3.571
838.30	-52.174
838.60	-27.586
838.90	-50.000
839.19	-26.087
839.49	-16.667
839.79	-4.348
840.09	-18.750
840.39	0.000
840.69	12.903
840.99	-21.429
841.29	-20.000
841.59	-31.579
841.88	15.385
842.18	26.923
842.48	-80.000
842.78	-25.000
843.08	0.000
843.38	6.452
843.68	0.000
843.97	29.412
844.27	-12.500
844.57	-26.316
844.87	20.000
845.17	6.667
845.47	23.810
845.76	9.524
846.06	-22.222
846.36	23.529
846.66	-30.769
846.96	-46.667
847.25	-5.882
847.55	39.130
847.85	15.000
848.15	29.412
848.44	-36.364
848.74	0.000
849.04	0.000
849.34	6.250
849.63	30.435
849.93	500.000
850.23	0.000
850.53	30.769
850.82	-109.091
851.12	63.636
851.42	-45.455
851.71	84.615
852.01	40.000
852.31	-23.077
852.61	-10.526
852.90	0.000
853.20	33.333
853.50	-166.667
853.79	-23.810
854.09	-31.818
854.39	-16.667
854.68	19.355
854.98	-26.923
855.28	33.333
855.57	14.286
855.87	-28.000
856.17	0.000
856.46	-14.815
856.76	11.111
857.05	-21.739
857.35	29.167
857.65	-69.231
857.94	-4.762
858.24	59.259
858.53	47.826
858.83	70.588
859.13	-17.647
859.42	76.471
859.72	64.286
860.01	0.000
860.31	77.778
860.60	60.000
860.90	33.333
861.20	27.778
861.49	-23.077
861.79	0.000
862.08	-69.231
862.38	34.375
862.67	11.765
862.97	43.750
863.26	-77.778
863.56	130.000
863.85	-9.091
864.15	5.556
864.44	0.000
864.74	-21.429
865.03	-50.000
865.33	-80.000
865.62	0.000
865.92	40.909
866.21	0.000
866.51	0.000
866.80	-80.000
867.10	-50.000
867.39	-25.000
867.69	2000.000
867.98	-71.429
868.27	52.941
868.57	-700.000
868.86	-60.000
869.16	9.524
869.45	20.833
869.75	27.273
870.04	-100.000
870.33	-25.000
870.63	-85.714
870.92	-150.000
871.22	-125.000
871.51	27.273
871.80	-133.333
872.10	-300.000
>>>>>End Processed Spectral Data<<<<<
