SpectraSuite Data File
++++++++++++++++++++++++++++++++++++
Date: Thu May 14 16:30:42 PDT 2015
User: schluterlab
Dark Spectrum Present: Yes
Reference Spectrum Present: Yes
Number of Sampled Component Spectra: 1
Spectrometers: USB2E3373
Integration Time (usec): 3000 (USB2E3373)
Spectra Averaged: 3 (USB2E3373)
Boxcar Smoothing: 0 (USB2E3373)
Correct for Electrical Dark: No (USB2E3373)
Strobe/Lamp Enabled: No (USB2E3373)
Correct for Detector Non-linearity: No (USB2E3373)
Correct for Stray Light: No (USB2E3373)
Number of Pixels in Processed Spectrum: 2048
>>>>>Begin Processed Spectral Data<<<<<
178.53	0.000
178.91	28.571
179.29	-400.000
179.67	-900.000
180.04	135.714
180.42	30.000
180.80	120.000
181.18	-700.000
181.56	-400.000
181.94	100.000
182.31	50.000
182.69	100.000
183.07	-50.000
183.45	200.000
183.83	-33.333
184.20	100.000
184.58	-500.000
184.96	-150.000
185.34	-55.556
185.72	-60.000
186.09	100.000
186.47	250.000
186.85	140.000
187.23	-122.222
187.61	-300.000
187.98	120.000
188.36	25.000
188.74	75.000
189.12	-166.667
189.49	12.500
189.87	-150.000
190.25	-100.000
190.63	160.000
191.00	-100.000
191.38	0.000
191.76	-225.000
192.14	-50.000
192.51	200.000
192.89	116.667
193.27	0.000
193.65	-42.857
194.02	-400.000
194.40	57.143
194.78	-114.286
195.15	0.000
195.53	-27.273
195.91	0.000
196.29	-50.000
196.66	30.769
197.04	-1100.000
197.42	-57.143
197.79	0.000
198.17	-112.500
198.55	-85.714
198.92	77.778
199.30	-112.500
199.68	45.455
200.05	100.000
200.43	0.000
200.81	271.429
201.18	0.000
201.56	111.111
201.94	0.000
202.31	266.667
202.69	-33.333
203.07	-500.000
203.44	22.222
203.82	-50.000
204.19	33.333
204.57	-83.333
204.95	0.000
205.32	-100.000
205.70	300.000
206.08	50.000
206.45	-16.667
206.83	260.000
207.20	-83.333
207.58	-280.000
207.96	-233.333
208.33	16.667
208.71	58.333
209.08	100.000
209.46	0.000
209.84	66.667
210.21	50.000
210.59	50.000
210.96	433.333
211.34	-50.000
211.71	-62.500
212.09	-400.000
212.46	0.000
212.84	600.000
213.22	-100.000
213.59	25.000
213.97	-10.000
214.34	133.333
214.72	-200.000
215.09	-50.000
215.47	0.000
215.84	100.000
216.22	300.000
216.59	160.000
216.97	40.000
217.34	0.000
217.72	137.500
218.09	-150.000
218.47	-125.000
218.84	0.000
219.22	20.000
219.59	58.824
219.97	-5.000
220.34	100.000
220.72	-77.778
221.09	84.615
221.47	-33.333
221.84	-20.000
222.22	-28.571
222.59	0.000
222.97	-75.000
223.34	-160.000
223.72	300.000
224.09	25.000
224.46	-200.000
224.84	60.000
225.21	-114.286
225.59	-225.000
225.96	-50.000
226.34	50.000
226.71	200.000
227.08	-150.000
227.46	0.000
227.83	50.000
228.21	52.632
228.58	125.000
228.95	600.000
229.33	16.667
229.70	-40.000
230.08	78.947
230.45	90.000
230.82	133.333
231.20	35.714
231.57	108.333
231.95	0.000
232.32	81.818
232.69	25.000
233.07	0.000
233.44	-17.647
233.81	90.000
234.19	66.667
234.56	36.364
234.93	27.586
235.31	26.316
235.68	22.222
236.05	-20.000
236.43	34.615
236.80	72.000
237.17	3.704
237.55	-21.212
237.92	20.000
238.29	-6.452
238.67	4.545
239.04	11.111
239.41	38.095
239.79	13.043
240.16	-5.556
240.53	2.174
240.91	-9.804
241.28	13.115
241.65	25.373
242.02	16.216
242.40	-4.615
242.77	12.000
243.14	12.195
243.51	3.947
243.89	6.410
244.26	20.792
244.63	9.804
245.00	4.673
245.38	0.877
245.75	8.850
246.12	11.905
246.49	6.202
246.87	17.857
247.24	11.258
247.61	13.816
247.98	16.779
248.36	16.049
248.73	7.362
249.10	6.557
249.47	10.945
249.84	16.230
250.22	9.326
250.59	9.444
250.96	13.636
251.33	6.633
251.70	11.538
252.08	11.667
252.45	11.066
252.82	7.438
253.19	5.859
253.56	12.548
253.94	13.846
254.31	10.985
254.68	17.483
255.05	15.635
255.42	11.224
255.79	7.767
256.16	10.927
256.54	8.609
256.91	9.508
257.28	10.820
257.65	6.369
258.02	5.605
258.39	11.396
258.76	12.844
259.14	12.069
259.51	12.104
259.88	7.649
260.25	11.944
260.62	10.685
260.99	13.388
261.36	12.064
261.73	10.875
262.10	11.538
262.47	8.043
262.85	13.131
263.22	7.273
263.59	7.632
263.96	10.230
264.33	8.184
264.70	9.136
265.07	11.456
265.44	13.379
265.81	9.491
266.18	9.751
266.55	10.937
266.92	6.606
267.29	12.473
267.66	8.869
268.03	10.699
268.40	10.438
268.77	7.973
269.14	7.930
269.51	8.772
269.88	13.934
270.25	9.457
270.62	10.338
270.99	11.919
271.36	12.079
271.73	9.234
272.10	11.222
272.47	8.818
272.84	10.442
273.21	10.020
273.58	9.476
273.95	8.654
274.32	8.175
274.69	8.511
275.06	10.073
275.43	9.427
275.80	11.111
276.17	10.000
276.54	8.582
276.91	8.050
277.28	10.669
277.65	10.233
278.02	11.029
278.39	9.783
278.76	8.084
279.13	9.752
279.50	9.794
279.87	9.660
280.23	7.746
280.60	10.169
280.97	10.197
281.34	6.621
281.71	11.168
282.08	8.970
282.45	8.838
282.82	10.518
283.19	8.078
283.56	10.492
283.92	10.961
284.29	13.270
284.66	11.002
285.03	8.333
285.40	9.583
285.77	9.598
286.14	11.145
286.51	9.285
286.87	8.057
287.24	9.639
287.61	8.670
287.98	9.063
288.35	11.243
288.72	9.024
289.08	10.102
289.45	9.615
289.82	9.187
290.19	9.052
290.56	10.423
290.93	9.558
291.29	8.264
291.66	9.642
292.03	6.920
292.40	9.932
292.77	8.895
293.13	10.419
293.50	8.279
293.87	8.188
294.24	9.067
294.60	9.987
294.97	7.517
295.34	11.268
295.71	8.953
296.08	9.173
296.44	8.456
296.81	9.135
297.18	8.468
297.55	7.547
297.91	7.948
298.28	6.991
298.65	9.869
299.02	9.209
299.38	8.924
299.75	8.879
300.12	8.333
300.48	7.719
300.85	9.899
301.22	9.732
301.59	8.105
301.95	8.023
302.32	10.111
302.69	8.215
303.05	8.814
303.42	10.310
303.79	8.542
304.15	7.781
304.52	7.822
304.89	9.005
305.25	9.627
305.62	8.464
305.99	10.412
306.35	9.778
306.72	9.617
307.09	9.340
307.45	9.938
307.82	9.384
308.19	9.586
308.55	11.090
308.92	9.445
309.29	9.291
309.65	9.747
310.02	8.614
310.38	10.531
310.75	9.029
311.12	10.834
311.48	9.775
311.85	10.351
312.22	10.436
312.58	9.671
312.95	10.229
313.31	10.930
313.68	11.722
314.05	12.376
314.41	12.022
314.78	12.352
315.14	11.615
315.51	12.650
315.87	12.511
316.24	12.511
316.61	12.611
316.97	11.493
317.34	11.023
317.70	13.712
318.07	12.963
318.43	13.776
318.80	14.047
319.16	13.219
319.53	11.568
319.89	13.497
320.26	13.434
320.62	13.387
320.99	13.573
321.35	13.863
321.72	15.256
322.08	14.067
322.45	14.453
322.81	15.253
323.18	14.602
323.54	15.000
323.91	14.680
324.27	15.577
324.64	15.869
325.00	16.418
325.37	15.643
325.73	16.694
326.10	16.302
326.46	17.997
326.83	18.175
327.19	16.457
327.56	17.391
327.92	16.522
328.29	16.210
328.65	16.667
329.01	17.259
329.38	18.534
329.74	17.551
330.11	18.579
330.47	17.692
330.84	17.140
331.20	18.000
331.56	17.591
331.93	18.326
332.29	18.136
332.66	17.525
333.02	17.755
333.38	17.198
333.75	18.350
334.11	18.932
334.48	18.729
334.84	18.692
335.20	17.632
335.57	17.875
335.93	19.008
336.29	17.304
336.66	18.839
337.02	17.559
337.38	19.218
337.75	17.769
338.11	18.335
338.47	19.189
338.84	17.682
339.20	17.018
339.56	17.792
339.93	17.323
340.29	17.311
340.65	15.896
341.02	18.595
341.38	18.513
341.74	18.160
342.11	18.101
342.47	16.918
342.83	18.760
343.20	17.580
343.56	18.845
343.92	18.175
344.28	18.359
344.65	19.147
345.01	18.019
345.37	18.040
345.73	17.849
346.10	19.345
346.46	18.750
346.82	19.101
347.19	18.946
347.55	18.816
347.91	18.425
348.27	18.513
348.63	18.507
349.00	18.941
349.36	18.885
349.72	18.676
350.08	19.465
350.45	18.099
350.81	17.873
351.17	18.271
351.53	18.044
351.89	19.210
352.26	19.104
352.62	18.955
352.98	17.939
353.34	18.223
353.70	19.183
354.07	18.480
354.43	18.451
354.79	18.250
355.15	18.543
355.51	19.664
355.87	19.073
356.24	19.163
356.60	18.921
356.96	19.348
357.32	19.405
357.68	18.960
358.04	19.162
358.40	19.701
358.77	19.079
359.13	18.759
359.49	18.810
359.85	19.072
360.21	19.369
360.57	19.239
360.93	19.323
361.29	19.579
361.66	19.189
362.02	20.390
362.38	20.169
362.74	20.182
363.10	20.770
363.46	20.568
363.82	20.668
364.18	20.267
364.54	19.502
364.90	19.666
365.26	20.069
365.62	20.600
365.98	20.558
366.35	20.537
366.71	20.680
367.07	20.636
367.43	20.158
367.79	20.239
368.15	20.535
368.51	21.042
368.87	20.575
369.23	20.267
369.59	21.038
369.95	20.690
370.31	20.797
370.67	20.977
371.03	20.568
371.39	20.752
371.75	21.458
372.11	21.206
372.47	20.379
372.83	20.353
373.19	22.015
373.55	20.799
373.91	20.654
374.27	20.634
374.63	21.989
374.99	21.286
375.35	21.818
375.71	21.677
376.07	20.400
376.42	21.662
376.78	21.877
377.14	21.647
377.50	21.885
377.86	22.537
378.22	21.976
378.58	21.581
378.94	21.831
379.30	23.140
379.66	22.516
380.02	22.331
380.38	22.811
380.74	21.690
381.09	21.080
381.45	22.386
381.81	23.653
382.17	22.447
382.53	22.924
382.89	22.517
383.25	22.567
383.61	22.396
383.97	22.379
384.32	24.222
384.68	22.854
385.04	23.713
385.40	23.394
385.76	23.798
386.12	23.040
386.48	23.059
386.83	23.540
387.19	23.059
387.55	23.826
387.91	23.059
388.27	24.134
388.62	22.566
388.98	23.181
389.34	24.337
389.70	23.417
390.06	23.801
390.42	23.253
390.77	23.058
391.13	22.711
391.49	24.094
391.85	23.455
392.20	23.665
392.56	24.040
392.92	24.918
393.28	24.212
393.64	24.134
393.99	23.823
394.35	24.650
394.71	23.413
395.07	23.653
395.42	23.929
395.78	24.497
396.14	25.431
396.50	23.990
396.85	24.210
397.21	23.550
397.57	23.557
397.92	24.685
398.28	24.823
398.64	24.142
399.00	24.136
399.35	24.188
399.71	24.783
400.07	24.368
400.42	23.807
400.78	24.190
401.14	24.587
401.49	24.503
401.85	24.826
402.21	24.160
402.57	25.059
402.92	24.704
403.28	24.532
403.63	25.298
403.99	24.703
404.35	24.901
404.70	25.099
405.06	24.348
405.42	25.234
405.77	24.264
406.13	24.473
406.49	24.606
406.84	24.654
407.20	24.818
407.55	24.955
407.91	24.764
408.27	24.617
408.62	25.131
408.98	24.840
409.34	24.457
409.69	25.155
410.05	25.205
410.40	24.710
410.76	24.453
411.11	25.073
411.47	24.816
411.83	25.397
412.18	25.181
412.54	25.370
412.89	24.738
413.25	24.492
413.60	25.043
413.96	26.632
414.31	24.249
414.67	24.448
415.03	24.862
415.38	25.662
415.74	24.801
416.09	25.478
416.45	24.796
416.80	25.092
417.16	25.990
417.51	25.716
417.87	24.954
418.22	26.108
418.58	26.022
418.93	26.251
419.29	25.154
419.64	25.090
420.00	25.875
420.35	25.828
420.71	25.905
421.06	24.842
421.42	25.631
421.77	24.825
422.12	25.370
422.48	24.629
422.83	25.520
423.19	25.517
423.54	26.217
423.90	25.014
424.25	25.440
424.61	25.660
424.96	25.371
425.31	25.531
425.67	25.013
426.02	25.789
426.38	25.603
426.73	25.446
427.09	25.952
427.44	25.341
427.79	25.705
428.15	25.457
428.50	24.607
428.85	24.856
429.21	26.117
429.56	24.778
429.92	25.356
430.27	25.542
430.62	25.598
430.98	25.086
431.33	25.122
431.68	24.761
432.04	25.749
432.39	25.763
432.74	25.799
433.10	26.014
433.45	25.028
433.80	25.536
434.16	25.052
434.51	26.156
434.86	25.570
435.22	25.558
435.57	26.710
435.92	26.544
436.28	25.597
436.63	25.833
436.98	25.174
437.34	25.930
437.69	25.427
438.04	25.119
438.39	25.330
438.75	25.733
439.10	26.427
439.45	25.377
439.81	25.876
440.16	26.005
440.51	25.530
440.86	25.347
441.22	25.080
441.57	25.419
441.92	25.897
442.27	25.758
442.63	25.286
442.98	25.827
443.33	25.197
443.68	25.520
444.03	25.776
444.39	25.844
444.74	25.830
445.09	25.190
445.44	24.658
445.79	25.670
446.15	26.156
446.50	25.581
446.85	25.681
447.20	25.677
447.55	25.575
447.91	25.026
448.26	25.846
448.61	24.920
448.96	25.644
449.31	24.655
449.66	24.292
450.02	25.105
450.37	26.105
450.72	24.865
451.07	25.114
451.42	25.014
451.77	24.514
452.12	25.395
452.47	24.599
452.83	24.944
453.18	24.694
453.53	24.698
453.88	24.793
454.23	24.802
454.58	25.421
454.93	24.454
455.28	26.430
455.63	25.014
455.98	24.581
456.34	25.088
456.69	24.339
457.04	24.291
457.39	23.503
457.74	25.783
458.09	24.053
458.44	24.731
458.79	24.188
459.14	23.755
459.49	23.939
459.84	24.187
460.19	24.320
460.54	24.134
460.89	24.616
461.24	24.195
461.59	24.184
461.94	23.274
462.29	24.636
462.64	23.778
462.99	24.231
463.34	24.659
463.69	24.091
464.04	24.569
464.39	23.655
464.74	23.204
465.09	23.933
465.44	23.176
465.79	23.797
466.14	23.241
466.49	23.421
466.84	23.691
467.19	23.353
467.54	23.502
467.89	22.816
468.24	23.989
468.59	22.293
468.94	23.019
469.29	22.855
469.64	23.776
469.99	22.498
470.34	23.267
470.68	23.035
471.03	23.772
471.38	22.825
471.73	22.497
472.08	23.604
472.43	22.998
472.78	23.866
473.13	22.503
473.48	23.384
473.83	23.564
474.17	23.271
474.52	23.572
474.87	22.425
475.22	22.592
475.57	21.443
475.92	22.499
476.27	22.204
476.61	22.482
476.96	21.376
477.31	22.129
477.66	23.977
478.01	21.912
478.36	21.436
478.70	22.463
479.05	22.342
479.40	21.866
479.75	22.382
480.10	21.506
480.45	22.562
480.79	21.678
481.14	21.599
481.49	21.672
481.84	21.323
482.19	21.204
482.53	21.469
482.88	22.153
483.23	21.476
483.58	21.528
483.92	20.833
484.27	21.296
484.62	21.370
484.97	21.345
485.31	21.049
485.66	20.416
486.01	20.018
486.36	20.557
486.70	21.002
487.05	21.513
487.40	21.453
487.75	20.891
488.09	20.738
488.44	20.222
488.79	20.776
489.13	20.565
489.48	20.194
489.83	20.443
490.17	20.373
490.52	20.115
490.87	20.558
491.22	20.711
491.56	20.606
491.91	20.235
492.26	19.429
492.60	19.983
492.95	20.711
493.30	20.215
493.64	20.718
493.99	20.482
494.34	19.686
494.68	19.786
495.03	20.176
495.37	20.240
495.72	19.728
496.07	20.070
496.41	19.219
496.76	19.725
497.11	19.958
497.45	20.069
497.80	19.858
498.14	20.272
498.49	20.037
498.84	19.835
499.18	19.703
499.53	19.731
499.87	19.824
500.22	18.299
500.56	19.613
500.91	19.863
501.26	19.455
501.60	18.648
501.95	19.409
502.29	19.351
502.64	19.152
502.98	19.284
503.33	19.222
503.67	18.796
504.02	19.615
504.36	19.616
504.71	18.925
505.06	19.554
505.40	19.150
505.75	18.716
506.09	18.923
506.44	19.591
506.78	19.174
507.13	18.903
507.47	19.233
507.82	18.655
508.16	19.073
508.51	18.753
508.85	18.895
509.19	18.759
509.54	19.500
509.88	17.970
510.23	18.844
510.57	18.608
510.92	19.061
511.26	18.422
511.61	18.204
511.95	18.985
512.30	18.415
512.64	18.041
512.98	19.010
513.33	19.103
513.67	18.919
514.02	18.702
514.36	18.721
514.70	19.010
515.05	19.187
515.39	18.898
515.74	19.088
516.08	19.387
516.42	19.885
516.77	18.770
517.11	18.463
517.46	19.353
517.80	19.241
518.14	19.369
518.49	18.330
518.83	18.467
519.17	18.148
519.52	18.711
519.86	18.743
520.20	18.264
520.55	18.291
520.89	18.525
521.23	18.370
521.58	19.096
521.92	18.244
522.26	18.385
522.61	18.519
522.95	18.108
523.29	19.138
523.64	18.722
523.98	18.882
524.32	19.713
524.66	18.156
525.01	19.366
525.35	17.921
525.69	17.865
526.04	17.681
526.38	18.103
526.72	18.743
527.06	18.416
527.41	18.309
527.75	19.537
528.09	19.126
528.43	18.769
528.78	18.035
529.12	18.349
529.46	17.931
529.80	18.192
530.15	18.377
530.49	17.556
530.83	18.241
531.17	18.220
531.51	18.291
531.86	17.428
532.20	18.354
532.54	18.432
532.88	18.303
533.22	17.325
533.57	17.830
533.91	18.687
534.25	18.542
534.59	18.218
534.93	18.110
535.27	18.141
535.62	18.135
535.96	18.187
536.30	17.391
536.64	18.078
536.98	18.881
537.32	17.901
537.66	18.653
538.01	16.979
538.35	17.540
538.69	18.089
539.03	17.290
539.37	17.786
539.71	18.018
540.05	17.626
540.39	17.421
540.73	17.243
541.07	18.148
541.42	17.307
541.76	16.726
542.10	17.551
542.44	16.809
542.78	17.579
543.12	17.163
543.46	17.094
543.80	17.626
544.14	16.577
544.48	18.617
544.82	17.594
545.16	18.008
545.50	17.196
545.84	17.759
546.18	17.222
546.52	17.134
546.86	17.547
547.20	17.303
547.54	17.478
547.88	16.817
548.22	16.901
548.56	17.437
548.90	17.134
549.24	17.751
549.58	16.972
549.92	16.837
550.26	17.670
550.60	16.656
550.94	16.688
551.28	17.030
551.62	17.520
551.96	16.505
552.30	17.400
552.64	16.801
552.98	16.469
553.32	16.785
553.66	16.913
554.00	17.213
554.34	17.053
554.68	16.850
555.02	17.346
555.36	16.897
555.69	16.208
556.03	16.583
556.37	16.771
556.71	16.170
557.05	17.252
557.39	16.855
557.73	16.843
558.07	16.159
558.41	17.143
558.75	17.377
559.08	16.980
559.42	16.324
559.76	17.300
560.10	16.410
560.44	16.689
560.78	17.000
561.12	16.318
561.45	16.910
561.79	16.850
562.13	16.636
562.47	15.351
562.81	16.582
563.15	16.856
563.48	17.154
563.82	16.385
564.16	16.172
564.50	16.210
564.84	15.988
565.17	16.412
565.51	16.456
565.85	16.686
566.19	16.129
566.52	16.442
566.86	15.789
567.20	16.422
567.54	16.410
567.88	16.157
568.21	16.255
568.55	15.683
568.89	15.524
569.23	15.927
569.56	15.358
569.90	15.289
570.24	15.312
570.57	15.298
570.91	15.217
571.25	15.216
571.59	15.753
571.92	15.272
572.26	14.929
572.60	15.124
572.93	15.252
573.27	15.341
573.61	14.558
573.95	15.465
574.28	15.277
574.62	14.779
574.96	14.910
575.29	14.651
575.63	14.738
575.97	14.515
576.30	14.903
576.64	15.080
576.98	14.510
577.31	15.287
577.65	15.126
577.98	14.590
578.32	14.506
578.66	14.644
578.99	14.663
579.33	14.873
579.67	14.755
580.00	14.408
580.34	14.834
580.67	14.806
581.01	14.626
581.35	14.572
581.68	14.445
582.02	14.397
582.35	14.946
582.69	14.728
583.02	14.708
583.36	14.726
583.70	14.724
584.03	14.711
584.37	14.614
584.70	14.523
585.04	14.694
585.37	14.472
585.71	14.412
586.04	14.157
586.38	14.531
586.72	14.515
587.05	14.377
587.39	14.435
587.72	14.833
588.06	14.458
588.39	14.513
588.73	14.444
589.06	14.306
589.40	14.505
589.73	14.621
590.07	15.451
590.40	14.773
590.73	15.235
591.07	15.264
591.40	14.658
591.74	14.428
592.07	14.860
592.41	15.024
592.74	14.803
593.08	14.363
593.41	14.377
593.75	14.397
594.08	14.480
594.41	14.423
594.75	14.281
595.08	13.997
595.42	15.032
595.75	14.530
596.09	14.707
596.42	14.403
596.75	14.975
597.09	14.667
597.42	14.303
597.75	14.034
598.09	14.405
598.42	14.837
598.76	13.833
599.09	14.810
599.42	14.013
599.76	14.064
600.09	14.214
600.42	14.381
600.76	14.300
601.09	14.537
601.42	13.835
601.76	14.517
602.09	14.117
602.42	13.850
602.76	13.911
603.09	14.391
603.42	14.595
603.76	13.989
604.09	14.869
604.42	14.312
604.76	13.813
605.09	14.320
605.42	14.872
605.75	13.808
606.09	14.184
606.42	13.791
606.75	14.430
607.09	14.132
607.42	14.528
607.75	14.381
608.08	14.049
608.42	13.543
608.75	14.801
609.08	13.582
609.41	14.336
609.75	13.750
610.08	14.204
610.41	13.806
610.74	14.076
611.07	14.210
611.41	14.215
611.74	14.642
612.07	14.119
612.40	13.736
612.73	14.377
613.07	14.328
613.40	14.100
613.73	13.866
614.06	13.935
614.39	13.508
614.72	14.119
615.06	14.148
615.39	13.775
615.72	13.744
616.05	14.327
616.38	14.733
616.71	14.002
617.05	14.324
617.38	14.072
617.71	14.579
618.04	14.625
618.37	14.645
618.70	13.914
619.03	14.397
619.36	14.118
619.69	13.773
620.03	13.748
620.36	14.049
620.69	14.436
621.02	14.895
621.35	15.094
621.68	15.112
622.01	15.231
622.34	13.947
622.67	14.158
623.00	13.833
623.33	14.200
623.66	14.786
623.99	13.562
624.32	15.335
624.65	14.157
624.99	14.239
625.32	15.219
625.65	15.172
625.98	14.983
626.31	13.891
626.64	15.385
626.97	13.953
627.30	13.364
627.63	13.353
627.96	14.489
628.29	14.086
628.62	13.854
628.95	13.935
629.28	14.783
629.61	14.899
629.94	12.803
630.26	15.254
630.59	13.817
630.92	13.766
631.25	14.043
631.58	14.218
631.91	14.058
632.24	14.601
632.57	14.896
632.90	15.346
633.23	14.694
633.56	13.469
633.89	14.153
634.22	15.385
634.55	14.196
634.88	13.312
635.20	14.532
635.53	14.576
635.86	13.976
636.19	14.952
636.52	15.612
636.85	13.381
637.18	14.449
637.51	14.839
637.83	15.947
638.16	14.862
638.49	13.146
638.82	14.318
639.15	14.089
639.48	15.820
639.81	15.127
640.13	14.016
640.46	14.303
640.79	13.358
641.12	15.404
641.45	15.433
641.77	15.789
642.10	14.567
642.43	16.090
642.76	15.312
643.09	15.068
643.41	13.585
643.74	14.207
644.07	14.621
644.40	13.154
644.73	13.933
645.05	14.097
645.38	14.388
645.71	13.196
646.04	15.208
646.36	13.431
646.69	15.951
647.02	16.820
647.35	16.031
647.67	17.069
648.00	15.287
648.33	14.414
648.66	13.409
648.98	11.701
649.31	14.614
649.64	13.679
649.96	14.854
650.29	11.683
650.62	13.296
650.94	14.414
651.27	12.575
651.60	14.474
651.92	12.310
652.25	12.301
652.58	14.168
652.90	12.645
653.23	14.085
653.56	14.265
653.88	16.854
654.21	12.394
654.54	13.873
654.86	13.598
655.19	13.425
655.52	12.450
655.84	11.436
656.17	13.733
656.49	19.795
656.82	21.905
657.15	17.119
657.47	13.163
657.80	9.805
658.13	7.684
658.45	10.074
658.78	12.366
659.10	12.178
659.43	11.939
659.75	12.282
660.08	11.765
660.41	11.911
660.73	11.859
661.06	11.601
661.38	14.514
661.71	11.207
662.03	13.580
662.36	16.279
662.68	12.946
663.01	13.805
663.33	15.879
663.66	17.033
663.98	14.423
664.31	14.822
664.63	13.487
664.96	14.519
665.28	15.064
665.61	14.336
665.93	12.857
666.26	12.366
666.58	11.624
666.91	15.327
667.23	13.714
667.56	13.215
667.88	13.200
668.21	11.523
668.53	11.969
668.86	12.967
669.18	13.238
669.50	14.712
669.83	12.600
670.15	14.370
670.48	14.484
670.80	13.958
671.13	13.422
671.45	12.205
671.77	14.124
672.10	11.167
672.42	13.916
672.75	11.521
673.07	11.940
673.39	11.556
673.72	13.591
674.04	13.966
674.37	13.596
674.69	14.815
675.01	14.286
675.34	13.550
675.66	15.543
675.98	13.619
676.31	15.039
676.63	13.308
676.95	14.751
677.28	13.306
677.60	11.614
677.92	13.820
678.25	13.163
678.57	14.235
678.89	12.799
679.22	12.718
679.54	12.991
679.86	11.356
680.18	12.769
680.51	11.950
680.83	12.439
681.15	10.517
681.48	14.162
681.80	11.917
682.12	11.364
682.44	13.523
682.77	13.121
683.09	13.258
683.41	13.178
683.73	14.801
684.06	13.100
684.38	11.628
684.70	13.106
685.02	13.769
685.34	12.978
685.67	10.568
685.99	11.963
686.31	10.174
686.63	12.480
686.96	12.776
687.28	14.332
687.60	12.795
687.92	10.932
688.24	14.691
688.56	13.276
688.89	13.067
689.21	13.112
689.53	11.765
689.85	11.243
690.17	12.222
690.49	11.753
690.82	12.277
691.14	10.324
691.46	13.767
691.78	14.180
692.10	11.743
692.42	11.250
692.74	11.434
693.06	9.259
693.39	15.370
693.71	12.594
694.03	13.383
694.35	14.667
694.67	14.579
694.99	13.830
695.31	9.272
695.63	11.905
695.95	11.801
696.27	12.747
696.59	12.611
696.91	13.288
697.23	14.945
697.56	12.627
697.88	11.932
698.20	13.748
698.52	13.826
698.84	14.345
699.16	11.633
699.48	13.389
699.80	13.191
700.12	15.284
700.44	11.060
700.76	14.252
701.08	11.864
701.40	11.399
701.72	12.189
702.04	13.369
702.36	9.948
702.68	12.714
703.00	10.758
703.32	10.099
703.64	13.936
703.96	12.172
704.28	13.514
704.60	13.671
704.91	11.990
705.23	14.795
705.55	9.471
705.87	14.545
706.19	12.270
706.51	10.542
706.83	10.663
707.15	6.878
707.47	10.514
707.79	8.515
708.11	9.322
708.43	9.892
708.74	9.821
709.06	12.761
709.38	14.789
709.70	14.888
710.02	14.470
710.34	13.830
710.66	10.615
710.98	10.656
711.29	9.890
711.61	11.299
711.93	11.396
712.25	12.973
712.57	10.914
712.89	14.706
713.20	10.947
713.52	13.295
713.84	10.306
714.16	15.263
714.48	11.598
714.80	15.844
715.11	12.336
715.43	13.528
715.75	11.842
716.07	9.392
716.39	10.656
716.70	10.241
717.02	9.508
717.34	12.195
717.66	10.403
717.97	12.329
718.29	7.216
718.61	11.184
718.93	11.650
719.24	12.422
719.56	14.110
719.88	12.913
720.20	14.516
720.51	13.975
720.83	9.688
721.15	11.184
721.46	4.110
721.78	11.000
722.10	10.032
722.42	11.745
722.73	9.032
723.05	12.632
723.37	12.153
723.68	14.337
724.00	16.245
724.32	11.620
724.63	9.790
724.95	13.475
725.27	12.544
725.58	10.954
725.90	9.655
726.22	8.777
726.53	12.338
726.85	11.635
727.16	16.314
727.48	15.902
727.80	13.245
728.11	7.420
728.43	14.141
728.74	9.699
729.06	10.265
729.38	10.714
729.69	9.060
730.01	10.417
730.32	9.697
730.64	11.635
730.96	10.870
731.27	11.453
731.59	12.637
731.90	9.351
732.22	8.854
732.53	9.116
732.85	11.429
733.16	7.625
733.48	8.841
733.80	11.421
734.11	12.536
734.43	8.378
734.74	13.671
735.06	6.784
735.37	12.703
735.69	10.811
736.00	12.994
736.32	12.399
736.63	10.833
736.95	11.207
737.26	15.455
737.58	9.394
737.89	10.882
738.21	8.257
738.52	8.197
738.83	11.945
739.15	12.411
739.46	14.626
739.78	12.577
740.09	9.456
740.41	13.120
740.72	10.667
741.04	12.621
741.35	9.123
741.66	10.980
741.98	13.115
742.29	10.879
742.61	13.158
742.92	8.077
743.23	13.357
743.55	11.240
743.86	12.400
744.18	7.025
744.49	9.283
744.80	10.700
745.12	12.658
745.43	17.480
745.74	6.897
746.06	14.831
746.37	10.549
746.68	14.634
747.00	14.583
747.31	9.442
747.62	12.308
747.94	10.121
748.25	10.442
748.56	11.020
748.88	11.111
749.19	15.517
749.50	9.957
749.82	14.859
750.13	11.744
750.44	8.000
750.75	10.462
751.07	10.154
751.38	10.095
751.69	10.543
752.01	9.709
752.32	10.131
752.63	11.905
752.94	12.111
753.26	8.922
753.57	10.741
753.88	7.491
754.19	11.897
754.51	9.325
754.82	12.862
755.13	15.410
755.44	8.874
755.75	8.553
756.07	12.836
756.38	9.748
756.69	11.446
757.00	6.925
757.31	7.650
757.63	7.928
757.94	10.798
758.25	10.835
758.56	10.458
758.87	13.409
759.18	8.533
759.50	10.198
759.81	12.045
760.12	9.434
760.43	9.896
760.74	10.099
761.05	10.500
761.36	6.265
761.67	8.629
761.99	8.649
762.30	7.317
762.61	7.591
762.92	8.209
763.23	14.981
763.54	11.871
763.85	6.873
764.16	10.101
764.47	9.507
764.78	11.182
765.10	10.850
765.41	10.256
765.72	6.614
766.03	7.627
766.34	9.718
766.65	8.014
766.96	11.952
767.27	9.217
767.58	9.950
767.89	14.904
768.20	11.268
768.51	11.574
768.82	10.040
769.13	8.333
769.44	3.462
769.75	9.025
770.06	12.308
770.37	12.205
770.68	6.383
770.99	2.834
771.30	13.704
771.61	10.266
771.92	8.148
772.23	11.741
772.54	4.630
772.85	11.060
773.16	14.286
773.47	10.053
773.78	3.243
774.09	17.045
774.39	18.500
774.70	7.650
775.01	10.366
775.32	7.647
775.63	11.656
775.94	6.369
776.25	10.323
776.56	10.256
776.87	10.204
777.18	12.414
777.48	8.392
777.79	8.108
778.10	0.735
778.41	8.333
778.72	7.586
779.03	3.704
779.34	8.485
779.65	5.699
779.95	16.111
780.26	10.227
780.57	6.452
780.88	17.391
781.19	14.194
781.50	15.882
781.80	11.828
782.11	12.169
782.42	10.101
782.73	7.784
783.04	17.877
783.34	5.455
783.65	5.229
783.96	6.211
784.27	7.738
784.57	5.298
784.88	9.286
785.19	8.661
785.50	11.811
785.81	6.015
786.11	6.154
786.42	5.755
786.73	10.072
787.04	15.789
787.34	11.475
787.65	7.200
787.96	5.970
788.26	16.084
788.57	14.685
788.88	13.158
789.19	11.765
789.49	15.068
789.80	10.638
790.11	6.299
790.41	10.938
790.72	3.390
791.03	2.913
791.33	24.348
791.64	20.175
791.95	8.036
792.25	9.524
792.56	8.929
792.87	11.458
793.17	7.143
793.48	6.250
793.79	4.819
794.09	10.092
794.40	4.587
794.70	8.163
795.01	9.091
795.32	6.164
795.62	9.859
795.93	2.273
796.23	6.557
796.54	1.786
796.85	8.511
797.15	9.783
797.46	2.740
797.76	3.750
798.07	9.783
798.37	-4.124
798.68	10.390
798.99	4.598
799.29	11.236
799.60	17.021
799.90	3.614
800.21	-3.077
800.51	-11.940
800.82	4.412
801.12	-9.589
801.43	-1.471
801.73	13.559
802.04	4.545
802.34	0.000
802.65	13.559
802.95	7.463
803.26	3.390
803.56	0.000
803.87	4.286
804.17	5.479
804.48	-29.825
804.78	6.944
805.09	-12.069
805.39	12.162
805.70	-11.268
806.00	10.976
806.30	3.614
806.61	-5.479
806.91	8.654
807.22	5.556
807.52	-3.448
807.83	16.667
808.13	16.867
808.43	5.618
808.74	12.500
809.04	-13.235
809.35	21.333
809.65	15.714
809.95	6.849
810.26	-1.754
810.56	5.172
810.86	5.882
811.17	-7.018
811.47	1.639
811.77	-11.111
812.08	1.695
812.38	-10.000
812.69	-5.172
812.99	-11.321
813.29	-30.769
813.59	6.000
813.90	0.000
814.20	1.818
814.50	5.634
814.81	3.846
815.11	6.557
815.41	1.493
815.72	8.621
816.02	7.143
816.32	2.222
816.62	-2.273
816.93	4.444
817.23	18.519
817.53	6.383
817.84	28.571
818.14	52.941
818.44	-2.041
818.74	26.667
819.04	-30.769
819.35	-14.286
819.65	-38.462
819.95	13.208
820.25	17.778
820.56	7.143
820.86	-9.375
821.16	0.000
821.46	-6.977
821.76	-20.000
822.07	-10.714
822.37	-6.522
822.67	4.255
822.97	-24.324
823.27	-30.000
823.57	14.286
823.88	-2.222
824.18	40.000
824.48	0.000
824.78	-4.000
825.08	0.000
825.38	13.333
825.69	23.404
825.99	11.111
826.29	-31.429
826.59	-5.128
826.89	-4.651
827.19	10.000
827.49	14.706
827.79	12.500
828.09	5.405
828.39	-10.000
828.70	2.439
829.00	-16.279
829.30	-32.143
829.60	20.588
829.90	10.870
830.20	-2.857
830.50	-24.138
830.80	-55.556
831.10	-19.231
831.40	-14.706
831.70	14.286
832.00	32.258
832.30	-135.294
832.60	-16.667
832.90	-53.846
833.20	-21.053
833.50	-10.000
833.80	-31.579
834.10	-66.667
834.40	22.222
834.70	12.500
835.00	0.000
835.30	20.588
835.60	3.333
835.90	-16.000
836.20	-18.182
836.50	-4.000
836.80	-9.091
837.10	0.000
837.40	11.111
837.70	-162.500
838.00	25.000
838.30	-17.391
838.60	31.034
838.90	-21.429
839.19	-26.087
839.49	-125.000
839.79	34.783
840.09	-62.500
840.39	-15.000
840.69	25.806
840.99	-21.429
841.29	-20.000
841.59	-26.316
841.88	5.128
842.18	-19.231
842.48	-10.000
842.78	-15.000
843.08	10.000
843.38	3.226
843.68	-50.000
843.97	44.118
844.27	-31.250
844.57	-10.526
844.87	-110.000
845.17	-33.333
845.47	66.667
845.76	0.000
846.06	44.444
846.36	-58.824
846.66	42.308
846.96	-26.667
847.25	-52.941
847.55	-17.391
847.85	5.000
848.15	-5.882
848.44	-118.182
848.74	14.286
849.04	29.167
849.34	-18.750
849.63	-8.696
849.93	250.000
850.23	-13.333
850.53	50.000
850.82	-18.182
851.12	36.364
851.42	-45.455
851.71	84.615
852.01	-30.000
852.31	-23.077
852.61	21.053
852.90	25.000
853.20	50.000
853.50	-77.778
853.79	0.000
854.09	-4.545
854.39	-133.333
854.68	-12.903
854.98	-23.077
855.28	-33.333
855.57	-35.714
855.87	-4.000
856.17	-27.273
856.46	25.926
856.76	-44.444
857.05	-26.087
857.35	16.667
857.65	0.000
857.94	42.857
858.24	40.741
858.53	34.783
858.83	11.765
859.13	-5.882
859.42	47.059
859.72	7.143
860.01	20.000
860.31	-66.667
860.60	-70.000
860.90	46.667
861.20	66.667
861.49	7.692
861.79	13.333
862.08	15.385
862.38	25.000
862.67	0.000
862.97	-18.750
863.26	-44.444
863.56	-20.000
863.85	-36.364
864.15	-16.667
864.44	-500.000
864.74	42.857
865.03	-43.750
865.33	-150.000
865.62	-9.677
865.92	0.000
866.21	8.696
866.51	-42.857
866.80	-40.000
867.10	8.333
867.39	-16.667
867.69	1700.000
867.98	-114.286
868.27	-29.412
868.57	-800.000
868.86	0.000
869.16	-28.571
869.45	33.333
869.75	-18.182
870.04	-14.286
870.33	25.000
870.63	-185.714
870.92	-150.000
871.22	-25.000
871.51	18.182
871.80	-400.000
872.10	-400.000
>>>>>End Processed Spectral Data<<<<<
