SpectraSuite Data File
++++++++++++++++++++++++++++++++++++
Date: Thu May 14 16:23:38 PDT 2015
User: schluterlab
Dark Spectrum Present: Yes
Reference Spectrum Present: Yes
Number of Sampled Component Spectra: 1
Spectrometers: USB2E3373
Integration Time (usec): 3000 (USB2E3373)
Spectra Averaged: 3 (USB2E3373)
Boxcar Smoothing: 0 (USB2E3373)
Correct for Electrical Dark: No (USB2E3373)
Strobe/Lamp Enabled: No (USB2E3373)
Correct for Detector Non-linearity: No (USB2E3373)
Correct for Stray Light: No (USB2E3373)
Number of Pixels in Processed Spectrum: 2048
>>>>>Begin Processed Spectral Data<<<<<
178.53	0.000
178.91	-28.571
179.29	-1500.000
179.67	-300.000
180.04	157.143
180.42	-0.000
180.80	140.000
181.18	-100.000
181.56	-300.000
181.94	-75.000
182.31	125.000
182.69	266.667
183.07	-50.000
183.45	150.000
183.83	0.000
184.20	-133.333
184.58	100.000
184.96	-200.000
185.34	-122.222
185.72	-20.000
186.09	133.333
186.47	650.000
186.85	360.000
187.23	-122.222
187.61	-1400.000
187.98	-0.000
188.36	100.000
188.74	-175.000
189.12	66.667
189.49	18.750
189.87	-25.000
190.25	55.556
190.63	-60.000
191.00	-44.444
191.38	0.000
191.76	-350.000
192.14	-83.333
192.51	750.000
192.89	16.667
193.27	0.000
193.65	42.857
194.02	-600.000
194.40	128.571
194.78	57.143
195.15	0.000
195.53	-18.182
195.91	0.000
196.29	-125.000
196.66	30.769
197.04	-100.000
197.42	-57.143
197.79	50.000
198.17	-12.500
198.55	-114.286
198.92	-44.444
199.30	25.000
199.68	-72.727
200.05	21.429
200.43	-250.000
200.81	157.143
201.18	0.000
201.56	100.000
201.94	0.000
202.31	300.000
202.69	-122.222
203.07	-0.000
203.44	22.222
203.82	-25.000
204.19	50.000
204.57	-150.000
204.95	-37.500
205.32	-1100.000
205.70	-175.000
206.08	-150.000
206.45	-66.667
206.83	20.000
207.20	-100.000
207.58	-180.000
207.96	-150.000
208.33	66.667
208.71	8.333
209.08	116.667
209.46	0.000
209.84	200.000
210.21	900.000
210.59	400.000
210.96	166.667
211.34	75.000
211.71	-62.500
212.09	-200.000
212.46	0.000
212.84	1000.000
213.22	-280.000
213.59	25.000
213.97	20.000
214.34	-66.667
214.72	150.000
215.09	50.000
215.47	0.000
215.84	42.857
216.22	50.000
216.59	-120.000
216.97	-20.000
217.34	0.000
217.72	25.000
218.09	-75.000
218.47	-75.000
218.84	0.000
219.22	60.000
219.59	-35.294
219.97	55.000
220.34	-150.000
220.72	-77.778
221.09	84.615
221.47	66.667
221.84	-60.000
222.22	-128.571
222.59	0.000
222.97	-50.000
223.34	-180.000
223.72	-700.000
224.09	-50.000
224.46	-325.000
224.84	-40.000
225.21	-185.714
225.59	-75.000
225.96	-300.000
226.34	-11.538
226.71	300.000
227.08	-200.000
227.46	26.667
227.83	25.000
228.21	-5.263
228.58	150.000
228.95	650.000
229.33	25.000
229.70	-30.000
230.08	-10.526
230.45	50.000
230.82	133.333
231.20	-28.571
231.57	16.667
231.95	-9.091
232.32	36.364
232.69	35.000
233.07	0.000
233.44	-5.882
233.81	-40.000
234.19	-5.556
234.56	50.000
234.93	13.793
235.31	26.316
235.68	-22.222
236.05	-5.000
236.43	34.615
236.80	72.000
237.17	48.148
237.55	42.424
237.92	-60.000
238.29	12.903
238.67	25.000
239.04	33.333
239.41	21.429
239.79	30.435
240.16	35.185
240.53	41.304
240.91	33.333
241.28	37.705
241.65	44.776
242.02	40.541
242.40	36.923
242.77	29.333
243.14	30.488
243.51	31.579
243.89	17.949
244.26	34.653
244.63	42.157
245.00	36.449
245.38	38.596
245.75	28.319
246.12	38.095
246.49	37.984
246.87	31.429
247.24	39.073
247.61	38.816
247.98	38.926
248.36	40.741
248.73	30.061
249.10	36.612
249.47	44.279
249.84	43.979
250.22	38.342
250.59	41.111
250.96	40.455
251.33	35.714
251.70	44.017
252.08	37.917
252.45	38.525
252.82	37.603
253.19	41.797
253.56	40.304
253.94	40.385
254.31	42.803
254.68	44.056
255.05	40.391
255.42	38.776
255.79	38.835
256.16	40.397
256.54	43.046
256.91	40.328
257.28	40.984
257.65	35.987
258.02	36.283
258.39	40.456
258.76	47.401
259.14	42.816
259.51	41.499
259.88	40.227
260.25	38.889
260.62	41.644
260.99	40.164
261.36	44.504
261.73	42.706
262.10	43.407
262.47	43.164
262.85	44.444
263.22	37.662
263.59	37.368
263.96	42.967
264.33	39.898
264.70	43.951
265.07	43.675
265.44	41.723
265.81	43.287
266.18	44.444
266.55	41.071
266.92	41.686
267.29	42.451
267.66	42.794
268.03	42.795
268.40	39.040
268.77	43.052
269.14	39.648
269.51	43.421
269.88	41.189
270.25	39.034
270.62	42.194
270.99	43.838
271.36	40.990
271.73	42.240
272.10	43.687
272.47	45.090
272.84	40.562
273.21	41.082
273.58	43.952
273.95	37.885
274.32	38.973
274.69	42.940
275.06	42.125
275.43	37.153
275.80	40.212
276.17	38.519
276.54	38.806
276.91	38.462
277.28	39.602
277.65	40.575
278.02	40.625
278.39	38.768
278.76	40.949
279.13	40.603
279.50	39.691
279.87	40.072
280.23	37.852
280.60	40.000
280.97	39.967
281.34	41.256
281.71	39.763
282.08	36.047
282.45	36.498
282.82	40.345
283.19	38.772
283.56	40.000
283.92	41.141
284.29	40.600
284.66	40.394
285.03	36.859
285.40	39.258
285.77	39.628
286.14	39.389
286.51	39.269
286.87	38.231
287.24	38.253
287.61	37.967
287.98	36.405
288.35	35.799
288.72	36.391
289.08	36.896
289.45	36.095
289.82	34.639
290.19	34.770
290.56	36.620
290.93	35.949
291.29	36.501
291.66	34.298
292.03	34.328
292.40	34.558
292.77	33.558
293.13	32.206
293.50	32.063
293.87	34.362
294.24	35.733
294.60	32.996
294.97	32.617
295.34	33.419
295.71	31.021
296.08	30.103
296.44	32.475
296.81	33.009
297.18	31.880
297.55	31.604
297.91	31.673
298.28	30.569
298.65	30.083
299.02	29.044
299.38	29.977
299.75	28.621
300.12	30.208
300.48	30.300
300.85	30.484
301.22	30.984
301.59	29.110
301.95	28.588
302.32	30.000
302.69	29.573
303.05	27.856
303.42	29.268
303.79	27.917
304.15	27.971
304.52	29.598
304.89	29.110
305.25	27.433
305.62	28.109
305.99	29.381
306.35	27.823
306.72	29.473
307.09	26.599
307.45	28.364
307.82	29.263
308.19	26.942
308.55	27.869
308.92	29.017
309.29	27.586
309.65	27.583
310.02	27.426
310.38	27.461
310.75	27.670
311.12	30.681
311.48	27.761
311.85	27.350
312.22	27.609
312.58	27.700
312.95	26.960
313.31	26.197
313.68	28.480
314.05	27.371
314.41	28.506
314.78	27.611
315.14	28.221
315.51	28.624
315.87	28.173
316.24	28.402
316.61	26.909
316.97	28.145
317.34	27.690
317.70	27.948
318.07	27.072
318.43	28.486
318.80	28.595
319.16	28.841
319.53	28.106
319.89	28.747
320.26	28.203
320.62	28.103
320.99	30.471
321.35	30.129
321.72	30.884
322.08	29.757
322.45	29.630
322.81	31.318
323.18	30.619
323.54	31.983
323.91	32.295
324.27	32.444
324.64	33.585
325.00	32.753
325.37	33.170
325.73	33.471
326.10	33.901
326.46	35.261
326.83	35.548
327.19	35.984
327.56	37.628
327.92	36.585
328.29	37.016
328.65	36.348
329.01	37.394
329.38	38.248
329.74	39.897
330.11	39.983
330.47	41.196
330.84	39.104
331.20	41.417
331.56	40.641
331.93	40.000
332.29	42.119
332.66	41.944
333.02	40.285
333.38	40.940
333.75	42.340
334.11	42.535
334.48	43.069
334.84	42.991
335.20	41.310
335.57	41.990
335.93	41.983
336.29	42.180
336.66	42.220
337.02	44.147
337.38	43.452
337.75	42.893
338.11	43.987
338.47	44.003
338.84	43.909
339.20	42.965
339.56	43.328
339.93	42.857
340.29	42.593
340.65	43.877
341.02	44.693
341.38	43.816
341.74	44.310
342.11	44.167
342.47	43.368
342.83	45.169
343.20	44.072
343.56	44.346
343.92	44.756
344.28	45.156
344.65	45.581
345.01	43.916
345.37	44.090
345.73	43.180
346.10	45.086
346.46	45.095
346.82	44.569
347.19	44.309
347.55	44.385
347.91	43.685
348.27	44.613
348.63	43.717
349.00	43.251
349.36	45.130
349.72	45.759
350.08	45.394
350.45	45.475
350.81	45.023
351.17	44.436
351.53	46.323
351.89	45.406
352.26	44.776
352.62	45.597
352.98	44.580
353.34	44.735
353.70	46.379
354.07	44.337
354.43	45.330
354.79	44.951
355.15	45.033
355.51	46.345
355.87	45.924
356.24	47.224
356.60	44.050
356.96	47.146
357.32	45.576
357.68	46.559
358.04	44.760
358.40	45.224
358.77	45.322
359.13	46.086
359.49	44.461
359.85	46.120
360.21	44.907
360.57	44.795
360.93	45.557
361.29	46.947
361.66	45.764
362.02	45.859
362.38	46.311
362.74	46.718
363.10	46.355
363.46	47.230
363.82	45.810
364.18	46.939
364.54	47.372
364.90	46.555
365.26	47.379
365.62	46.933
365.98	46.018
366.35	46.443
366.71	47.007
367.07	47.294
367.43	47.735
367.79	47.711
368.15	48.361
368.51	47.361
368.87	47.747
369.23	47.667
369.59	48.224
369.95	47.532
370.31	46.523
370.67	48.349
371.03	47.784
371.39	47.347
371.75	48.900
372.11	48.442
372.47	45.972
372.83	47.971
373.19	48.366
373.55	46.816
373.91	47.103
374.27	46.960
374.63	48.850
374.99	48.077
375.35	48.571
375.71	48.581
376.07	47.515
376.42	49.370
376.78	48.664
377.14	49.407
377.50	49.968
377.86	48.768
378.22	50.060
378.58	50.059
378.94	48.944
379.30	48.506
379.66	48.854
380.02	49.567
380.38	49.712
380.74	49.014
381.09	49.826
381.45	50.227
381.81	50.761
382.17	49.644
382.53	49.708
382.89	50.282
383.25	50.703
383.61	51.562
383.97	50.707
384.32	52.033
384.68	49.362
385.04	51.359
385.40	50.324
385.76	52.521
386.12	51.047
386.48	51.588
386.83	52.682
387.19	50.811
387.55	51.585
387.91	51.598
388.27	51.328
388.62	51.833
388.98	50.536
389.34	51.031
389.70	51.249
390.06	51.983
390.42	51.566
390.77	52.077
391.13	52.347
391.49	52.415
391.85	53.030
392.20	52.195
392.56	51.506
392.92	52.399
393.28	52.128
393.64	51.508
393.99	52.760
394.35	53.972
394.71	52.216
395.07	52.575
395.42	53.741
395.78	53.382
396.14	52.763
396.50	52.494
396.85	51.938
397.21	53.491
397.57	52.768
397.92	53.093
398.28	52.797
398.64	51.259
399.00	52.513
399.35	52.408
399.71	53.315
400.07	54.071
400.42	53.434
400.78	54.225
401.14	53.785
401.49	54.122
401.85	53.547
402.21	54.867
402.57	54.519
402.92	54.965
403.28	54.625
403.63	54.236
403.99	54.632
404.35	54.065
404.70	54.448
405.06	53.098
405.42	54.391
405.77	54.962
406.13	55.754
406.49	54.561
406.84	54.626
407.20	53.270
407.55	54.634
407.91	55.123
408.27	54.240
408.62	54.334
408.98	54.150
409.34	54.545
409.69	54.883
410.05	54.162
410.40	56.090
410.76	54.683
411.11	55.114
411.47	54.914
411.83	56.379
412.18	55.000
412.54	55.542
412.89	55.704
413.25	56.038
413.60	55.658
413.96	55.303
414.31	53.881
414.67	56.231
415.03	54.831
415.38	56.557
415.74	55.651
416.09	56.323
416.45	54.790
416.80	54.896
417.16	55.683
417.51	56.289
417.87	57.143
418.22	56.287
418.58	55.948
418.93	55.297
419.29	58.138
419.64	55.282
420.00	57.270
420.35	56.485
420.71	56.117
421.06	56.009
421.42	56.651
421.77	56.166
422.12	55.497
422.48	56.272
422.83	57.612
423.19	56.764
423.54	59.347
423.90	57.758
424.25	57.813
424.61	57.750
424.96	57.716
425.31	57.856
425.67	57.971
426.02	59.103
426.38	58.898
426.73	57.143
427.09	58.997
427.44	57.728
427.79	57.822
428.15	57.135
428.50	58.539
428.85	57.463
429.21	58.245
429.56	56.910
429.92	58.231
430.27	58.602
430.62	58.622
430.98	58.829
431.33	57.674
431.68	58.621
432.04	59.116
432.39	58.650
432.74	58.904
433.10	58.464
433.45	59.309
433.80	59.013
434.16	58.419
434.51	60.277
434.86	61.075
435.22	60.361
435.57	60.672
435.92	60.879
436.28	60.808
436.63	61.496
436.98	58.132
437.34	60.316
437.69	59.714
438.04	59.439
438.39	60.770
438.75	59.325
439.10	59.989
439.45	59.530
439.81	59.322
440.16	60.429
440.51	61.037
440.86	59.311
441.22	60.289
441.57	61.164
441.92	59.651
442.27	61.667
442.63	60.407
442.98	60.032
443.33	60.705
443.68	60.753
444.03	62.041
444.39	61.674
444.74	61.613
445.09	59.706
445.44	61.591
445.79	61.446
446.15	61.048
446.50	61.395
446.85	61.527
447.20	60.348
447.55	61.663
447.91	62.356
448.26	61.311
448.61	61.637
448.96	63.412
449.31	61.082
449.66	60.784
450.02	61.234
450.37	61.694
450.72	62.648
451.07	61.162
451.42	61.814
451.77	61.923
452.12	62.980
452.47	61.438
452.83	63.964
453.18	61.821
453.53	62.895
453.88	62.176
454.23	61.582
454.58	62.681
454.93	64.017
455.28	62.974
455.63	62.308
455.98	62.570
456.34	62.662
456.69	62.140
457.04	62.352
457.39	62.528
457.74	63.143
458.09	62.164
458.44	62.177
458.79	60.753
459.14	62.139
459.49	63.045
459.84	63.169
460.19	62.632
460.54	62.748
460.89	63.049
461.24	62.471
461.59	62.258
461.94	61.266
462.29	63.942
462.64	62.040
462.99	63.402
463.34	64.439
463.69	61.665
464.04	62.368
464.39	61.435
464.74	61.174
465.09	62.687
465.44	62.500
465.79	63.300
466.14	61.751
466.49	62.421
466.84	62.534
467.19	63.006
467.54	61.340
467.89	62.126
468.24	61.773
468.59	62.073
468.94	62.413
469.29	60.948
469.64	63.064
469.99	62.524
470.34	62.562
470.68	64.252
471.03	62.868
471.38	65.271
471.73	64.044
472.08	63.959
472.43	63.516
472.78	64.232
473.13	65.234
473.48	63.384
473.83	64.306
474.17	62.720
474.52	64.402
474.87	62.957
475.22	63.493
475.57	62.876
475.92	63.265
476.27	62.513
476.61	61.890
476.96	64.390
477.31	63.564
477.66	65.950
478.01	62.532
478.36	61.964
478.70	63.842
479.05	64.162
479.40	64.610
479.75	63.353
480.10	63.240
480.45	63.674
480.79	64.172
481.14	63.695
481.49	63.607
481.84	63.751
482.19	63.226
482.53	64.889
482.88	63.846
483.23	64.429
483.58	63.581
483.92	62.988
484.27	63.590
484.62	63.696
484.97	62.403
485.31	62.020
485.66	58.817
486.01	57.599
486.36	59.069
486.70	61.079
487.05	63.114
487.40	64.476
487.75	62.443
488.09	63.567
488.44	63.009
488.79	63.035
489.13	64.012
489.48	63.417
489.83	63.702
490.17	63.345
490.52	62.972
490.87	63.494
491.22	63.908
491.56	63.823
491.91	62.887
492.26	63.998
492.60	63.227
492.95	64.107
493.30	64.769
493.64	64.696
493.99	63.947
494.34	63.937
494.68	63.597
495.03	63.612
495.37	63.870
495.72	64.535
496.07	64.987
496.41	63.664
496.76	64.053
497.11	63.737
497.45	64.998
497.80	63.883
498.14	64.172
498.49	64.292
498.84	64.305
499.18	64.462
499.53	63.139
499.87	64.484
500.22	64.248
500.56	64.238
500.91	65.904
501.26	64.864
501.60	63.632
501.95	63.873
502.29	64.414
502.64	64.976
502.98	63.072
503.33	64.536
503.67	64.021
504.02	64.142
504.36	65.282
504.71	65.825
505.06	63.847
505.40	62.843
505.75	64.162
506.09	65.055
506.44	65.692
506.78	65.734
507.13	64.684
507.47	65.893
507.82	65.483
508.16	65.727
508.51	64.698
508.85	65.564
509.19	65.324
509.54	66.475
509.88	65.954
510.23	65.372
510.57	66.312
510.92	67.054
511.26	65.464
511.61	64.172
511.95	65.593
512.30	65.485
512.64	65.817
512.98	66.433
513.33	67.792
513.67	66.089
514.02	67.348
514.36	67.724
514.70	67.917
515.05	68.770
515.39	67.507
515.74	68.505
516.08	67.987
516.42	68.289
516.77	68.612
517.11	67.045
517.46	68.717
517.80	68.466
518.14	69.369
518.49	67.245
518.83	67.642
519.17	68.013
519.52	68.291
519.86	68.479
520.20	69.116
520.55	68.018
520.89	69.426
521.23	68.900
521.58	69.887
521.92	68.952
522.26	69.645
522.61	69.907
522.95	68.916
523.29	70.345
523.64	69.451
523.98	70.451
524.32	71.691
524.66	70.404
525.01	68.630
525.35	70.247
525.69	69.316
526.04	68.370
526.38	69.483
526.72	68.800
527.06	69.853
527.41	71.020
527.75	70.843
528.09	70.720
528.43	70.101
528.78	70.405
529.12	70.356
529.46	68.128
529.80	69.394
530.15	70.319
530.49	71.412
530.83	71.015
531.17	70.430
531.51	70.457
531.86	71.034
532.20	70.427
532.54	68.941
532.88	69.515
533.22	69.711
533.57	69.763
533.91	68.687
534.25	68.683
534.59	70.345
534.93	68.534
535.27	68.789
535.62	70.438
535.96	70.366
536.30	70.153
536.64	70.631
536.98	71.771
537.32	69.877
537.66	71.054
538.01	68.157
538.35	69.854
538.69	69.531
539.03	70.448
539.37	70.024
539.71	70.270
540.05	69.365
540.39	69.682
540.73	70.249
541.07	70.815
541.42	68.576
541.76	68.802
542.10	70.205
542.44	68.697
542.78	70.012
543.12	68.355
543.46	68.376
543.80	67.686
544.14	69.360
544.48	69.326
544.82	69.060
545.16	68.098
545.50	69.862
545.84	68.647
546.18	71.111
546.52	69.299
546.86	68.491
547.20	69.975
547.54	69.913
547.88	68.776
548.22	68.246
548.56	69.280
548.90	69.373
549.24	68.875
549.58	69.211
549.92	69.962
550.26	69.773
550.60	69.049
550.94	70.181
551.28	68.647
551.62	70.755
551.96	69.709
552.30	70.746
552.64	68.886
552.98	70.243
553.32	70.354
553.66	69.518
554.00	68.979
554.34	69.048
554.68	68.496
555.02	69.974
555.36	70.677
555.69	67.841
556.03	67.970
556.37	69.024
556.71	70.323
557.05	68.754
557.39	71.334
557.73	69.683
558.07	69.536
558.41	68.771
558.75	70.521
559.08	69.937
559.42	68.861
559.76	67.775
560.10	69.591
560.44	68.799
560.78	69.438
561.12	68.719
561.45	68.796
561.79	67.827
562.13	68.022
562.47	68.126
562.81	70.380
563.15	68.056
563.48	68.552
563.82	67.352
564.16	66.747
564.50	67.402
564.84	67.552
565.17	68.412
565.51	67.031
565.85	66.627
566.19	66.187
566.52	67.642
566.86	66.723
567.20	66.667
567.54	66.755
567.88	66.412
568.21	67.490
568.55	66.331
568.89	65.411
569.23	63.878
569.56	64.009
569.90	63.507
570.24	62.934
570.57	62.797
570.91	61.482
571.25	61.701
571.59	61.369
571.92	61.061
572.26	61.196
572.60	60.333
572.93	61.202
573.27	61.534
573.61	60.641
573.95	60.087
574.28	59.893
574.62	60.073
574.96	59.087
575.29	58.978
575.63	59.044
575.97	59.952
576.30	59.610
576.64	60.033
576.98	59.818
577.31	59.461
577.65	59.946
577.98	58.848
578.32	58.448
578.66	58.519
578.99	58.816
579.33	59.426
579.67	59.180
580.00	58.642
580.34	58.988
580.67	59.179
581.01	58.957
581.35	58.309
581.68	57.728
582.02	56.906
582.35	58.089
582.69	58.536
583.02	58.681
583.36	58.780
583.70	59.486
584.03	59.155
584.37	59.590
584.70	59.022
585.04	58.405
585.37	58.131
585.71	57.476
586.04	58.256
586.38	58.380
586.72	58.235
587.05	58.557
587.39	59.561
587.72	59.354
588.06	58.245
588.39	58.551
588.73	58.915
589.06	60.186
589.40	60.080
589.73	60.186
590.07	59.251
590.40	60.345
590.73	61.046
591.07	60.797
591.40	60.809
591.74	60.970
592.07	61.389
592.41	60.883
592.74	59.496
593.08	58.917
593.41	58.530
593.75	58.362
594.08	59.346
594.41	59.071
594.75	58.452
595.08	59.892
595.42	59.188
595.75	58.799
596.09	59.607
596.42	60.014
596.75	59.514
597.09	60.404
597.42	59.039
597.75	58.879
598.09	60.159
598.42	59.067
598.76	58.502
599.09	58.918
599.42	57.761
599.76	57.808
600.09	58.425
600.42	58.258
600.76	57.464
601.09	58.447
601.42	57.261
601.76	58.724
602.09	58.506
602.42	58.015
602.76	59.520
603.09	58.150
603.42	57.912
603.76	58.175
604.09	58.659
604.42	58.128
604.76	58.333
605.09	58.197
605.42	57.695
605.75	58.115
606.09	57.969
606.42	56.658
606.75	56.897
607.09	56.759
607.42	57.457
607.75	58.148
608.08	56.827
608.42	57.356
608.75	58.209
609.08	57.937
609.41	57.697
609.75	58.929
610.08	58.927
610.41	57.307
610.74	56.723
611.07	58.703
611.41	58.027
611.74	58.476
612.07	59.000
612.40	58.603
612.73	58.875
613.07	58.435
613.40	58.325
613.73	58.642
614.06	58.292
614.39	57.386
614.72	57.739
615.06	57.411
615.39	57.661
615.72	58.104
616.05	58.232
616.38	59.082
616.71	58.516
617.05	57.242
617.38	58.052
617.71	57.667
618.04	58.608
618.37	59.126
618.70	60.747
619.03	58.901
619.36	59.988
619.69	59.705
620.03	59.573
620.36	59.448
620.69	59.223
621.02	60.367
621.35	62.264
621.68	63.341
622.01	59.715
622.34	58.787
622.67	60.687
623.00	59.177
623.33	59.456
623.66	61.089
623.99	59.315
624.32	59.714
624.65	57.465
624.99	59.688
625.32	60.353
625.65	60.081
625.98	58.508
626.31	60.099
626.64	61.026
626.97	60.990
627.30	61.200
627.63	60.540
627.96	60.285
628.29	60.156
628.62	61.041
628.95	62.927
629.28	61.172
629.61	61.869
629.94	62.343
630.26	60.847
630.59	62.090
630.92	61.558
631.25	62.970
631.58	63.371
631.91	63.543
632.24	63.497
632.57	63.093
632.90	64.092
633.23	63.061
633.56	63.061
633.89	63.326
634.22	63.825
634.55	63.466
634.88	63.745
635.20	65.124
635.53	67.006
635.86	62.405
636.19	62.460
636.52	62.869
636.85	60.572
637.18	60.395
637.51	61.398
637.83	62.126
638.16	64.516
638.49	60.681
638.82	63.021
639.15	62.772
639.48	64.550
639.81	62.818
640.13	64.075
640.46	62.303
640.79	62.377
641.12	63.727
641.45	64.115
641.77	64.313
642.10	64.436
642.43	65.824
642.76	65.041
643.09	63.562
643.41	65.546
643.74	64.690
644.07	67.034
644.40	64.215
644.73	64.877
645.05	64.317
645.38	64.748
645.71	63.490
646.04	64.849
646.36	63.650
646.69	66.411
647.02	67.890
647.35	64.885
647.67	66.506
648.00	66.561
648.33	64.114
648.66	62.197
648.98	59.592
649.31	63.194
649.64	62.815
649.96	60.477
650.29	60.362
650.62	60.255
650.94	63.514
651.27	61.377
651.60	61.257
651.92	64.134
652.25	63.676
652.58	60.660
652.90	61.919
653.23	62.958
653.56	62.482
653.88	61.938
654.21	61.268
654.54	60.405
654.86	61.898
655.19	57.591
655.52	55.387
655.84	48.488
656.17	55.713
656.49	77.769
656.82	86.120
657.15	67.841
657.47	52.447
657.80	39.542
658.13	31.007
658.45	41.535
658.78	51.514
659.10	50.445
659.43	50.688
659.75	52.088
660.08	50.140
660.41	52.936
660.73	57.925
661.06	59.912
661.38	60.925
661.71	63.621
662.03	64.198
662.36	64.758
662.68	64.916
663.01	63.186
663.33	64.650
663.66	63.919
663.98	65.192
664.31	65.854
664.63	62.620
664.96	63.339
665.28	59.710
665.61	62.413
665.93	61.250
666.26	61.290
666.58	61.624
666.91	64.486
667.23	62.095
667.56	63.905
667.88	66.000
668.21	62.305
668.53	61.390
668.86	59.921
669.18	64.155
669.50	65.010
669.83	62.800
670.15	62.598
670.48	62.500
670.80	60.803
671.13	60.491
671.45	61.811
671.77	62.524
672.10	59.000
672.42	57.282
672.75	57.757
673.07	56.269
673.39	55.624
673.72	58.221
674.04	61.207
674.37	62.433
674.69	63.668
675.01	61.333
675.34	58.969
675.66	60.674
675.98	61.007
676.31	60.547
676.63	62.928
676.95	59.962
677.28	61.492
677.60	58.661
677.92	59.117
678.25	57.038
678.57	58.363
678.89	55.631
679.22	55.052
679.54	57.778
679.86	57.119
680.18	57.546
680.51	57.547
680.83	55.483
681.15	59.310
681.48	60.622
681.80	57.686
682.12	56.818
682.44	57.596
682.77	58.865
683.09	57.576
683.41	61.434
683.73	55.977
684.06	56.273
684.38	56.708
684.70	59.425
685.02	57.659
685.34	54.908
685.67	53.312
685.99	51.994
686.31	50.436
686.63	55.134
686.96	53.155
687.28	53.094
687.60	55.051
687.92	50.322
688.24	55.593
688.56	53.793
688.89	55.535
689.21	57.926
689.53	55.686
689.85	56.213
690.17	55.000
690.49	57.371
690.82	56.040
691.14	54.858
691.46	54.493
691.78	57.827
692.10	54.679
692.42	51.250
692.74	53.176
693.06	52.593
693.39	53.131
693.71	54.135
694.03	55.204
694.35	54.667
694.67	57.700
694.99	56.596
695.31	55.850
695.63	56.277
695.95	54.244
696.27	59.121
696.59	57.522
696.91	53.378
697.23	57.143
697.56	52.138
697.88	54.735
698.20	53.672
698.52	54.735
698.84	57.588
699.16	53.469
699.48	50.837
699.80	55.957
700.12	56.114
700.44	55.300
700.76	56.057
701.08	55.206
701.40	56.995
701.72	54.975
702.04	54.813
702.36	54.974
702.68	55.257
703.00	52.567
703.32	57.389
703.64	55.990
703.96	55.131
704.28	53.808
704.60	57.468
704.91	54.337
705.23	58.082
705.55	55.153
705.87	58.182
706.19	60.123
706.51	56.024
706.83	57.925
707.15	53.968
707.47	51.168
707.79	50.437
708.11	48.093
708.43	51.613
708.74	49.330
709.06	51.508
709.38	56.573
709.70	55.087
710.02	56.848
710.34	56.117
710.66	54.469
710.98	50.546
711.29	55.495
711.61	52.260
711.93	53.276
712.25	51.892
712.57	59.882
712.89	54.706
713.20	50.296
713.52	53.179
713.84	52.089
714.16	51.842
714.48	49.227
714.80	52.727
715.11	52.756
715.43	49.867
715.75	51.316
716.07	53.039
716.39	53.552
716.70	52.410
717.02	56.393
717.34	52.613
717.66	53.356
717.97	52.740
718.29	52.234
718.61	50.658
718.93	57.605
719.24	52.174
719.56	50.920
719.88	47.447
720.20	55.484
720.51	54.658
720.83	51.562
721.15	52.961
721.46	48.288
721.78	53.667
722.10	50.809
722.42	54.027
722.73	52.903
723.05	56.140
723.37	51.389
723.68	55.197
724.00	56.318
724.32	49.296
724.63	50.000
724.95	52.128
725.27	49.129
725.58	51.237
725.90	56.552
726.22	47.649
726.53	53.247
726.85	51.572
727.16	48.036
727.48	49.847
727.80	52.980
728.11	46.996
728.43	53.872
728.74	49.164
729.06	50.993
729.38	49.026
729.69	50.000
730.01	49.405
730.32	45.758
730.64	49.057
730.96	49.068
731.27	46.369
731.59	43.956
731.90	45.455
732.22	44.531
732.53	43.646
732.85	46.857
733.16	48.974
733.48	46.341
733.80	45.125
734.11	48.718
734.43	48.649
734.74	47.848
735.06	45.729
735.37	48.378
735.69	44.054
736.00	48.305
736.32	47.439
736.63	43.889
736.95	50.287
737.26	44.242
737.58	46.970
737.89	46.471
738.21	46.789
738.52	43.934
738.83	47.099
739.15	43.617
739.46	52.041
739.78	43.865
740.09	45.845
740.41	46.064
740.72	51.000
741.04	49.191
741.35	51.228
741.66	49.020
741.98	50.410
742.29	49.372
742.61	46.930
742.92	48.462
743.23	47.292
743.55	49.225
743.86	49.600
744.18	48.347
744.49	44.304
744.80	50.206
745.12	51.055
745.43	53.659
745.74	49.569
746.06	54.237
746.37	51.477
746.68	53.659
747.00	47.083
747.31	48.498
747.62	53.846
747.94	51.012
748.25	44.177
748.56	41.633
748.88	44.017
749.19	53.448
749.50	47.186
749.82	49.799
750.13	48.043
750.44	47.000
750.75	49.846
751.07	48.000
751.38	46.057
751.69	44.409
752.01	47.896
752.32	45.425
752.63	46.939
752.94	47.059
753.26	45.725
753.57	45.185
753.88	47.191
754.19	44.373
754.51	46.624
754.82	43.408
755.13	45.246
755.44	46.416
755.75	45.724
756.07	41.493
756.38	44.025
756.69	44.880
757.00	41.551
757.31	43.716
757.63	38.619
757.94	41.315
758.25	42.212
758.56	41.176
758.87	38.636
759.18	42.133
759.50	45.609
759.81	40.336
760.12	43.127
760.43	42.448
760.74	42.857
761.05	40.750
761.36	40.964
761.67	38.071
761.99	40.000
762.30	45.122
762.61	39.274
762.92	44.403
763.23	42.697
763.54	47.122
763.85	43.299
764.16	43.098
764.47	48.592
764.78	44.089
765.10	41.056
765.41	41.538
765.72	37.566
766.03	42.373
766.34	41.693
766.65	43.554
766.96	46.215
767.27	48.387
767.58	42.289
767.89	50.962
768.20	43.192
768.51	49.537
768.82	41.767
769.13	40.530
769.44	41.923
769.75	42.960
770.06	42.308
770.37	46.457
770.68	38.298
770.99	40.891
771.30	46.296
771.61	40.684
771.92	36.667
772.23	51.417
772.54	40.741
772.85	41.935
773.16	46.190
773.47	47.090
773.78	42.703
774.09	44.886
774.39	45.500
774.70	49.180
775.01	44.512
775.32	43.529
775.63	41.718
775.94	39.490
776.25	49.032
776.56	44.872
776.87	48.299
777.18	41.379
777.48	40.559
777.79	51.351
778.10	33.088
778.41	49.306
778.72	49.655
779.03	44.444
779.34	38.788
779.65	34.197
779.95	50.000
780.26	45.455
780.57	42.581
780.88	39.855
781.19	41.290
781.50	42.941
781.80	39.785
782.11	44.444
782.42	35.859
782.73	37.126
783.04	36.872
783.34	37.576
783.65	37.255
783.96	38.509
784.27	39.881
784.57	41.722
784.88	42.857
785.19	44.882
785.50	46.457
785.81	39.098
786.11	48.462
786.42	33.094
786.73	40.288
787.04	41.353
787.34	39.344
787.65	40.800
787.96	38.806
788.26	41.958
788.57	56.643
788.88	43.421
789.19	44.444
789.49	36.301
789.80	38.298
790.11	40.945
790.41	33.594
790.72	38.136
791.03	27.184
791.33	38.261
791.64	37.719
791.95	38.393
792.25	37.143
792.56	45.536
792.87	32.292
793.17	42.857
793.48	23.958
793.79	26.506
794.09	42.202
794.40	40.367
794.70	38.776
795.01	29.221
795.32	37.671
795.62	35.915
795.93	35.606
796.23	35.246
796.54	36.607
796.85	42.553
797.15	35.870
797.46	38.356
797.76	46.250
798.07	45.652
798.37	23.711
798.68	32.468
798.99	34.483
799.29	35.955
799.60	43.617
799.90	38.554
800.21	35.385
800.51	47.761
800.82	38.235
801.12	30.137
801.43	29.412
801.73	37.288
802.04	54.545
802.34	51.667
802.65	33.898
802.95	32.836
803.26	28.814
803.56	42.466
803.87	32.857
804.17	36.986
804.48	24.561
804.78	29.167
805.09	15.517
805.39	35.135
805.70	15.493
806.00	42.683
806.30	33.735
806.61	34.247
806.91	31.731
807.22	37.778
807.52	28.736
807.83	47.222
808.13	44.578
808.43	41.573
808.74	43.750
809.04	33.824
809.35	40.000
809.65	32.857
809.95	28.767
810.26	31.579
810.56	34.483
810.86	45.588
811.17	31.579
811.47	45.902
811.77	24.444
812.08	44.068
812.38	48.333
812.69	24.138
812.99	37.736
813.29	41.026
813.59	34.000
813.90	40.351
814.20	41.818
814.50	49.296
814.81	17.949
815.11	37.705
815.41	29.851
815.72	36.207
816.02	32.143
816.32	24.444
816.62	36.364
816.93	51.111
817.23	44.444
817.53	8.511
817.84	42.857
818.14	58.824
818.44	28.571
818.74	35.556
819.04	35.897
819.35	-5.714
819.65	-11.538
819.95	33.962
820.25	51.111
820.56	57.143
820.86	18.750
821.16	10.256
821.46	44.186
821.76	20.000
822.07	42.857
822.37	21.739
822.67	21.277
822.97	13.514
823.27	52.500
823.57	36.735
823.88	53.333
824.18	40.000
824.48	23.333
824.78	32.000
825.08	45.455
825.38	51.111
825.69	29.787
825.99	36.111
826.29	-2.857
826.59	35.897
826.89	16.279
827.19	32.000
827.49	61.765
827.79	41.667
828.09	59.459
828.39	13.333
828.70	19.512
829.00	13.953
829.30	21.429
829.60	38.235
829.90	30.435
830.20	-11.429
830.50	41.379
830.80	11.111
831.10	3.846
831.40	29.412
831.70	33.333
832.00	64.516
832.30	17.647
832.60	12.500
832.90	30.769
833.20	15.789
833.50	40.000
833.80	5.263
834.10	0.000
834.40	38.889
834.70	53.125
835.00	20.000
835.30	2.941
835.60	3.333
835.90	28.000
836.20	-22.727
836.50	0.000
836.80	30.303
837.10	37.037
837.40	48.148
837.70	12.500
838.00	21.429
838.30	0.000
838.60	27.586
838.90	85.714
839.19	-30.435
839.49	-41.667
839.79	8.696
840.09	31.250
840.39	15.000
840.69	32.258
840.99	10.714
841.29	0.000
841.59	21.053
841.88	5.128
842.18	23.077
842.48	50.000
842.78	30.000
843.08	30.000
843.38	45.161
843.68	-5.556
843.97	38.235
844.27	37.500
844.57	15.789
844.87	-60.000
845.17	0.000
845.47	33.333
845.76	14.286
846.06	-22.222
846.36	0.000
846.66	15.385
846.96	26.667
847.25	-5.882
847.55	26.087
847.85	5.000
848.15	52.941
848.44	-27.273
848.74	9.524
849.04	-12.500
849.34	-18.750
849.63	39.130
849.93	650.000
850.23	13.333
850.53	38.462
850.82	-36.364
851.12	45.455
851.42	-18.182
851.71	92.308
852.01	30.000
852.31	69.231
852.61	15.789
852.90	-58.333
853.20	-5.556
853.50	11.111
853.79	0.000
854.09	-36.364
854.39	-8.333
854.68	22.581
854.98	-3.846
855.28	33.333
855.57	-10.714
855.87	28.000
856.17	-27.273
856.46	3.704
856.76	33.333
857.05	-17.391
857.35	12.500
857.65	53.846
857.94	33.333
858.24	48.148
858.53	30.435
858.83	52.941
859.13	-23.529
859.42	23.529
859.72	21.429
860.01	-5.000
860.31	-55.556
860.60	10.000
860.90	46.667
861.20	5.556
861.49	84.615
861.79	20.000
862.08	-7.692
862.38	50.000
862.67	70.588
862.97	18.750
863.26	11.111
863.56	-10.000
863.85	0.000
864.15	-11.111
864.44	33.333
864.74	-35.714
865.03	43.750
865.33	-70.000
865.62	-3.226
865.92	45.455
866.21	26.087
866.51	50.000
866.80	-80.000
867.10	-16.667
867.39	-50.000
867.69	1300.000
867.98	228.571
868.27	29.412
868.57	-1000.000
868.86	-10.000
869.16	66.667
869.45	4.167
869.75	54.545
870.04	0.000
870.33	-16.667
870.63	-171.429
870.92	-75.000
871.22	-62.500
871.51	-45.455
871.80	-133.333
872.10	-300.000
>>>>>End Processed Spectral Data<<<<<
