SpectraSuite Data File
++++++++++++++++++++++++++++++++++++
Date: Thu May 14 16:42:03 PDT 2015
User: schluterlab
Dark Spectrum Present: Yes
Reference Spectrum Present: Yes
Number of Sampled Component Spectra: 1
Spectrometers: USB2E3373
Integration Time (usec): 3000 (USB2E3373)
Spectra Averaged: 3 (USB2E3373)
Boxcar Smoothing: 0 (USB2E3373)
Correct for Electrical Dark: No (USB2E3373)
Strobe/Lamp Enabled: No (USB2E3373)
Correct for Detector Non-linearity: No (USB2E3373)
Correct for Stray Light: No (USB2E3373)
Number of Pixels in Processed Spectrum: 2048
>>>>>Begin Processed Spectral Data<<<<<
178.53	0.000
178.91	-14.286
179.29	-1000.000
179.67	-600.000
180.04	85.714
180.42	20.000
180.80	140.000
181.18	300.000
181.56	1200.000
181.94	-175.000
182.31	-150.000
182.69	133.333
183.07	550.000
183.45	25.000
183.83	16.667
184.20	333.333
184.58	800.000
184.96	-125.000
185.34	-11.111
185.72	340.000
186.09	211.111
186.47	650.000
186.85	140.000
187.23	-66.667
187.61	-900.000
187.98	-140.000
188.36	50.000
188.74	75.000
189.12	166.667
189.49	6.250
189.87	0.000
190.25	-33.333
190.63	20.000
191.00	-33.333
191.38	0.000
191.76	-100.000
192.14	-16.667
192.51	-0.000
192.89	66.667
193.27	0.000
193.65	71.429
194.02	-1200.000
194.40	-57.143
194.78	142.857
195.15	0.000
195.53	18.182
195.91	0.000
196.29	-25.000
196.66	-15.385
197.04	-300.000
197.42	-128.571
197.79	150.000
198.17	25.000
198.55	-42.857
198.92	55.556
199.30	-25.000
199.68	18.182
200.05	57.143
200.43	-150.000
200.81	85.714
201.18	0.000
201.56	66.667
201.94	0.000
202.31	33.333
202.69	66.667
203.07	-200.000
203.44	-33.333
203.82	0.000
204.19	-8.333
204.57	-33.333
204.95	12.500
205.32	-800.000
205.70	225.000
206.08	33.333
206.45	116.667
206.83	240.000
207.20	50.000
207.58	-160.000
207.96	33.333
208.33	100.000
208.71	41.667
209.08	150.000
209.46	0.000
209.84	183.333
210.21	50.000
210.59	-400.000
210.96	-66.667
211.34	200.000
211.71	-37.500
212.09	-900.000
212.46	0.000
212.84	450.000
213.22	-160.000
213.59	25.000
213.97	50.000
214.34	0.000
214.72	50.000
215.09	50.000
215.47	0.000
215.84	-57.143
216.22	350.000
216.59	-220.000
216.97	-80.000
217.34	-200.000
217.72	-12.500
218.09	-125.000
218.47	-175.000
218.84	0.000
219.22	220.000
219.59	-17.647
219.97	20.000
220.34	550.000
220.72	22.222
221.09	100.000
221.47	400.000
221.84	10.000
222.22	-128.571
222.59	0.000
222.97	75.000
223.34	-140.000
223.72	-100.000
224.09	0.000
224.46	-75.000
224.84	80.000
225.21	-100.000
225.59	-425.000
225.96	-50.000
226.34	26.923
226.71	216.667
227.08	-450.000
227.46	-26.667
227.83	-150.000
228.21	47.368
228.58	125.000
228.95	-0.000
229.33	50.000
229.70	-20.000
230.08	63.158
230.45	-80.000
230.82	-100.000
231.20	28.571
231.57	41.667
231.95	72.727
232.32	90.909
232.69	-5.000
233.07	-150.000
233.44	11.765
233.81	20.000
234.19	44.444
234.56	18.182
234.93	72.414
235.31	21.053
235.68	88.889
236.05	-85.000
236.43	57.692
236.80	72.000
237.17	59.259
237.55	33.333
237.92	-50.000
238.29	32.258
238.67	0.000
239.04	30.556
239.41	21.429
239.79	4.348
240.16	16.667
240.53	10.870
240.91	7.843
241.28	13.115
241.65	32.836
242.02	25.676
242.40	12.308
242.77	20.000
243.14	0.000
243.51	3.947
243.89	7.692
244.26	18.812
244.63	27.451
245.00	19.626
245.38	13.158
245.75	4.425
246.12	19.048
246.49	16.279
246.87	16.429
247.24	17.881
247.61	19.079
247.98	14.094
248.36	21.605
248.73	14.110
249.10	13.115
249.47	20.896
249.84	25.654
250.22	19.171
250.59	11.111
250.96	19.091
251.33	14.286
251.70	17.949
252.08	17.500
252.45	21.721
252.82	16.116
253.19	16.406
253.56	19.392
253.94	14.231
254.31	18.939
254.68	24.825
255.05	18.567
255.42	15.646
255.79	13.916
256.16	17.550
256.54	16.225
256.91	18.033
257.28	18.033
257.65	18.153
258.02	17.109
258.39	17.664
258.76	25.076
259.14	19.540
259.51	20.173
259.88	15.297
260.25	17.778
260.62	18.630
260.99	20.219
261.36	21.180
261.73	18.568
262.10	19.231
262.47	22.252
262.85	21.970
263.22	18.701
263.59	15.526
263.96	21.483
264.33	17.903
264.70	16.790
265.07	19.332
265.44	18.594
265.81	16.667
266.18	19.048
266.55	19.420
266.92	17.084
267.29	19.256
267.66	18.847
268.03	18.777
268.40	17.328
268.77	18.223
269.14	17.401
269.51	18.421
269.88	18.648
270.25	17.907
270.62	20.253
270.99	20.202
271.36	20.198
271.73	18.664
272.10	19.639
272.47	17.234
272.84	20.080
273.21	19.038
273.58	20.363
273.95	15.769
274.32	17.490
274.69	17.602
275.06	18.498
275.43	18.115
275.80	19.400
276.17	17.593
276.54	17.910
276.91	18.605
277.28	18.264
277.65	19.390
278.02	16.728
278.39	17.391
278.76	18.278
279.13	18.794
279.50	18.900
279.87	19.857
280.23	17.077
280.60	19.492
280.97	16.941
281.34	15.280
281.71	19.797
282.08	16.113
282.45	16.530
282.82	18.524
283.19	15.670
283.56	18.689
283.92	19.219
284.29	18.167
284.66	17.898
285.03	16.186
285.40	18.393
285.77	17.183
286.14	18.779
286.51	16.895
286.87	17.220
287.24	18.675
287.61	17.040
287.98	16.314
288.35	17.160
288.72	18.639
289.08	16.545
289.45	15.533
289.82	16.114
290.19	17.960
290.56	18.592
290.93	16.405
291.29	16.942
291.66	15.152
292.03	15.332
292.40	16.327
292.77	15.364
293.13	15.697
293.50	14.586
293.87	15.570
294.24	15.467
294.60	15.803
294.97	12.483
295.34	15.493
295.71	14.502
296.08	14.858
296.44	16.422
296.81	15.956
297.18	13.699
297.55	14.387
297.91	15.065
298.28	13.507
298.65	12.723
299.02	13.932
299.38	14.874
299.75	13.785
300.12	13.079
300.48	12.903
300.85	13.048
301.22	14.094
301.59	12.100
301.95	13.785
302.32	15.000
302.69	13.253
303.05	13.493
303.42	14.191
303.79	13.021
304.15	13.144
304.52	13.214
304.89	13.298
305.25	12.526
305.62	14.211
305.99	13.505
306.35	12.399
306.72	13.237
307.09	12.893
307.45	12.422
307.82	13.724
308.19	12.916
308.55	13.983
308.92	15.385
309.29	14.559
309.65	13.743
310.02	13.465
310.38	14.173
310.75	14.078
311.12	14.382
311.48	13.685
311.85	14.625
312.22	13.378
312.58	14.178
312.95	12.811
313.31	13.550
313.68	15.293
314.05	16.621
314.41	16.029
314.78	14.441
315.14	16.152
315.51	16.159
315.87	17.102
316.24	17.626
316.61	15.897
316.97	15.204
317.34	16.314
317.70	17.817
318.07	17.989
318.43	18.112
318.80	18.729
319.16	18.798
319.53	18.423
319.89	17.967
320.26	19.573
320.62	19.326
320.99	20.406
321.35	20.980
321.72	22.326
322.08	21.912
322.45	21.319
322.81	23.375
323.18	22.655
323.54	21.983
323.91	24.288
324.27	24.096
324.64	25.441
325.00	23.964
325.37	25.962
325.73	26.446
326.10	27.007
326.46	28.420
326.83	28.823
327.19	29.213
327.56	29.802
327.92	29.662
328.29	29.758
328.65	29.564
329.01	32.234
329.38	30.750
329.74	31.935
330.11	31.764
330.47	31.761
330.84	32.644
331.20	32.333
331.56	33.276
331.93	33.556
332.29	34.322
332.66	34.136
333.02	33.836
333.38	32.466
333.75	34.343
334.11	33.778
334.48	33.581
334.84	35.174
335.20	34.089
335.57	35.329
335.93	36.198
336.29	34.110
336.66	34.315
337.02	34.699
337.38	35.714
337.75	34.793
338.11	34.819
338.47	34.409
338.84	36.633
339.20	35.552
339.56	35.255
339.93	35.961
340.29	35.507
340.65	34.063
341.02	36.073
341.38	37.348
341.74	35.674
342.11	36.525
342.47	35.822
342.83	36.312
343.20	36.386
343.56	36.808
343.92	36.990
344.28	37.188
344.65	36.357
345.01	36.193
345.37	36.081
345.73	35.853
346.10	37.129
346.46	36.630
346.82	36.030
347.19	35.752
347.55	37.405
347.91	37.147
348.27	37.253
348.63	38.005
349.00	36.391
349.36	36.654
349.72	37.649
350.08	38.559
350.45	38.859
350.81	37.179
351.17	37.895
351.53	37.604
351.89	37.358
352.26	38.209
352.62	38.507
352.98	37.710
353.34	37.267
353.70	38.367
354.07	39.344
354.43	37.434
354.79	38.070
355.15	38.337
355.51	39.474
355.87	37.996
356.24	39.772
356.60	37.398
356.96	38.547
357.32	37.695
357.68	38.287
358.04	39.296
358.40	38.881
358.77	37.573
359.13	38.035
359.49	38.959
359.85	38.869
360.21	37.446
360.57	38.981
360.93	38.858
361.29	39.439
361.66	39.392
362.02	39.109
362.38	40.056
362.74	39.246
363.10	40.509
363.46	39.958
363.82	39.418
364.18	40.183
364.54	40.180
364.90	41.472
365.26	40.207
365.62	40.000
365.98	40.163
366.35	41.141
366.71	40.476
367.07	41.137
367.43	39.921
367.79	41.473
368.15	42.074
368.51	40.934
368.87	41.411
369.23	41.600
369.59	41.257
369.95	42.123
370.31	41.391
370.67	40.715
371.03	41.066
371.39	41.236
371.75	42.297
372.11	41.870
372.47	41.165
372.83	42.343
373.19	42.428
373.55	40.515
373.91	40.354
374.27	41.397
374.63	42.558
374.99	43.103
375.35	42.273
375.71	42.387
376.07	43.060
376.42	42.758
376.78	43.070
377.14	42.233
377.50	42.884
377.86	43.103
378.22	43.174
378.58	44.055
378.94	43.016
379.30	43.234
379.66	43.563
380.02	43.681
380.38	43.606
380.74	44.394
381.09	43.322
381.45	42.784
381.81	44.965
382.17	44.002
382.53	43.275
382.89	42.664
383.25	44.373
383.61	43.519
383.97	44.229
384.32	44.378
384.68	43.503
385.04	44.072
385.40	44.549
385.76	45.545
386.12	43.387
386.48	45.235
386.83	44.815
387.19	44.612
387.55	44.484
387.91	43.893
388.27	44.515
388.62	44.502
388.98	44.557
389.34	44.549
389.70	44.683
390.06	44.819
390.42	45.602
390.77	45.635
391.13	45.012
391.49	44.203
391.85	45.091
392.20	44.069
392.56	45.186
392.92	45.256
393.28	44.666
393.64	44.637
393.99	44.974
394.35	45.152
394.71	45.928
395.07	44.192
395.42	45.288
395.78	45.887
396.14	45.633
396.50	45.546
396.85	44.126
397.21	44.556
397.57	45.465
397.92	44.788
398.28	44.704
398.64	44.394
399.00	44.346
399.35	44.084
399.71	44.402
400.07	45.255
400.42	45.867
400.78	44.444
401.14	44.565
401.49	44.798
401.85	45.465
402.21	45.597
402.57	45.657
402.92	44.858
403.28	44.555
403.63	44.928
403.99	45.071
404.35	45.026
404.70	44.306
405.06	44.837
405.42	44.965
405.77	46.347
406.13	45.219
406.49	44.876
406.84	45.374
407.20	44.941
407.55	45.548
407.91	45.632
408.27	44.641
408.62	46.306
408.98	44.980
409.34	44.457
409.69	45.797
410.05	45.193
410.40	44.838
410.76	44.307
411.11	45.587
411.47	46.069
411.83	46.149
412.18	46.265
412.54	44.813
412.89	44.121
413.25	45.147
413.60	45.204
413.96	44.872
414.31	43.853
414.67	44.425
415.03	45.415
415.38	46.028
415.74	44.349
416.09	44.849
416.45	43.331
416.80	45.349
417.16	45.466
417.51	45.330
417.87	45.003
418.22	45.868
418.58	45.787
418.93	45.343
419.29	44.698
419.64	44.178
420.00	44.985
420.35	44.862
420.71	44.400
421.06	43.646
421.42	45.126
421.77	44.103
422.12	45.137
422.48	45.212
422.83	45.016
423.19	44.456
423.54	45.354
423.90	43.954
424.25	45.707
424.61	45.580
424.96	44.811
425.31	45.117
425.67	44.928
426.02	44.992
426.38	45.350
426.73	44.085
427.09	45.732
427.44	44.784
427.79	45.218
428.15	44.121
428.50	44.775
428.85	43.513
429.21	45.479
429.56	45.953
429.92	44.128
430.27	45.301
430.62	44.895
430.98	44.565
431.33	43.988
431.68	44.301
432.04	45.759
432.39	45.206
432.74	45.491
433.10	44.781
433.45	44.705
433.80	44.099
434.16	44.886
434.51	45.632
434.86	46.580
435.22	45.643
435.57	46.050
435.92	45.520
436.28	46.473
436.63	46.204
436.98	44.176
437.34	45.039
437.69	45.074
438.04	45.584
438.39	44.227
438.75	45.324
439.10	45.402
439.45	45.836
439.81	44.520
440.16	44.826
440.51	46.042
440.86	44.858
441.22	44.641
441.57	45.755
441.92	43.744
442.27	46.212
442.63	43.815
442.98	45.518
443.33	45.239
443.68	45.045
444.03	46.378
444.39	45.123
444.74	45.584
445.09	44.856
445.44	44.468
445.79	45.785
446.15	46.146
446.50	45.426
446.85	45.720
447.20	45.793
447.55	45.241
447.91	45.183
448.26	44.979
448.61	45.165
448.96	46.352
449.31	44.804
449.66	44.880
450.02	44.884
450.37	45.658
450.72	46.125
451.07	45.387
451.42	45.754
451.77	44.525
452.12	46.275
452.47	44.682
452.83	45.439
453.18	44.834
453.53	44.917
453.88	45.334
454.23	46.610
454.58	45.618
454.93	44.721
455.28	45.394
455.63	45.765
455.98	45.140
456.34	44.700
456.69	46.502
457.04	45.745
457.39	45.288
457.74	45.694
458.09	44.481
458.44	45.905
458.79	44.353
459.14	45.674
459.49	45.557
459.84	44.439
460.19	43.476
460.54	45.542
460.89	46.585
461.24	44.598
461.59	46.099
461.94	44.324
462.29	45.017
462.64	43.633
462.99	45.323
463.34	45.620
463.69	44.549
464.04	46.248
464.39	45.011
464.74	44.356
465.09	43.887
465.44	45.118
465.79	44.262
466.14	43.773
466.49	44.737
466.84	44.848
467.19	44.451
467.54	45.123
467.89	45.402
468.24	44.709
468.59	44.239
468.94	43.939
469.29	44.271
469.64	45.391
469.99	44.742
470.34	45.235
470.68	46.070
471.03	46.300
471.38	46.305
471.73	45.449
472.08	46.193
472.43	45.154
472.78	45.970
473.13	44.564
473.48	46.586
473.83	45.676
474.17	45.252
474.52	43.957
474.87	45.127
475.22	45.521
475.57	44.912
475.92	44.599
476.27	44.782
476.61	44.185
476.96	44.786
477.31	44.901
477.66	45.960
478.01	45.399
478.36	44.417
478.70	44.778
479.05	44.836
479.40	45.114
479.75	45.149
480.10	44.813
480.45	44.804
480.79	44.989
481.14	44.945
481.49	45.116
481.84	44.735
482.19	45.290
482.53	45.212
482.88	46.035
483.23	44.375
483.58	44.716
483.92	44.105
484.27	44.242
484.62	44.101
484.97	44.712
485.31	43.330
485.66	41.156
486.01	40.166
486.36	40.961
486.70	42.486
487.05	43.601
487.40	42.930
487.75	43.690
488.09	43.223
488.44	43.372
488.79	44.047
489.13	43.809
489.48	43.650
489.83	43.421
490.17	43.378
490.52	42.898
490.87	44.078
491.22	44.931
491.56	44.838
491.91	44.614
492.26	44.396
492.60	45.081
492.95	44.318
493.30	45.450
493.64	44.547
493.99	44.825
494.34	43.162
494.68	44.154
495.03	44.714
495.37	44.740
495.72	44.762
496.07	44.172
496.41	44.444
496.76	43.995
497.11	44.841
497.45	44.756
497.80	44.691
498.14	43.946
498.49	44.393
498.84	43.784
499.18	45.029
499.53	44.978
499.87	44.703
500.22	44.256
500.56	44.534
500.91	44.531
501.26	45.500
501.60	43.791
501.95	43.682
502.29	44.756
502.64	44.950
502.98	43.227
503.33	43.413
503.67	43.960
504.02	44.571
504.36	44.817
504.71	44.189
505.06	43.611
505.40	44.790
505.75	43.989
506.09	45.212
506.44	45.172
506.78	45.917
507.13	44.952
507.47	44.908
507.82	44.176
508.16	44.885
508.51	44.069
508.85	45.772
509.19	45.808
509.54	46.013
509.88	45.070
510.23	45.605
510.57	46.496
510.92	45.186
511.26	44.733
511.61	44.520
511.95	45.144
512.30	46.135
512.64	44.928
512.98	45.623
513.33	45.262
513.67	44.875
514.02	45.222
514.36	46.036
514.70	45.417
515.05	46.663
515.39	46.562
515.74	47.137
516.08	47.121
516.42	47.305
516.77	46.635
517.11	46.055
517.46	46.288
517.80	45.323
518.14	46.736
518.49	45.499
518.83	46.727
519.17	46.688
519.52	46.646
519.86	45.935
520.20	47.018
520.55	46.440
520.89	48.029
521.23	46.399
521.58	47.458
521.92	46.969
522.26	47.022
522.61	47.396
522.95	46.713
523.29	47.816
523.64	46.300
523.98	47.347
524.32	48.080
524.66	47.695
525.01	47.565
525.35	46.755
525.69	47.390
526.04	46.785
526.38	47.126
526.72	46.655
527.06	47.273
527.41	46.006
527.75	47.150
528.09	47.816
528.43	46.655
528.78	47.514
529.12	45.642
529.46	45.812
529.80	45.938
530.15	47.130
530.49	45.907
530.83	47.166
531.17	47.073
531.51	47.473
531.86	47.957
532.20	47.073
532.54	46.679
532.88	46.970
533.22	45.610
533.57	46.797
533.91	45.960
534.25	45.280
534.59	46.322
534.93	46.180
535.27	45.690
535.62	46.617
535.96	47.414
536.30	46.651
536.64	46.727
536.98	46.310
537.32	47.346
537.66	48.097
538.01	46.767
538.35	46.590
538.69	46.454
539.03	47.210
539.37	46.054
539.71	45.826
540.05	46.823
540.39	48.044
540.73	45.294
541.07	46.904
541.42	47.135
541.76	45.967
542.10	46.743
542.44	45.859
542.78	46.168
543.12	47.080
543.46	45.849
543.80	45.144
544.14	46.320
544.48	46.513
544.82	46.679
545.16	46.392
545.50	45.836
545.84	46.050
546.18	46.790
546.52	46.433
546.86	46.289
547.20	46.883
547.54	46.317
547.88	46.414
548.22	44.854
548.56	45.816
548.90	46.567
549.24	46.626
549.58	45.868
549.92	47.130
550.26	46.408
550.60	46.139
550.94	46.248
551.28	45.941
551.62	47.978
551.96	45.696
552.30	47.164
552.64	46.173
552.98	46.600
553.32	47.781
553.66	46.752
554.00	47.037
554.34	45.495
554.68	46.675
555.02	47.372
555.36	47.798
555.69	45.868
556.03	45.902
556.37	46.120
556.71	45.212
557.05	46.645
557.39	46.384
557.73	46.764
558.07	45.099
558.41	46.379
558.75	46.045
559.08	46.834
559.42	46.639
559.76	46.608
560.10	45.948
560.44	45.910
560.78	46.250
561.12	46.613
561.45	45.803
561.79	45.543
562.13	47.073
562.47	44.945
562.81	45.696
563.15	45.518
563.48	45.867
563.82	45.466
564.16	45.548
564.50	45.411
564.84	44.779
565.17	45.882
565.51	44.879
565.85	44.537
566.19	44.182
566.52	44.763
566.86	45.444
567.20	44.100
567.54	44.981
567.88	45.158
568.21	43.182
568.55	44.029
568.89	43.849
569.23	42.036
569.56	42.438
569.90	41.732
570.24	41.889
570.57	41.437
570.91	40.478
571.25	39.919
571.59	40.301
571.92	40.725
572.26	39.809
572.60	39.885
572.93	40.440
573.27	39.365
573.61	39.465
573.95	39.694
574.28	38.683
574.62	39.109
574.96	38.465
575.29	37.784
575.63	38.462
575.97	39.138
576.30	38.885
576.64	39.131
576.98	38.656
577.31	38.765
577.65	39.270
577.98	38.347
578.32	38.224
578.66	37.919
578.99	37.928
579.33	38.417
579.67	38.214
580.00	38.728
580.34	38.591
580.67	38.195
581.01	38.360
581.35	37.658
581.68	37.728
582.02	37.606
582.35	37.553
582.69	38.454
583.02	37.881
583.36	38.468
583.70	38.900
584.03	38.517
584.37	39.126
584.70	38.435
585.04	38.526
585.37	37.494
585.71	37.972
586.04	37.913
586.38	38.092
586.72	37.729
587.05	38.373
587.39	38.295
587.72	38.014
588.06	37.911
588.39	38.810
588.73	38.042
589.06	38.629
589.40	39.797
589.73	39.428
590.07	40.053
590.40	39.892
590.73	39.590
591.07	40.990
591.40	39.891
591.74	40.342
592.07	40.560
592.41	40.379
592.74	38.623
593.08	38.917
593.41	38.670
593.75	37.874
594.08	38.716
594.41	38.654
594.75	38.691
595.08	39.771
595.42	39.156
595.75	38.521
596.09	39.580
596.42	39.305
596.75	40.679
597.09	40.727
597.42	40.008
597.75	39.788
598.09	38.889
598.42	40.290
598.76	38.785
599.09	38.982
599.42	38.183
599.76	37.768
600.09	39.106
600.42	38.338
600.76	38.078
601.09	37.902
601.42	38.277
601.76	38.207
602.09	38.849
602.42	38.241
602.76	38.229
603.09	39.464
603.42	38.764
603.76	38.724
604.09	39.638
604.42	38.606
604.76	38.546
605.09	38.732
605.42	39.514
605.75	38.538
606.09	38.335
606.42	37.760
606.75	37.556
607.09	37.289
607.42	38.150
607.75	39.273
608.08	38.082
608.42	37.928
608.75	38.599
609.08	38.413
609.41	38.774
609.75	39.286
610.08	38.918
610.41	38.912
610.74	39.160
611.07	38.721
611.41	38.565
611.74	39.446
612.07	39.177
612.40	39.306
612.73	40.000
613.07	38.729
613.40	39.269
613.73	39.047
614.06	40.334
614.39	39.164
614.72	38.622
615.06	38.787
615.39	38.231
615.72	39.194
616.05	38.951
616.38	39.304
616.71	39.760
617.05	39.563
617.38	40.128
617.71	39.633
618.04	39.288
618.37	40.219
618.70	40.498
619.03	40.442
619.36	40.444
619.69	40.551
620.03	40.866
620.36	39.632
620.69	41.024
621.02	41.404
621.35	43.251
621.68	41.866
622.01	40.996
622.34	40.656
622.67	41.237
623.00	40.351
623.33	41.805
623.66	41.569
623.99	40.158
624.32	41.391
624.65	38.996
624.99	40.962
625.32	41.084
625.65	41.268
625.98	40.678
626.31	41.602
626.64	41.392
626.97	41.635
627.30	40.167
627.63	41.260
627.96	40.841
628.29	41.634
628.62	41.562
628.95	42.594
629.28	42.396
629.61	43.434
629.94	41.172
630.26	41.102
630.59	43.523
630.92	42.944
631.25	45.438
631.58	43.691
631.91	44.799
632.24	43.708
632.57	42.979
632.90	43.531
633.23	43.571
633.56	45.816
633.89	43.285
634.22	44.491
634.55	45.511
634.88	44.697
635.20	44.564
635.53	47.119
635.86	45.070
636.19	45.493
636.52	43.460
636.85	42.799
637.18	44.179
637.51	44.731
637.83	45.958
638.16	46.083
638.49	46.362
638.82	44.194
639.15	42.955
639.48	45.727
639.81	43.649
640.13	45.936
640.46	43.879
640.79	44.363
641.12	46.584
641.45	45.044
641.77	46.983
642.10	45.407
642.43	45.878
642.76	44.986
643.09	46.027
643.41	45.658
643.74	46.345
644.07	46.483
644.40	45.545
644.73	44.993
645.05	44.787
645.38	46.043
645.71	45.601
646.04	47.489
646.36	44.964
646.69	47.393
647.02	47.401
647.35	49.313
647.67	47.182
648.00	48.248
648.33	44.895
648.66	45.792
648.98	43.129
649.31	44.790
649.64	43.958
649.96	43.103
650.29	43.394
650.62	42.291
650.94	43.844
651.27	44.162
651.60	43.713
651.92	45.441
652.25	43.705
652.58	42.779
652.90	43.459
653.23	43.662
653.56	43.081
653.88	44.242
654.21	41.408
654.54	43.208
654.86	47.592
655.19	41.280
655.52	37.350
655.84	32.320
656.17	37.408
656.49	51.863
656.82	56.019
657.15	43.897
657.47	33.085
657.80	24.529
658.13	19.685
658.45	25.845
658.78	32.409
659.10	31.850
659.43	32.585
659.75	33.077
660.08	33.333
660.41	35.236
660.73	37.058
661.06	41.116
661.38	44.179
661.71	42.586
662.03	46.384
662.36	46.512
662.68	46.529
663.01	45.487
663.33	45.558
663.66	45.421
663.98	46.923
664.31	44.841
664.63	47.206
664.96	45.009
665.28	41.198
665.61	46.154
665.93	43.036
666.26	44.086
666.58	42.435
666.91	45.047
667.23	43.810
667.56	44.576
667.88	48.400
668.21	41.992
668.53	44.788
668.86	45.972
669.18	44.603
669.50	42.545
669.83	45.800
670.15	45.079
670.48	47.222
670.80	43.403
671.13	42.911
671.45	44.291
671.77	45.009
672.10	39.667
672.42	41.748
672.75	40.707
673.07	40.149
673.39	38.521
673.72	41.946
674.04	41.552
674.37	43.470
674.69	42.152
675.01	40.381
675.34	42.939
675.66	39.700
675.98	41.978
676.31	42.578
676.63	43.536
676.95	42.720
677.28	43.750
677.60	40.354
677.92	41.651
678.25	42.413
678.57	44.128
678.89	42.321
679.22	39.895
679.54	41.197
679.86	38.136
680.18	40.630
680.51	39.623
680.83	38.953
681.15	41.552
681.48	39.551
681.80	41.451
682.12	40.559
682.44	39.733
682.77	40.071
683.09	41.288
683.41	43.411
683.73	41.935
684.06	39.114
684.38	38.998
684.70	42.011
685.02	39.587
685.34	36.106
685.67	38.170
685.99	35.583
686.31	36.483
686.63	39.021
686.96	39.590
687.28	40.065
687.60	37.037
687.92	36.656
688.24	37.730
688.56	38.276
688.89	40.109
689.21	40.313
689.53	39.608
689.85	38.856
690.17	37.593
690.49	42.032
690.82	39.010
691.14	39.069
691.46	38.432
691.78	40.147
692.10	37.431
692.42	36.071
692.74	39.201
693.06	37.407
693.39	41.176
693.71	36.654
694.03	39.777
694.35	37.714
694.67	39.836
694.99	41.489
695.31	39.294
695.63	41.991
695.95	38.923
696.27	37.143
696.59	39.159
696.91	41.441
697.23	40.659
697.56	37.067
697.88	35.038
698.20	38.230
698.52	39.583
698.84	37.630
699.16	38.980
699.48	38.285
699.80	35.957
700.12	40.393
700.44	40.783
700.76	40.143
701.08	38.741
701.40	39.896
701.72	38.557
702.04	43.316
702.36	38.743
702.68	36.675
703.00	38.875
703.32	37.685
703.64	40.831
703.96	38.902
704.28	38.821
704.60	41.519
704.91	39.031
705.23	39.178
705.55	40.669
705.87	40.909
706.19	43.252
706.51	36.747
706.83	39.481
707.15	36.772
707.47	36.215
707.79	37.555
708.11	33.686
708.43	36.344
708.74	31.473
709.06	36.659
709.38	38.732
709.70	39.206
710.02	40.310
710.34	35.904
710.66	35.754
710.98	38.251
711.29	37.088
711.61	38.136
711.93	39.316
712.25	40.000
712.57	41.593
712.89	43.529
713.20	36.095
713.52	38.150
713.84	36.490
714.16	34.474
714.48	36.340
714.80	40.000
715.11	36.220
715.43	36.605
715.75	36.316
716.07	36.188
716.39	35.519
716.70	38.855
717.02	38.689
717.34	37.282
717.66	42.282
717.97	34.589
718.29	40.206
718.61	33.882
718.93	36.246
719.24	33.851
719.56	38.957
719.88	35.736
720.20	33.871
720.51	33.540
720.83	39.688
721.15	36.184
721.46	33.904
721.78	36.667
722.10	37.217
722.42	38.255
722.73	33.871
723.05	38.596
723.37	35.069
723.68	39.427
724.00	41.155
724.32	36.620
724.63	37.063
724.95	36.879
725.27	34.495
725.58	33.922
725.90	42.759
726.22	30.408
726.53	40.909
726.85	33.333
727.16	31.420
727.48	39.450
727.80	37.086
728.11	35.689
728.43	38.047
728.74	38.462
729.06	36.093
729.38	35.714
729.69	39.597
730.01	31.548
730.32	29.091
730.64	35.849
730.96	30.124
731.27	34.637
731.59	34.066
731.90	29.351
732.22	28.646
732.53	29.006
732.85	31.714
733.16	33.138
733.48	30.793
733.80	33.426
734.11	34.758
734.43	31.622
734.74	36.962
735.06	30.402
735.37	32.703
735.69	33.514
736.00	31.921
736.32	30.728
736.63	28.333
736.95	36.494
737.26	33.939
737.58	30.303
737.89	34.706
738.21	26.911
738.52	30.820
738.83	35.154
739.15	37.943
739.46	39.796
739.78	33.742
740.09	29.799
740.41	32.653
740.72	36.333
741.04	32.039
741.35	35.088
741.66	39.216
741.98	37.705
742.29	37.238
742.61	37.719
742.92	30.769
743.23	36.823
743.55	37.984
743.86	37.200
744.18	35.124
744.49	37.131
744.80	38.272
745.12	33.755
745.43	35.772
745.74	34.914
746.06	34.322
746.37	41.350
746.68	37.398
747.00	35.833
747.31	31.330
747.62	34.231
747.94	30.769
748.25	29.719
748.56	33.061
748.88	32.906
749.19	34.483
749.50	25.974
749.82	37.751
750.13	34.520
750.44	30.667
750.75	30.462
751.07	32.615
751.38	32.492
751.69	35.463
752.01	30.744
752.32	28.431
752.63	29.592
752.94	31.142
753.26	29.368
753.57	33.333
753.88	29.588
754.19	33.441
754.51	27.653
754.82	35.048
755.13	34.426
755.44	36.860
755.75	34.211
756.07	30.448
756.38	30.503
756.69	31.627
757.00	26.870
757.31	32.514
757.63	26.343
757.94	30.282
758.25	25.959
758.56	26.797
758.87	28.636
759.18	29.867
759.50	30.878
759.81	29.412
760.12	30.728
760.43	30.208
760.74	27.094
761.05	25.750
761.36	28.916
761.67	26.142
761.99	29.459
762.30	29.573
762.61	26.403
762.92	31.343
763.23	34.082
763.54	31.295
763.85	31.615
764.16	30.640
764.47	34.859
764.78	28.435
765.10	26.100
765.41	27.179
765.72	28.042
766.03	29.379
766.34	26.646
766.65	28.920
766.96	32.669
767.27	29.493
767.58	30.846
767.89	37.019
768.20	37.559
768.51	30.556
768.82	34.137
769.13	31.818
769.44	27.308
769.75	30.686
770.06	30.769
770.37	33.858
770.68	26.383
770.99	27.935
771.30	31.111
771.61	31.179
771.92	29.259
772.23	32.794
772.54	25.000
772.85	36.406
773.16	29.524
773.47	28.571
773.78	29.189
774.09	34.091
774.39	34.000
774.70	36.612
775.01	25.610
775.32	30.000
775.63	34.356
775.94	23.567
776.25	27.742
776.56	37.179
776.87	36.735
777.18	33.793
777.48	41.259
777.79	33.108
778.10	30.882
778.41	31.944
778.72	27.586
779.03	30.864
779.34	30.303
779.65	30.570
779.95	35.556
780.26	27.841
780.57	33.548
780.88	33.333
781.19	25.806
781.50	34.118
781.80	34.409
782.11	30.688
782.42	28.283
782.73	28.743
783.04	25.140
783.34	24.848
783.65	24.837
783.96	25.466
784.27	32.143
784.57	29.801
784.88	33.571
785.19	25.197
785.50	37.008
785.81	39.098
786.11	33.846
786.42	26.619
786.73	28.777
787.04	40.602
787.34	27.869
787.65	21.600
787.96	32.836
788.26	41.958
788.57	37.762
788.88	29.605
789.19	39.869
789.49	30.137
789.80	27.660
790.11	28.346
790.41	23.437
790.72	29.661
791.03	23.301
791.33	37.391
791.64	37.719
791.95	27.679
792.25	32.381
792.56	25.000
792.87	29.167
793.17	28.571
793.48	25.000
793.79	21.687
794.09	29.358
794.40	19.266
794.70	29.252
795.01	18.831
795.32	26.027
795.62	19.718
795.93	27.273
796.23	39.344
796.54	26.786
796.85	26.596
797.15	30.435
797.46	43.836
797.76	42.500
798.07	35.870
798.37	10.309
798.68	29.870
798.99	16.092
799.29	34.831
799.60	32.979
799.90	21.687
800.21	38.462
800.51	29.851
800.82	27.941
801.12	23.288
801.43	20.588
801.73	42.373
802.04	39.394
802.34	18.333
802.65	33.898
802.95	38.806
803.26	33.898
803.56	32.877
803.87	34.286
804.17	30.137
804.48	21.053
804.78	45.833
805.09	27.586
805.39	41.892
805.70	19.718
806.00	35.366
806.30	30.120
806.61	34.247
806.91	27.885
807.22	20.000
807.52	16.092
807.83	30.556
808.13	37.349
808.43	29.213
808.74	25.000
809.04	22.059
809.35	18.667
809.65	24.286
809.95	23.288
810.26	24.561
810.56	32.759
810.86	25.000
811.17	43.860
811.47	29.508
811.77	8.889
812.08	25.424
812.38	28.333
812.69	20.690
812.99	16.981
813.29	12.821
813.59	34.000
813.90	59.649
814.20	21.818
814.50	30.986
814.81	33.333
815.11	26.230
815.41	31.343
815.72	27.586
816.02	28.571
816.32	53.333
816.62	45.455
816.93	20.000
817.23	40.741
817.53	31.915
817.84	42.857
818.14	23.529
818.44	34.694
818.74	17.778
819.04	12.821
819.35	17.143
819.65	7.692
819.95	37.736
820.25	35.556
820.56	19.048
820.86	15.625
821.16	25.641
821.46	16.279
821.76	10.000
822.07	25.000
822.37	13.043
822.67	36.170
822.97	10.811
823.27	35.000
823.57	44.898
823.88	22.222
824.18	25.000
824.48	26.667
824.78	24.000
825.08	27.273
825.38	28.889
825.69	44.681
825.99	16.667
826.29	8.571
826.59	28.205
826.89	4.651
827.19	32.000
827.49	41.176
827.79	43.750
828.09	-8.108
828.39	16.667
828.70	2.439
829.00	48.837
829.30	10.714
829.60	29.412
829.90	28.261
830.20	42.857
830.50	6.897
830.80	38.889
831.10	15.385
831.40	5.882
831.70	80.952
832.00	67.742
832.30	-47.059
832.60	-4.167
832.90	-69.231
833.20	52.632
833.50	15.000
833.80	73.684
834.10	0.000
834.40	38.889
834.70	50.000
835.00	31.429
835.30	50.000
835.60	23.333
835.90	28.000
836.20	31.818
836.50	28.000
836.80	-6.061
837.10	29.630
837.40	29.630
837.70	43.750
838.00	75.000
838.30	26.087
838.60	51.724
838.90	78.571
839.19	-39.130
839.49	16.667
839.79	30.435
840.09	-6.250
840.39	40.000
840.69	67.742
840.99	-7.143
841.29	13.333
841.59	5.263
841.88	20.513
842.18	11.538
842.48	60.000
842.78	-5.000
843.08	46.667
843.38	12.903
843.68	-5.556
843.97	55.882
844.27	31.250
844.57	68.421
844.87	80.000
845.17	13.333
845.47	42.857
845.76	28.571
846.06	-88.889
846.36	58.824
846.66	26.923
846.96	46.667
847.25	52.941
847.55	-13.043
847.85	55.000
848.15	70.588
848.44	81.818
848.74	-19.048
849.04	-8.333
849.34	0.000
849.63	60.870
849.93	-0.000
850.23	20.000
850.53	3.846
850.82	36.364
851.12	77.273
851.42	-27.273
851.71	23.077
852.01	-35.000
852.31	0.000
852.61	5.263
852.90	50.000
853.20	16.667
853.50	0.000
853.79	-9.524
854.09	31.818
854.39	-41.667
854.68	35.484
854.98	30.769
855.28	27.778
855.57	21.429
855.87	24.000
856.17	9.091
856.46	25.926
856.76	38.889
857.05	21.739
857.35	0.000
857.65	15.385
857.94	33.333
858.24	33.333
858.53	34.783
858.83	35.294
859.13	11.765
859.42	41.176
859.72	28.571
860.01	35.000
860.31	33.333
860.60	90.000
860.90	-13.333
861.20	0.000
861.49	30.769
861.79	26.667
862.08	7.692
862.38	37.500
862.67	41.176
862.97	56.250
863.26	-88.889
863.56	-30.000
863.85	-36.364
864.15	-38.889
864.44	100.000
864.74	-28.571
865.03	-6.250
865.33	-20.000
865.62	-6.452
865.92	22.727
866.21	17.391
866.51	28.571
866.80	-120.000
867.10	50.000
867.39	-41.667
867.69	700.000
867.98	28.571
868.27	64.706
868.57	-1300.000
868.86	-120.000
869.16	-9.524
869.45	16.667
869.75	72.727
870.04	42.857
870.33	25.000
870.63	-71.429
870.92	0.000
871.22	-162.500
871.51	-54.545
871.80	-400.000
872.10	-50.000
>>>>>End Processed Spectral Data<<<<<
