SpectraSuite Data File
++++++++++++++++++++++++++++++++++++
Date: Thu May 14 16:39:36 PDT 2015
User: schluterlab
Dark Spectrum Present: Yes
Reference Spectrum Present: Yes
Number of Sampled Component Spectra: 1
Spectrometers: USB2E3373
Integration Time (usec): 3000 (USB2E3373)
Spectra Averaged: 3 (USB2E3373)
Boxcar Smoothing: 0 (USB2E3373)
Correct for Electrical Dark: No (USB2E3373)
Strobe/Lamp Enabled: No (USB2E3373)
Correct for Detector Non-linearity: No (USB2E3373)
Correct for Stray Light: No (USB2E3373)
Number of Pixels in Processed Spectrum: 2048
>>>>>Begin Processed Spectral Data<<<<<
178.53	0.000
178.91	28.571
179.29	-1000.000
179.67	-100.000
180.04	135.714
180.42	50.000
180.80	80.000
181.18	0.000
181.56	500.000
181.94	225.000
182.31	25.000
182.69	-133.333
183.07	-50.000
183.45	-0.000
183.83	100.000
184.20	33.333
184.58	100.000
184.96	-325.000
185.34	-22.222
185.72	0.000
186.09	188.889
186.47	450.000
186.85	320.000
187.23	-55.556
187.61	-400.000
187.98	120.000
188.36	100.000
188.74	25.000
189.12	66.667
189.49	81.250
189.87	-75.000
190.25	11.111
190.63	180.000
191.00	-77.778
191.38	0.000
191.76	-100.000
192.14	-183.333
192.51	450.000
192.89	66.667
193.27	0.000
193.65	-14.286
194.02	-600.000
194.40	-14.286
194.78	71.429
195.15	0.000
195.53	45.455
195.91	0.000
196.29	100.000
196.66	15.385
197.04	-700.000
197.42	85.714
197.79	-300.000
198.17	-25.000
198.55	-71.429
198.92	0.000
199.30	-125.000
199.68	81.818
200.05	7.143
200.43	-450.000
200.81	100.000
201.18	0.000
201.56	155.556
201.94	0.000
202.31	-133.333
202.69	-88.889
203.07	-200.000
203.44	-22.222
203.82	-175.000
204.19	-50.000
204.57	-200.000
204.95	12.500
205.32	-200.000
205.70	175.000
206.08	-183.333
206.45	-233.333
206.83	260.000
207.20	66.667
207.58	-40.000
207.96	-66.667
208.33	-33.333
208.71	41.667
209.08	183.333
209.46	0.000
209.84	266.667
210.21	-150.000
210.59	-350.000
210.96	133.333
211.34	-25.000
211.71	-137.500
212.09	-800.000
212.46	0.000
212.84	500.000
213.22	-160.000
213.59	-125.000
213.97	-10.000
214.34	66.667
214.72	-16.667
215.09	-150.000
215.47	0.000
215.84	171.429
216.22	350.000
216.59	20.000
216.97	-240.000
217.34	50.000
217.72	-50.000
218.09	0.000
218.47	-100.000
218.84	0.000
219.22	100.000
219.59	-41.176
219.97	10.000
220.34	200.000
220.72	-11.111
221.09	23.077
221.47	-200.000
221.84	-50.000
222.22	-200.000
222.59	0.000
222.97	87.500
223.34	-160.000
223.72	-400.000
224.09	-475.000
224.46	-200.000
224.84	-20.000
225.21	-128.571
225.59	0.000
225.96	-50.000
226.34	46.154
226.71	166.667
227.08	-650.000
227.46	-6.667
227.83	-200.000
228.21	0.000
228.58	100.000
228.95	250.000
229.33	108.333
229.70	60.000
230.08	73.684
230.45	110.000
230.82	33.333
231.20	21.429
231.57	-8.333
231.95	27.273
232.32	-18.182
232.69	-20.000
233.07	-150.000
233.44	0.000
233.81	-180.000
234.19	83.333
234.56	-36.364
234.93	34.483
235.31	-36.842
235.68	-33.333
236.05	-50.000
236.43	50.000
236.80	20.000
237.17	7.407
237.55	30.303
237.92	-160.000
238.29	-12.903
238.67	-9.091
239.04	-5.556
239.41	-28.571
239.79	-2.174
240.16	-3.704
240.53	-17.391
240.91	-7.843
241.28	-1.639
241.65	2.985
242.02	1.351
242.40	-9.231
242.77	5.333
243.14	-10.976
243.51	-11.842
243.89	-5.128
244.26	8.911
244.63	-4.902
245.00	1.869
245.38	1.754
245.75	-11.504
246.12	3.175
246.49	-2.326
246.87	3.571
247.24	6.623
247.61	2.632
247.98	2.685
248.36	0.617
248.73	-5.521
249.10	-3.825
249.47	4.478
249.84	3.665
250.22	1.036
250.59	2.778
250.96	6.818
251.33	-1.531
251.70	6.838
252.08	2.917
252.45	7.377
252.82	6.198
253.19	-0.391
253.56	1.521
253.94	2.308
254.31	4.167
254.68	1.049
255.05	4.235
255.42	1.701
255.79	-1.618
256.16	-1.987
256.54	2.649
256.91	4.590
257.28	-0.328
257.65	-0.955
258.02	-2.065
258.39	3.704
258.76	3.364
259.14	3.448
259.51	2.017
259.88	0.000
260.25	3.889
260.62	3.836
260.99	4.645
261.36	3.753
261.73	-1.857
262.10	-0.824
262.47	-0.268
262.85	4.798
263.22	1.039
263.59	-0.789
263.96	1.023
264.33	0.000
264.70	2.716
265.07	2.148
265.44	3.628
265.81	1.389
266.18	3.628
266.55	-0.223
266.92	0.911
267.29	2.845
267.66	1.996
268.03	3.057
268.40	2.714
268.77	-0.456
269.14	0.220
269.51	1.974
269.88	3.484
270.25	4.427
270.62	3.797
270.99	4.040
271.36	2.970
271.73	3.143
272.10	2.806
272.47	0.200
272.84	4.217
273.21	1.603
273.58	2.218
273.95	1.346
274.32	1.521
274.69	0.193
275.06	2.930
275.43	1.479
275.80	5.115
276.17	0.370
276.54	1.866
276.91	1.431
277.28	2.351
277.65	1.975
278.02	2.022
278.39	-0.362
278.76	1.933
279.13	1.596
279.50	1.546
279.87	1.073
280.23	0.704
280.60	1.864
280.97	3.289
281.34	-1.698
281.71	2.538
282.08	2.492
282.45	1.964
282.82	1.099
283.19	2.262
283.56	1.148
283.92	4.054
284.29	3.791
284.66	2.135
285.03	0.801
285.40	1.391
285.77	0.619
286.14	3.511
286.51	0.913
286.87	0.948
287.24	2.259
287.61	1.943
287.98	1.662
288.35	3.254
288.72	0.888
289.08	2.489
289.45	1.923
289.82	0.753
290.19	0.862
290.56	2.676
290.93	2.853
291.29	1.928
291.66	1.515
292.03	0.543
292.40	3.265
292.77	0.539
293.13	2.300
293.50	1.840
293.87	1.074
294.24	2.933
294.60	2.528
294.97	0.000
295.34	1.665
295.71	1.387
296.08	1.680
296.44	2.574
296.81	1.827
297.18	1.494
297.55	1.061
297.91	2.372
298.28	2.014
298.65	2.497
299.02	0.945
299.38	1.716
299.75	1.051
300.12	-0.116
300.48	1.959
300.85	2.362
301.22	1.566
301.59	1.256
301.95	2.373
302.32	3.444
302.69	1.972
303.05	2.176
303.42	2.217
303.79	1.562
304.15	2.419
304.52	1.268
304.89	1.675
305.25	2.070
305.62	1.567
305.99	3.402
306.35	2.117
306.72	2.275
307.09	2.538
307.45	2.588
307.82	2.624
308.19	2.321
308.55	3.472
308.92	3.700
309.29	3.161
309.65	3.606
310.02	3.465
310.38	1.969
310.75	2.427
311.12	4.027
311.48	3.226
311.85	3.039
312.22	3.036
312.58	3.099
312.95	3.728
313.31	3.704
313.68	4.396
314.05	5.239
314.41	5.373
314.78	4.905
315.14	5.445
315.51	4.801
315.87	5.761
316.24	5.936
316.61	6.039
316.97	5.792
317.34	5.467
317.70	7.424
318.07	6.437
318.43	6.888
318.80	7.860
319.16	6.438
319.53	6.512
319.89	7.450
320.26	8.363
320.62	7.535
320.99	8.126
321.35	8.595
321.72	9.209
322.08	8.747
322.45	8.401
322.81	8.574
323.18	9.115
323.54	9.052
323.91	10.854
324.27	10.155
324.64	11.251
325.00	9.784
325.37	10.729
325.73	11.570
326.10	10.787
326.46	12.215
326.83	12.410
327.19	12.047
327.56	13.123
327.92	11.172
328.29	11.129
328.65	12.312
329.01	12.267
329.38	12.637
329.74	13.356
330.11	12.928
330.47	13.227
330.84	12.575
331.20	13.417
331.56	12.565
331.93	14.142
332.29	14.661
332.66	14.120
333.02	12.228
333.38	13.003
333.75	13.721
334.11	13.678
334.48	14.356
334.84	13.594
335.20	13.854
335.57	13.997
335.93	14.298
336.29	13.062
336.66	13.877
337.02	14.047
337.38	13.776
337.75	14.132
338.11	14.802
338.47	13.648
338.84	12.860
339.20	13.142
339.56	14.415
339.93	14.614
340.29	14.332
340.65	13.788
341.02	14.924
341.38	14.875
341.74	13.640
342.11	14.883
342.47	12.947
342.83	14.412
343.20	14.554
343.56	13.793
343.92	14.892
344.28	14.141
344.65	15.814
345.01	14.431
345.37	15.086
345.73	13.250
346.10	15.445
346.46	13.924
346.82	15.206
347.19	14.744
347.55	16.009
347.91	14.264
348.27	14.112
348.63	15.156
349.00	14.840
349.36	15.390
349.72	13.914
350.08	15.230
350.45	14.829
350.81	14.329
351.17	14.887
351.53	15.087
351.89	14.882
352.26	14.925
352.62	14.851
352.98	14.351
353.34	14.339
353.70	14.330
354.07	15.425
354.43	14.199
354.79	14.660
355.15	14.717
355.51	15.424
355.87	14.136
356.24	16.730
356.60	14.856
356.96	15.271
357.32	15.167
357.68	14.861
358.04	14.072
358.40	14.851
358.77	16.155
359.13	15.288
359.49	14.944
359.85	15.736
360.21	14.849
360.57	14.645
360.93	15.515
361.29	16.491
361.66	15.134
362.02	15.797
362.38	16.163
362.74	15.503
363.10	15.750
363.46	15.512
363.82	16.477
364.18	15.764
364.54	15.422
364.90	16.254
365.26	15.172
365.62	16.533
365.98	15.385
366.35	15.772
366.71	16.395
367.07	16.712
367.43	16.349
367.79	16.788
368.15	16.589
368.51	16.441
368.87	16.133
369.23	15.933
369.59	15.505
369.95	17.241
370.31	16.745
370.67	16.437
371.03	16.205
371.39	15.782
371.75	16.713
372.11	15.583
372.47	16.114
372.83	16.754
373.19	16.478
373.55	16.463
373.91	15.815
374.27	17.012
374.63	16.441
374.99	17.175
375.35	16.948
375.71	16.452
376.07	17.624
376.42	16.625
376.78	16.718
377.14	17.280
377.50	17.204
377.86	18.596
378.22	17.485
378.58	16.885
378.94	16.960
379.30	17.633
379.66	17.931
380.02	16.734
380.38	17.857
380.74	17.972
381.09	17.247
381.45	17.045
381.81	18.208
382.17	18.171
382.53	17.076
382.89	17.889
383.25	17.995
383.61	17.650
383.97	17.256
384.32	18.242
384.68	17.285
385.04	18.450
385.40	18.326
385.76	18.406
386.12	18.253
386.48	18.471
386.83	19.070
387.19	17.671
387.55	18.016
387.91	17.922
388.27	18.533
388.62	16.953
388.98	18.331
389.34	18.503
389.70	18.071
390.06	18.769
390.42	18.133
390.77	19.266
391.13	18.486
391.49	19.022
391.85	18.242
392.20	18.505
392.56	19.197
392.92	19.411
393.28	19.569
393.64	18.659
393.99	19.814
394.35	19.977
394.71	19.162
395.07	18.323
395.42	18.447
395.78	19.378
396.14	18.717
396.50	18.527
396.85	18.247
397.21	19.231
397.57	18.963
397.92	19.129
398.28	18.631
398.64	18.936
399.00	18.220
399.35	19.372
399.71	18.750
400.07	19.203
400.42	19.034
400.78	18.750
401.14	19.465
401.49	19.784
401.85	18.953
402.21	19.293
402.57	19.014
402.92	19.385
403.28	19.321
403.63	18.437
403.99	18.943
404.35	19.443
404.70	18.924
405.06	18.315
405.42	18.618
405.77	18.920
406.13	19.827
406.49	18.637
406.84	19.612
407.20	19.229
407.55	18.716
407.91	18.856
408.27	18.610
408.62	18.732
408.98	19.443
409.34	18.592
409.69	18.541
410.05	19.402
410.40	19.780
410.76	19.181
411.11	19.345
411.47	19.287
411.83	19.871
412.18	19.518
412.54	19.324
412.89	20.256
413.25	20.034
413.60	18.782
413.96	19.639
414.31	18.924
414.67	19.797
415.03	18.462
415.38	19.420
415.74	19.487
416.09	19.432
416.45	18.535
416.80	19.155
417.16	19.540
417.51	18.867
417.87	19.681
418.22	19.521
418.58	19.269
418.93	19.441
419.29	19.174
419.64	18.367
420.00	18.576
420.35	19.315
420.71	18.955
421.06	18.861
421.42	19.438
421.77	19.278
422.12	18.446
422.48	19.406
422.83	19.222
423.19	18.355
423.54	20.022
423.90	19.161
424.25	19.040
424.61	18.599
424.96	19.275
425.31	19.745
425.67	19.002
426.02	18.816
426.38	18.886
426.73	19.531
427.09	20.012
427.44	19.006
427.79	19.679
428.15	18.664
428.50	19.157
428.85	18.312
429.21	19.202
429.56	19.003
429.92	19.361
430.27	20.193
430.62	18.759
430.98	18.987
431.33	19.257
431.68	18.678
432.04	18.791
432.39	19.014
432.74	18.037
433.10	19.362
433.45	18.339
433.80	18.938
434.16	19.267
434.51	19.219
434.86	19.924
435.22	19.872
435.57	19.929
435.92	20.534
436.28	19.795
436.63	19.716
436.98	18.304
437.34	19.617
437.69	18.712
438.04	18.932
438.39	19.701
438.75	18.484
439.10	19.450
439.45	19.899
439.81	19.040
440.16	18.874
440.51	19.621
440.86	18.621
441.22	19.078
441.57	19.497
441.92	18.720
442.27	19.848
442.63	18.679
442.98	19.477
443.33	18.885
443.68	19.376
444.03	20.367
444.39	20.111
444.74	19.091
445.09	19.564
445.44	19.283
445.79	18.822
446.15	18.962
446.50	19.432
446.85	19.650
447.20	19.342
447.55	18.881
447.91	19.215
448.26	18.023
448.61	19.075
448.96	19.850
449.31	18.505
449.66	18.464
450.02	19.093
450.37	19.339
450.72	19.107
451.07	18.793
451.42	18.949
451.77	18.288
452.12	19.074
452.47	18.063
452.83	19.651
453.18	19.031
453.53	18.840
453.88	18.774
454.23	19.548
454.58	18.224
454.93	18.750
455.28	18.603
455.63	17.396
455.98	19.385
456.34	19.081
456.69	18.636
457.04	17.849
457.39	17.295
457.74	18.289
458.09	18.342
458.44	18.373
458.79	17.741
459.14	18.406
459.49	17.827
459.84	17.786
460.19	17.379
460.54	18.512
460.89	17.152
461.24	18.333
461.59	17.432
461.94	17.056
462.29	17.021
462.64	17.683
462.99	17.137
463.34	17.002
463.69	16.823
464.04	17.399
464.39	17.993
464.74	17.902
465.09	17.647
465.44	17.865
465.79	17.398
466.14	17.301
466.49	17.789
466.84	17.521
467.19	17.514
467.54	16.863
467.89	17.414
468.24	17.064
468.59	15.692
468.94	16.026
469.29	16.437
469.64	16.910
469.99	15.997
470.34	16.832
470.68	17.225
471.03	16.372
471.38	16.547
471.73	15.670
472.08	17.259
472.43	16.315
472.78	16.562
473.13	16.245
473.48	16.193
473.83	16.541
474.17	16.061
474.52	15.634
474.87	16.888
475.22	16.113
475.57	15.836
475.92	16.227
476.27	15.921
476.61	15.472
476.96	15.172
477.31	15.842
477.66	15.477
478.01	16.116
478.36	15.603
478.70	16.059
479.05	16.155
479.40	14.857
479.75	15.754
480.10	15.822
480.45	15.634
480.79	15.283
481.14	14.890
481.49	14.675
481.84	15.883
482.19	15.441
482.53	15.129
482.88	15.419
483.23	15.162
483.58	14.672
483.92	14.495
484.27	14.395
484.62	14.728
484.97	15.319
485.31	14.784
485.66	13.881
486.01	14.404
486.36	14.985
486.70	15.077
487.05	15.313
487.40	14.674
487.75	14.631
488.09	14.173
488.44	13.995
488.79	14.266
489.13	14.048
489.48	13.087
489.83	13.521
490.17	13.366
490.52	14.245
490.87	13.790
491.22	13.605
491.56	14.164
491.91	13.389
492.26	14.106
492.60	13.948
492.95	13.953
493.30	13.268
493.64	13.973
493.99	13.816
494.34	12.674
494.68	12.934
495.03	13.789
495.37	13.094
495.72	13.061
496.07	13.322
496.41	13.042
496.76	13.428
497.11	14.055
497.45	12.948
497.80	13.327
498.14	12.789
498.49	11.994
498.84	13.163
499.18	13.135
499.53	13.318
499.87	13.099
500.22	13.045
500.56	13.090
500.91	12.677
501.26	12.818
501.60	12.594
501.95	12.809
502.29	12.725
502.64	12.505
502.98	12.726
503.33	12.786
503.67	12.167
504.02	12.609
504.36	12.645
504.71	12.586
505.06	13.006
505.40	12.980
505.75	12.705
506.09	13.214
506.44	12.442
506.78	12.706
507.13	12.172
507.47	11.985
507.82	11.553
508.16	11.855
508.51	12.283
508.85	11.809
509.19	11.511
509.54	12.248
509.88	11.413
510.23	12.822
510.57	12.711
510.92	12.143
511.26	11.159
511.61	11.395
511.95	11.664
512.30	12.309
512.64	11.344
512.98	11.606
513.33	11.744
513.67	11.780
514.02	11.446
514.36	12.276
514.70	11.667
515.05	11.992
515.39	11.024
515.74	11.930
516.08	11.886
516.42	12.507
516.77	12.303
517.11	11.294
517.46	11.665
517.80	12.346
518.14	11.970
518.49	11.171
518.83	12.028
519.17	11.362
519.52	11.373
519.86	10.454
520.20	12.034
520.55	11.391
520.89	11.712
521.23	11.334
521.58	11.582
521.92	11.161
522.26	10.825
522.61	11.632
522.95	10.265
523.29	11.149
523.64	11.211
523.98	11.979
524.32	12.092
524.66	11.668
525.01	10.929
525.35	10.281
525.69	10.441
526.04	10.620
526.38	11.207
526.72	10.727
527.06	11.496
527.41	10.379
527.75	10.570
528.09	11.098
528.43	10.598
528.78	10.751
529.12	11.009
529.46	10.680
529.80	10.297
530.15	11.072
530.49	10.320
530.83	11.098
531.17	10.992
531.51	11.011
531.86	11.058
532.20	10.061
532.54	10.413
532.88	9.939
533.22	10.666
533.57	11.310
533.91	10.438
534.25	11.193
534.59	10.230
534.93	10.243
535.27	10.197
535.62	11.143
535.96	10.517
536.30	9.929
536.64	11.231
536.98	10.578
537.32	10.432
537.66	10.855
538.01	10.937
538.35	9.196
538.69	9.856
539.03	10.300
539.37	10.424
539.71	11.111
540.05	10.192
540.39	10.024
540.73	9.472
541.07	10.239
541.42	9.628
541.76	9.490
542.10	9.891
542.44	9.622
542.78	10.523
543.12	10.191
543.46	10.562
543.80	9.712
544.14	9.695
544.48	9.634
544.82	10.054
545.16	10.495
545.50	9.946
545.84	10.655
546.18	10.494
546.52	10.127
546.86	9.057
547.20	9.669
547.54	9.551
547.88	9.885
548.22	9.006
548.56	9.538
548.90	9.552
549.24	9.605
549.58	9.779
549.92	9.758
550.26	10.227
550.60	9.445
550.94	9.702
551.28	10.099
551.62	9.636
551.96	9.838
552.30	9.943
552.64	10.143
552.98	9.420
553.32	9.260
553.66	8.939
554.00	9.710
554.34	9.331
554.68	9.684
555.02	9.198
555.36	10.256
555.69	8.905
556.03	9.458
556.37	9.324
556.71	9.448
557.05	9.329
557.39	9.157
557.73	9.709
558.07	8.609
558.41	9.435
558.75	9.128
559.08	9.186
559.42	9.465
559.76	9.294
560.10	10.047
560.44	8.575
560.78	9.625
561.12	8.990
561.45	9.915
561.79	9.402
562.13	9.242
562.47	8.755
562.81	8.544
563.15	8.965
563.48	8.577
563.82	9.250
564.16	8.359
564.50	8.582
564.84	9.322
565.17	8.588
565.51	9.264
565.85	9.026
566.19	8.065
566.52	8.602
566.86	8.829
567.20	8.918
567.54	8.816
567.88	8.970
568.21	8.696
568.55	8.969
568.89	9.260
569.23	9.210
569.56	8.519
569.90	9.230
570.24	9.275
570.57	8.691
570.91	8.359
571.25	8.823
571.59	8.628
571.92	9.035
572.26	8.549
572.60	8.954
572.93	8.934
573.27	8.767
573.61	8.444
573.95	8.521
574.28	8.503
574.62	8.254
574.96	8.315
575.29	8.482
575.63	8.201
575.97	8.886
576.30	8.167
576.64	8.423
576.98	8.451
577.31	8.410
577.65	8.461
577.98	8.547
578.32	8.366
578.66	8.330
578.99	8.110
579.33	8.137
579.67	8.386
580.00	8.249
580.34	8.312
580.67	8.208
581.01	8.178
581.35	8.163
581.68	8.429
582.02	8.599
582.35	8.468
582.69	8.707
583.02	8.466
583.36	8.338
583.70	8.021
584.03	7.775
584.37	8.270
584.70	7.946
585.04	7.952
585.37	8.197
585.71	8.091
586.04	8.014
586.38	8.264
586.72	7.796
587.05	8.186
587.39	8.078
587.72	8.206
588.06	8.075
588.39	8.190
588.73	7.989
589.06	8.183
589.40	7.806
589.73	7.616
590.07	7.958
590.40	8.452
590.73	7.953
591.07	8.637
591.40	8.437
591.74	8.466
592.07	8.892
592.41	7.650
592.74	8.342
593.08	7.898
593.41	8.078
593.75	7.845
594.08	8.331
594.41	8.365
594.75	7.971
595.08	7.470
595.42	7.825
595.75	8.266
596.09	8.065
596.42	7.488
596.75	8.337
597.09	8.242
597.42	7.747
597.75	8.271
598.09	8.333
598.42	7.801
598.76	7.833
599.09	8.152
599.42	7.811
599.76	8.022
600.09	8.175
600.42	8.075
600.76	7.794
601.09	7.932
601.42	7.861
601.76	7.828
602.09	7.434
602.42	7.415
602.76	8.376
603.09	7.636
603.42	7.731
603.76	7.541
604.09	8.162
604.42	7.560
604.76	7.572
605.09	7.738
605.42	8.254
605.75	7.962
606.09	7.353
606.42	7.552
606.75	7.909
607.09	7.335
607.42	7.823
607.75	7.972
608.08	7.735
608.42	7.537
608.75	7.960
609.08	7.131
609.41	7.322
609.75	7.321
610.08	7.608
610.41	7.392
610.74	7.143
611.07	7.194
611.41	7.534
611.74	7.575
612.07	7.761
612.40	7.082
612.73	7.335
613.07	7.335
613.40	7.363
613.73	7.222
614.06	7.949
614.39	7.629
614.72	7.763
615.06	6.930
615.39	7.298
615.72	7.536
616.05	7.722
616.38	7.921
616.71	8.098
617.05	6.763
617.38	8.079
617.71	7.883
618.04	7.825
618.37	7.814
618.70	8.484
619.03	6.691
619.36	7.953
619.69	6.983
620.03	7.219
620.36	7.301
620.69	6.909
621.02	7.480
621.35	7.837
621.68	8.098
622.01	7.900
622.34	7.183
622.67	6.529
623.00	6.478
623.33	7.565
623.66	7.717
623.99	6.452
624.32	8.382
624.65	6.950
624.99	7.802
625.32	7.642
625.65	6.743
625.98	6.780
626.31	6.804
626.64	7.179
626.97	7.277
627.30	6.606
627.63	7.352
627.96	7.733
628.29	8.249
628.62	5.709
628.95	6.836
629.28	6.032
629.61	7.071
629.94	5.774
630.26	6.610
630.59	6.995
630.92	6.494
631.25	7.961
631.58	6.874
631.91	6.654
632.24	6.820
632.57	6.452
632.90	5.316
633.23	7.653
633.56	6.531
633.89	7.645
634.22	7.692
634.55	7.620
634.88	8.009
635.20	8.181
635.53	7.006
635.86	7.584
636.19	8.484
636.52	8.017
636.85	6.844
637.18	7.069
637.51	6.559
637.83	7.641
638.16	8.756
638.49	6.573
638.82	7.328
639.15	5.956
639.48	8.314
639.81	6.582
640.13	8.481
640.46	6.909
640.79	7.230
641.12	7.578
641.45	6.650
641.77	8.087
642.10	6.824
642.43	7.846
642.76	6.233
643.09	6.164
643.41	6.022
643.74	8.414
644.07	7.862
644.40	6.931
644.73	6.096
645.05	6.461
645.38	7.338
645.71	5.865
646.04	8.321
646.36	5.255
646.69	6.135
647.02	7.492
647.35	6.870
647.67	7.246
648.00	6.210
648.33	8.108
648.66	7.418
648.98	7.483
649.31	6.089
649.64	8.898
649.96	6.366
650.29	6.676
650.62	6.789
650.94	6.006
651.27	5.240
651.60	6.725
651.92	5.927
652.25	7.236
652.58	8.253
652.90	4.942
653.23	6.479
653.56	6.562
653.88	7.584
654.21	5.634
654.54	5.925
654.86	7.365
655.19	5.772
655.52	6.864
655.84	6.310
656.17	8.075
656.49	11.306
656.82	12.217
657.15	9.506
657.47	7.285
657.80	5.233
658.13	4.156
658.45	5.221
658.78	6.505
659.10	5.550
659.43	5.895
659.75	5.715
660.08	6.555
660.41	6.286
660.73	5.815
661.06	6.461
661.38	6.699
661.71	6.897
662.03	5.996
662.36	8.050
662.68	7.129
663.01	6.726
663.33	8.318
663.66	7.326
663.98	6.731
664.31	7.880
664.63	3.468
664.96	5.445
665.28	4.356
665.61	8.566
665.93	4.643
666.26	6.093
666.58	6.273
666.91	7.290
667.23	8.952
667.56	7.692
667.88	8.400
668.21	4.492
668.53	5.019
668.86	7.073
669.18	5.499
669.50	7.753
669.83	3.400
670.15	5.118
670.48	5.754
670.80	5.736
671.13	4.915
671.45	6.102
671.77	8.098
672.10	5.833
672.42	5.016
672.75	4.608
673.07	6.269
673.39	5.701
673.72	7.215
674.04	7.931
674.37	7.871
674.69	6.173
675.01	4.762
675.34	6.298
675.66	6.554
675.98	7.463
676.31	5.469
676.63	7.605
676.95	5.939
677.28	5.242
677.60	3.937
677.92	5.950
678.25	6.216
678.57	7.295
678.89	9.044
679.22	6.272
679.54	7.179
679.86	4.237
680.18	5.970
680.51	6.289
680.83	7.038
681.15	5.000
681.48	7.772
681.80	5.009
682.12	6.294
682.44	5.175
682.77	5.674
683.09	6.818
683.41	8.721
683.73	8.729
684.06	5.535
684.38	3.936
684.70	6.463
685.02	5.508
685.34	3.827
685.67	5.205
685.99	5.828
686.31	4.360
686.63	4.265
686.96	5.994
687.28	6.515
687.60	3.872
687.92	5.145
688.24	6.678
688.56	5.172
688.89	5.445
689.21	5.871
689.53	2.745
689.85	5.128
690.17	7.222
690.49	5.578
690.82	7.525
691.14	3.846
691.46	6.310
691.78	6.446
692.10	5.138
692.42	4.643
692.74	5.263
693.06	5.000
693.39	4.744
693.71	4.699
694.03	6.320
694.35	5.333
694.67	6.366
694.99	6.383
695.31	6.181
695.63	6.494
695.95	5.176
696.27	5.275
696.59	6.416
696.91	4.730
697.23	8.132
697.56	3.259
697.88	5.682
698.20	4.896
698.52	6.439
698.84	3.119
699.16	8.571
699.48	6.067
699.80	6.809
700.12	7.424
700.44	6.452
700.76	6.651
701.08	4.600
701.40	4.404
701.72	4.975
702.04	6.417
702.36	1.047
702.68	3.178
703.00	4.645
703.32	3.941
703.64	7.335
703.96	7.637
704.28	5.897
704.60	7.089
704.91	6.888
705.23	6.575
705.55	3.900
705.87	2.727
706.19	6.135
706.51	1.807
706.83	4.323
707.15	3.439
707.47	5.607
707.79	5.240
708.11	3.602
708.43	2.796
708.74	1.786
709.06	3.016
709.38	7.512
709.70	7.444
710.02	5.685
710.34	3.989
710.66	3.073
710.98	6.284
711.29	4.121
711.61	2.260
711.93	5.128
712.25	5.946
712.57	8.260
712.89	6.176
713.20	6.509
713.52	8.382
713.84	5.571
714.16	9.211
714.48	4.897
714.80	6.234
715.11	6.037
715.43	4.775
715.75	6.053
716.07	4.420
716.39	9.016
716.70	3.916
717.02	7.869
717.34	1.742
717.66	7.718
717.97	1.370
718.29	1.718
718.61	4.276
718.93	3.883
719.24	5.280
719.56	7.055
719.88	4.204
720.20	3.871
720.51	3.416
720.83	4.375
721.15	2.961
721.46	0.342
721.78	3.000
722.10	0.647
722.42	2.013
722.73	3.226
723.05	3.509
723.37	3.125
723.68	5.018
724.00	5.415
724.32	5.282
724.63	5.245
724.95	3.901
725.27	6.969
725.58	2.120
725.90	6.552
726.22	7.524
726.53	7.143
726.85	6.604
727.16	4.532
727.48	9.174
727.80	4.636
728.11	2.120
728.43	6.734
728.74	4.013
729.06	6.291
729.38	4.870
729.69	5.369
730.01	5.952
730.32	2.121
730.64	1.258
730.96	2.174
731.27	7.542
731.59	8.516
731.90	3.117
732.22	5.208
732.53	3.315
732.85	2.286
733.16	5.865
733.48	3.049
733.80	3.343
734.11	6.553
734.43	10.000
734.74	6.076
735.06	5.276
735.37	5.405
735.69	4.865
736.00	6.215
736.32	4.852
736.63	5.833
736.95	4.023
737.26	3.939
737.58	1.818
737.89	6.765
738.21	2.752
738.52	0.984
738.83	9.556
739.15	5.319
739.46	4.422
739.78	6.748
740.09	3.152
740.41	6.997
740.72	4.333
741.04	4.531
741.35	4.561
741.66	2.745
741.98	7.377
742.29	3.347
742.61	7.018
742.92	1.923
743.23	6.859
743.55	7.752
743.86	4.400
744.18	-1.653
744.49	2.532
744.80	8.642
745.12	7.173
745.43	5.285
745.74	0.862
746.06	2.966
746.37	2.110
746.68	5.285
747.00	2.917
747.31	5.150
747.62	8.462
747.94	4.049
748.25	3.213
748.56	4.082
748.88	0.855
749.19	8.190
749.50	0.433
749.82	6.426
750.13	3.915
750.44	1.667
750.75	4.000
751.07	5.231
751.38	5.678
751.69	3.514
752.01	1.294
752.32	6.209
752.63	2.041
752.94	6.574
753.26	1.859
753.57	1.111
753.88	0.000
754.19	7.395
754.51	5.145
754.82	7.717
755.13	6.230
755.44	2.048
755.75	3.947
756.07	6.269
756.38	4.717
756.69	5.120
757.00	4.155
757.31	4.372
757.63	0.512
757.94	3.756
758.25	5.869
758.56	2.832
758.87	5.909
759.18	6.667
759.50	6.799
759.81	6.162
760.12	6.739
760.43	7.031
760.74	7.143
761.05	2.000
761.36	3.133
761.67	3.553
761.99	5.676
762.30	3.963
762.61	0.660
762.92	5.224
763.23	4.494
763.54	6.835
763.85	4.124
764.16	4.377
764.47	4.577
764.78	6.070
765.10	6.452
765.41	6.923
765.72	2.646
766.03	3.955
766.34	3.762
766.65	2.439
766.96	4.781
767.27	6.912
767.58	-1.493
767.89	7.692
768.20	4.695
768.51	2.778
768.82	7.631
769.13	2.652
769.44	-1.154
769.75	9.747
770.06	6.154
770.37	7.874
770.68	0.426
770.99	1.215
771.30	8.889
771.61	5.323
771.92	5.185
772.23	5.668
772.54	1.852
772.85	11.521
773.16	5.714
773.47	-2.116
773.78	-4.324
774.09	6.250
774.39	10.000
774.70	10.929
775.01	-4.268
775.32	-1.176
775.63	-3.067
775.94	7.006
776.25	8.387
776.56	7.692
776.87	2.721
777.18	6.897
777.48	4.196
777.79	4.054
778.10	2.206
778.41	6.250
778.72	6.207
779.03	2.469
779.34	-3.636
779.65	7.772
779.95	7.222
780.26	8.523
780.57	10.968
780.88	4.348
781.19	7.097
781.50	10.000
781.80	4.839
782.11	7.407
782.42	2.020
782.73	5.389
783.04	1.117
783.34	-6.061
783.65	-7.843
783.96	3.727
784.27	6.548
784.57	0.662
784.88	-2.857
785.19	4.724
785.50	0.787
785.81	4.511
786.11	4.615
786.42	-0.719
786.73	5.036
787.04	4.511
787.34	5.738
787.65	0.800
787.96	-1.493
788.26	9.091
788.57	2.098
788.88	7.895
789.19	11.765
789.49	2.740
789.80	7.801
790.11	-1.575
790.41	3.906
790.72	2.542
791.03	-8.738
791.33	3.478
791.64	0.000
791.95	6.250
792.25	2.857
792.56	6.250
792.87	3.125
793.17	6.250
793.48	0.000
793.79	1.205
794.09	0.917
794.40	3.670
794.70	9.524
795.01	2.597
795.32	1.370
795.62	8.451
795.93	0.000
796.23	10.656
796.54	8.036
796.85	5.319
797.15	-2.174
797.46	0.000
797.76	0.000
798.07	-2.174
798.37	-4.124
798.68	-14.286
798.99	10.345
799.29	3.371
799.60	12.766
799.90	-8.434
800.21	-10.769
800.51	-11.940
800.82	-7.353
801.12	-16.438
801.43	-10.294
801.73	-16.949
802.04	-3.030
802.34	-13.333
802.65	11.864
802.95	4.478
803.26	1.695
803.56	-4.110
803.87	2.857
804.17	10.959
804.48	-26.316
804.78	0.000
805.09	-5.172
805.39	12.162
805.70	2.817
806.00	7.317
806.30	-4.819
806.61	-10.959
806.91	5.769
807.22	3.333
807.52	-9.195
807.83	16.667
808.13	13.253
808.43	11.236
808.74	10.000
809.04	-10.294
809.35	-5.333
809.65	-5.714
809.95	21.918
810.26	-15.789
810.56	-8.621
810.86	8.824
811.17	3.509
811.47	-6.557
811.77	-11.111
812.08	8.475
812.38	13.333
812.69	10.345
812.99	-9.434
813.29	-20.513
813.59	0.000
813.90	14.035
814.20	3.636
814.50	16.901
814.81	12.821
815.11	3.279
815.41	8.955
815.72	27.586
816.02	5.357
816.32	17.778
816.62	6.818
816.93	20.000
817.23	1.852
817.53	2.128
817.84	28.571
818.14	11.765
818.44	-4.082
818.74	-4.444
819.04	-28.205
819.35	-34.286
819.65	-46.154
819.95	-15.094
820.25	13.333
820.56	-9.524
820.86	-31.250
821.16	-17.949
821.46	-16.279
821.76	-22.000
822.07	1.786
822.37	-19.565
822.67	0.000
822.97	-24.324
823.27	-20.000
823.57	8.163
823.88	13.333
824.18	-2.500
824.48	-13.333
824.78	16.000
825.08	-3.030
825.38	6.667
825.69	12.766
825.99	0.000
826.29	-37.143
826.59	-2.564
826.89	13.953
827.19	12.000
827.49	11.765
827.79	-16.667
828.09	2.703
828.39	-20.000
828.70	-4.878
829.00	2.326
829.30	-35.714
829.60	29.412
829.90	-2.174
830.20	5.714
830.50	-6.897
830.80	-16.667
831.10	26.923
831.40	-8.824
831.70	-19.048
832.00	22.581
832.30	-88.235
832.60	-20.833
832.90	-107.692
833.20	-5.263
833.50	-15.000
833.80	-31.579
834.10	-66.667
834.40	5.556
834.70	21.875
835.00	-34.286
835.30	20.588
835.60	-20.000
835.90	-8.000
836.20	-118.182
836.50	-8.000
836.80	-21.212
837.10	-37.037
837.40	-11.111
837.70	-87.500
838.00	-10.714
838.30	-34.783
838.60	-20.690
838.90	-64.286
839.19	-69.565
839.49	-50.000
839.79	-26.087
840.09	-37.500
840.39	25.000
840.69	35.484
840.99	-17.857
841.29	-33.333
841.59	-15.789
841.88	12.821
842.18	-19.231
842.48	-60.000
842.78	-20.000
843.08	0.000
843.38	12.903
843.68	5.556
843.97	11.765
844.27	-75.000
844.57	-36.842
844.87	-40.000
845.17	-46.667
845.47	14.286
845.76	-47.619
846.06	-133.333
846.36	-35.294
846.66	0.000
846.96	-53.333
847.25	-11.765
847.55	30.435
847.85	0.000
848.15	-17.647
848.44	-54.545
848.74	4.762
849.04	4.167
849.34	-12.500
849.63	-39.130
849.93	450.000
850.23	-80.000
850.53	-3.846
850.82	-72.727
851.12	9.091
851.42	-18.182
851.71	23.077
852.01	10.000
852.31	-53.846
852.61	15.789
852.90	-8.333
853.20	5.556
853.50	-66.667
853.79	-52.381
854.09	-31.818
854.39	-83.333
854.68	-16.129
854.98	-30.769
855.28	-38.889
855.57	-35.714
855.87	4.000
856.17	-22.727
856.46	7.407
856.76	0.000
857.05	-4.348
857.35	-33.333
857.65	-46.154
857.94	-19.048
858.24	22.222
858.53	47.826
858.83	5.882
859.13	5.882
859.42	-17.647
859.72	28.571
860.01	40.000
860.31	-22.222
860.60	-20.000
860.90	13.333
861.20	-11.111
861.49	-7.692
861.79	-6.667
862.08	-107.692
862.38	37.500
862.67	0.000
862.97	-93.750
863.26	-55.556
863.56	-70.000
863.85	-72.727
864.15	16.667
864.44	-266.667
864.74	-14.286
865.03	-18.750
865.33	-140.000
865.62	-29.032
865.92	36.364
866.21	-4.348
866.51	-21.429
866.80	-100.000
867.10	-66.667
867.39	-83.333
867.69	800.000
867.98	-28.571
868.27	0.000
868.57	-1100.000
868.86	-130.000
869.16	-38.095
869.45	29.167
869.75	90.909
870.04	28.571
870.33	-16.667
870.63	-128.571
870.92	-175.000
871.22	-75.000
871.51	9.091
871.80	-433.333
872.10	-450.000
>>>>>End Processed Spectral Data<<<<<
