SpectraSuite Data File
++++++++++++++++++++++++++++++++++++
Date: Thu May 14 16:39:08 PDT 2015
User: schluterlab
Dark Spectrum Present: Yes
Reference Spectrum Present: Yes
Number of Sampled Component Spectra: 1
Spectrometers: USB2E3373
Integration Time (usec): 3000 (USB2E3373)
Spectra Averaged: 3 (USB2E3373)
Boxcar Smoothing: 0 (USB2E3373)
Correct for Electrical Dark: No (USB2E3373)
Strobe/Lamp Enabled: No (USB2E3373)
Correct for Detector Non-linearity: No (USB2E3373)
Correct for Stray Light: No (USB2E3373)
Number of Pixels in Processed Spectrum: 2048
>>>>>Begin Processed Spectral Data<<<<<
178.53	0.000
178.91	42.857
179.29	-1400.000
179.67	-1000.000
180.04	157.143
180.42	80.000
180.80	100.000
181.18	0.000
181.56	800.000
181.94	200.000
182.31	150.000
182.69	33.333
183.07	-450.000
183.45	100.000
183.83	-66.667
184.20	-133.333
184.58	-600.000
184.96	-100.000
185.34	-44.444
185.72	120.000
186.09	100.000
186.47	500.000
186.85	240.000
187.23	-155.556
187.61	-1300.000
187.98	100.000
188.36	500.000
188.74	-200.000
189.12	200.000
189.49	-56.250
189.87	-37.500
190.25	0.000
190.63	-60.000
191.00	-144.444
191.38	0.000
191.76	-400.000
192.14	-133.333
192.51	450.000
192.89	50.000
193.27	0.000
193.65	-100.000
194.02	-1400.000
194.40	-128.571
194.78	142.857
195.15	0.000
195.53	27.273
195.91	0.000
196.29	50.000
196.66	38.462
197.04	-700.000
197.42	14.286
197.79	-300.000
198.17	50.000
198.55	-171.429
198.92	22.222
199.30	12.500
199.68	90.909
200.05	7.143
200.43	-350.000
200.81	114.286
201.18	0.000
201.56	166.667
201.94	0.000
202.31	333.333
202.69	-55.556
203.07	-300.000
203.44	66.667
203.82	-50.000
204.19	0.000
204.57	-100.000
204.95	-50.000
205.32	-800.000
205.70	25.000
206.08	-166.667
206.45	-66.667
206.83	100.000
207.20	-83.333
207.58	-180.000
207.96	-116.667
208.33	-33.333
208.71	41.667
209.08	166.667
209.46	0.000
209.84	116.667
210.21	350.000
210.59	300.000
210.96	-33.333
211.34	-25.000
211.71	-87.500
212.09	-1000.000
212.46	0.000
212.84	800.000
213.22	-240.000
213.59	150.000
213.97	40.000
214.34	-233.333
214.72	116.667
215.09	-25.000
215.47	0.000
215.84	85.714
216.22	500.000
216.59	-60.000
216.97	-140.000
217.34	-125.000
217.72	50.000
218.09	-125.000
218.47	-150.000
218.84	0.000
219.22	-40.000
219.59	35.294
219.97	35.000
220.34	350.000
220.72	-44.444
221.09	-23.077
221.47	-166.667
221.84	-30.000
222.22	28.571
222.59	0.000
222.97	75.000
223.34	-160.000
223.72	-1300.000
224.09	-75.000
224.46	-75.000
224.84	0.000
225.21	-185.714
225.59	-400.000
225.96	-100.000
226.34	26.923
226.71	200.000
227.08	-500.000
227.46	46.667
227.83	-325.000
228.21	10.526
228.58	75.000
228.95	200.000
229.33	41.667
229.70	10.000
230.08	52.632
230.45	140.000
230.82	-66.667
231.20	-28.571
231.57	-58.333
231.95	-45.455
232.32	-18.182
232.69	10.000
233.07	-100.000
233.44	-17.647
233.81	-60.000
234.19	11.111
234.56	50.000
234.93	48.276
235.31	10.526
235.68	44.444
236.05	-50.000
236.43	46.154
236.80	44.000
237.17	3.704
237.55	9.091
237.92	-100.000
238.29	-9.677
238.67	-11.364
239.04	-2.778
239.41	-16.667
239.79	2.174
240.16	0.000
240.53	10.870
240.91	3.922
241.28	-6.557
241.65	11.940
242.02	17.568
242.40	-6.154
242.77	-6.667
243.14	0.000
243.51	1.316
243.89	-2.564
244.26	10.891
244.63	11.765
245.00	10.280
245.38	-1.754
245.75	0.000
246.12	3.968
246.49	1.550
246.87	5.000
247.24	11.921
247.61	10.526
247.98	4.698
248.36	0.617
248.73	-1.227
249.10	6.557
249.47	15.920
249.84	13.089
250.22	3.627
250.59	11.111
250.96	9.091
251.33	4.592
251.70	9.829
252.08	8.333
252.45	13.934
252.82	6.198
253.19	3.516
253.56	8.745
253.94	5.769
254.31	9.091
254.68	12.587
255.05	12.378
255.42	9.864
255.79	5.825
256.16	6.623
256.54	7.285
256.91	5.246
257.28	13.770
257.65	6.688
258.02	5.310
258.39	9.402
258.76	11.621
259.14	10.057
259.51	7.781
259.88	6.799
260.25	10.000
260.62	10.685
260.99	9.563
261.36	10.456
261.73	9.019
262.10	7.692
262.47	9.115
262.85	10.859
263.22	7.013
263.59	6.842
263.96	8.440
264.33	7.161
264.70	9.630
265.07	13.604
265.44	13.152
265.81	9.259
266.18	10.431
266.55	8.482
266.92	7.517
267.29	9.847
267.66	7.539
268.03	10.262
268.40	9.603
268.77	7.062
269.14	7.048
269.51	9.430
269.88	10.246
270.25	11.066
270.62	10.338
270.99	8.889
271.36	8.317
271.73	10.020
272.10	9.018
272.47	9.820
272.84	8.233
273.21	9.419
273.58	8.266
273.95	9.231
274.32	9.696
274.69	8.511
275.06	8.059
275.43	7.209
275.80	9.171
276.17	7.963
276.54	7.836
276.91	7.335
277.28	10.307
277.65	8.079
278.02	9.191
278.39	7.790
278.76	6.678
279.13	7.979
279.50	11.340
279.87	10.376
280.23	6.162
280.60	8.644
280.97	8.059
281.34	7.640
281.71	10.321
282.08	7.973
282.45	8.020
282.82	7.378
283.19	5.977
283.56	7.049
283.92	9.760
284.29	11.374
284.66	9.852
285.03	6.250
285.40	9.583
285.77	7.276
286.14	9.618
286.51	7.610
286.87	8.057
287.24	7.982
287.61	8.221
287.98	8.459
288.35	9.024
288.72	8.136
289.08	9.956
289.45	7.544
289.82	6.777
290.19	9.052
290.56	9.718
290.93	8.274
291.29	8.127
291.66	7.438
292.03	8.005
292.40	8.844
292.77	6.739
293.13	8.660
293.50	6.570
293.87	6.980
294.24	8.800
294.60	7.838
294.97	5.906
295.34	7.554
295.71	6.305
296.08	6.977
296.44	6.985
296.81	7.795
297.18	5.978
297.55	7.193
297.91	6.050
298.28	6.635
298.65	8.205
299.02	6.021
299.38	7.094
299.75	7.593
300.12	5.787
300.48	7.488
300.85	7.424
301.22	7.271
301.59	6.164
301.95	6.554
302.32	8.556
302.69	6.462
303.05	7.617
303.42	6.984
303.79	6.458
304.15	6.730
304.52	6.554
304.89	7.120
305.25	7.143
305.62	6.374
305.99	7.320
306.35	6.048
306.72	5.377
307.09	6.904
307.45	7.246
307.82	6.256
308.19	7.568
308.55	8.293
308.92	6.816
309.29	7.471
309.65	6.043
310.02	7.129
310.38	6.594
310.75	6.505
311.12	6.999
311.48	7.038
311.85	6.648
312.22	6.357
312.58	5.915
312.95	6.310
313.31	7.407
313.68	6.593
314.05	7.227
314.41	8.015
314.78	5.631
315.14	6.534
315.51	7.479
315.87	6.841
316.24	7.306
316.61	7.815
316.97	6.154
317.34	7.231
317.70	6.463
318.07	7.848
318.43	7.398
318.80	8.528
319.16	6.695
319.53	6.598
319.89	6.748
320.26	7.473
320.62	6.294
320.99	7.756
321.35	7.209
321.72	8.372
322.08	6.943
322.45	7.769
322.81	6.769
323.18	7.080
323.54	6.897
323.91	8.719
324.27	7.315
324.64	8.060
325.00	6.219
325.37	7.207
325.73	8.264
326.10	8.354
326.46	8.143
326.83	8.487
327.19	8.189
327.56	7.747
327.92	7.710
328.29	6.774
328.65	6.784
329.01	7.530
329.38	8.677
329.74	7.877
330.11	8.048
330.47	7.245
330.84	6.977
331.20	7.750
331.56	7.279
331.93	7.866
332.29	6.695
332.66	8.223
333.02	7.705
333.38	7.299
333.75	7.071
334.11	7.840
334.48	7.591
334.84	7.901
335.20	6.465
335.57	7.841
335.93	6.860
336.29	7.072
336.66	7.990
337.02	6.773
337.38	8.163
337.75	7.355
338.11	7.233
338.47	6.948
338.84	7.530
339.20	5.897
339.56	8.320
339.93	7.307
340.29	6.924
340.65	6.813
341.02	7.502
341.38	7.922
341.74	7.022
342.11	7.562
342.47	6.275
342.83	8.052
343.20	6.378
343.56	7.779
343.92	7.606
344.28	7.656
344.65	7.597
345.01	7.410
345.37	7.309
345.73	5.378
346.10	7.176
346.46	7.199
346.82	7.116
347.19	7.334
347.55	8.422
347.91	6.464
348.27	6.525
348.63	7.921
349.00	6.935
349.36	8.178
349.72	7.068
350.08	7.801
350.45	6.008
350.81	7.240
351.17	6.767
351.53	6.975
351.89	7.289
352.26	7.015
352.62	6.716
352.98	7.252
353.34	6.423
353.70	6.086
354.07	6.781
354.43	6.302
354.79	7.629
355.15	6.623
355.51	8.041
355.87	6.358
356.24	6.844
356.60	6.874
356.96	7.042
357.32	5.948
357.68	5.490
358.04	5.763
358.40	6.716
358.77	7.018
359.13	4.653
359.49	5.948
359.85	7.179
360.21	6.887
360.57	7.322
360.93	7.052
361.29	6.807
361.66	5.938
362.02	6.750
362.38	6.887
362.74	5.796
363.10	7.015
363.46	6.233
363.82	6.463
364.18	5.700
364.54	7.192
364.90	7.224
365.26	5.793
365.62	6.933
365.98	6.399
366.35	6.040
366.71	6.531
367.07	6.292
367.43	5.975
367.79	6.967
368.15	7.559
368.51	6.834
368.87	7.120
369.23	6.533
369.59	6.079
369.95	7.099
370.31	6.617
370.67	5.640
371.03	6.856
371.39	5.641
371.75	6.259
372.11	6.165
372.47	6.635
372.83	7.657
373.19	7.071
373.55	5.623
373.91	5.112
374.27	6.468
374.63	6.022
374.99	5.968
375.35	7.857
375.71	5.742
376.07	6.649
376.42	6.801
376.78	7.023
377.14	6.675
377.50	5.819
377.86	6.404
378.22	6.766
378.58	6.361
378.94	6.103
379.30	6.151
379.66	6.408
380.02	6.694
380.38	6.509
380.74	5.972
381.09	6.330
381.45	6.080
381.81	5.621
382.17	6.710
382.53	5.965
382.89	6.377
383.25	6.741
383.61	5.613
383.97	5.418
384.32	6.340
384.68	6.148
385.04	6.131
385.40	6.423
385.76	7.034
386.12	6.104
386.48	6.176
386.83	6.913
387.19	6.025
387.55	5.810
387.91	6.336
388.27	6.178
388.62	6.930
388.98	6.261
389.34	6.423
389.70	6.275
390.06	6.098
390.42	5.301
390.77	5.960
391.13	6.397
391.49	5.556
391.85	5.636
392.20	5.931
392.56	6.793
392.92	6.979
393.28	5.860
393.64	5.810
393.99	6.450
394.35	6.600
394.71	6.527
395.07	5.928
395.42	6.111
395.78	6.033
396.14	6.358
396.50	6.235
396.85	6.440
397.21	6.331
397.57	6.714
397.92	6.529
398.28	5.649
398.64	6.350
399.00	5.445
399.35	5.497
399.71	6.250
400.07	5.839
400.42	5.064
400.78	6.019
401.14	6.431
401.49	6.140
401.85	5.988
402.21	5.736
402.57	6.631
402.92	5.910
403.28	5.679
403.63	5.012
403.99	5.344
404.35	5.458
404.70	6.176
405.06	6.141
405.42	5.972
405.77	6.052
406.13	6.051
406.49	5.968
406.84	6.648
407.20	5.478
407.55	5.754
407.91	5.720
408.27	5.948
408.62	6.806
408.98	6.384
409.34	5.396
409.69	6.799
410.05	6.096
410.40	6.787
410.76	6.618
411.11	6.137
411.47	6.818
411.83	5.761
412.18	6.446
412.54	6.283
412.89	6.810
413.25	6.659
413.60	6.146
413.96	6.585
414.31	5.439
414.67	5.963
415.03	5.969
415.38	6.053
415.74	5.742
416.09	5.984
416.45	6.450
416.80	6.181
417.16	6.450
417.51	6.102
417.87	5.947
418.22	6.826
418.58	5.886
418.93	7.101
419.29	5.734
419.64	6.062
420.00	5.341
420.35	6.289
420.71	6.088
421.06	5.923
421.42	6.193
421.77	5.977
422.12	6.660
422.48	5.735
422.83	6.462
423.19	5.729
423.54	6.029
423.90	6.516
424.25	6.453
424.61	5.224
424.96	6.480
425.31	7.166
425.67	4.938
426.02	6.032
426.38	5.568
426.73	6.306
427.09	7.093
427.44	5.407
427.79	5.030
428.15	6.107
428.50	6.573
428.85	6.142
429.21	6.223
429.56	5.874
429.92	6.585
430.27	6.313
430.62	6.009
430.98	5.903
431.33	6.061
431.68	5.987
432.04	6.450
432.39	6.695
432.74	5.936
433.10	6.328
433.45	6.076
433.80	6.384
434.16	6.353
434.51	6.218
434.86	5.809
435.22	6.429
435.57	6.073
435.92	6.121
436.28	6.030
436.63	6.335
436.98	6.012
437.34	6.032
437.69	5.999
438.04	6.081
438.39	5.974
438.75	5.977
439.10	6.924
439.45	6.540
439.81	5.989
440.16	6.059
440.51	6.299
440.86	6.059
441.22	7.181
441.57	6.499
441.92	6.256
442.27	6.162
442.63	6.061
442.98	6.403
443.33	6.312
443.68	7.185
444.03	6.914
444.39	6.426
444.74	6.381
445.09	6.234
445.44	6.586
445.79	6.466
446.15	6.423
446.50	6.150
446.85	7.053
447.20	6.915
447.55	6.851
447.91	6.492
448.26	5.973
448.61	6.908
448.96	6.921
449.31	6.787
449.66	5.882
450.02	6.857
450.37	6.606
450.72	6.405
451.07	6.378
451.42	5.950
451.77	6.504
452.12	6.603
452.47	6.298
452.83	6.419
453.18	6.480
453.53	6.318
453.88	6.516
454.23	6.780
454.58	6.849
454.93	6.614
455.28	6.924
455.63	6.879
455.98	7.318
456.34	6.714
456.69	6.643
457.04	6.678
457.39	6.763
457.74	7.383
458.09	6.590
458.44	6.950
458.79	6.550
459.14	6.712
459.49	6.791
459.84	6.978
460.19	5.552
460.54	6.303
460.89	6.141
461.24	6.322
461.59	7.139
461.94	6.788
462.29	6.439
462.64	6.940
462.99	6.152
463.34	6.944
463.69	6.800
464.04	7.449
464.39	6.614
464.74	7.013
465.09	6.228
465.44	6.921
465.79	6.769
466.14	6.670
466.49	6.947
466.84	6.061
467.19	6.936
467.54	6.110
467.89	6.264
468.24	7.313
468.59	5.964
468.94	6.061
469.29	6.299
469.64	6.548
469.99	6.820
470.34	6.498
470.68	6.494
471.03	7.073
471.38	6.213
471.73	6.372
472.08	6.282
472.43	7.104
472.78	7.683
473.13	5.563
473.48	6.828
473.83	6.558
474.17	6.448
474.52	7.096
474.87	6.423
475.22	6.479
475.57	6.490
475.92	6.172
476.27	6.922
476.61	6.906
476.96	6.048
477.31	6.634
477.66	6.873
478.01	6.660
478.36	7.228
478.70	6.207
479.05	6.953
479.40	6.515
479.75	7.445
480.10	6.964
480.45	6.837
480.79	6.848
481.14	6.664
481.49	6.088
481.84	7.180
482.19	6.624
482.53	6.559
482.88	6.735
483.23	6.269
483.58	6.114
483.92	5.984
484.27	6.520
484.62	6.601
484.97	6.649
485.31	6.899
485.66	6.481
486.01	6.168
486.36	6.352
486.70	6.744
487.05	6.676
487.40	6.524
487.75	7.048
488.09	6.819
488.44	6.597
488.79	6.779
489.13	6.336
489.48	6.058
489.83	6.439
490.17	6.075
490.52	6.240
490.87	6.726
491.22	6.542
491.56	7.210
491.91	6.585
492.26	6.794
492.60	6.471
492.95	6.845
493.30	6.499
493.64	7.052
493.99	6.623
494.34	6.141
494.68	6.552
495.03	7.093
495.37	6.214
495.72	6.349
496.07	6.573
496.41	6.650
496.76	6.339
497.11	6.285
497.45	6.172
497.80	6.308
498.14	6.440
498.49	6.664
498.84	6.856
499.18	6.388
499.53	6.592
499.87	7.121
500.22	6.144
500.56	6.523
500.91	6.682
501.26	6.727
501.60	6.098
501.95	6.644
502.29	6.450
502.64	6.340
502.98	6.816
503.33	6.393
503.67	6.542
504.02	6.261
504.36	6.613
504.71	6.706
505.06	5.730
505.40	6.399
505.75	6.102
506.09	6.538
506.44	7.010
506.78	6.468
507.13	6.501
507.47	6.774
507.82	7.197
508.16	6.358
508.51	5.907
508.85	6.330
509.19	6.727
509.54	6.436
509.88	6.217
510.23	6.508
510.57	7.588
510.92	6.967
511.26	6.734
511.61	5.987
511.95	6.491
512.30	7.041
512.64	6.097
512.98	6.603
513.33	7.056
513.67	6.578
514.02	6.796
514.36	6.752
514.70	6.406
515.05	6.726
515.39	6.614
515.74	7.052
516.08	6.656
516.42	7.012
516.77	6.625
517.11	6.653
517.46	7.158
517.80	7.269
518.14	6.964
518.49	6.236
518.83	6.386
519.17	6.677
519.52	7.075
519.86	7.128
520.20	7.029
520.55	6.900
520.89	6.363
521.23	7.314
521.58	6.836
521.92	6.799
522.26	6.701
522.61	6.655
522.95	6.055
523.29	6.379
523.64	7.119
523.98	6.674
524.32	7.335
524.66	6.659
525.01	6.908
525.35	6.605
525.69	6.439
526.04	6.831
526.38	6.839
526.72	7.670
527.06	6.452
527.41	7.464
527.75	7.245
528.09	7.202
528.43	6.513
528.78	6.879
529.12	6.365
529.46	6.689
529.80	7.323
530.15	7.478
530.49	6.287
530.83	7.261
531.17	6.810
531.51	6.799
531.86	6.070
532.20	7.378
532.54	6.403
532.88	6.848
533.22	6.482
533.57	6.694
533.91	7.800
534.25	6.501
534.59	6.724
534.93	5.999
535.27	6.986
535.62	7.220
535.96	7.147
536.30	6.522
536.64	7.447
536.98	7.134
537.32	7.099
537.66	7.112
538.01	6.163
538.35	6.882
538.69	7.272
539.03	7.112
539.37	7.067
539.71	7.387
540.05	7.194
540.39	7.090
540.73	6.861
541.07	7.480
541.42	7.029
541.76	6.940
542.10	6.815
542.44	6.212
542.78	7.786
543.12	7.211
543.46	6.777
543.80	6.715
544.14	6.703
544.48	7.624
544.82	7.361
545.16	7.513
545.50	7.010
545.84	6.859
546.18	7.593
546.52	6.943
546.86	6.792
547.20	7.125
547.54	6.742
547.88	6.872
548.22	6.667
548.56	6.612
548.90	6.866
549.24	6.748
549.58	7.129
549.92	6.505
550.26	7.314
550.60	7.722
550.94	7.697
551.28	6.799
551.62	6.402
551.96	6.990
552.30	8.349
552.64	6.721
552.98	7.112
553.32	7.203
553.66	7.588
554.00	5.864
554.34	7.786
554.68	7.037
555.02	6.899
555.36	7.364
555.69	7.687
556.03	6.179
556.37	7.572
556.71	7.483
557.05	6.581
557.39	6.835
557.73	7.266
558.07	7.682
558.41	7.176
558.75	6.897
559.08	7.376
559.42	6.859
559.76	7.123
560.10	7.301
560.44	6.926
560.78	7.500
561.12	7.451
561.45	7.421
561.79	7.082
562.13	6.901
562.47	7.460
562.81	6.519
563.15	6.944
563.48	6.774
563.82	7.739
564.16	6.239
564.50	6.853
564.84	7.257
565.17	7.294
565.51	6.847
565.85	6.770
566.19	6.855
566.52	6.671
566.86	6.565
567.20	6.308
567.54	5.895
567.88	6.830
568.21	6.917
568.55	6.475
568.89	7.217
569.23	6.802
569.56	6.604
569.90	7.377
570.24	6.847
570.57	6.446
570.91	6.307
571.25	6.740
571.59	6.930
571.92	6.743
572.26	6.300
572.60	6.416
572.93	7.181
573.27	6.715
573.61	6.723
573.95	6.725
574.28	6.821
574.62	6.435
574.96	6.264
575.29	6.653
575.63	6.491
575.97	7.018
576.30	6.612
576.64	6.920
576.98	6.879
577.31	6.811
577.65	6.686
577.98	6.570
578.32	6.564
578.66	6.540
578.99	6.328
579.33	6.558
579.67	6.550
580.00	6.743
580.34	7.068
580.67	6.642
581.01	6.642
581.35	6.468
581.68	6.655
582.02	6.743
582.35	6.659
582.69	6.842
583.02	6.728
583.36	6.942
583.70	6.771
584.03	6.719
584.37	6.591
584.70	6.601
585.04	6.347
585.37	6.606
585.71	6.882
586.04	6.627
586.38	6.848
586.72	6.067
587.05	6.600
587.39	6.308
587.72	6.842
588.06	6.794
588.39	6.647
588.73	6.693
589.06	6.462
589.40	6.423
589.73	6.844
590.07	6.863
590.40	7.471
590.73	6.893
591.07	7.074
591.40	6.649
591.74	6.955
592.07	7.349
592.41	6.427
592.74	7.348
593.08	6.847
593.41	7.349
593.75	6.839
594.08	6.968
594.41	6.891
594.75	6.609
595.08	6.292
595.42	6.558
595.75	6.878
596.09	7.252
596.42	6.808
596.75	6.870
597.09	7.354
597.42	6.953
597.75	6.978
598.09	6.786
598.42	7.117
598.76	6.687
599.09	6.764
599.42	6.571
599.76	6.669
600.09	7.140
600.42	7.040
600.76	6.770
601.09	7.103
601.42	6.728
601.76	6.586
602.09	6.755
602.42	6.761
602.76	6.863
603.09	6.498
603.42	6.684
603.76	6.554
604.09	7.133
604.42	6.936
604.76	6.925
605.09	6.741
605.42	6.499
605.75	6.385
606.09	6.420
606.42	6.713
606.75	6.447
607.09	6.797
607.42	6.744
607.75	6.721
608.08	7.222
608.42	7.013
608.75	6.799
609.08	6.621
609.41	6.970
609.75	7.054
610.08	6.860
610.41	6.585
610.74	7.059
611.07	6.750
611.41	7.399
611.74	6.790
612.07	7.059
612.40	6.416
612.73	6.797
613.07	7.090
613.40	7.170
613.73	6.548
614.06	7.066
614.39	6.171
614.72	7.375
615.06	6.641
615.39	6.863
615.72	6.540
616.05	6.654
616.38	7.568
616.71	6.740
617.05	6.869
617.38	7.063
617.71	6.965
618.04	7.178
618.37	6.995
618.70	7.636
619.03	6.750
619.36	6.350
619.69	6.855
620.03	6.466
620.36	6.871
620.69	7.033
621.02	7.283
621.35	7.257
621.68	7.303
622.01	6.904
622.34	6.555
622.67	7.216
623.00	4.993
623.33	7.432
623.66	7.134
623.99	6.517
624.32	7.992
624.65	6.757
624.99	7.412
625.32	8.099
625.65	6.878
625.98	6.780
626.31	7.442
626.64	7.985
626.97	6.677
627.30	6.378
627.63	5.701
627.96	9.159
628.29	7.315
628.62	6.465
628.95	6.661
629.28	5.692
629.61	6.566
629.94	6.695
630.26	7.034
630.59	6.390
630.92	6.494
631.25	7.513
631.58	7.156
631.91	6.560
632.24	7.589
632.57	7.116
632.90	6.820
633.23	7.653
633.56	7.449
633.89	5.372
634.22	7.692
634.55	7.411
634.88	7.251
635.20	6.781
635.53	7.458
635.86	6.284
636.19	7.847
636.52	7.595
636.85	6.742
637.18	6.653
637.51	6.559
637.83	7.863
638.16	7.373
638.49	6.925
638.82	6.201
639.15	6.758
639.48	9.469
639.81	7.159
640.13	7.538
640.46	5.576
640.79	7.353
641.12	8.075
641.45	6.901
641.77	8.858
642.10	6.430
642.43	6.915
642.76	5.827
643.09	5.616
643.41	6.863
643.74	6.483
644.07	9.379
644.40	6.789
644.73	5.515
645.05	7.489
645.38	8.345
645.71	7.478
646.04	9.039
646.36	5.693
646.69	7.822
647.02	8.257
647.35	8.397
647.67	8.213
648.00	6.369
648.33	6.757
648.66	6.419
648.98	7.075
649.31	5.413
649.64	7.703
649.96	8.223
650.29	4.729
650.62	8.062
650.94	7.658
651.27	7.934
651.60	6.287
651.92	6.383
652.25	7.236
652.58	7.428
652.90	5.378
653.23	7.465
653.56	5.849
653.88	9.691
654.21	7.465
654.54	6.358
654.86	7.932
655.19	5.897
655.52	6.784
655.84	6.277
656.17	7.439
656.49	10.746
656.82	11.776
657.15	9.175
657.47	7.175
657.80	5.301
658.13	4.130
658.45	5.384
658.78	6.212
659.10	5.808
659.43	6.074
659.75	6.202
660.08	5.826
660.41	5.376
660.73	5.587
661.06	6.314
661.38	6.858
661.71	6.034
662.03	6.878
662.36	8.587
662.68	6.942
663.01	9.204
663.33	5.860
663.66	8.791
663.98	5.769
664.31	6.567
664.63	5.202
664.96	6.715
665.28	5.989
665.61	9.615
665.93	6.607
666.26	7.885
666.58	5.720
666.91	8.972
667.23	10.286
667.56	7.101
667.88	6.000
668.21	6.055
668.53	4.440
668.86	7.073
669.18	7.943
669.50	7.555
669.83	6.400
670.15	5.118
670.48	8.333
670.80	4.589
671.13	7.750
671.45	5.709
671.77	7.533
672.10	8.833
672.42	6.311
672.75	7.220
673.07	7.164
673.39	5.855
673.72	8.893
674.04	8.276
674.37	6.619
674.69	8.113
675.01	7.238
675.34	6.870
675.66	6.929
675.98	8.022
676.31	7.422
676.63	9.696
676.95	7.854
677.28	4.839
677.60	4.921
677.92	7.869
678.25	8.410
678.57	6.406
678.89	8.874
679.22	7.143
679.54	4.786
679.86	5.424
680.18	6.136
680.51	7.075
680.83	8.674
681.15	5.345
681.48	6.045
681.80	8.636
682.12	7.867
682.44	7.012
682.77	6.383
683.09	7.008
683.41	8.915
683.73	7.400
684.06	6.642
684.38	5.725
684.70	7.540
685.02	7.917
685.34	5.824
685.67	6.782
685.99	6.288
686.31	6.250
686.63	8.215
686.96	6.151
687.28	7.166
687.60	5.387
687.92	5.949
688.24	6.344
688.56	6.379
688.89	6.352
689.21	6.849
689.53	6.275
689.85	5.720
690.17	5.185
690.49	8.566
690.82	7.129
691.14	5.870
691.46	8.795
691.78	7.735
692.10	5.138
692.42	6.250
692.74	4.900
693.06	4.259
693.39	8.918
693.71	5.263
694.03	5.019
694.35	5.333
694.67	7.598
694.99	5.745
695.31	4.636
695.63	8.658
695.95	5.797
696.27	4.396
696.59	5.752
696.91	9.685
697.23	7.473
697.56	3.870
697.88	6.439
698.20	6.026
698.52	9.280
698.84	5.405
699.16	7.143
699.48	8.159
699.80	6.383
700.12	4.803
700.44	5.530
700.76	6.888
701.08	8.717
701.40	6.736
701.72	8.706
702.04	8.021
702.36	2.618
702.68	5.623
703.00	7.824
703.32	3.941
703.64	7.579
703.96	8.353
704.28	8.108
704.60	9.620
704.91	7.908
705.23	7.945
705.55	7.799
705.87	4.848
706.19	6.442
706.51	4.217
706.83	5.764
707.15	5.291
707.47	5.607
707.79	8.079
708.11	6.992
708.43	6.022
708.74	6.696
709.06	6.729
709.38	7.277
709.70	8.685
710.02	8.527
710.34	7.447
710.66	7.542
710.98	7.923
711.29	6.044
711.61	5.367
711.93	5.413
712.25	8.108
712.57	8.555
712.89	10.882
713.20	5.325
713.52	7.514
713.84	6.407
714.16	10.263
714.48	6.959
714.80	10.130
715.11	4.724
715.43	6.366
715.75	5.263
716.07	3.039
716.39	8.743
716.70	5.422
717.02	3.607
717.34	3.136
717.66	5.369
717.97	4.795
718.29	5.155
718.61	9.211
718.93	7.767
719.24	3.727
719.56	7.055
719.88	2.402
720.20	7.097
720.51	5.901
720.83	7.500
721.15	6.250
721.46	3.767
721.78	11.333
722.10	5.502
722.42	4.027
722.73	8.387
723.05	5.965
723.37	7.292
723.68	7.885
724.00	7.581
724.32	4.225
724.63	5.944
724.95	11.348
725.27	6.969
725.58	1.767
725.90	11.724
726.22	6.897
726.53	7.792
726.85	7.233
727.16	9.063
727.48	7.034
727.80	5.960
728.11	3.180
728.43	6.734
728.74	5.017
729.06	6.954
729.38	4.545
729.69	6.376
730.01	6.548
730.32	4.848
730.64	8.176
730.96	8.075
731.27	9.497
731.59	7.692
731.90	6.753
732.22	3.646
732.53	4.144
732.85	4.571
733.16	6.158
733.48	3.963
733.80	6.128
734.11	5.128
734.43	6.216
734.74	9.114
735.06	5.276
735.37	5.405
735.69	3.514
736.00	8.192
736.32	6.739
736.63	9.167
736.95	7.184
737.26	4.848
737.58	4.242
737.89	5.882
738.21	5.810
738.52	1.639
738.83	5.461
739.15	4.965
739.46	6.463
739.78	8.282
740.09	7.736
740.41	10.787
740.72	5.000
741.04	8.091
741.35	10.175
741.66	8.627
741.98	4.098
742.29	6.276
742.61	7.456
742.92	5.000
743.23	9.386
743.55	5.426
743.86	6.400
744.18	7.851
744.49	2.532
744.80	6.584
745.12	4.219
745.43	11.382
745.74	2.586
746.06	4.661
746.37	10.127
746.68	10.569
747.00	7.500
747.31	4.721
747.62	6.923
747.94	7.692
748.25	4.418
748.56	4.082
748.88	4.701
749.19	5.172
749.50	3.463
749.82	6.827
750.13	9.253
750.44	2.000
750.75	6.769
751.07	5.538
751.38	8.202
751.69	6.709
752.01	5.502
752.32	6.209
752.63	6.122
752.94	3.806
753.26	6.320
753.57	4.074
753.88	1.873
754.19	5.466
754.51	4.502
754.82	7.395
755.13	10.164
755.44	6.485
755.75	6.908
756.07	7.761
756.38	6.918
756.69	7.229
757.00	4.432
757.31	5.738
757.63	4.859
757.94	4.695
758.25	7.223
758.56	7.407
758.87	7.955
759.18	5.067
759.50	4.816
759.81	7.563
760.12	5.391
760.43	6.771
760.74	6.897
761.05	3.750
761.36	4.578
761.67	4.315
761.99	3.243
762.30	6.098
762.61	4.950
762.92	6.343
763.23	7.116
763.54	5.396
763.85	4.811
764.16	4.040
764.47	8.803
764.78	9.585
765.10	7.038
765.41	7.179
765.72	4.233
766.03	6.780
766.34	4.702
766.65	2.787
766.96	3.187
767.27	5.530
767.58	5.970
767.89	8.173
768.20	7.042
768.51	4.167
768.82	5.622
769.13	4.167
769.44	-0.769
769.75	7.942
770.06	6.538
770.37	13.780
770.68	2.128
770.99	-0.405
771.30	9.630
771.61	6.844
771.92	5.185
772.23	6.883
772.54	0.000
772.85	10.138
773.16	9.524
773.47	3.704
773.78	-1.081
774.09	9.091
774.39	12.500
774.70	6.557
775.01	-4.268
775.32	5.294
775.63	7.362
775.94	-3.185
776.25	10.323
776.56	13.462
776.87	13.605
777.18	4.828
777.48	6.993
777.79	13.514
778.10	10.294
778.41	11.806
778.72	7.586
779.03	6.790
779.34	1.212
779.65	8.290
779.95	4.444
780.26	1.136
780.57	3.226
780.88	10.145
781.19	12.258
781.50	7.647
781.80	9.677
782.11	10.053
782.42	4.545
782.73	7.186
783.04	5.028
783.34	-2.424
783.65	3.268
783.96	-0.621
784.27	0.595
784.57	8.609
784.88	7.143
785.19	8.661
785.50	1.575
785.81	6.015
786.11	5.385
786.42	2.878
786.73	2.158
787.04	5.263
787.34	3.279
787.65	0.000
787.96	3.731
788.26	8.392
788.57	6.294
788.88	2.632
789.19	9.150
789.49	8.219
789.80	3.546
790.11	3.937
790.41	7.031
790.72	8.475
791.03	2.913
791.33	6.087
791.64	10.526
791.95	7.143
792.25	16.190
792.56	10.714
792.87	1.042
793.17	0.000
793.48	9.375
793.79	-9.639
794.09	-1.835
794.40	6.422
794.70	9.524
795.01	1.299
795.32	2.055
795.62	9.155
795.93	0.758
796.23	0.000
796.54	2.679
796.85	-6.383
797.15	1.087
797.46	6.849
797.76	0.000
798.07	-5.435
798.37	1.031
798.68	0.000
798.99	-8.046
799.29	0.000
799.60	9.574
799.90	-1.205
800.21	-4.615
800.51	-7.463
800.82	-11.765
801.12	-10.959
801.43	-14.706
801.73	-27.119
802.04	6.061
802.34	8.333
802.65	0.000
802.95	5.970
803.26	-6.780
803.56	6.849
803.87	-1.429
804.17	10.959
804.48	-15.789
804.78	11.111
805.09	-12.069
805.39	14.865
805.70	-2.817
806.00	9.756
806.30	9.639
806.61	-2.740
806.91	9.615
807.22	6.667
807.52	12.644
807.83	4.167
808.13	27.711
808.43	3.371
808.74	0.000
809.04	-11.765
809.35	0.000
809.65	1.429
809.95	10.959
810.26	-5.263
810.56	-15.517
810.86	16.176
811.17	8.772
811.47	-1.639
811.77	-31.111
812.08	0.000
812.38	8.333
812.69	1.724
812.99	-15.094
813.29	-10.256
813.59	14.000
813.90	10.526
814.20	3.636
814.50	22.535
814.81	10.256
815.11	11.475
815.41	4.478
815.72	6.897
816.02	3.571
816.32	28.889
816.62	2.273
816.93	-4.444
817.23	9.259
817.53	-6.383
817.84	4.762
818.14	-8.824
818.44	0.000
818.74	-8.889
819.04	-12.821
819.35	-25.714
819.65	-61.538
819.95	-9.434
820.25	11.111
820.56	11.905
820.86	3.125
821.16	-5.128
821.46	-9.302
821.76	-20.000
822.07	8.929
822.37	-21.739
822.67	2.128
822.97	-10.811
823.27	-35.000
823.57	-10.204
823.88	20.000
824.18	-7.500
824.48	-16.667
824.78	-32.000
825.08	0.000
825.38	-2.222
825.69	6.383
825.99	-2.778
826.29	-45.714
826.59	2.564
826.89	-23.256
827.19	0.000
827.49	-20.588
827.79	10.417
828.09	-18.919
828.39	-13.333
828.70	-4.878
829.00	2.326
829.30	-25.000
829.60	11.765
829.90	-2.174
830.20	-14.286
830.50	-6.897
830.80	-11.111
831.10	-11.538
831.40	-23.529
831.70	-9.524
832.00	9.677
832.30	-117.647
832.60	-45.833
832.90	-107.692
833.20	-36.842
833.50	-15.000
833.80	5.263
834.10	-47.619
834.40	8.333
834.70	28.125
835.00	-22.857
835.30	-17.647
835.60	-26.667
835.90	-20.000
836.20	-50.000
836.50	-4.000
836.80	-6.061
837.10	-3.704
837.40	7.407
837.70	-68.750
838.00	39.286
838.30	-43.478
838.60	20.690
838.90	-42.857
839.19	-52.174
839.49	-66.667
839.79	-17.391
840.09	-106.250
840.39	-35.000
840.69	-16.129
840.99	17.857
841.29	-66.667
841.59	0.000
841.88	28.205
842.18	-23.077
842.48	-80.000
842.78	30.000
843.08	26.667
843.38	9.677
843.68	-38.889
843.97	23.529
844.27	-31.250
844.57	-31.579
844.87	-40.000
845.17	0.000
845.47	-19.048
845.76	-38.095
846.06	-77.778
846.36	-88.235
846.66	-15.385
846.96	0.000
847.25	-41.176
847.55	-30.435
847.85	-10.000
848.15	29.412
848.44	-118.182
848.74	14.286
849.04	-33.333
849.34	-25.000
849.63	-21.739
849.93	200.000
850.23	-20.000
850.53	11.538
850.82	-109.091
851.12	0.000
851.42	-45.455
851.71	7.692
852.01	-25.000
852.31	-15.385
852.61	63.158
852.90	8.333
853.20	-22.222
853.50	-77.778
853.79	-38.095
854.09	-36.364
854.39	-91.667
854.68	-3.226
854.98	-15.385
855.28	16.667
855.57	0.000
855.87	4.000
856.17	-31.818
856.46	-18.519
856.76	-88.889
857.05	13.043
857.35	-4.167
857.65	-38.462
857.94	-9.524
858.24	11.111
858.53	17.391
858.83	-17.647
859.13	-29.412
859.42	-5.882
859.72	-7.143
860.01	0.000
860.31	11.111
860.60	-90.000
860.90	-13.333
861.20	-22.222
861.49	-61.538
861.79	0.000
862.08	-30.769
862.38	37.500
862.67	5.882
862.97	-18.750
863.26	-100.000
863.56	-50.000
863.85	-81.818
864.15	0.000
864.44	-200.000
864.74	0.000
865.03	6.250
865.33	-80.000
865.62	-19.355
865.92	22.727
866.21	34.783
866.51	7.143
866.80	-20.000
867.10	-16.667
867.39	-91.667
867.69	1000.000
867.98	14.286
868.27	29.412
868.57	-1000.000
868.86	-100.000
869.16	-38.095
869.45	-4.167
869.75	9.091
870.04	-171.429
870.33	-83.333
870.63	-171.429
870.92	-25.000
871.22	-162.500
871.51	-27.273
871.80	-700.000
872.10	-400.000
>>>>>End Processed Spectral Data<<<<<
