SpectraSuite Data File
++++++++++++++++++++++++++++++++++++
Date: Thu May 14 16:42:06 PDT 2015
User: schluterlab
Dark Spectrum Present: Yes
Reference Spectrum Present: Yes
Number of Sampled Component Spectra: 1
Spectrometers: USB2E3373
Integration Time (usec): 3000 (USB2E3373)
Spectra Averaged: 3 (USB2E3373)
Boxcar Smoothing: 0 (USB2E3373)
Correct for Electrical Dark: No (USB2E3373)
Strobe/Lamp Enabled: No (USB2E3373)
Correct for Detector Non-linearity: No (USB2E3373)
Correct for Stray Light: No (USB2E3373)
Number of Pixels in Processed Spectrum: 2048
>>>>>Begin Processed Spectral Data<<<<<
178.53	0.000
178.91	-42.857
179.29	-400.000
179.67	0.000
180.04	114.286
180.42	80.000
180.80	140.000
181.18	700.000
181.56	700.000
181.94	-50.000
182.31	0.000
182.69	-100.000
183.07	-150.000
183.45	325.000
183.83	-16.667
184.20	500.000
184.58	-200.000
184.96	75.000
185.34	-44.444
185.72	20.000
186.09	55.556
186.47	350.000
186.85	180.000
187.23	-22.222
187.61	-900.000
187.98	120.000
188.36	75.000
188.74	-75.000
189.12	166.667
189.49	18.750
189.87	-125.000
190.25	33.333
190.63	140.000
191.00	11.111
191.38	0.000
191.76	-25.000
192.14	-116.667
192.51	400.000
192.89	66.667
193.27	0.000
193.65	14.286
194.02	-500.000
194.40	-42.857
194.78	57.143
195.15	0.000
195.53	54.545
195.91	0.000
196.29	0.000
196.66	0.000
197.04	-1100.000
197.42	-57.143
197.79	-200.000
198.17	-100.000
198.55	-85.714
198.92	44.444
199.30	62.500
199.68	90.909
200.05	85.714
200.43	-350.000
200.81	114.286
201.18	0.000
201.56	33.333
201.94	0.000
202.31	333.333
202.69	-33.333
203.07	-400.000
203.44	55.556
203.82	0.000
204.19	50.000
204.57	-100.000
204.95	0.000
205.32	-200.000
205.70	-75.000
206.08	116.667
206.45	66.667
206.83	260.000
207.20	100.000
207.58	0.000
207.96	-50.000
208.33	-33.333
208.71	50.000
209.08	200.000
209.46	0.000
209.84	100.000
210.21	150.000
210.59	50.000
210.96	300.000
211.34	125.000
211.71	-50.000
212.09	-800.000
212.46	0.000
212.84	50.000
213.22	-160.000
213.59	-175.000
213.97	70.000
214.34	-166.667
214.72	100.000
215.09	-125.000
215.47	0.000
215.84	-0.000
216.22	350.000
216.59	100.000
216.97	-100.000
217.34	100.000
217.72	175.000
218.09	-75.000
218.47	-200.000
218.84	0.000
219.22	-120.000
219.59	23.529
219.97	40.000
220.34	250.000
220.72	-22.222
221.09	146.154
221.47	-66.667
221.84	110.000
222.22	-71.429
222.59	0.000
222.97	-12.500
223.34	-80.000
223.72	-300.000
224.09	75.000
224.46	-150.000
224.84	100.000
225.21	-42.857
225.59	-100.000
225.96	175.000
226.34	7.692
226.71	83.333
227.08	-250.000
227.46	-13.333
227.83	-25.000
228.21	57.895
228.58	-25.000
228.95	850.000
229.33	0.000
229.70	70.000
230.08	89.474
230.45	110.000
230.82	-133.333
231.20	-35.714
231.57	41.667
231.95	45.455
232.32	27.273
232.69	40.000
233.07	-100.000
233.44	11.765
233.81	-50.000
234.19	-22.222
234.56	45.455
234.93	6.897
235.31	36.842
235.68	44.444
236.05	-50.000
236.43	50.000
236.80	76.000
237.17	14.815
237.55	0.000
237.92	-110.000
238.29	12.903
238.67	4.545
239.04	5.556
239.41	-4.762
239.79	2.174
240.16	3.704
240.53	19.565
240.91	-1.961
241.28	0.000
241.65	23.881
242.02	14.865
242.40	3.077
242.77	4.000
243.14	-2.439
243.51	-5.263
243.89	-1.282
244.26	15.842
244.63	12.745
245.00	1.869
245.38	9.649
245.75	-3.540
246.12	11.905
246.49	4.651
246.87	7.143
247.24	13.907
247.61	13.158
247.98	9.396
248.36	4.938
248.73	6.135
249.10	9.290
249.47	11.443
249.84	15.707
250.22	7.772
250.59	11.111
250.96	13.636
251.33	3.571
251.70	13.675
252.08	12.917
252.45	6.967
252.82	10.331
253.19	11.719
253.56	7.224
253.94	7.692
254.31	10.227
254.68	12.587
255.05	12.378
255.42	8.163
255.79	10.032
256.16	8.940
256.54	5.629
256.91	10.820
257.28	8.197
257.65	5.414
258.02	6.490
258.39	7.407
258.76	12.844
259.14	13.218
259.51	9.510
259.88	7.649
260.25	9.444
260.62	10.137
260.99	11.475
261.36	10.456
261.73	8.753
262.10	8.516
262.47	8.847
262.85	13.131
263.22	8.312
263.59	8.421
263.96	7.928
264.33	8.696
264.70	8.642
265.07	10.501
265.44	12.698
265.81	10.417
266.18	9.751
266.55	11.384
266.92	8.656
267.29	10.722
267.66	7.982
268.03	8.952
268.40	7.933
268.77	6.150
269.14	7.269
269.51	8.772
269.88	14.139
270.25	10.463
270.62	8.650
270.99	9.899
271.36	9.901
271.73	7.859
272.10	9.820
272.47	9.820
272.84	9.639
273.21	10.822
273.58	10.887
273.95	7.885
274.32	8.175
274.69	8.317
275.06	7.875
275.43	7.763
275.80	10.406
276.17	9.444
276.54	8.769
276.91	6.798
277.28	9.946
277.65	10.413
278.02	8.272
278.39	7.790
278.76	8.787
279.13	7.270
279.50	9.278
279.87	10.733
280.23	5.986
280.60	11.356
280.97	9.704
281.34	6.112
281.71	10.491
282.08	9.468
282.45	9.002
282.82	9.105
283.19	8.078
283.56	8.361
283.92	11.111
284.29	11.216
284.66	9.688
285.03	6.731
285.40	9.274
285.77	7.430
286.14	9.618
286.51	7.610
286.87	7.741
287.24	9.036
287.61	8.072
287.98	8.761
288.35	7.249
288.72	9.320
289.08	8.931
289.45	8.876
289.82	8.584
290.19	7.040
290.56	7.887
290.93	7.275
291.29	8.264
291.66	7.025
292.03	6.920
292.40	8.571
292.77	6.873
293.13	9.608
293.50	7.227
293.87	6.443
294.24	9.600
294.60	9.229
294.97	6.443
295.34	9.859
295.71	7.692
296.08	6.589
296.44	7.353
296.81	5.725
297.18	6.849
297.55	6.604
297.91	7.473
298.28	5.806
298.65	7.729
299.02	8.146
299.38	6.522
299.75	8.762
300.12	6.829
300.48	7.028
300.85	7.424
301.22	7.271
301.59	5.365
301.95	6.328
302.32	8.000
302.69	6.134
303.05	6.964
303.42	6.763
303.79	7.500
304.15	6.940
304.52	7.400
304.89	6.702
305.25	7.143
305.62	6.165
305.99	6.804
306.35	5.948
306.72	7.342
307.09	6.294
307.45	7.971
307.82	6.862
308.19	7.064
308.55	8.390
308.92	7.303
309.29	7.567
309.65	7.505
310.02	7.030
310.38	7.874
310.75	6.796
311.12	7.478
311.48	7.136
311.85	7.407
312.22	8.159
312.58	8.545
312.95	7.935
313.31	8.040
313.68	9.707
314.05	10.298
314.41	9.199
314.78	9.809
315.14	9.619
315.51	9.880
315.87	10.261
316.24	9.772
316.61	11.901
316.97	10.136
317.34	11.023
317.70	11.441
318.07	11.728
318.43	12.415
318.80	14.632
319.16	13.047
319.53	12.511
319.89	13.935
320.26	15.391
320.62	13.741
320.99	14.497
321.35	16.728
321.72	17.395
322.08	16.501
322.45	17.254
322.81	17.690
323.18	17.699
323.54	19.397
323.91	19.395
324.27	19.966
324.64	21.495
325.00	20.315
325.37	21.622
325.73	21.570
326.10	22.060
326.46	24.593
326.83	25.140
327.19	24.331
327.56	25.850
327.92	25.885
328.29	26.371
328.65	27.052
329.01	27.242
329.38	28.559
329.74	28.339
330.11	29.366
330.47	29.992
330.84	32.300
331.20	29.500
331.56	30.849
331.93	30.209
332.29	31.525
332.66	31.312
333.02	32.328
333.38	31.208
333.75	32.744
334.11	32.110
334.48	32.343
334.84	33.730
335.20	31.822
335.57	32.293
335.93	33.388
336.29	32.196
336.66	34.230
337.02	34.030
337.38	32.993
337.75	33.636
338.11	33.810
338.47	33.995
338.84	34.264
339.20	33.867
339.56	33.443
339.93	35.057
340.29	33.092
340.65	34.550
341.02	33.599
341.38	35.327
341.74	35.190
342.11	35.559
342.47	32.883
342.83	36.554
343.20	35.241
343.56	35.926
343.92	34.267
344.28	34.766
344.65	35.969
345.01	35.179
345.37	35.770
345.73	34.217
346.10	36.427
346.46	35.601
346.82	35.431
347.19	35.218
347.55	36.646
347.91	35.067
348.27	34.825
348.63	35.491
349.00	36.092
349.36	36.283
349.72	36.086
350.08	36.033
350.45	35.741
350.81	35.973
351.17	35.639
351.53	35.861
351.89	36.219
352.26	35.746
352.62	36.493
352.98	35.878
353.34	36.221
353.70	37.519
354.07	36.066
354.43	36.522
354.79	36.350
355.15	37.454
355.51	37.719
355.87	36.350
356.24	38.859
356.60	36.511
356.96	38.251
357.32	36.877
357.68	37.335
358.04	37.650
358.40	36.418
358.77	37.865
359.13	37.518
359.49	36.952
359.85	37.781
360.21	37.590
360.57	37.976
360.93	38.082
361.29	37.123
361.66	38.450
362.02	39.109
362.38	38.721
362.74	37.500
363.10	39.133
363.46	39.266
363.82	40.057
364.18	39.127
364.54	39.488
364.90	39.264
365.26	39.586
365.62	38.800
365.98	39.006
366.35	40.336
366.71	40.068
367.07	39.513
367.43	40.184
367.79	40.013
368.15	40.067
368.51	39.445
368.87	40.496
369.23	38.667
369.59	40.642
369.95	40.906
370.31	40.918
370.67	40.578
371.03	40.651
371.39	40.161
371.75	41.472
372.11	40.515
372.47	40.623
372.83	40.838
373.19	40.227
373.55	40.650
373.91	40.218
374.27	41.203
374.63	41.678
374.99	41.512
375.35	42.338
375.71	40.903
376.07	40.865
376.42	41.688
376.78	42.138
377.14	41.547
377.50	43.137
377.86	42.549
378.22	42.635
378.58	43.103
378.94	41.667
379.30	42.648
379.66	42.975
380.02	42.701
380.38	44.067
380.74	42.197
381.09	43.206
381.45	42.557
381.81	43.384
382.17	42.993
382.53	43.392
382.89	43.397
383.25	43.552
383.61	42.998
383.97	43.581
384.32	44.079
384.68	42.749
385.04	44.014
385.40	44.372
385.76	44.431
386.12	43.507
386.48	42.882
386.83	43.623
387.19	42.932
387.55	43.427
387.91	42.637
388.27	44.342
388.62	43.184
388.98	43.091
389.34	44.431
389.70	44.916
390.06	43.694
390.42	44.157
390.77	45.093
391.13	44.190
391.49	44.444
391.85	43.758
392.20	45.018
392.56	43.001
392.92	43.021
393.28	44.500
393.64	43.911
393.99	45.381
394.35	45.794
394.71	43.772
395.07	44.431
395.42	44.032
395.78	45.460
396.14	45.217
396.50	44.834
396.85	43.649
397.21	44.024
397.57	44.405
397.92	43.757
398.28	44.813
398.64	43.936
399.00	42.880
399.35	44.346
399.71	44.239
400.07	44.301
400.42	44.237
400.78	45.602
401.14	44.678
401.49	44.400
401.85	45.116
402.21	44.264
402.57	46.127
402.92	45.745
403.28	43.091
403.63	44.988
403.99	43.230
404.35	43.661
404.70	43.796
405.06	42.446
405.42	43.911
405.77	43.839
406.13	44.246
406.49	45.327
406.84	44.155
407.20	42.873
407.55	44.337
407.91	44.186
408.27	43.757
408.62	45.550
408.98	43.993
409.34	43.050
409.69	44.376
410.05	43.962
410.40	44.200
410.76	44.420
411.11	44.711
411.47	44.472
411.83	43.563
412.18	44.880
412.54	45.050
412.89	43.714
413.25	43.905
413.60	43.998
413.96	44.580
414.31	42.890
414.67	44.246
415.03	43.692
415.38	45.019
415.74	44.227
416.09	44.540
416.45	43.707
416.80	43.819
417.16	44.636
417.51	42.902
417.87	43.777
418.22	44.970
418.58	44.300
418.93	44.296
419.29	45.006
419.64	44.178
420.00	43.858
420.35	44.582
420.71	44.170
421.06	43.646
421.42	44.725
421.77	43.080
422.12	43.340
422.48	44.086
422.83	44.195
423.19	44.350
423.54	44.746
423.90	43.236
424.25	44.960
424.61	43.858
424.96	43.987
425.31	44.533
425.67	43.639
426.02	45.158
426.38	44.489
426.73	44.420
427.09	45.732
427.44	44.129
427.79	45.163
428.15	45.091
428.50	45.000
428.85	44.432
429.21	44.415
429.56	44.225
429.92	44.128
430.27	44.675
430.62	44.406
430.98	44.368
431.33	44.233
431.68	44.109
432.04	45.455
432.39	45.849
432.74	44.749
433.10	45.105
433.45	44.760
433.80	43.938
434.16	44.886
434.51	46.403
434.86	47.068
435.22	45.324
435.57	46.050
435.92	45.242
436.28	46.359
436.63	45.440
436.98	45.464
437.34	45.660
437.69	45.129
438.04	45.161
438.39	45.778
438.75	44.715
439.10	46.089
439.45	45.221
439.81	44.802
440.16	45.040
440.51	46.711
440.86	45.025
441.22	45.445
441.57	45.335
441.92	44.908
442.27	45.808
442.63	44.610
442.98	44.771
443.33	45.818
443.68	45.491
444.03	45.484
444.39	45.215
444.74	45.891
445.09	44.805
445.44	44.415
445.79	46.360
446.15	45.478
446.50	44.341
446.85	45.768
447.20	45.068
447.55	46.130
447.91	44.503
448.26	45.402
448.61	45.112
448.96	46.298
449.31	44.115
449.66	44.826
450.02	45.728
450.37	45.338
450.72	45.963
451.07	44.533
451.42	44.714
451.77	45.692
452.12	45.598
452.47	45.336
452.83	46.002
453.18	45.009
453.53	45.146
453.88	44.451
454.23	45.819
454.58	45.386
454.93	44.539
455.28	45.394
455.63	45.821
455.98	45.251
456.34	44.464
456.69	44.797
457.04	45.213
457.39	44.346
457.74	45.358
458.09	45.140
458.44	45.151
458.79	44.611
459.14	44.835
459.49	45.331
459.84	44.596
460.19	44.753
460.54	44.179
460.89	45.474
461.24	44.770
461.59	45.656
461.94	44.952
462.29	44.569
462.64	44.840
462.99	44.947
463.34	45.425
463.69	43.787
464.04	44.691
464.39	45.404
464.74	44.071
465.09	44.752
465.44	44.850
465.79	45.690
466.14	43.408
466.49	44.263
466.84	45.399
467.19	44.509
467.54	43.067
467.89	43.908
468.24	43.823
468.59	43.660
468.94	44.988
469.29	45.231
469.64	44.183
469.99	46.080
470.34	44.740
470.68	45.386
471.03	45.187
471.38	44.931
471.73	46.164
472.08	44.416
472.43	44.612
472.78	45.151
473.13	44.564
473.48	44.955
473.83	45.676
474.17	44.314
474.52	44.558
474.87	45.238
475.22	45.127
475.57	44.133
475.92	44.649
476.27	43.823
476.61	43.821
476.96	43.900
477.31	45.099
477.66	45.645
478.01	44.382
478.36	43.370
478.70	44.433
479.05	45.245
479.40	44.768
479.75	44.140
480.10	44.529
480.45	44.439
480.79	44.218
481.14	44.301
481.49	43.889
481.84	44.169
482.19	44.301
482.53	44.600
482.88	44.218
483.23	44.242
483.58	43.231
483.92	43.750
484.27	44.242
484.62	43.812
484.97	43.196
485.31	43.048
485.66	40.859
486.01	39.945
486.36	40.165
486.70	41.795
487.05	42.452
487.40	42.791
487.75	43.206
488.09	43.731
488.44	42.848
488.79	43.541
489.13	43.954
489.48	42.835
489.83	43.742
490.17	43.337
490.52	43.144
490.87	43.951
491.22	44.151
491.56	43.003
491.91	43.349
492.26	43.964
492.60	43.900
492.95	43.177
493.30	43.882
493.64	43.802
493.99	43.114
494.34	42.683
494.68	43.426
495.03	43.216
495.37	44.030
495.72	44.717
496.07	44.084
496.41	42.814
496.76	43.495
497.11	43.949
497.45	43.893
497.80	43.803
498.14	42.766
498.49	43.842
498.84	44.653
499.18	43.815
499.53	43.722
499.87	43.165
500.22	42.520
500.56	43.545
500.91	45.034
501.26	44.727
501.60	43.703
501.95	42.770
502.29	43.659
502.64	43.769
502.98	43.184
503.33	43.283
503.67	43.611
504.02	43.827
504.36	44.951
504.71	44.235
505.06	43.065
505.40	43.510
505.75	43.169
506.09	44.015
506.44	44.754
506.78	43.716
507.13	44.076
507.47	44.908
507.82	43.655
508.16	44.503
508.51	43.507
508.85	44.639
509.19	44.150
509.54	44.909
509.88	44.439
510.23	44.536
510.57	45.626
510.92	44.606
511.26	44.108
511.61	43.940
511.95	45.339
512.30	44.362
512.64	43.978
512.98	44.622
513.33	45.161
513.67	44.926
514.02	44.865
514.36	45.524
514.70	45.104
515.05	45.151
515.39	45.354
515.74	46.023
516.08	45.853
516.42	45.160
516.77	45.478
517.11	44.817
517.46	45.811
517.80	45.804
518.14	47.715
518.49	45.716
518.83	44.385
519.17	43.996
519.52	45.178
519.86	45.882
520.20	45.847
520.55	45.181
520.89	47.016
521.23	45.505
521.58	46.384
521.92	46.856
522.26	45.361
522.61	46.470
522.95	46.021
523.29	46.897
523.64	46.413
523.98	46.492
524.32	48.023
524.66	47.240
525.01	45.866
525.35	46.927
525.69	46.056
526.04	46.613
526.38	46.782
526.72	45.790
527.06	46.862
527.41	46.472
527.75	46.971
528.09	48.052
528.43	46.300
528.78	46.763
529.12	45.929
529.46	46.262
529.80	47.082
530.15	45.913
530.49	46.560
530.83	46.458
531.17	46.356
531.51	47.593
531.86	46.334
532.20	47.500
532.54	45.482
532.88	46.485
533.22	45.374
533.57	47.028
533.91	47.419
534.25	45.958
534.59	47.529
534.93	45.897
535.27	47.155
535.62	46.163
535.96	46.659
536.30	47.239
536.64	47.267
536.98	47.294
537.32	47.407
537.66	47.473
538.01	46.042
538.35	47.625
538.69	47.476
539.03	47.701
539.37	46.938
539.71	47.267
540.05	47.122
540.39	45.844
540.73	46.084
541.07	46.904
541.42	47.135
541.76	46.382
542.10	47.768
542.44	46.955
542.78	47.810
543.12	46.544
543.46	46.337
543.80	45.144
544.14	46.499
544.48	47.577
544.82	48.235
545.16	46.810
545.50	45.416
545.84	46.785
546.18	47.778
546.52	47.707
546.86	47.170
547.20	47.137
547.54	46.816
547.88	46.172
548.22	46.316
548.56	46.577
548.90	46.806
549.24	46.991
549.58	47.823
549.92	47.258
550.26	47.702
550.60	47.415
550.94	47.477
551.28	47.129
551.62	47.574
551.96	46.084
552.30	48.056
552.64	47.853
552.98	47.037
553.32	48.617
553.66	47.331
554.00	48.928
554.34	47.683
554.68	47.321
555.02	47.766
555.36	48.849
555.69	47.213
556.03	46.974
556.37	47.121
556.71	49.334
557.05	47.284
557.39	48.308
557.73	48.547
558.07	48.344
558.41	47.907
558.75	48.884
559.08	48.017
559.42	48.354
559.76	48.440
560.10	48.426
560.44	48.351
560.78	49.000
561.12	47.475
561.45	48.114
561.79	48.107
562.13	47.813
562.47	47.287
562.81	45.823
563.15	48.169
563.48	48.602
563.82	46.917
564.16	47.608
564.50	47.378
564.84	46.549
565.17	47.000
565.51	46.433
565.85	46.615
566.19	46.832
566.52	48.040
566.86	46.916
567.20	46.438
567.54	45.672
567.88	46.636
568.21	45.850
568.55	45.755
568.89	45.574
569.23	45.078
569.56	44.119
569.90	42.766
570.24	43.103
570.57	42.880
570.91	42.652
571.25	42.031
571.59	42.889
571.92	42.377
572.26	41.874
572.60	42.506
572.93	42.026
573.27	42.540
573.61	42.086
573.95	41.758
574.28	41.252
574.62	40.973
574.96	40.318
575.29	40.868
575.63	41.187
575.97	41.533
576.30	41.081
576.64	41.589
576.98	40.683
577.31	41.174
577.65	41.292
577.98	40.192
578.32	40.118
578.66	40.313
578.99	41.204
579.33	41.485
579.67	40.979
580.00	40.503
580.34	40.860
580.67	40.622
581.01	40.848
581.35	40.756
581.68	40.000
582.02	39.821
582.35	40.513
582.69	40.763
583.02	40.759
583.36	41.343
583.70	41.150
584.03	41.565
584.37	41.767
584.70	41.149
585.04	41.153
585.37	40.764
585.71	40.410
586.04	40.599
586.38	40.738
586.72	41.113
587.05	41.161
587.39	40.888
587.72	41.172
588.06	40.643
588.39	41.200
588.73	41.429
589.06	41.281
589.40	41.795
589.73	42.063
590.07	42.009
590.40	42.461
590.73	42.418
591.07	43.596
591.40	42.652
591.74	42.488
592.07	42.509
592.41	42.390
592.74	42.208
593.08	41.752
593.41	41.966
593.75	40.632
594.08	42.169
594.41	42.564
594.75	41.182
595.08	42.429
595.42	42.013
595.75	41.621
596.09	41.986
596.42	42.673
596.75	42.686
597.09	43.838
597.42	41.875
597.75	42.258
598.09	42.103
598.42	42.581
598.76	41.039
599.09	41.082
599.42	40.697
599.76	41.400
600.09	41.675
600.42	40.908
600.76	41.942
601.09	41.221
601.42	40.748
601.76	41.310
602.09	42.102
602.42	41.730
602.76	40.923
603.09	41.043
603.42	41.438
603.76	41.931
604.09	41.448
604.42	41.908
604.76	41.781
605.09	41.524
605.42	41.906
605.75	41.000
606.09	40.873
606.42	40.970
606.75	41.342
607.09	41.244
607.42	40.771
607.75	42.517
608.08	41.436
608.42	41.274
608.75	42.371
609.08	41.256
609.41	41.553
609.75	41.964
610.08	43.140
610.41	41.334
610.74	41.681
611.07	41.652
611.41	41.973
611.74	43.372
612.07	42.496
612.40	42.253
612.73	42.200
613.07	42.592
613.40	42.252
613.73	43.187
614.06	42.493
614.39	41.011
614.72	40.660
615.06	41.675
615.39	41.179
615.72	41.232
616.05	41.719
616.38	42.987
616.71	41.954
617.05	41.640
617.38	41.627
617.71	43.089
618.04	42.795
618.37	42.459
618.70	43.891
619.03	43.548
619.36	43.033
619.69	44.202
620.03	42.687
620.36	41.902
620.69	43.800
621.02	43.832
621.35	45.210
621.68	44.252
622.01	44.911
622.34	43.794
622.67	43.093
623.00	42.848
623.33	43.928
623.66	44.358
623.99	44.042
624.32	43.730
624.65	43.565
624.99	43.758
625.32	44.024
625.65	44.572
625.98	43.458
626.31	44.153
626.64	44.689
626.97	45.311
627.30	44.495
627.63	44.336
627.96	44.745
628.29	45.759
628.62	46.432
628.95	45.925
629.28	45.540
629.61	45.286
629.94	45.188
630.26	45.339
630.59	43.523
630.92	44.848
631.25	46.959
631.58	48.682
631.91	46.017
632.24	46.302
632.57	46.869
632.90	46.740
633.23	47.245
633.56	46.837
633.89	45.351
634.22	47.713
634.55	48.434
634.88	47.186
635.20	48.224
635.53	48.814
635.86	47.346
636.19	47.826
636.52	45.253
636.85	45.046
637.18	45.218
637.51	46.022
637.83	47.951
638.16	48.502
638.49	46.362
638.82	46.561
639.15	46.048
639.48	46.536
639.81	47.460
640.13	47.821
640.46	44.727
640.79	47.549
641.12	48.447
641.45	47.804
641.77	48.267
642.10	46.850
642.43	49.202
642.76	49.322
643.09	48.493
643.41	47.899
643.74	48.138
644.07	49.103
644.40	47.808
644.73	48.041
645.05	48.311
645.38	48.921
645.71	48.240
646.04	48.494
646.36	48.467
646.69	48.466
647.02	49.388
647.35	50.229
647.67	47.182
648.00	49.682
648.33	48.348
648.66	47.932
648.98	45.170
649.31	46.008
649.64	46.215
649.96	45.225
650.29	46.592
650.62	46.535
650.94	47.898
651.27	45.659
651.60	46.345
651.92	47.264
652.25	47.323
652.58	46.492
652.90	45.640
653.23	46.056
653.56	45.934
653.88	45.646
654.21	46.901
654.54	46.098
654.86	46.884
655.19	44.918
655.52	39.665
655.84	33.930
656.17	39.248
656.49	54.995
656.82	60.618
657.15	48.617
657.47	37.283
657.80	27.905
658.13	22.051
658.45	29.335
658.78	36.042
659.10	35.667
659.43	35.937
659.75	36.806
660.08	37.087
660.41	39.537
660.73	41.847
661.06	45.815
661.38	43.860
661.71	46.034
662.03	45.679
662.36	46.869
662.68	48.218
663.01	46.549
663.33	50.284
663.66	48.352
663.98	50.000
664.31	48.780
664.63	48.362
664.96	45.009
665.28	44.828
665.61	49.301
665.93	45.536
666.26	46.057
666.58	46.863
666.91	47.664
667.23	49.143
667.56	49.901
667.88	48.400
668.21	47.070
668.53	44.208
668.86	45.972
669.18	48.065
669.50	48.708
669.83	45.600
670.15	43.701
670.48	48.016
670.80	44.551
671.13	44.802
671.45	50.000
671.77	48.399
672.10	42.167
672.42	41.100
672.75	42.243
673.07	43.582
673.39	40.986
673.72	45.134
674.04	43.621
674.37	46.154
674.69	45.326
675.01	45.905
675.34	45.611
675.66	43.071
675.98	47.201
676.31	45.703
676.63	49.810
676.95	45.594
677.28	46.573
677.60	44.488
677.92	45.298
678.25	44.790
678.57	43.416
678.89	45.222
679.22	41.638
679.54	42.735
679.86	41.525
680.18	40.464
680.51	41.667
680.83	43.208
681.15	42.414
681.48	42.142
681.80	44.732
682.12	42.832
682.44	43.573
682.77	42.376
683.09	43.561
683.41	46.124
683.73	42.315
684.06	45.756
684.38	39.535
684.70	44.165
685.02	42.341
685.34	39.434
685.67	39.590
685.99	39.417
686.31	39.099
686.63	39.021
686.96	39.274
687.28	39.577
687.60	41.077
687.92	40.514
688.24	40.902
688.56	41.207
688.89	41.924
689.21	44.423
689.53	41.569
689.85	40.631
690.17	42.037
690.49	40.040
690.82	41.980
691.14	46.964
691.46	40.153
691.78	43.462
692.10	40.917
692.42	39.464
692.74	38.294
693.06	38.519
693.39	43.454
693.71	40.977
694.03	41.636
694.35	42.286
694.67	41.478
694.99	39.574
695.31	38.190
695.63	42.857
695.95	43.064
696.27	43.516
696.59	40.708
696.91	42.342
697.23	40.220
697.56	40.326
697.88	39.015
698.20	37.853
698.52	40.530
698.84	39.293
699.16	42.857
699.48	38.912
699.80	39.787
700.12	40.611
700.44	41.935
700.76	42.043
701.08	41.404
701.40	43.523
701.72	38.060
702.04	42.781
702.36	40.576
702.68	41.076
703.00	38.631
703.32	37.192
703.64	40.587
703.96	39.379
704.28	43.489
704.60	41.772
704.91	39.796
705.23	43.288
705.55	39.554
705.87	43.333
706.19	50.000
706.51	40.361
706.83	39.193
707.15	36.772
707.47	39.019
707.79	37.555
708.11	31.568
708.43	38.280
708.74	34.821
709.06	37.355
709.38	41.549
709.70	39.454
710.02	37.209
710.34	39.894
710.66	38.268
710.98	40.164
711.29	39.835
711.61	40.395
711.93	43.590
712.25	36.486
712.57	43.953
712.89	40.588
713.20	41.124
713.52	39.306
713.84	37.883
714.16	38.421
714.48	38.144
714.80	40.260
715.11	40.157
715.43	38.992
715.75	39.737
716.07	40.608
716.39	40.164
716.70	37.651
717.02	44.262
717.34	42.857
717.66	37.584
717.97	42.466
718.29	40.206
718.61	39.145
718.93	36.246
719.24	36.335
719.56	37.730
719.88	38.138
720.20	37.097
720.51	37.578
720.83	37.500
721.15	36.842
721.46	32.877
721.78	38.667
722.10	34.628
722.42	39.262
722.73	34.516
723.05	39.298
723.37	39.583
723.68	41.219
724.00	38.989
724.32	35.563
724.63	35.664
724.95	37.943
725.27	39.721
725.58	34.982
725.90	40.000
726.22	35.423
726.53	34.416
726.85	34.906
727.16	32.931
727.48	37.309
727.80	36.424
728.11	32.862
728.43	38.047
728.74	39.465
729.06	36.755
729.38	33.766
729.69	35.906
730.01	30.952
730.32	31.818
730.64	32.704
730.96	33.540
731.27	36.034
731.59	36.538
731.90	31.429
732.22	33.333
732.53	34.530
732.85	35.143
733.16	33.724
733.48	29.573
733.80	33.983
734.11	33.903
734.43	31.892
734.74	35.443
735.06	30.653
735.37	33.514
735.69	31.351
736.00	34.746
736.32	32.345
736.63	32.778
736.95	33.621
737.26	34.848
737.58	36.364
737.89	35.000
738.21	32.110
738.52	30.164
738.83	35.836
739.15	36.170
739.46	31.633
739.78	34.663
740.09	32.092
740.41	30.029
740.72	37.000
741.04	34.951
741.35	32.632
741.66	34.902
741.98	40.984
742.29	31.799
742.61	38.596
742.92	34.231
743.23	35.018
743.55	34.109
743.86	34.400
744.18	29.339
744.49	32.911
744.80	37.449
745.12	35.443
745.43	42.276
745.74	34.483
746.06	33.051
746.37	40.084
746.68	32.927
747.00	33.333
747.31	32.618
747.62	40.385
747.94	34.413
748.25	32.530
748.56	32.245
748.88	32.051
749.19	34.483
749.50	31.602
749.82	36.546
750.13	35.587
750.44	32.333
750.75	34.462
751.07	32.308
751.38	31.861
751.69	31.949
752.01	33.333
752.32	30.392
752.63	32.653
752.94	31.142
753.26	27.509
753.57	31.481
753.88	34.831
754.19	31.511
754.51	29.260
754.82	35.691
755.13	32.787
755.44	33.447
755.75	31.579
756.07	28.955
756.38	29.874
756.69	32.530
757.00	27.701
757.31	28.962
757.63	26.598
757.94	28.873
758.25	27.991
758.56	26.362
758.87	27.500
759.18	27.733
759.50	31.445
759.81	32.773
760.12	29.919
760.43	28.385
760.74	30.542
761.05	28.000
761.36	26.747
761.67	25.888
761.99	30.000
762.30	28.049
762.61	28.383
762.92	28.731
763.23	32.584
763.54	28.777
763.85	28.866
764.16	29.966
764.47	36.268
764.78	28.754
765.10	28.446
765.41	31.282
765.72	28.042
766.03	30.226
766.34	26.959
766.65	30.662
766.96	27.490
767.27	34.562
767.58	32.338
767.89	35.577
768.20	31.455
768.51	30.093
768.82	25.301
769.13	32.576
769.44	24.615
769.75	26.715
770.06	31.923
770.37	35.039
770.68	28.511
770.99	25.911
771.30	31.852
771.61	33.840
771.92	29.259
772.23	28.745
772.54	25.926
772.85	28.571
773.16	25.714
773.47	28.571
773.78	29.730
774.09	34.659
774.39	36.500
774.70	30.055
775.01	29.878
775.32	27.059
775.63	33.129
775.94	36.306
776.25	32.903
776.56	31.410
776.87	38.095
777.18	26.207
777.48	33.566
777.79	31.757
778.10	17.647
778.41	28.472
778.72	31.724
779.03	27.778
779.34	27.879
779.65	24.352
779.95	30.000
780.26	29.545
780.57	32.903
780.88	35.507
781.19	32.903
781.50	34.706
781.80	31.183
782.11	28.571
782.42	28.788
782.73	25.150
783.04	25.140
783.34	23.030
783.65	28.758
783.96	23.602
784.27	29.762
784.57	25.166
784.88	37.143
785.19	30.709
785.50	34.646
785.81	26.316
786.11	27.692
786.42	29.496
786.73	29.496
787.04	34.586
787.34	33.607
787.65	32.800
787.96	31.343
788.26	32.168
788.57	31.469
788.88	28.289
789.19	33.987
789.49	32.192
789.80	36.170
790.11	33.858
790.41	23.437
790.72	27.966
791.03	23.301
791.33	28.696
791.64	27.193
791.95	22.321
792.25	31.429
792.56	25.000
792.87	29.167
793.17	31.250
793.48	29.167
793.79	28.916
794.09	27.523
794.40	26.606
794.70	23.129
795.01	24.675
795.32	18.493
795.62	27.465
795.93	28.030
796.23	31.967
796.54	25.000
796.85	24.468
797.15	18.478
797.46	35.616
797.76	20.000
798.07	27.174
798.37	22.680
798.68	27.273
798.99	31.034
799.29	34.831
799.60	40.426
799.90	30.120
800.21	9.231
800.51	22.388
800.82	30.882
801.12	2.740
801.43	20.588
801.73	30.508
802.04	34.848
802.34	31.667
802.65	25.424
802.95	31.343
803.26	28.814
803.56	26.027
803.87	35.714
804.17	30.137
804.48	8.772
804.78	15.278
805.09	15.517
805.39	37.838
805.70	14.085
806.00	24.390
806.30	25.301
806.61	20.548
806.91	26.923
807.22	30.000
807.52	21.839
807.83	37.500
808.13	27.711
808.43	25.843
808.74	26.250
809.04	33.824
809.35	26.667
809.65	15.714
809.95	20.548
810.26	10.526
810.56	25.862
810.86	38.235
811.17	31.579
811.47	3.279
811.77	15.556
812.08	32.203
812.38	35.000
812.69	41.379
812.99	32.075
813.29	10.256
813.59	32.000
813.90	40.351
814.20	41.818
814.50	40.845
814.81	19.231
815.11	27.869
815.41	17.910
815.72	39.655
816.02	33.929
816.32	37.778
816.62	27.273
816.93	28.889
817.23	37.037
817.53	21.277
817.84	23.810
818.14	35.294
818.44	32.653
818.74	33.333
819.04	15.385
819.35	11.429
819.65	0.000
819.95	30.189
820.25	44.444
820.56	33.333
820.86	28.125
821.16	17.949
821.46	2.326
821.76	10.000
822.07	37.500
822.37	-6.522
822.67	27.660
822.97	2.703
823.27	5.000
823.57	26.531
823.88	51.111
824.18	42.500
824.48	43.333
824.78	24.000
825.08	45.455
825.38	42.222
825.69	29.787
825.99	38.889
826.29	-11.429
826.59	33.333
826.89	18.605
827.19	24.000
827.49	32.353
827.79	12.500
828.09	-2.703
828.39	-6.667
828.70	9.756
829.00	23.256
829.30	-10.714
829.60	14.706
829.90	13.043
830.20	20.000
830.50	-3.448
830.80	5.556
831.10	3.846
831.40	41.176
831.70	-4.762
832.00	54.839
832.30	-35.294
832.60	29.167
832.90	-53.846
833.20	36.842
833.50	35.000
833.80	57.895
834.10	-52.381
834.40	47.222
834.70	43.750
835.00	-2.857
835.30	41.176
835.60	10.000
835.90	4.000
836.20	-18.182
836.50	48.000
836.80	-6.061
837.10	37.037
837.40	55.556
837.70	6.250
838.00	3.571
838.30	-8.696
838.60	10.345
838.90	28.571
839.19	-21.739
839.49	-75.000
839.79	39.130
840.09	12.500
840.39	5.000
840.69	25.806
840.99	7.143
841.29	20.000
841.59	10.526
841.88	43.590
842.18	38.462
842.48	-40.000
842.78	-10.000
843.08	50.000
843.38	70.968
843.68	-33.333
843.97	11.765
844.27	31.250
844.57	-15.789
844.87	-10.000
845.17	46.667
845.47	47.619
845.76	9.524
846.06	-77.778
846.36	0.000
846.66	-7.692
846.96	-40.000
847.25	-5.882
847.55	26.087
847.85	35.000
848.15	47.059
848.44	9.091
848.74	61.905
849.04	-4.167
849.34	0.000
849.63	-8.696
849.93	100.000
850.23	13.333
850.53	7.692
850.82	36.364
851.12	81.818
851.42	72.727
851.71	53.846
852.01	-15.000
852.31	-30.769
852.61	0.000
852.90	8.333
853.20	50.000
853.50	-155.556
853.79	0.000
854.09	9.091
854.39	-50.000
854.68	12.903
854.98	-11.538
855.28	66.667
855.57	28.571
855.87	8.000
856.17	63.636
856.46	59.259
856.76	22.222
857.05	13.043
857.35	-29.167
857.65	30.769
857.94	9.524
858.24	25.926
858.53	4.348
858.83	5.882
859.13	-11.765
859.42	17.647
859.72	14.286
860.01	15.000
860.31	0.000
860.60	30.000
860.90	0.000
861.20	22.222
861.49	23.077
861.79	46.667
862.08	38.462
862.38	81.250
862.67	41.176
862.97	25.000
863.26	-55.556
863.56	10.000
863.85	-9.091
864.15	44.444
864.44	200.000
864.74	14.286
865.03	25.000
865.33	10.000
865.62	12.903
865.92	68.182
866.21	21.739
866.51	-7.143
866.80	20.000
867.10	16.667
867.39	0.000
867.69	900.000
867.98	28.571
868.27	64.706
868.57	-200.000
868.86	-80.000
869.16	-28.571
869.45	0.000
869.75	90.909
870.04	100.000
870.33	75.000
870.63	-114.286
870.92	25.000
871.22	-112.500
871.51	-18.182
871.80	-300.000
872.10	-250.000
>>>>>End Processed Spectral Data<<<<<
